Data from 20250630_urea_2M_MAYP1162681_10-32-27-388.txt Node
Date: Tue Jul 01 10:32:27 BST 2025
User: adleo
Spectrometer: MAYP116268
Trigger mode: 0
Integration Time (sec): 1.000000E0
Scans to average: 1
Electric dark correction enabled: true
Nonlinearity correction enabled: true
Boxcar width: 10
XAxis mode: Wavelengths
Number of Pixels in Spectrum: 2068
>>>>>Begin Spectral Data<<<<<
179.565	1100.82
179.642	1153.52
179.718	1193.35
179.795	1228.91
179.871	1256.74
179.948	1271.99
180.024	1290.96
180.101	1311.03
180.177	1324.32
180.254	1346.41
180.33	1366.63
180.407	1411.49
180.483	1499.8
180.56	1581.14
180.636	1657.67
180.712	1645.12
180.789	1657.19
180.865	1668.68
180.942	1675.38
181.018	1684.74
181.095	1699.76
181.171	1705.79
181.248	1705.51
181.324	1719.05
181.4	1724.47
181.477	1735.49
181.553	1749.13
181.63	1767.23
181.706	1782.2
181.782	1789.28
181.859	1787.95
181.935	1792.18
182.011	1788.81
182.088	1803.45
182.164	1821.94
182.24	1833.82
182.317	1843.99
182.393	1840.43
182.469	1852.36
182.546	1866.47
182.622	1871.41
182.698	1867.94
182.775	1877.83
182.851	1891.14
182.927	1884.58
183.003	1881.92
183.08	1879.31
183.156	1887.44
183.232	1886.44
183.308	1878.07
183.385	1884.39
183.461	1901.51
183.537	1902.55
183.613	1918.53
183.69	1909.3
183.766	1898.32
183.842	1902.45
183.918	1906.73
183.995	1918.71
184.071	1923.09
184.147	1917.81
184.223	1910.63
184.299	1919
184.375	1907.92
184.452	1913.25
184.528	1964.37
184.604	1970.74
184.68	1980.72
184.756	1987.29
184.832	1989.57
184.908	1992.37
184.985	1993.75
185.061	1976.78
185.137	1986.86
185.213	1972.69
185.289	1977.21
185.365	1970.89
185.441	1973.45
185.517	1986.72
185.593	1984.92
185.669	1981.78
185.745	1988.77
185.822	2000.79
185.898	1993.99
185.974	2002.45
186.05	1994.85
186.126	1957.23
186.202	1954.61
186.278	1951.62
186.354	1942.49
186.43	1949.15
186.506	1949.72
186.582	1949.96
186.658	1957.04
186.734	1939.26
186.81	1941.49
186.886	1941.06
186.962	1952.71
187.038	1947.58
187.114	1938.49
187.19	1945.43
187.266	1935.83
187.341	1940.25
187.417	1936.31
187.493	1936.64
187.569	1941.11
187.645	1935.98
187.721	1926.18
187.797	1933.74
187.873	1935.02
187.949	1929.6
188.025	1924.85
188.101	1924.71
188.176	1929.32
188.252	1924.47
188.328	1931.5
188.404	1931.27
188.48	1927.13
188.556	1920.14
188.632	1922.61
188.707	1925.13
188.783	1921
188.859	1918.24
188.935	1908.97
189.011	1913.67
189.086	1907.45
189.162	1894.9
189.238	1892.57
189.314	1889.05
189.39	1882.49
189.465	1878.45
189.541	1894.99
189.617	1880.68
189.693	1878.31
189.768	1879.5
189.844	1902.37
189.92	1892.25
189.996	1900.9
190.071	1915.12
190.147	1915.78
190.223	1922.39
190.298	1911.84
190.374	1899.57
190.45	1910.22
190.526	1915.02
190.601	1907.89
190.677	1911.74
190.753	1943.9
190.828	1946.51
190.904	1962.49
190.98	1978.04
191.055	1988.03
191.131	1978.56
191.207	1996.53
191.282	2005.66
191.358	1999.34
191.433	1987.44
191.509	2001.65
191.585	1998.61
191.66	1996.95
191.736	2003.51
191.811	1994.57
191.887	2011.45
191.963	2034.04
192.038	2039.6
192.114	2039.94
192.189	2046.5
192.265	2043.6
192.34	2019
192.416	2018.67
192.491	2012.58
192.567	2013.34
192.642	2013.2
192.718	2013.2
192.793	2002.88
192.869	1995.79
192.944	1996.84
193.02	2003.64
193.095	2008.54
193.171	2012.91
193.246	2011.34
193.322	2008.44
193.397	2010.63
193.473	1997.03
193.548	1980.57
193.624	1984.66
193.699	1982.9
193.775	1998.12
193.85	1997.32
193.925	2004.26
194.001	2004.88
194.076	1998.41
194.152	1989.37
194.227	1983.09
194.302	1974.73
194.378	1976.54
194.453	1974.78
194.529	1985.43
194.604	1971.31
194.679	1962.32
194.755	1946.82
194.83	1956.34
194.905	1953.58
194.981	1963.71
195.056	1957.48
195.131	1963.19
195.207	1961.28
195.282	1952.01
195.357	1932.94
195.433	1948.87
195.508	1937.31
195.583	1944.07
195.659	1958.33
195.734	1963.33
195.809	1961.76
195.884	1970.6
195.96	1972.69
196.035	1988.48
196.11	1984.67
196.185	1996.42
196.261	1999.03
196.336	2029.9
196.411	2018.48
196.486	2025.14
196.561	2017.86
196.637	2025.47
196.712	2038.17
196.787	2042.4
196.862	2057.24
196.937	2066.22
197.013	2070.65
197.088	2081.82
197.163	2102.23
197.238	2119.56
197.313	2122.32
197.388	2134.4
197.464	2160.48
197.539	2168.09
197.614	2162.57
197.689	2174.75
197.764	2187.55
197.839	2207.81
197.914	2198.2
197.989	2218.71
198.065	2231.17
198.14	2277.36
198.215	2303.53
198.29	2315.52
198.365	2328.47
198.44	2340.51
198.515	2368.16
198.59	2384.73
198.665	2408.67
198.74	2413.76
198.815	2413.05
198.89	2434.42
198.965	2465.62
199.04	2463.14
199.115	2481.18
199.19	2516.93
199.265	2521.02
199.34	2534.02
199.415	2565.37
199.49	2588.51
199.565	2597.89
199.64	2620.56
199.715	2616.5
199.79	2623.84
199.865	2629.46
199.94	2627.89
200.015	2656.66
200.09	2662.62
200.165	2666.33
200.24	2674.62
200.315	2714.91
200.39	2731.63
200.464	2734.63
200.539	2735.58
200.614	2752.45
200.689	2772.03
200.764	2781.75
200.839	2795.9
200.914	2796.75
200.989	2786.5
201.063	2797.37
201.138	2782.85
201.213	2782.61
201.288	2769.12
201.363	2772.32
201.438	2773.75
201.512	2789.65
201.587	2773.26
201.662	2775.17
201.737	2785.79
201.812	2794.09
201.886	2763.61
201.961	2774.63
202.036	2764.2
202.111	2759
202.186	2730.62
202.26	2715.8
202.335	2693.79
202.41	2690.65
202.485	2675.65
202.559	2661.4
202.634	2638.78
202.709	2644.39
202.784	2625.15
202.858	2622.39
202.933	2605.25
203.008	2600.58
203.082	2579.29
203.157	2576.86
203.232	2535.59
203.306	2517.53
203.381	2485.57
203.456	2465.19
203.53	2439.36
203.605	2418.99
203.68	2398.18
203.754	2395.76
203.829	2380.66
203.904	2362.29
203.978	2351.05
204.053	2356.96
204.127	2341.01
204.202	2338.59
204.277	2325.16
204.351	2317.98
204.426	2309.27
204.5	2301.56
204.575	2267.87
204.65	2281.63
204.724	2275.77
204.799	2286.23
204.873	2283.9
204.948	2282
205.022	2270.91
205.097	2263.72
205.171	2279.42
205.246	2286.28
205.32	2279.86
205.395	2282.19
205.469	2275.48
205.544	2279.67
205.618	2261.02
205.693	2272.29
205.767	2260.02
205.842	2278.58
205.916	2276.82
205.991	2268.59
206.065	2274.97
206.14	2289.95
206.214	2284.37
206.289	2277.66
206.363	2290.13
206.438	2288.94
206.512	2295.56
206.586	2310.88
206.661	2318.35
206.735	2298.9
206.81	2300.14
206.884	2314.55
206.958	2300.66
207.033	2315.02
207.107	2320.79
207.181	2351.54
207.256	2345.16
207.33	2362.77
207.405	2373.96
207.479	2390.53
207.553	2397.52
207.628	2380.35
207.702	2390.87
207.776	2382.92
207.851	2389.11
207.925	2401.3
207.999	2400.82
208.073	2398.44
208.148	2400.49
208.222	2389.59
208.296	2419.71
208.371	2437.05
208.445	2448.19
208.519	2475.18
208.593	2487.08
208.668	2486.08
208.742	2489.03
208.816	2492.17
208.89	2506.27
208.965	2506.37
209.039	2515.18
209.113	2535.56
209.187	2558.07
209.261	2553.59
209.336	2571.31
209.41	2591.46
209.484	2588.12
209.558	2607.89
209.632	2622.6
209.707	2635.03
209.781	2654.46
209.855	2667.85
209.929	2682.59
210.003	2686.4
210.077	2686.02
210.151	2732.51
210.226	2763.06
210.3	2785.95
210.374	2808.52
210.448	2812.57
210.522	2819.34
210.596	2827.11
210.67	2830.25
210.744	2873.01
210.818	2905.45
210.892	2926.52
210.966	2919.23
211.041	2936.39
211.115	2932.43
211.189	2953.4
211.263	2970.66
211.337	2976.66
211.411	2991.25
211.485	2984.39
211.559	2998.59
211.633	3002.59
211.707	2971.96
211.781	2978.55
211.855	2950.94
211.929	2944.32
212.003	2926.41
212.077	2941
212.151	2955.88
212.225	2968.41
212.299	2958.06
212.373	2948.72
212.447	2944.38
212.52	2975.37
212.594	2987.1
212.668	3003.88
212.742	2995.35
212.816	2993.73
212.89	2995.73
212.964	3001.6
213.038	3011.61
213.112	3031.98
213.186	3056.15
213.26	3048.38
213.333	3016.92
213.407	3031.93
213.481	3050.33
213.555	3076.68
213.629	3073.53
213.703	3073.96
213.777	3090.51
213.85	3091.27
213.924	3140.85
213.998	3161.89
214.072	3171.77
214.146	3175.88
214.219	3194.1
214.293	3212.65
214.367	3237.27
214.441	3270.63
214.515	3283.04
214.588	3289.81
214.662	3284.99
214.736	3292.72
214.81	3325.1
214.883	3363.06
214.957	3385.15
215.031	3399.41
215.105	3410.24
215.178	3430.62
215.252	3455.1
215.326	3464.32
215.4	3481.83
215.473	3470.99
215.547	3488.71
215.621	3514.46
215.694	3557.45
215.768	3578.03
215.842	3606.11
215.915	3636.78
215.989	3653.17
216.063	3685.56
216.136	3729.71
216.21	3775.56
216.284	3833.72
216.357	3883.75
216.431	3924.32
216.504	3979.43
216.578	4056.31
216.652	4117.18
216.725	4168.86
216.799	4229.45
216.873	4286.02
216.946	4353.11
217.02	4407.8
217.093	4466.02
217.167	4505.5
217.24	4551.49
217.314	4608
217.387	4664.78
217.461	4715.14
217.535	4791.35
217.608	4842.57
217.682	4901.32
217.755	4968.55
217.829	5019.86
217.902	5086.83
217.976	5161.07
218.049	5216.65
218.123	5263.48
218.196	5335.88
218.27	5395.11
218.343	5450.62
218.417	5526.57
218.49	5588.27
218.563	5672.94
218.637	5743.73
218.71	5835.44
218.784	5907.4
218.857	5985.97
218.931	6067.61
219.004	6141.16
219.077	6214.84
219.151	6294.93
219.224	6366.01
219.298	6442.58
219.371	6523.92
219.444	6584.51
219.518	6653.89
219.591	6726.49
219.665	6830.51
219.738	6902.89
219.811	6975.65
219.885	7058.77
219.958	7132.29
220.031	7202.53
220.105	7275.87
220.178	7352.15
220.251	7413.2
220.325	7499.5
220.398	7581.19
220.471	7654.6
220.544	7738.79
220.618	7807.13
220.691	7882.58
220.764	7956.97
220.838	8031.91
220.911	8102.19
220.984	8190.02
221.057	8268.92
221.131	8349.35
221.204	8395.55
221.277	8482.21
221.35	8587.17
221.424	8654.3
221.497	8732.61
221.57	8817.07
221.643	8896.4
221.716	8979.34
221.79	9050.01
221.863	9120.35
221.936	9191.22
222.009	9260.79
222.082	9338.07
222.155	9409
222.229	9495.63
222.302	9571.76
222.375	9639.18
222.448	9715.61
222.521	9788.24
222.594	9853.5
222.667	9918.66
222.74	9997.51
222.814	10068.28
222.887	10131.01
222.96	10213
223.033	10279.34
223.106	10345.29
223.179	10410.47
223.252	10473.21
223.325	10542.44
223.398	10603.92
223.471	10665.93
223.544	10742.11
223.617	10804.32
223.69	10874.38
223.763	10924.88
223.837	10994.51
223.91	11062.6
223.983	11108.09
224.056	11158.79
224.129	11225.44
224.202	11298.88
224.275	11355.22
224.348	11400.24
224.42	11447.28
224.493	11486.99
224.566	11543.62
224.639	11612.3
224.712	11670.09
224.785	11726
224.858	11782.97
224.931	11835.56
225.004	11882.94
225.077	11938.51
225.15	11968.69
225.223	12028.22
225.296	12111.56
225.369	12153.88
225.442	12210.62
225.514	12273.18
225.587	12336.71
225.66	12401.06
225.733	12455.73
225.806	12514.92
225.879	12568.33
225.952	12618.9
226.025	12694.97
226.097	12771.28
226.17	12824.74
226.243	12861.03
226.316	12916.04
226.389	12976.29
226.461	13045.61
226.534	13109.68
226.607	13163
226.68	13257.14
226.753	13308.72
226.825	13338.37
226.898	13411.06
226.971	13470.6
227.044	13535.15
227.117	13589.62
227.189	13646.36
227.262	13708.74
227.335	13765.62
227.407	13828.82
227.48	13889.37
227.553	13942.44
227.626	13985.06
227.698	14033.84
227.771	14096.9
227.844	14138.4
227.916	14195.04
227.989	14230.18
228.062	14287.26
228.134	14359.57
228.207	14395.14
228.28	14438.05
228.352	14488.9
228.425	14531.08
228.498	14579.38
228.57	14618.43
228.643	14682.49
228.716	14738.41
228.788	14784.01
228.861	14826.57
228.934	14885.72
229.006	14934.89
229.079	14976.39
229.151	15018.71
229.224	15052.6
229.296	15102.15
229.369	15185.98
229.442	15239.82
229.514	15284.02
229.587	15336.32
229.659	15353.77
229.732	15409.25
229.804	15470.32
229.877	15535.58
229.949	15598.2
230.022	15666.3
230.094	15718.7
230.167	15762.08
230.239	15794.27
230.312	15830.86
230.384	15898.87
230.457	15938.58
230.529	15979.36
230.602	16030.26
230.674	16080.82
230.747	16149.89
230.819	16212.55
230.892	16217.17
230.964	16261.8
231.037	16310.97
231.109	16352.13
231.181	16409.53
231.254	16441.92
231.326	16481.58
231.399	16513.88
231.471	16551.85
231.544	16565.35
231.616	16611.28
231.688	16656.73
231.761	16681.6
231.833	16726.04
231.905	16742.28
231.978	16779
232.05	16816.69
232.122	16857.08
232.195	16895.44
232.267	16936.6
232.339	16963.2
232.412	17018.24
232.484	17046.48
232.556	17075.45
232.629	17131.02
232.701	17171.11
232.773	17200.51
232.846	17226.34
232.918	17263.02
232.99	17289.57
233.062	17330.3
233.135	17356.03
233.207	17365.86
233.279	17409.91
233.351	17439.89
233.424	17463.55
233.496	17478.78
233.568	17523.5
233.64	17529.19
233.713	17545.29
233.785	17566.15
233.857	17589.28
233.929	17602.63
234.001	17644.95
234.074	17678.87
234.146	17672.99
234.218	17685.19
234.29	17703.6
234.362	17714.92
234.434	17717.57
234.507	17725.86
234.579	17722.2
234.651	17735.07
234.723	17766.44
234.795	17781.47
234.867	17787.55
234.939	17811.55
235.012	17837.33
235.084	17849.14
235.156	17866.24
235.228	17875.25
235.3	17877.28
235.372	17890.63
235.444	17910.68
235.516	17896.12
235.588	17909.86
235.66	17918
235.732	17923.74
235.804	17986.09
235.876	18007.44
235.948	18045.03
236.02	18057.51
236.092	18070.91
236.164	18077.66
236.236	18076.55
236.308	18072.16
236.38	18091.05
236.452	18089.8
236.524	18098.91
236.596	18118.43
236.668	18137.27
236.74	18144.4
236.812	18150.95
236.884	18169.07
236.956	18170.04
237.028	18165.07
237.1	18156.21
237.172	18184.25
237.244	18206.9
237.316	18177.36
237.388	18167.34
237.46	18149.94
237.532	18155.58
237.604	18152.3
237.675	18171.77
237.747	18183.05
237.819	18183.87
237.891	18180.93
237.963	18180.45
238.035	18166.18
238.107	18131.25
238.178	18138.91
238.25	18127.78
238.322	18146.52
238.394	18115.1
238.466	18098.09
238.538	18100.5
238.609	18101.27
238.681	18071.49
238.753	18051.06
238.825	18032.21
238.897	18034.86
238.968	18047.63
239.04	18025.61
239.112	18046.53
239.184	18016.12
239.255	18000.6
239.327	17989.61
239.399	17976.26
239.471	17968.6
239.542	17965.08
239.614	17965.76
239.686	17925.66
239.758	17921.86
239.829	17888.75
239.901	17887.4
239.973	17876.94
240.044	17866.15
240.116	17855.69
240.188	17834.63
240.259	17814.87
240.331	17797.96
240.403	17780.41
240.474	17739.74
240.546	17727.11
240.618	17686.78
240.689	17668.75
240.761	17640.08
240.833	17642.25
240.904	17620.37
240.976	17599.6
241.048	17580.85
241.119	17571.12
241.191	17559.31
241.262	17559.36
241.334	17536.32
241.405	17510.73
241.477	17493.91
241.549	17477.72
241.62	17452.76
241.692	17437.09
241.763	17430.3
241.835	17411.12
241.906	17389.43
241.978	17361.14
242.049	17348.51
242.121	17344.56
242.192	17345.53
242.264	17317.67
242.335	17276.66
242.407	17258.49
242.478	17230.58
242.55	17209.33
242.621	17179.21
242.693	17154.87
242.764	17120.27
242.836	17098.1
242.907	17080.56
242.979	17058.82
243.05	17039.35
243.122	17030.87
243.193	17004.46
243.264	16965.95
243.336	16945.81
243.407	16937.04
243.479	16925.76
243.55	16912.46
243.622	16878.86
243.693	16848.65
243.764	16843.3
243.836	16816.89
243.907	16793.13
243.978	16769.56
244.05	16749.7
244.121	16698.95
244.192	16681.36
244.264	16641.4
244.335	16625.74
244.407	16584.53
244.478	16567.23
244.549	16530.21
244.62	16486.5
244.692	16459.12
244.763	16442.01
244.834	16404.76
244.906	16365.14
244.977	16346.2
245.048	16322.87
245.119	16291.5
245.191	16253.52
245.262	16206.86
245.333	16194.76
245.405	16169.85
245.476	16142.9
245.547	16114.61
245.618	16110.08
245.689	16081.55
245.761	16059.28
245.832	16020.72
245.903	16010.21
245.974	15980.47
246.045	15950.11
246.117	15938.15
246.188	15902.44
246.259	15863.4
246.33	15844.45
246.401	15819.15
246.473	15775.82
246.544	15740.78
246.615	15723.86
246.686	15688.53
246.757	15676.33
246.828	15639.03
246.899	15622.2
246.97	15589.81
247.042	15558.77
247.113	15545.37
247.184	15541.37
247.255	15511.39
247.326	15484.35
247.397	15441.16
247.468	15413.54
247.539	15387.32
247.61	15341.77
247.681	15332.56
247.752	15312.46
247.823	15267.63
247.894	15240.88
247.965	15198.03
248.037	15164.72
248.108	15121.34
248.179	15097.77
248.25	15065.47
248.321	15042
248.392	15001.22
248.463	14985.36
248.534	14960.58
248.605	14936.14
248.675	14898.98
248.746	14875.7
248.817	14855.21
248.888	14843.69
248.959	14803.92
249.03	14786.66
249.101	14768.92
249.172	14724.53
249.243	14670.49
249.314	14659.74
249.385	14633.81
249.456	14622.82
249.527	14590.9
249.598	14564.49
249.669	14534.75
249.739	14513.34
249.81	14489.43
249.881	14446.58
249.952	14421.46
250.023	14387.53
250.094	14338.07
250.165	14304.04
250.235	14276.46
250.306	14254.63
250.377	14215.43
250.448	14191.62
250.519	14145.63
250.59	14122.73
250.66	14104.61
250.731	14102.15
250.802	14073.9
250.873	14044.74
250.944	14015.96
251.014	13989.88
251.085	13991.08
251.156	13970.89
251.227	13952.76
251.297	13938.3
251.368	13932.85
251.439	13919.4
251.51	13906.82
251.58	13877.46
251.651	13848.59
251.722	13832.97
251.792	13792.62
251.863	13771.02
251.934	13761
252.005	13767.02
252.075	13749.38
252.146	13735.98
252.217	13714.86
252.287	13706.52
252.358	13683.09
252.429	13676.59
252.499	13649.16
252.57	13628.48
252.641	13623.27
252.711	13595.41
252.782	13559.54
252.852	13547.58
252.923	13515.96
252.994	13491.42
253.064	13474.7
253.135	13447.75
253.205	13412.51
253.276	13401.08
253.347	13384.74
253.417	13355.58
253.488	13325.06
253.558	13298.79
253.629	13273.43
253.699	13260.85
253.77	13242.68
253.841	13223.73
253.911	13201.94
253.982	13183.48
254.052	13166.22
254.123	13139.18
254.193	13122.84
254.264	13132.38
254.334	13103.12
254.405	13070.58
254.475	13043.59
254.546	13022.47
254.616	13008.2
254.687	13000.92
254.757	12988.78
254.827	12963.95
254.898	12941.92
254.968	12911.79
255.039	12876.7
255.109	12854.14
255.18	12823.29
255.25	12776.19
255.321	12754.4
255.391	12718.39
255.461	12717.67
255.532	12668.55
255.602	12642.85
255.673	12597.44
255.743	12560.04
255.813	12512.6
255.884	12507.01
255.954	12489.22
256.024	12485.32
256.095	12461.7
256.165	12423.47
256.235	12396.86
256.306	12371.99
256.376	12366.35
256.446	12363.75
256.517	12351.84
256.587	12350.06
256.657	12333.52
256.728	12312.99
256.798	12293.18
256.868	12267.05
256.938	12230.42
257.009	12217.84
257.079	12209.21
257.149	12219.67
257.219	12189.11
257.29	12182.02
257.36	12143.61
257.43	12126.98
257.5	12084.27
257.571	12060.41
257.641	12054.14
257.711	12029.75
257.781	12021.7
257.852	11997.55
257.922	11951.81
257.992	11931.9
258.062	11902.31
258.132	11888.23
258.202	11871.6
258.273	11852.47
258.343	11852.32
258.413	11830.2
258.483	11810.05
258.553	11777.28
258.623	11745.18
258.693	11732.35
258.764	11723.2
258.834	11716.79
258.904	11706.23
258.974	11683.92
259.044	11662.47
259.114	11648.39
259.184	11630.95
259.254	11604.82
259.324	11567.04
259.394	11560
259.464	11558.12
259.535	11535.76
259.605	11507.22
259.675	11477.3
259.745	11463.08
259.815	11435.99
259.885	11410.88
259.955	11422.79
260.025	11392.81
260.095	11371.17
260.165	11357.63
260.235	11348.95
260.305	11330.69
260.375	11292.95
260.445	11293.24
260.515	11289.05
260.585	11281.19
260.655	11260.08
260.725	11260.66
260.795	11257.43
260.865	11255.89
260.934	11220.85
261.004	11213.77
261.074	11203.31
261.144	11207.36
261.214	11205.24
261.284	11185.86
261.354	11176.8
261.424	11145.76
261.494	11148.17
261.564	11140.99
261.634	11126.39
261.703	11099.84
261.773	11086.82
261.843	11083.55
261.913	11069.72
261.983	11041.57
262.053	11028.23
262.123	11017.05
262.192	10980.33
262.262	10971.41
262.332	10944.38
262.402	10941.58
262.472	10927.8
262.541	10892.77
262.611	10888.38
262.681	10854.12
262.751	10846.41
262.821	10830.7
262.89	10806.37
262.96	10794.56
263.03	10793.55
263.1	10776.2
263.169	10760.3
263.239	10748.59
263.309	10742.9
263.379	10730.9
263.448	10713.46
263.518	10695.25
263.588	10676.31
263.657	10679.4
263.727	10672.55
263.797	10654.48
263.867	10634.49
263.936	10599.36
264.006	10594.74
264.076	10574.26
264.145	10556.48
264.215	10535.91
264.285	10524.97
264.354	10494.57
264.424	10471.39
264.494	10440.84
264.563	10427.88
264.633	10432.51
264.702	10416.51
264.772	10388.66
264.842	10366.5
264.911	10363.85
264.981	10337.01
265.05	10319.77
265.12	10297.22
265.19	10274.09
265.259	10265.85
265.329	10257.04
265.398	10243.79
265.468	10251.55
265.537	10228.04
265.607	10221.73
265.676	10218.74
265.746	10210.26
265.815	10205.15
265.885	10198.94
265.955	10175.19
266.024	10152.11
266.094	10111.6
266.163	10106.35
266.232	10112.27
266.302	10097
266.371	10079.9
266.441	10065.36
266.51	10065.16
266.58	10048.5
266.649	10036.4
266.719	10034.14
266.788	10019.54
266.858	10026.14
266.927	9993.43
266.996	9980.86
267.066	9966.46
267.135	9937.32
267.205	9934.81
267.274	9921.81
267.343	9916.99
267.413	9900.66
267.482	9898.16
267.552	9904.71
267.621	9878.89
267.69	9839.35
267.76	9833.08
267.829	9824.27
267.898	9808.42
267.968	9787.04
268.037	9784.1
268.106	9778.99
268.176	9751.64
268.245	9742.97
268.314	9725.77
268.384	9729.91
268.453	9721.05
268.522	9716.91
268.592	9718.98
268.661	9695.62
268.73	9687.19
268.799	9655.64
268.869	9669.13
268.938	9641.73
269.007	9625.01
269.076	9614.56
269.146	9620.49
269.215	9602.24
269.284	9605.17
269.353	9594.82
269.422	9579.17
269.492	9566.26
269.561	9527.64
269.63	9521.38
269.699	9499.9
269.768	9493.21
269.838	9483.29
269.907	9480.25
269.976	9456.99
270.045	9428.58
270.114	9424.87
270.183	9406.62
270.253	9410.72
270.322	9376.38
270.391	9363.19
270.46	9367.19
270.529	9363.05
270.598	9357.65
270.667	9354.52
270.736	9332.32
270.806	9328.86
270.875	9330.78
270.944	9317.68
271.013	9338.77
271.082	9334.3
271.151	9331.41
271.22	9300.21
271.289	9284.08
271.358	9267.66
271.427	9258.99
271.496	9245.61
271.565	9224.28
271.634	9220.23
271.703	9236.37
271.772	9241.81
271.841	9238.24
271.91	9204.4
271.979	9196.98
272.048	9175.22
272.117	9174.93
272.186	9158.46
272.255	9153.65
272.324	9149.75
272.393	9141.27
272.462	9125.33
272.531	9113.73
272.6	9101.98
272.669	9107.62
272.738	9093.12
272.807	9084.89
272.876	9069.15
272.945	9091.25
273.013	9097.99
273.082	9102.66
273.151	9063.56
273.22	9059.8
273.289	9049.21
273.358	9065.15
273.427	9049.41
273.496	9045.75
273.564	9033.95
273.633	9038.28
273.702	9019.41
273.771	9009.54
273.84	9001.5
273.909	8996.11
273.977	8991.25
274.046	8981.09
274.115	8983.45
274.184	8968.29
274.253	8964.87
274.322	8975.12
274.39	8947.69
274.459	8933.82
274.528	8905.23
274.597	8895.75
274.665	8886.31
274.734	8892.13
274.803	8875.04
274.872	8870.18
274.94	8857.28
275.009	8915.8
275.078	8894.76
275.147	8892.88
275.215	8885.47
275.284	8893.17
275.353	8883.64
275.421	8860.44
275.49	8871.85
275.559	8857.7
275.627	8849.28
275.696	8844.22
275.765	8841.33
275.833	8837
275.902	8833.3
275.971	8842.92
276.039	8856.5
276.108	8857.94
276.177	8856.4
276.245	8848.02
276.314	8843.26
276.383	8850.34
276.451	8784.65
276.52	8795.77
276.588	8805.83
276.657	8805.63
276.725	8792.54
276.794	8788.35
276.863	8803.66
276.931	8782
277	8792.44
277.068	8803.08
277.137	8811.17
277.205	8806.21
277.274	8819.68
277.342	8828.88
277.411	8811.94
277.48	8795.81
277.548	8787.05
277.617	8785.61
277.685	8780.8
277.754	8789.46
277.822	8779.59
277.89	8789.89
277.959	8779.74
278.027	8760.73
278.096	8754.76
278.164	8784.56
278.233	8775.22
278.301	8763.72
278.37	8768.19
278.438	8754.62
278.507	8757.99
278.575	8735.32
278.643	8728.58
278.712	8715.3
278.78	8700.81
278.849	8713.46
278.917	8723.43
278.985	8715.49
279.054	8717.41
279.122	8724.97
279.191	8717.12
279.259	8711.06
279.327	8692.77
279.396	8709.13
279.464	8708.84
279.532	8712.69
279.601	8703.69
279.669	8703.83
279.737	8714.13
279.806	8714.42
279.874	8723.09
279.942	8718.8
280.011	8709.61
280.079	8719.58
280.147	8728.77
280.215	8734.35
280.284	8727.33
280.352	8711.01
280.42	8713.42
280.488	8702.73
280.557	8697.87
280.625	8698.98
280.693	8700.8
280.761	8701.48
280.83	8677.22
280.898	8685.11
280.966	8666.87
281.034	8633.33
281.102	8616.82
281.171	8608.25
281.239	8610.08
281.307	8603.25
281.375	8590.69
281.443	8625.58
281.512	8621.01
281.58	8629.53
281.648	8611
281.716	8613.98
281.784	8613.45
281.852	8613.4
281.92	8613.31
281.989	8618.36
282.057	8601.9
282.125	8642.63
282.193	8642.49
282.261	8649.66
282.329	8645.18
282.397	8650.43
282.465	8657.45
282.533	8672.51
282.601	8662.12
282.67	8646.28
282.738	8635.75
282.806	8650.76
282.874	8631.36
282.942	8636.32
283.01	8630.54
283.078	8632.76
283.146	8622.7
283.214	8632.37
283.282	8635.4
283.35	8651.14
283.418	8647.73
283.486	8651.87
283.554	8609.12
283.622	8603.97
283.69	8603.01
283.758	8596.75
283.826	8598.39
283.894	8604.5
283.962	8622.88
284.03	8634.87
284.098	8642.09
284.165	8632.22
284.233	8628.66
284.301	8623.66
284.369	8603.63
284.437	8595.74
284.505	8589.97
284.573	8607.77
284.641	8597.81
284.709	8599.49
284.777	8575.29
284.845	8579.71
284.912	8588.09
284.98	8593.14
285.048	8586.4
285.116	8591.7
285.184	8604.11
285.252	8606.95
285.319	8593.24
285.387	8585.34
285.455	8569.17
285.523	8571.73
285.591	8578.08
285.659	8574.18
285.726	8586.55
285.794	8583.27
285.862	8572.98
285.93	8575.67
285.997	8568.16
286.065	8560.51
286.133	8554.4
286.201	8552.91
286.269	8540.2
286.336	8532.21
286.404	8521.67
286.472	8533.22
286.539	8511.86
286.607	8498.67
286.675	8490.83
286.743	8494
286.81	8482.84
286.878	8500.02
286.946	8488.47
287.013	8481.4
287.081	8483.61
287.149	8462.63
287.216	8475.86
287.284	8477.64
287.352	8479.04
287.419	8475.52
287.487	8491.93
287.555	8491.45
287.622	8492.75
287.69	8499.83
287.758	8510.94
287.825	8513.25
287.893	8503.96
287.96	8510.32
288.028	8515.85
288.096	8523.98
288.163	8532.31
288.231	8522.73
288.298	8525.04
288.366	8544.39
288.433	8546.7
288.501	8538.71
288.569	8546.36
288.636	8538.71
288.704	8548.19
288.771	8556.8
288.839	8549.3
288.906	8543.23
288.974	8551.94
289.041	8546.94
289.109	8536.02
289.176	8540.64
289.244	8541.07
289.311	8547.85
289.379	8557.38
289.446	8561.91
289.514	8560.9
289.581	8558.01
289.649	8563.06
289.716	8560.03
289.783	8545.83
289.851	8561.47
289.918	8563.59
289.986	8573.79
290.053	8580.53
290.121	8577.35
290.188	8569.89
290.255	8595.98
290.323	8590.49
290.39	8588.04
290.458	8598.05
290.525	8610.65
290.592	8598.57
290.66	8599.92
290.727	8596.26
290.794	8605.17
290.862	8607.57
290.929	8609.79
290.996	8611.95
291.064	8619.94
291.131	8630.92
291.198	8644.01
291.266	8649.16
291.333	8646.7
291.4	8650.6
291.468	8670.82
291.535	8671.06
291.602	8679
291.669	8677.99
291.737	8684.73
291.804	8685.59
291.871	8703.06
291.938	8710.62
292.006	8743.93
292.073	8758.75
292.14	8768.62
292.207	8764.91
292.275	8764.39
292.342	8775.12
292.409	8798.13
292.476	8824.56
292.543	8818.54
292.611	8819.65
292.678	8829.32
292.745	8858.39
292.812	8872.4
292.879	8865.81
292.946	8867.25
293.014	8884.53
293.081	8886.65
293.148	8896.08
293.215	8913.65
293.282	8906.91
293.349	8916.35
293.416	8895.36
293.484	8906.77
293.551	8917.12
293.618	8931.85
293.685	8953.85
293.752	8948.17
293.819	8945.85
293.886	8930.83
293.953	8938.05
294.02	8949.37
294.087	8959.33
294.154	8957.41
294.221	8968
294.288	8965.06
294.356	8989.57
294.423	8996.35
294.49	8986.44
294.557	9006.95
294.624	8993.71
294.691	9010.84
294.758	9015.95
294.825	9028.13
294.892	9026.39
294.959	9033.47
295.026	9042.52
295.093	9035.54
295.16	9034.48
295.226	9029.14
295.293	9054.99
295.36	9054.61
295.427	9065.97
295.494	9076.85
295.561	9083.06
295.628	9103.43
295.695	9126.3
295.762	9124.52
295.829	9127.65
295.896	9146.57
295.963	9147.05
296.03	9160.29
296.096	9169.73
296.163	9176.08
296.23	9190
296.297	9202.37
296.364	9194.47
296.431	9199.96
296.498	9200.64
296.564	9222.64
296.631	9228.65
296.698	9210.12
296.765	9230.29
296.832	9222.01
296.899	9207.61
296.965	9218.88
297.032	9198.41
297.099	9215.17
297.166	9227.69
297.233	9226.05
297.299	9214.26
297.366	9222.78
297.433	9223.74
297.5	9226.78
297.566	9224.85
297.633	9225.53
297.7	9225.72
297.767	9224.03
297.833	9230.68
297.9	9228.94
297.967	9222.25
298.033	9240.26
298.1	9270.16
298.167	9259.23
298.234	9265.01
298.3	9273.44
298.367	9271.85
298.434	9283.02
298.5	9264.48
298.567	9256.87
298.634	9259.66
298.7	9282.58
298.767	9278.1
298.834	9291.06
298.9	9284.31
298.967	9277.57
299.033	9286.87
299.1	9298.95
299.167	9321.05
299.233	9314.89
299.3	9332.22
299.366	9346.43
299.433	9363.14
299.5	9340.8
299.566	9352.11
299.633	9365.21
299.699	9376.57
299.766	9376.67
299.832	9376.72
299.899	9387.84
299.965	9401.47
300.032	9398.43
300.099	9407.34
300.165	9419.09
300.232	9413.46
300.298	9418.9
300.365	9441.58
300.431	9442.78
300.498	9436.28
300.564	9440.81
300.631	9452.61
300.697	9465.9
300.763	9464.5
300.83	9457.95
300.896	9472.25
300.963	9479.72
301.029	9484.97
301.096	9489.98
301.162	9495.51
301.229	9488.34
301.295	9481.93
301.361	9480.3
301.428	9479.38
301.494	9464.02
301.561	9462.72
301.627	9471.24
301.693	9471.05
301.76	9466.28
301.826	9464.16
301.892	9476.88
301.959	9483.23
302.025	9483.09
302.092	9475.24
302.158	9481.6
302.224	9484.25
302.291	9475.14
302.357	9472.54
302.423	9461.85
302.49	9453.38
302.556	9466.86
302.622	9476.73
302.688	9491.61
302.755	9502.84
302.821	9513.43
302.887	9524.65
302.954	9520.94
303.02	9521.13
303.086	9527.1
303.152	9524.6
303.219	9520.94
303.285	9525.8
303.351	9532.5
303.417	9532.11
303.483	9526.19
303.55	9526.24
303.616	9520.89
303.682	9516.7
303.748	9509.24
303.815	9528.36
303.881	9533.7
303.947	9522.77
304.013	9514.2
304.079	9500.19
304.145	9481.12
304.212	9482.46
304.278	9468.5
304.344	9461.37
304.41	9450.44
304.476	9438.79
304.542	9440.67
304.608	9443.36
304.674	9424.2
304.741	9410.95
304.807	9410.52
304.873	9415
304.939	9419.72
305.005	9400.79
305.071	9402.24
305.137	9402.19
305.203	9373.58
305.269	9372.91
305.335	9379.36
305.401	9383.17
305.467	9386.59
305.533	9397.76
305.599	9407.25
305.666	9421.06
305.732	9424.48
305.798	9439.8
305.864	9463.78
305.93	9466.28
305.996	9465.37
306.062	9465.61
306.128	9462.86
306.194	9452.66
306.259	9449.43
306.325	9442.93
306.391	9457.61
306.457	9464.26
306.523	9469.32
306.589	9492.96
306.655	9479.91
306.721	9462.77
306.787	9447.89
306.853	9454.68
306.919	9436.67
306.985	9422.94
307.051	9414.47
307.117	9410.81
307.183	9406.62
307.248	9380.9
307.314	9376.86
307.38	9375.08
307.446	9379.12
307.512	9372.67
307.578	9373.63
307.644	9371.61
307.709	9367.47
307.775	9363.33
307.841	9355.72
307.907	9351.19
307.973	9333.09
308.039	9341.03
308.104	9345.9
308.17	9350.32
308.236	9334.87
308.302	9343.49
308.368	9335.83
308.433	9337.71
308.499	9330.97
308.565	9317.1
308.631	9323.84
308.696	9302.03
308.762	9292.54
308.828	9289.46
308.894	9272.75
308.959	9256.48
309.025	9243.96
309.091	9240.06
309.156	9233.22
309.222	9240.69
309.288	9232.84
309.354	9207.9
309.419	9202.41
309.485	9189.51
309.551	9190.23
309.616	9178.53
309.682	9171.4
309.748	9169.05
309.813	9160.52
309.879	9150.89
309.945	9141.55
310.01	9130.34
310.076	9137.85
310.141	9132.26
310.207	9123.4
310.273	9128.22
310.338	9130.77
310.404	9113.44
310.469	9106.12
310.535	9092.49
310.601	9067.17
310.666	9074.87
310.732	9090.76
310.797	9075.4
310.863	9067.36
310.928	9056
310.994	9056.96
311.059	9049.21
311.125	9036.84
311.191	9046.9
311.256	9038.28
311.322	9043.87
311.387	9026.06
311.453	9428.91
311.518	9405.71
311.584	9400.37
311.649	9395.7
311.715	9381.21
311.78	9387.03
311.846	9373.7
311.911	9379.24
311.976	9377.26
312.042	9356.08
312.107	9341.4
312.173	9336.49
312.238	9328.98
312.304	9325.94
312.369	9312.37
312.434	9306.5
312.5	9302.07
312.565	9265.24
312.631	9268.8
312.696	9255.8
312.761	9256.96
312.827	8844.04
312.892	8879.71
312.958	8872.88
313.023	8877.36
313.088	8882.41
313.154	8871.05
313.219	8863.2
313.284	8853.58
313.35	8853.1
313.415	8842.27
313.48	8836.97
313.546	8835.67
313.611	8843.61
313.676	8833.12
313.741	8832.49
313.807	8837.89
313.872	8844.87
313.937	8860.65
314.003	8872.78
314.068	8874.76
314.133	8883.76
314.198	8868.12
314.264	8844.91
314.329	8833.94
314.394	8824.16
314.459	8819.78
314.525	8835.96
314.59	8834.32
314.655	8816.7
314.72	8822.96
314.785	8827.49
314.851	8823.3
314.916	8809.97
314.981	8799.38
315.046	8796.58
315.111	8782.15
315.176	8767.08
315.242	8764.29
315.307	8751.77
315.372	8732.57
315.437	8724
315.502	8710.95
315.567	8722.7
315.632	8712.35
315.698	8715.24
315.763	8708.16
315.828	8701.66
315.893	8697.86
315.958	8694.11
316.023	8693.05
316.088	8672.3
316.153	8650.31
316.218	8643.43
316.283	8619.9
316.348	8596.66
316.413	8587.57
316.479	8575.1
316.544	8545.32
316.609	8514.33
316.674	8485.22
316.739	8445.81
316.804	8411.41
316.869	8376.19
316.934	8333.8
316.999	8297.04
317.064	8249.27
317.129	8205.68
317.194	8162.67
317.259	8112.68
317.324	8063.72
317.389	8021.43
317.454	7982.76
317.518	7950.15
317.583	7923.78
317.648	7906.71
317.713	7873
317.778	7816.34
317.843	7785.95
317.908	7741.81
317.973	7705.74
318.038	7676.79
318.103	7635.6
318.168	7603.62
318.233	7575.06
318.297	7527.76
318.362	7492.66
318.427	7449.5
318.492	7426.72
318.557	7380.96
318.622	7350.68
318.687	7326.65
318.751	7281.86
318.816	7244.42
318.881	7208.9
318.946	7148.44
319.011	7097.55
319.075	7055.99
319.14	7018.09
319.205	6970.9
319.27	6940.93
319.335	6896.15
319.399	6848.98
319.464	6823.67
319.529	6770.98
319.594	6727.07
319.658	6701.86
319.723	6661.13
319.788	6636.74
319.853	6583.28
319.917	6550.21
319.982	6498.54
320.047	6454.31
320.112	6425.61
320.176	6378.13
320.241	6344.52
320.306	6319.9
320.37	6282.03
320.435	6249.44
320.5	6221.31
320.564	6180.33
320.629	6136.57
320.694	6105.96
320.758	6068.01
320.823	6024.25
320.888	5996.57
320.952	5952.77
321.017	5907.87
321.082	5865.85
321.146	5825.41
321.211	5790.83
321.275	5754.2
321.34	5706.45
321.405	5665.4
321.469	5620.86
321.534	5582.94
321.598	5528.72
321.663	5492.57
321.727	5456.14
321.792	5409.45
321.857	5367.79
321.921	5331.13
321.986	5293.86
322.05	5237.22
322.115	5199.32
322.179	5156.07
322.244	5101.8
322.308	5062
322.373	5016.69
322.437	4978.9
322.502	4956.43
322.566	4911.22
322.631	4872.06
322.695	4838.84
322.76	4791.74
322.824	4755.31
322.889	4709.7
322.953	4667.78
323.018	4605.56
323.082	4543.56
323.146	4494.29
323.211	4442.09
323.275	4397.02
323.34	4348.67
323.404	4310.99
323.468	4267.08
323.533	4225.91
323.597	4182.46
323.662	4135.37
323.726	4102.95
323.79	4057.01
323.855	3987.71
323.919	3939.78
323.983	3899.2
324.048	3834.67
324.112	3933.76
324.177	3806.49
324.241	3607.76
324.305	3412.09
324.37	3218.76
324.434	3038.05
324.498	2993
324.562	2941.9
324.627	2882.67
324.691	2828.86
324.755	2764.56
324.82	2686.81
324.884	2606.98
324.948	2533.07
325.012	2438.16
325.077	2308.85
