Data from 24HourExp_27052025_FLMS018081_04-48-20-235.txt Node
Date: Wed May 28 04:48:20 BST 2025
User: adleo
Spectrometer: FLMS01808
Trigger mode: 0
Integration Time (sec): 4.000000E-1
Scans to average: 10
Electric dark correction enabled: true
Nonlinearity correction enabled: true
Boxcar width: 10
XAxis mode: Wavelengths
Number of Pixels in Spectrum: 2048
>>>>>Begin Spectral Data<<<<<
178.471	-127.17
178.857	-119.79
179.244	-112.53
179.631	-103.31
180.017	-96.02
180.404	-89.15
180.79	-78.8
181.176	-68.74
181.563	-59.62
181.949	-48.81
182.335	-38.43
182.722	-22.59
183.108	-2.91
183.494	23.11
183.88	77.15
184.266	129.92
184.653	187.16
185.039	241.98
185.425	298.88
185.811	353.03
186.197	405.54
186.582	455.36
186.968	507.25
187.354	559.09
187.74	608.96
188.126	658.51
188.511	708.18
188.897	755.85
189.283	802.85
189.668	848.41
190.054	891.51
190.439	936.94
190.825	980.7
191.21	1020.65
191.596	1054.91
191.981	1061.45
192.366	1065.26
192.752	1066.84
193.137	1070.31
193.522	1070.38
193.908	1072.52
194.293	1075.52
194.678	1079.17
195.063	1080.22
195.448	1081.76
195.833	1081.1
196.218	1081.89
196.603	1083.07
196.988	1083.67
197.373	1083.67
197.757	1084.82
198.142	1085.62
198.527	1082.12
198.912	1082.22
199.296	1083.59
199.681	1082.1
200.066	1079.83
200.45	1080.23
200.835	1079.75
201.219	1078.71
201.604	1078.64
201.988	1079.43
202.372	1078.97
202.757	1078.85
203.141	1080.69
203.525	1081.84
203.91	1083.34
204.294	1085.22
204.678	1085.98
205.062	1084.83
205.446	1084.64
205.83	1086.14
206.214	1087.18
206.598	1089.67
206.982	1090
207.366	1089.95
207.75	1091.1
208.134	1093.45
208.517	1094.98
208.901	1096.79
209.285	1098.46
209.669	1100.56
210.052	1100.33
210.436	1100.83
210.819	1100.52
211.203	1101.53
211.586	1101.63
211.97	1103.81
212.353	1104.07
212.737	1104.63
213.12	1108.26
213.503	1110.84
213.886	1110.2
214.27	1111.36
214.653	1112.19
215.036	1113.14
215.419	1113.63
215.802	1115.73
216.185	1119.37
216.568	1122.88
216.951	1124.99
217.334	1126.81
217.717	1128.56
218.1	1132.26
218.482	1136.36
218.865	1140.41
219.248	1143.6
219.631	1147.78
220.013	1151.44
220.396	1157.22
220.778	1161.5
221.161	1165.09
221.544	1170.56
221.926	1178.72
222.308	1186.15
222.691	1194.1
223.073	1204.26
223.455	1213.44
223.838	1222.11
224.22	1229.04
224.602	1238.89
224.984	1249.01
225.366	1261.51
225.749	1276.82
226.131	1289.48
226.513	1302.82
226.895	1317.99
227.276	1332.28
227.658	1347
228.04	1362.18
228.422	1379.21
228.804	1397.82
229.186	1413.46
229.567	1431.65
229.949	1447.68
230.331	1464.72
230.712	1483.31
231.094	1500.22
231.475	1519.58
231.857	1539.09
232.238	1559.84
232.62	1577.94
233.001	1597.96
233.382	1618.4
233.763	1637.01
234.145	1657.16
234.526	1676.74
234.907	1694.52
235.288	1714.05
235.669	1733.96
236.05	1754.11
236.431	1770.66
236.812	1787.92
237.193	1810.29
237.574	1830.56
237.955	1853.84
238.336	1876.07
238.717	1896.61
239.097	1919.32
239.478	1939.97
239.859	1962.88
240.239	1987.04
240.62	2009.57
241.001	2033.6
241.381	2056.26
241.762	2078.14
242.142	2100.9
242.522	2124.03
242.903	2150.13
243.283	2176.34
243.663	2202.09
244.044	2228.41
244.424	2260.42
244.804	2289.68
245.184	2317.43
245.564	2345.75
245.944	2376.36
246.324	2406.07
246.704	2437.08
247.084	2466.73
247.464	2498.21
247.844	2529.29
248.224	2560.74
248.604	2592.95
248.983	2621.42
249.363	2654.33
249.743	2686.94
250.122	2718.58
250.502	2751.18
250.882	2782.72
251.261	2813.9
251.641	2845.87
252.02	2878.14
252.399	2911.51
252.779	2947.22
253.158	2984.67
253.537	3022.3
253.917	3063.94
254.296	3101.75
254.675	3142.22
255.054	3181.68
255.433	3224.22
255.812	3263.26
256.191	3303.46
256.57	3345.14
256.949	3389.83
257.328	3432.75
257.707	3477.59
258.086	3523.63
258.465	3571.13
258.843	3618.14
259.222	3668.16
259.601	3721.17
259.979	3774.56
260.358	3827.64
260.736	3879.61
261.115	3934.89
261.493	3989.62
261.872	4038.71
262.25	4096.87
262.629	4153.21
263.007	4212.26
263.385	4269.62
263.763	4331.81
264.142	4397.3
264.52	4462.09
264.898	4528.46
265.276	4594.26
265.654	4663.67
266.032	4733.1
266.41	4801.62
266.788	4874.55
267.166	4950.7
267.544	5026.38
267.921	5107.26
268.299	5183.29
268.677	5265.85
269.055	5349.42
269.432	5433.2
269.81	5521.04
270.188	5604.95
270.565	5693.48
270.943	5784.94
271.32	5876.3
271.697	5969.01
272.075	6059.88
272.452	6155.52
272.829	6253.5
273.207	6355.1
273.584	6458.61
273.961	6561.2
274.338	6674.53
274.715	6790.07
275.092	6910.12
275.469	7029.94
275.846	7150.46
276.223	7273.77
276.6	7395.92
276.977	7516.7
277.354	7641.82
277.731	7765.88
278.108	7901.7
278.484	8032.4
278.861	8162.77
279.238	8300.84
279.614	8438.03
279.991	8581.28
280.367	8726.37
280.744	8875.01
281.12	9024.16
281.497	9172.56
281.873	9326.35
282.249	9474.74
282.625	9623.08
283.002	9767.69
283.378	9917.18
283.754	10066.78
284.13	10221.3
284.506	10380.85
284.882	10537.38
285.258	10693.34
285.634	10851.31
286.01	11005.78
286.386	11163.37
286.762	11328.54
287.138	11491.26
287.513	11658.42
287.889	11822.51
288.265	11982.2
288.641	12143.05
289.016	12305.43
289.392	12465.55
289.767	12625.23
290.143	12792.67
290.518	12953.63
290.894	13117.76
291.269	13274.99
291.644	13432.12
292.02	13584.06
292.395	13733.04
292.77	13891.3
293.145	14043.39
293.52	14199.42
293.895	14349.96
294.27	14504.55
294.646	14656.15
295.02	14801.94
295.395	14953.36
295.77	15107.68
296.145	15265.96
296.52	15417.42
296.895	15568.61
297.269	15725.06
297.644	15882.07
298.019	16030.32
298.393	16182.32
298.768	16334.25
299.143	16491.28
299.517	16640.93
299.891	16799
300.266	16958.01
300.64	17113.08
301.015	17278.96
301.389	17446.35
301.763	17625.65
302.137	17798.07
302.512	17979.96
302.886	18162.27
303.26	18343.04
303.634	18521.72
304.008	18695.63
304.382	18881.24
304.756	19062.3
305.13	19245.81
305.504	19425.09
305.877	19613.95
306.251	19821.36
306.625	20021.24
306.999	20222.93
307.372	20439.23
307.746	20658.24
308.119	20872.9
308.493	21083.47
308.866	21291.45
309.24	21504.24
309.613	21704.48
309.987	21919.2
310.36	22107.62
310.733	22312.52
311.107	22529.09
311.48	22747.44
311.853	22979.23
312.226	23202.74
312.599	23440.44
312.972	23664.35
313.345	23895.54
313.718	24125.2
314.091	24343.96
314.464	24574.41
314.837	24798.33
315.21	25017.05
315.582	25233.47
315.955	25443.6
316.328	25670.48
316.7	25891.63
317.073	26108.69
317.446	26332.4
317.818	26555.54
318.191	26795.84
318.563	27019.27
318.936	27224.49
319.308	27426.21
319.68	27625.36
320.053	27823.05
320.425	28000.27
320.797	28183.27
321.169	28344.62
321.541	28491.36
321.913	28625.7
322.285	28743.59
322.657	28874.82
323.029	29017.33
323.401	29161.06
323.773	29327.27
324.145	29490.58
324.517	29675.59
324.889	29851.47
325.26	30059.28
325.632	30269.38
326.004	30495.65
326.375	30757.71
326.747	31033.39
327.118	31336.84
327.49	31626.46
327.861	31933.61
328.233	32245.09
328.604	32554.28
328.975	32870.51
329.346	33183.77
329.718	33493.66
330.089	33795.72
330.46	34088.43
330.831	34356.28
331.202	34611.64
331.573	34861.4
331.944	35089.7
332.315	35314.4
332.686	35537.64
333.057	35727.3
333.428	35910.12
333.799	36086.22
334.169	36236.07
334.54	36373.88
334.911	36490.24
335.281	36614.24
335.652	36735.27
336.022	36871.16
336.393	37018.16
336.763	37188.15
337.134	37374.07
337.504	37568.15
337.874	37775.11
338.245	37977.05
338.615	38199.69
338.985	38427.05
339.355	38651.04
339.726	38879.05
340.096	39098.19
340.466	39348.26
340.836	39592.7
341.206	39833.86
341.576	40078.02
341.945	40320.68
342.315	40551.97
342.685	40798
343.055	41053.43
343.425	41295.03
343.794	41519.61
344.164	41752.18
344.533	41981.55
344.903	42204.73
345.273	42438.26
345.642	42667.68
346.011	42897.61
346.381	43127.09
346.75	43355.08
347.12	43595.58
347.489	43839.66
347.858	44090.76
348.227	44293.39
348.596	44514.71
348.965	44754.44
349.334	44975.25
349.704	45210
350.072	45458.5
350.441	45688.52
350.81	45927.41
351.179	46154.19
351.548	46392.71
351.917	46611.98
352.285	46804.13
352.654	47008.84
353.023	47220.74
353.391	47415.78
353.76	47627.7
354.129	47816.61
354.497	48055.63
354.865	48275.49
355.234	48511.81
355.602	48725.91
355.971	48979.56
356.339	49197.61
356.707	49407.88
357.075	49631.98
357.443	49848.6
357.811	50062.6
358.18	50272.11
358.548	50475.9
358.916	50692.18
359.284	50910.85
359.651	51128.26
360.019	51351.35
360.387	51555.79
360.755	51755.75
361.123	51983
361.49	52210.89
361.858	52423.37
362.226	52613.21
362.593	52813.31
362.961	52988.97
363.328	53189.52
363.696	53359.21
364.063	53583.31
364.43	53793.22
364.798	54007.53
365.165	54193.9
365.532	54380.52
365.899	54573.58
366.267	54739.69
366.634	54883.2
367.001	55047.45
367.368	55184.81
367.735	55360.67
368.102	55539.96
368.469	55730.7
368.835	55911
369.202	56065.73
369.569	56261.62
369.936	56454.37
370.303	56634.77
370.669	56835.44
371.036	57003.68
371.402	57203.97
371.769	57374.7
372.135	57525.34
372.502	57646.32
372.868	57790.91
373.235	57932.5
373.601	58065.03
373.967	58239.28
374.333	58426.74
374.7	58606.82
375.066	58805.43
375.432	58990.45
375.798	59168.43
376.164	59333.28
376.53	59479.14
376.896	59658.47
377.262	59829.28
377.628	59954.54
377.993	60102.6
378.359	60247.23
378.725	60405.05
379.091	60546.52
379.456	60681.73
379.822	60813.56
380.187	60964.35
380.553	61142.1
380.918	61331.48
381.284	61511.55
381.649	61680.21
382.015	61816.69
382.38	61942.19
382.745	62116.27
383.11	62266.72
383.476	62403.47
383.841	62532.78
384.206	62696.39
384.571	62810.85
384.936	62940.72
385.301	63109.92
385.666	63246.36
386.031	63394.34
386.396	63549.59
386.76	63705.15
387.125	63891.69
387.49	64087.22
387.855	64276.18
388.219	64451.1
388.584	64624.32
388.948	64809.89
389.313	64972.88
389.677	65182.74
390.042	65413.85
390.406	65559.9
390.771	65741.31
391.135	65941.45
391.499	66170.7
391.863	66390.88
392.227	66631.37
392.592	66824.57
392.956	67025.44
393.32	67221.28
393.684	67444.33
394.048	67621.22
394.412	67798.55
394.775	67944.03
395.139	68096.97
395.503	68260.36
395.867	68414.28
396.231	68556.94
396.594	68652.61
396.958	68789.9
397.321	68943.7
397.685	69061.93
398.048	69205.85
398.412	69342.08
398.775	69459.01
399.139	69581.75
399.502	69696.31
399.865	69835.55
400.228	70034.29
400.592	70156.91
400.955	70347.96
401.318	70480.69
401.681	70640.07
402.044	70775.76
402.407	70930.64
402.77	71087.36
403.133	71279.41
403.496	71416.2
403.859	71559.66
404.221	71804.49
404.584	72036.29
404.947	72274.95
405.309	72480.69
405.672	72723.29
406.034	72951.23
406.397	73210.02
406.759	73431.57
407.122	73611.2
407.484	73787.47
407.847	73973.4
408.209	74230.69
408.571	74466.1
408.933	74723.96
409.296	74976.08
409.658	75222.36
410.02	75498.8
410.382	75807.36
410.744	76059.55
411.106	76346.99
411.468	76629.09
411.83	76865.2
412.191	77071.73
412.553	77251.44
412.915	77469.05
413.277	77670.95
413.638	77870.51
414	78039.22
414.361	78216.75
414.723	78444.65
415.084	78656.23
415.446	78823.61
415.807	78957.38
416.169	79061.19
416.53	79146.57
416.891	79251.77
417.252	79379.45
417.614	79456.46
417.975	79500.03
418.336	79550.55
418.697	79605.6
419.058	79656.16
419.419	79694.37
419.78	79733.04
420.141	79762.08
420.501	79788.16
420.862	79808.35
421.223	79822.45
421.584	79855.1
421.944	79873.84
422.305	79885.01
422.666	79891.72
423.026	79895.26
423.387	79909.41
423.747	79917.81
424.107	79929.65
424.468	79938.8
424.828	79944.08
425.188	79947.81
425.549	79953.93
425.909	79958.11
426.269	79956.19
426.629	79959.66
426.989	79961.8
427.349	79965.35
427.709	79968.52
428.069	79969.34
428.429	79972.99
428.789	79979.79
429.149	79985.48
429.508	79988.62
429.868	79992.98
430.228	79998.67
430.587	80003.11
430.947	80007.06
431.306	80012.57
431.666	80014.71
432.025	80018.23
432.385	80022.59
432.744	80025.51
433.103	80028.69
433.463	80032.98
433.822	80040.29
434.181	80044.99
434.54	80049.13
434.899	80053.24
435.258	80057.3
435.618	80059.37
435.976	80062.93
436.335	80061.93
436.694	80063.33
437.053	80065.33
437.412	80067.62
437.771	80068.73
438.129	80071.32
438.488	80070.92
438.847	80072.43
439.205	80076.24
439.564	80076.1
439.922	80077.21
440.281	80077.91
440.639	80078.32
440.997	80076.8
441.356	80078.65
441.714	80076.98
442.072	80077.09
442.431	80076.13
442.789	80076.98
443.147	80077.69
443.505	80078.5
443.863	80079.28
444.221	80079.68
444.579	80080.79
444.937	80080.79
445.294	80081.94
445.652	80082.09
446.01	80082.9
446.368	80081.98
446.725	80080.09
447.083	80081.24
447.441	80080.02
447.798	80082.5
448.156	80082.94
448.513	80085.27
448.87	80085.98
449.228	80087.2
449.585	80087.71
449.942	80087.2
450.3	80086.9
450.657	80087.27
451.014	80086.97
451.371	80088.53
451.728	80087.27
452.085	80086.83
452.442	80086.01
452.799	80086.05
453.156	80086.27
453.513	80085.97
453.869	80086.79
454.226	80087.16
454.583	80087.34
454.939	80088.2
455.296	80086.64
455.653	80085.31
456.009	80084.01
456.366	80084.24
456.722	80084.68
457.078	80084.64
457.435	80085.94
457.791	80086.27
458.147	80086.97
458.503	80088.23
458.86	80087.05
459.216	80088.6
459.572	80088.01
459.928	80089.79
460.284	80089.49
460.64	80089.08
460.996	80089.53
461.351	80090.34
461.707	80092.53
462.063	80093.41
462.419	80091.97
462.774	80091.71
463.13	80092.82
463.486	80093.75
463.841	80095.23
464.197	80095.97
464.552	80096.63
464.908	80096.63
465.263	80096.6
465.618	80097.75
465.974	80097.45
466.329	80100.23
466.684	80100.19
467.039	80100.97
467.394	80100.08
467.749	80100.15
468.104	80102
468.459	80103.3
468.814	80104.63
469.169	80103.45
469.524	80102.85
469.879	80105.96
470.233	80106.74
470.588	80107.93
470.943	80108.3
471.297	80109.18
471.652	80109.15
472.006	80109.81
472.361	80111.18
472.715	80111.92
473.07	80111.52
473.424	80110.67
473.778	80109.18
474.133	80110.74
474.487	80112
474.841	80113.07
475.195	80115.11
475.549	80115.15
475.903	80115.48
476.257	80115.44
476.611	80117.37
476.965	80119.22
477.319	80119.33
477.673	80121.55
478.026	80121.29
478.38	80123
478.734	80120.85
479.087	80122.37
479.441	80123.44
479.795	80123
480.148	80123.92
480.502	80123.81
480.855	80125.11
481.208	80126.51
481.562	80128.07
481.915	80130.03
482.268	80131.48
482.621	80131.81
482.974	80132.22
483.328	80133.14
483.681	80132.85
484.034	80133.88
484.387	80133.55
484.739	80132.4
485.092	80130.48
485.445	80132.18
485.798	80133.03
486.151	80134.33
486.503	80133.88
486.856	80133
487.209	80133.33
487.561	80133.7
487.914	80133.48
488.266	80134.07
488.618	80132.7
488.971	80130.14
489.323	80129.66
489.675	80130.26
490.028	80128.74
490.38	80129.22
490.732	80129.14
491.084	80131.44
491.436	80130.96
491.788	80132.4
492.14	80132.48
492.492	80133.85
492.844	80135.26
493.196	80135.22
493.548	80136.48
493.899	80135.33
494.251	80136.22
494.603	80135.66
494.954	80134.26
495.306	80134.55
495.657	80134.55
496.009	80138
496.36	80139.37
496.712	80138.15
497.063	80135.74
497.414	80137.92
497.765	80135.63
498.117	80134.96
498.468	80133.03
498.819	80133
499.17	80132.11
499.521	80132.44
499.872	80131.92
500.223	80130.29
500.574	80129.81
500.924	80128.29
501.275	80129.66
501.626	80129.55
501.977	80130.4
502.327	80132.44
502.678	80134.63
503.029	80135.37
503.379	80132.96
503.73	80133
504.08	80130.96
504.43	80132.4
504.781	80130.77
505.131	80132.25
505.481	80132
505.831	80131.74
506.182	80132.59
506.532	80131.44
506.882	80132.11
507.232	80132.59
507.582	80133.81
507.932	80133.51
508.281	80134.85
508.631	80135.48
508.981	80134.85
509.331	80137.15
509.681	80136.55
510.03	80134.11
510.38	80133.22
510.729	80135.11
511.079	80135.11
511.428	80137.77
511.778	80138.77
512.127	80139.44
512.476	80138.59
512.826	80138.7
513.175	80139.44
513.524	80139.33
513.873	80140.26
514.222	80139.81
514.571	80139.63
514.92	80137.55
515.269	80137.11
515.618	80136.66
515.967	80136.11
516.316	80135.81
516.665	80134.44
517.014	80133.85
517.362	80135.51
517.711	80135.18
518.059	80132.66
518.408	80132.48
518.757	80133.74
519.105	80132.85
519.453	80132.48
519.802	80133.59
520.15	80133.11
520.498	80132.44
520.847	80131.55
521.195	80130.81
521.543	80130.66
521.891	80130.44
522.239	80131.77
522.587	80132.18
522.935	80133.66
523.283	80134.37
523.631	80134.85
523.979	80133.59
524.326	80134.51
524.674	80132.55
525.022	80131.7
525.369	80131.85
525.717	80132.44
526.064	80131.48
526.412	80131.66
526.759	80132.11
527.107	80130.07
527.454	80131.33
527.801	80131.37
528.149	80131.22
528.496	80131.59
528.843	80131.92
529.19	80132.59
529.537	80131.03
529.884	80131.48
530.231	80128.4
530.578	80129.07
530.925	80130.22
531.272	80131.48
531.619	80130.74
531.966	80132.29
532.312	80134.74
532.659	80135.59
533.006	80135.63
533.352	80134.92
533.699	80134.07
534.045	80133.81
534.392	80136.25
534.738	80135.85
535.084	80136.03
535.431	80136
535.777	80136.48
536.123	80137.66
536.469	80137.44
536.815	80138.48
537.161	80137.81
537.507	80139.4
537.853	80138.11
538.199	80138.4
538.545	80137.03
538.891	80136.33
539.237	80135.07
539.582	80132.74
539.928	80133.4
540.274	80133.07
540.619	80133.4
540.965	80133.74
541.31	80134.7
541.656	80134.92
542.001	80136.59
542.347	80135.63
542.692	80134.44
543.037	80132.55
543.382	80131.14
543.728	80131.92
544.073	80131.66
544.418	80132.37
544.763	80133.26
545.108	80132.33
545.453	80130
545.798	80129.92
546.142	80131.33
546.487	80133.03
546.832	80135.55
547.177	80134.66
547.521	80133.74
547.866	80135.33
548.211	80134.59
548.555	80133.29
548.9	80131.77
549.244	80128.85
549.588	80129.22
549.933	80131.29
550.277	80132.26
550.621	80132.48
550.965	80131.74
551.31	80132
551.654	80131.33
551.998	80130.33
552.342	80131.7
552.686	80132.07
553.03	80132.66
553.373	80132.59
553.717	80130.48
554.061	80128.22
554.405	80130.07
554.748	80131.25
555.092	80129.22
555.436	80130.44
555.779	80131.18
556.123	80133.33
556.466	80134.74
556.81	80133.37
557.153	80132.81
557.496	80133.88
557.839	80134.29
558.183	80134
558.526	80132.59
558.869	80131.81
559.212	80132.18
559.555	80131.33
559.898	80132.22
560.241	80132.44
560.584	80131.22
560.927	80131.7
561.269	80133.07
561.612	80131.62
561.955	80131.55
562.297	80131.81
562.64	80131.51
562.983	80130.66
563.325	80130.07
563.668	80130.48
564.01	80131.62
564.352	80129.66
564.695	80127.33
565.037	80127.74
565.379	80127.59
565.721	80128.51
566.063	80129.22
566.406	80127.59
566.748	80128.11
567.09	80126.74
567.431	80126.33
567.773	80126.33
568.115	80127
568.457	80126.29
568.799	80126.25
569.14	80126.03
569.482	80126.44
569.824	80125.85
570.165	80126.25
570.507	80125.77
570.848	80126.92
571.19	80127.18
571.531	80129.33
571.872	80132.25
572.214	80131.14
572.555	80131.44
572.896	80130.59
573.237	80130.88
573.578	80132.74
573.919	80131.62
574.26	80132.99
574.601	80132.18
574.942	80131.62
575.283	80131.03
575.624	80131.44
575.964	80132.18
576.305	80132
576.646	80131.55
576.986	80129.63
577.327	80129.51
577.667	80129.48
578.008	80127.03
578.348	80127.22
578.689	80126.55
579.029	80124.74
579.369	80124.22
579.71	80124.48
580.05	80124.7
580.39	80123.07
580.73	80121.51
581.07	80121.29
581.41	80119.7
581.75	80120.55
582.09	80119.52
582.43	80119.55
582.769	80119.66
583.109	80120.22
583.449	80119.22
583.789	80118.52
584.128	80120.26
584.468	80119.22
584.807	80118.18
585.147	80118.96
585.486	80119.03
585.825	80118.74
586.165	80118.33
586.504	80118.07
586.843	80115.66
587.182	80116.66
587.522	80117.22
587.861	80118.92
588.2	80120.14
588.539	80120.07
588.878	80119.44
589.216	80120.44
589.555	80119.4
589.894	80119.85
590.233	80117.4
590.572	80117
590.91	80116.55
591.249	80117.07
591.587	80116.33
591.926	80116.37
592.264	80116.18
592.603	80114.92
592.941	80113.52
593.279	80114.11
593.618	80114.78
593.956	80115.33
594.294	80114.55
594.632	80115.89
594.97	80114.41
595.308	80113.63
595.646	80114.74
595.984	80114.85
596.322	80115.26
596.66	80116.07
596.998	80114
597.335	80114.03
597.673	80113.63
598.011	80115.07
598.348	80112.33
598.686	80112.85
599.023	80112.81
599.361	80112.48
599.698	80111.63
600.035	80112.59
600.373	80111.67
600.71	80110.89
601.047	80111.41
601.384	80109.96
601.722	80109.41
602.059	80107.78
602.396	80105.52
602.733	80104.26
603.069	80103.52
603.406	80103.34
603.743	80104.52
604.08	80104.45
604.417	80103.15
604.753	80103.97
605.09	80102.67
605.426	80104.41
605.763	80103.78
606.099	80102.93
606.436	80102.04
606.772	80102.22
607.109	80101.6
607.445	80100.23
607.781	80098.3
608.117	80095.78
608.453	80095.27
608.79	80093.49
609.126	80094.6
609.462	80095.19
609.798	80095.64
610.133	80094.27
610.469	80094.79
610.805	80093.08
611.141	80094.93
611.477	80097.3
611.812	80097.01
612.148	80096.93
612.483	80096.01
612.819	80095.93
613.154	80097.01
613.49	80097.75
613.825	80097.49
614.16	80098.15
614.496	80098.08
614.831	80101.08
615.166	80101.71
615.501	80103.52
615.836	80104.22
616.171	80103.34
616.506	80103.56
616.841	80103.04
617.176	80103.19
617.511	80101.74
617.846	80102.63
618.18	80100.56
618.515	80098.37
618.85	80098.82
619.184	80097.93
619.519	80097.04
619.853	80097.45
620.188	80095.52
620.522	80094.45
620.856	80094.49
621.191	80092.9
621.525	80094.12
621.859	80092.49
622.193	80093.15
622.527	80092.53
622.861	80091.67
623.195	80090.86
623.529	80091.34
623.863	80089.75
624.197	80089.64
624.531	80087.42
624.865	80087.83
625.198	80086.57
625.532	80087.83
625.866	80085.75
626.199	80085.75
626.533	80087.01
626.866	80085.57
627.2	80084.5
627.533	80084.5
627.866	80084.9
628.2	80084.31
628.533	80081.68
628.866	80081.17
629.199	80081.72
629.532	80081.31
629.865	80081.24
630.198	80082.98
630.531	80082.68
630.864	80084.46
631.197	80084.24
631.529	80085.61
631.862	80082.24
632.195	80081.42
632.527	80081.24
632.86	80083.02
633.193	80083.2
633.525	80082.46
633.857	80083.35
634.19	80085.01
634.522	80083.42
634.854	80084.98
635.187	80085.79
635.519	80087.9
635.851	80088.09
636.183	80086.05
636.515	80085.64
636.847	80085.2
637.179	80085.2
637.511	80085.05
637.843	80084.79
638.174	80085.53
638.506	80085.94
638.838	80087.23
639.17	80088.68
639.501	80087.64
639.833	80086.97
640.164	80086.27
640.496	80085.94
640.827	80085.16
641.158	80084.72
641.49	80086.57
641.821	80083.94
642.152	80083.72
642.483	80084.57
642.814	80083.61
643.145	80085.05
643.476	80084.57
643.807	80084.86
644.138	80084.38
644.469	80085.31
644.8	80084.83
645.131	80084.2
645.461	80084.35
645.792	80083.57
646.122	80084.38
646.453	80083.9
646.784	80083.27
647.114	80084.2
647.444	80084.79
647.775	80084.9
648.105	80084.2
648.435	80082.83
648.765	80080.94
649.096	80081.24
649.426	80079.39
649.756	80080.83
650.086	80079.61
650.416	80079.94
650.746	80080.31
651.075	80080.09
651.405	80078.17
651.735	80077.65
652.065	80079.39
652.394	80078.43
652.724	80079.43
653.054	80077.95
653.383	80077.46
653.712	80076.24
654.042	80074.91
654.371	80075.1
654.701	80076.47
655.03	80077.21
655.359	80078.17
655.688	80080.2
656.017	80078.94
656.346	80078.76
656.675	80078.72
657.004	80079.17
657.333	80078.76
657.662	80077.69
657.991	80077.2
658.32	80075.98
658.648	80076.02
658.977	80073.8
659.306	80074.73
659.634	80073.69
659.963	80073.21
660.291	80074.73
660.619	80074.98
660.948	80075.43
661.276	80075.06
661.604	80073.73
661.933	80072.1
662.261	80070.91
662.589	80070.88
662.917	80070.29
663.245	80071.99
663.573	80069.66
663.901	80069.14
664.229	80069.36
664.556	80068.55
664.884	80068.84
665.212	80070.21
665.539	80069.25
665.867	80069.32
666.195	80068.32
666.522	80069.06
666.85	80071.03
667.177	80070.32
667.504	80070.91
667.832	80069.03
668.159	80067.44
668.486	80067.47
668.813	80068.62
669.14	80068.25
669.467	80068.4
669.794	80068.66
670.121	80064.88
670.448	80064.37
670.775	80065.18
671.102	80063.85
671.429	80063.77
671.755	80062.18
672.082	80063
672.409	80064.81
672.735	80064.44
673.062	80062.96
673.388	80061.41
673.714	80058.82
674.041	80057.82
674.367	80057.37
674.693	80058.19
675.019	80057.74
675.346	80058.19
675.672	80057.26
675.998	80057.63
676.324	80056.41
676.65	80055.71
676.976	80057.71
677.301	80059.26
677.627	80059.33
677.953	80060.56
678.279	80059.82
678.604	80058.85
678.93	80058.15
679.255	80055.78
679.581	80056.41
679.906	80056.82
680.232	80056.45
680.557	80055.82
680.882	80056.26
681.208	80056.08
681.533	80054.9
681.858	80055.41
682.183	80054.19
682.508	80053.38
682.833	80053.19
683.158	80053.79
683.483	80054.78
683.808	80052.64
684.132	80049.98
684.457	80048.46
684.782	80048.13
685.106	80049.2
685.431	80049.87
685.755	80048.68
686.08	80048.39
686.404	80045.87
686.729	80047.09
687.053	80047.02
687.377	80046.57
687.701	80044.5
688.026	80043.5
688.35	80044.5
688.674	80043.28
688.998	80040.84
689.322	80040.92
689.646	80038.85
689.97	80037.48
690.293	80034.41
690.617	80035.33
690.941	80035.44
691.264	80033.45
691.588	80031.45
691.912	80029.64
692.235	80027.46
692.559	80024.61
692.882	80022.8
693.205	80022.02
693.529	80018.92
693.852	80016.96
694.175	80014.59
694.498	80014.52
694.821	80010.42
695.144	80005.87
695.467	80000.51
695.79	79997.74
696.113	79992.24
696.436	79985.93
696.759	79977.47
697.082	79971.45
697.404	79962.78
697.727	79954.62
698.049	79945.25
698.372	79929.65
698.694	79910.09
699.017	79890.79
699.339	79866.99
699.662	79840.48
699.984	79797.28
700.306	79745.59
700.628	79668.26
700.95	79567.29
701.272	79439.11
701.594	79305.37
701.916	79173.93
702.238	79029.69
702.56	78828.9
702.882	78642.96
703.204	78467.3
703.525	78275.19
703.847	78031.77
704.169	77813.31
704.49	77568.83
704.812	77320.14
705.133	77068.45
705.455	76818.67
705.776	76551.18
706.097	76293.08
706.419	76025.8
706.74	75763.63
707.061	75472.72
707.382	75174.67
707.703	74882.85
708.024	74628.41
708.345	74360.69
708.666	74069.96
708.987	73763.23
709.307	73530.46
709.628	73232.25
709.949	72917.25
710.27	72604.25
710.59	72349.57
710.911	72045.94
711.231	71749.57
711.552	71477.55
711.872	71160.31
712.192	70886.25
712.512	70626.36
712.833	70356.33
713.153	70077.35
713.473	69829.88
713.793	69610.4
714.113	69404.28
714.433	69205.27
714.753	68994.29
715.073	68798.43
715.393	68587.25
715.712	68426.98
716.032	68193.21
716.352	68024.64
716.671	67867.99
716.991	67701.68
717.31	67503.42
717.63	67348.39
717.949	67172.93
718.268	66962.55
718.588	66783.85
718.907	66549.78
719.226	66287.1
719.545	66035.35
719.864	65763.12
720.183	65498.28
720.502	65209.13
720.821	64931.89
721.14	64646.55
721.459	64342.85
721.778	64066.05
722.096	63760.09
722.415	63463.06
722.734	63207.86
723.052	62926.51
723.371	62636.63
723.689	62360.56
724.008	62090.84
724.326	61792.38
724.644	61530.12
724.963	61266.34
725.281	61041.58
725.599	60821.9
725.917	60637.22
726.235	60444.44
726.553	60295.44
726.871	60090.86
727.189	59891.35
727.507	59696.44
727.824	59541.78
728.142	59397.62
728.46	59196.65
728.777	59096.18
729.095	58956.6
729.413	58816.46
729.73	58673.36
730.047	58540.78
730.365	58423.37
730.682	58310.43
730.999	58222.82
731.317	58142.33
731.634	58061.99
731.951	57948.71
732.268	57822.05
732.585	57672.32
732.902	57513.99
733.219	57356.7
733.536	57189.19
733.852	57072.3
734.169	56937.74
734.486	56793.1
734.802	56642.38
735.119	56531.29
735.435	56356.16
735.752	56201.73
736.068	56027.53
736.385	55864.32
736.701	55672.56
737.017	55442.27
737.333	55197.75
737.65	54893.03
737.966	54514.5
738.282	54121.98
738.598	53702.39
738.914	53251.03
739.23	52767.69
739.545	52253.14
739.861	51696.92
740.177	51150.77
740.493	50550.71
740.808	49984.71
741.124	49381.85
741.439	48801.35
741.755	48225.99
742.07	47700.25
742.386	47142.93
742.701	46636.82
743.016	46142.76
743.331	45671.87
743.647	45255.65
743.962	44865.2
744.277	44526.61
744.592	44260.41
744.907	44037.82
745.222	43879.83
745.537	43789.42
745.851	43759.27
746.166	43773.94
746.481	43833.84
746.795	43948.2
747.11	44103.54
747.424	44271.12
747.739	44425.92
748.053	44596.36
748.368	44748.21
748.682	44866.21
748.996	44996.66
749.311	45097.58
749.625	45187.57
749.939	45286.55
750.253	45339.46
750.567	45408.58
750.881	45471.99
751.195	45535.89
751.509	45604.77
751.822	45651.95
752.136	45689.41
752.45	45739.56
752.763	45806.18
753.077	45859.28
753.39	45890.12
753.704	45919.3
754.017	45938.66
754.331	45974.62
754.644	45990.63
754.957	46008.23
755.27	46013.11
755.584	46026.23
755.897	46033.33
756.21	46031.41
756.523	46007.3
756.836	45989.85
757.149	45909.82
757.461	45837.72
757.774	45752.2
758.087	45635
758.4	45494.58
758.712	45352.7
759.025	45195.34
759.337	45036.3
759.65	44878.52
759.962	44725.58
760.275	44558.95
760.587	44405.43
760.899	44269.29
761.211	44165.79
761.523	44093.52
761.836	44090.65
762.148	44095.48
762.46	44130.27
762.772	44198.4
763.083	44327.45
763.395	44472.91
763.707	44689.63
764.019	44907.43
764.33	45132.76
764.642	45383.74
764.954	45660.91
765.265	45933.6
765.577	46196.43
765.888	46437.69
766.199	46678.21
766.511	46894.98
766.822	47121.16
767.133	47305.73
767.444	47475.01
767.755	47569.54
768.066	47623.51
768.377	47620.08
768.688	47553.22
768.999	47462.35
769.31	47330.04
769.621	47144.68
769.931	46926.31
770.242	46679.35
770.553	46387.8
770.863	46058.92
771.174	45706.35
771.484	45319.2
771.794	44920.08
772.105	44514.71
772.415	44096.9
772.725	43647.63
773.035	43212.4
773.345	42758.48
773.656	42285.48
773.966	41816.19
774.276	41385.03
774.585	40954.02
774.895	40514.77
775.205	40139.23
775.515	39743.58
775.824	39359.51
776.134	38973.5
776.444	38608.69
776.753	38238.23
777.063	37896.34
777.372	37576.04
777.681	37254.33
777.991	36953.13
778.3	36655.16
778.609	36350.4
778.918	36064.19
779.228	35800.94
779.537	35536.2
779.846	35280.86
780.154	35045.56
780.463	34814.94
780.772	34568.73
781.081	34345.79
781.39	34145.18
781.698	33926.65
782.007	33728.78
782.316	33518.32
782.624	33309.41
782.932	33106.96
783.241	32916.17
783.549	32728.62
783.858	32555.25
784.166	32387.41
784.474	32215.48
784.782	32047.53
785.09	31898.17
785.398	31756.81
785.706	31620.47
786.014	31485.58
786.322	31336.33
786.63	31200.14
786.937	31070.01
787.245	30948.22
787.553	30818.37
787.86	30708.86
788.168	30588.4
788.475	30478.09
788.783	30389.34
789.09	30296.92
789.398	30204.35
789.705	30106.25
790.012	30002.3
790.319	29900.82
790.626	29797.64
790.933	29702.61
791.24	29621.98
791.547	29537.54
791.854	29440.06
792.161	29343.01
792.468	29240.02
792.774	29155.05
793.081	29063.55
793.388	28982.92
793.694	28887.3
794.001	28808.45
794.307	28686.97
794.614	28586.81
794.92	28459.32
795.226	28329.69
795.533	28215.75
795.839	28110.89
796.145	27995.93
796.451	27886.13
796.757	27772.79
797.063	27662.78
797.369	27551.7
797.675	27439.7
797.98	27336.13
798.286	27215.3
798.592	27111.32
798.898	26996.92
799.203	26880.36
799.509	26765.06
799.814	26638.46
800.12	26542.15
800.425	26418.61
800.73	26309.81
801.035	26191.31
801.341	26090.89
801.646	25992.44
801.951	25888.22
802.256	25787.06
802.561	25691.18
802.866	25599.9
803.171	25514.66
803.476	25426.53
803.78	25336.23
804.085	25241.14
804.39	25130.69
804.694	25033.29
804.999	24933.7
805.303	24844.37
805.608	24769.35
805.912	24688.28
806.216	24620.84
806.521	24549.61
806.825	24480.35
807.129	24409.46
807.433	24342.45
807.737	24276.51
808.041	24217.84
808.345	24163.4
808.649	24108.17
808.953	24060.55
809.257	24005.52
809.561	23944.29
809.864	23894.89
810.168	23860.58
810.471	23829.61
810.775	23799.89
811.078	23781.11
811.382	23753.72
811.685	23750.97
811.988	23730.13
812.292	23717.71
812.595	23711.59
812.898	23709.98
813.201	23719.37
813.504	23738.43
813.807	23761.9
814.11	23788.64
814.413	23813.12
814.716	23845.62
815.018	23890.21
815.321	23953.17
815.624	24032.8
815.926	24140.97
816.229	24264.96
816.531	24405.1
816.834	24563.99
817.136	24765.26
817.438	24982.15
817.74	25251.73
818.043	25562.54
818.345	25940.09
818.647	26401.36
818.949	26948.53
819.251	27581.74
819.553	28323.48
819.855	29193.91
820.156	30162.33
820.458	31242.46
820.76	32400.37
821.062	33603.47
821.363	34870.64
821.665	36200.76
821.966	37624.49
822.268	39070.52
822.569	40517.44
822.87	41996.86
823.171	43485.57
823.473	45005.89
823.774	46584.3
824.075	48105.57
824.376	49592.61
824.677	51059.24
824.978	52427.99
825.279	53709.97
825.58	54881.75
825.88	55917.46
826.181	56800.19
826.482	57584.81
826.782	58206.14
827.083	58716.04
827.383	59101.02
827.684	59316.19
827.984	59394.18
828.284	59301.88
828.585	59074.73
828.885	58771.55
829.185	58312.7
829.485	57753.36
829.785	57079.39
830.085	56244.84
830.385	55374.3
830.685	54446.92
830.985	53400.5
831.285	52335.36
831.584	51216.65
831.884	50062.25
832.183	48894.76
832.483	47689.27
832.782	46416.56
833.082	45147.11
833.381	43867.94
833.681	42631.72
833.98	41465.95
834.279	40336.87
834.578	39236.16
834.877	38197.09
835.176	37189.52
835.475	36263.3
835.774	35381.01
836.073	34516.7
836.372	33697.04
836.671	32894.17
836.969	32088.44
837.268	31352.58
837.567	30643.61
837.865	29965.16
838.164	29295.66
838.462	28650.8
838.761	28042.4
839.059	27468.16
839.357	26921.07
839.655	26393.97
839.953	25858.8
840.252	25334.44
840.55	24812.77
840.848	24315.47
841.146	23833.68
841.443	23342.02
841.741	22841.1
842.039	22338.33
842.337	21842.94
842.634	21386.08
842.932	20946.4
843.229	20528.43
843.527	20105.56
843.824	19664.92
844.122	19219.6
844.419	18798.21
844.716	18373.02
845.013	17958.18
845.311	17567.41
845.608	17195.94
845.905	16833.68
846.202	16481.07
846.499	16114.3
846.796	15754.75
847.092	15388.56
847.389	15024.86
847.686	14688.51
847.982	14373.16
848.279	14062.49
848.576	13774.95
848.872	13479.23
849.168	13188.84
849.465	12911.23
849.761	12626.69
850.057	12358.55
850.354	12097.91
850.65	11853.99
850.946	11625.34
851.242	11408.35
851.538	11191.9
851.834	10975.23
852.13	10760.53
852.425	10566.49
852.721	10391.65
853.017	10223.67
853.312	10074.64
853.608	9932.83
853.903	9793.69
854.199	9645.77
854.494	9519.85
854.79	9386.28
855.085	9258
855.38	9134.01
855.675	9006.29
855.971	8889.54
856.266	8790.66
856.561	8696.15
856.856	8599.3
857.151	8508.53
857.445	8410.79
857.74	8315.18
858.035	8222.57
858.33	8132.13
858.624	8046.53
858.919	7968.36
859.213	7885.86
859.508	7803.23
859.802	7715.12
860.096	7632.93
860.391	7571.56
860.685	7507.76
860.979	7448.61
861.273	7398.25
861.567	7339.52
861.861	7274.51
862.155	7220.65
862.449	7153.46
862.743	7088.97
863.037	7033.07
863.33	6975.28
863.624	6923.13
863.918	6876.89
864.211	6835.66
864.505	6802.51
864.798	6763.69
865.092	6717.28
865.385	6673.3
865.678	6621.54
865.971	6586.1
866.264	6554.48
866.558	6527.54
866.851	6497.85
867.144	6470.58
867.437	6435.96
867.729	6408.69
868.022	6390.23
868.315	6371.83
868.608	6360.83
868.9	6353.93
869.193	6332.93
869.485	6305.55
869.778	6280.32
870.07	6256.95
870.363	6237.95
870.655	6222.61
870.947	6212.1
871.239	6203.78
871.532	6205.2
871.824	6210.7
872.116	6206.02
872.408	6203.07
872.699	6184.6
872.991	6177.61
873.283	6172.84
873.575	6173.43
873.867	6179
874.158	6183.07
874.45	6180.89
874.741	6177.67
875.033	6175.62
875.324	6187.62
875.615	6206.89
875.907	6228.04
876.198	6240.7
876.489	6249.74
876.78	6252.26
877.071	6252.1
877.362	6255.73
877.653	6255.22
877.944	6262.24
878.235	6274.37
878.526	6279.02
878.816	6299.44
