Data from 24HourExp_27052025_FLMS018081_13-28-19-952.txt Node
Date: Tue May 27 13:28:19 BST 2025
User: adleo
Spectrometer: FLMS01808
Trigger mode: 0
Integration Time (sec): 4.000000E-1
Scans to average: 10
Electric dark correction enabled: true
Nonlinearity correction enabled: true
Boxcar width: 10
XAxis mode: Wavelengths
Number of Pixels in Spectrum: 2048
>>>>>Begin Spectral Data<<<<<
178.471	-127.08
178.857	-120.17
179.244	-114.43
179.631	-105.23
180.017	-97.77
180.404	-88.71
180.79	-77.53
181.176	-67.75
181.563	-60.01
181.949	-49.5
182.335	-39.11
182.722	-23.33
183.108	-4.96
183.494	21.26
183.88	75.41
184.266	127.8
184.653	184
185.039	237.1
185.425	291.64
185.811	344.66
186.197	397.59
186.582	448.44
186.968	500.57
187.354	554.07
187.74	603.79
188.126	653.93
188.511	702.52
188.897	749.36
189.283	796.24
189.668	843.7
190.054	887.88
190.439	933.18
190.825	975.55
191.21	1015.43
191.596	1049.56
191.981	1057.45
192.366	1062.47
192.752	1062.66
193.137	1067.94
193.522	1070.16
193.908	1072.49
194.293	1075.19
194.678	1078.8
195.063	1079.51
195.448	1080.2
195.833	1081.59
196.218	1080.55
196.603	1081.45
196.988	1081.95
197.373	1082.35
197.757	1082.48
198.142	1083.28
198.527	1080.85
198.912	1082.53
199.296	1082.31
199.681	1078.95
200.066	1076.57
200.45	1075.76
200.835	1076.66
201.219	1073.84
201.604	1072.48
201.988	1073.95
202.372	1073.52
202.757	1072.94
203.141	1074.71
203.525	1073.94
203.91	1074.08
204.294	1077.64
204.678	1076.95
205.062	1076.5
205.446	1076.96
205.83	1077.72
206.214	1076.28
206.598	1077.68
206.982	1077.46
207.366	1078.64
207.75	1080.47
208.134	1082.32
208.517	1085.1
208.901	1085.39
209.285	1088.25
209.669	1089.92
210.052	1090.37
210.436	1091.25
210.819	1093.32
211.203	1093.93
211.586	1095.29
211.97	1095.67
212.353	1093.95
212.737	1096.03
213.12	1097.1
213.503	1098.6
213.886	1098.65
214.27	1102.57
214.653	1104.7
215.036	1107.43
215.419	1109.39
215.802	1111.54
216.185	1112.87
216.568	1114.95
216.951	1119.2
217.334	1121.25
217.717	1124.74
218.1	1126.22
218.482	1129.67
218.865	1131.67
219.248	1134.4
219.631	1139.2
220.013	1144.79
220.396	1153.19
220.778	1157.28
221.161	1162.89
221.544	1167.35
221.926	1177.81
222.308	1182.89
222.691	1189.42
223.073	1196.29
223.455	1205.17
223.838	1215.55
224.22	1225.66
224.602	1235.2
224.984	1245.11
225.366	1255.68
225.749	1269.67
226.131	1282.49
226.513	1295.9
226.895	1309.22
227.276	1323.28
227.658	1337.8
228.04	1352.73
228.422	1368.18
228.804	1383.77
229.186	1399.01
229.567	1417.98
229.949	1432.75
230.331	1451.18
230.712	1469.37
231.094	1486.87
231.475	1504.63
231.857	1522.31
232.238	1542.6
232.62	1560.35
233.001	1580.38
233.382	1600.96
233.763	1618.33
234.145	1639.59
234.526	1659.41
234.907	1678.89
235.288	1699.47
235.669	1718.24
236.05	1735.54
236.431	1752.66
236.812	1774.56
237.193	1795.81
237.574	1813.26
237.955	1833.18
238.336	1855.08
238.717	1874.24
239.097	1897.26
239.478	1918.98
239.859	1941.83
240.239	1963.59
240.62	1988.06
241.001	2008.28
241.381	2032.04
241.762	2053.78
242.142	2074.47
242.522	2096.07
242.903	2121.79
243.283	2146.49
243.663	2171.33
244.044	2198.8
244.424	2227.95
244.804	2252.72
245.184	2281.96
245.564	2311.76
245.944	2341.48
246.324	2369.84
246.704	2401.33
247.084	2427.63
247.464	2457.28
247.844	2486.59
248.224	2515.17
248.604	2544.74
248.983	2576.29
249.363	2607.95
249.743	2640.42
250.122	2670.21
250.502	2700.17
250.882	2729.83
251.261	2761.67
251.641	2791.42
252.02	2825.02
252.399	2856.48
252.779	2892.44
253.158	2925.38
253.537	2962.99
253.917	3003.12
254.296	3040.07
254.675	3079.28
255.054	3121.4
255.433	3163.19
255.812	3201.09
256.191	3243.65
256.57	3283.65
256.949	3325.85
257.328	3366.77
257.707	3409.71
258.086	3458.28
258.465	3506.61
258.843	3553.98
259.222	3601.8
259.601	3655.48
259.979	3706.2
260.358	3758.21
260.736	3809.95
261.115	3864.75
261.493	3914.46
261.872	3964.77
262.25	4020.95
262.629	4074.42
263.007	4131.61
263.385	4188.64
263.763	4249.87
264.142	4311.84
264.52	4377.75
264.898	4442.81
265.276	4506.91
265.654	4574.4
266.032	4642.33
266.41	4714.15
266.788	4785.46
267.166	4860.71
267.544	4933.37
267.921	5008.93
268.299	5087.31
268.677	5168.83
269.055	5247.54
269.432	5334.85
269.81	5419.75
270.188	5503.88
270.565	5593.99
270.943	5683.56
271.32	5770.16
271.697	5864.19
272.075	5957.72
272.452	6051.66
272.829	6148.65
273.207	6250.03
273.584	6352.63
273.961	6453.7
274.338	6561.66
274.715	6675.36
275.092	6791.2
275.469	6909.62
275.846	7031.34
276.223	7152.38
276.6	7268.77
276.977	7395.13
277.354	7515.2
277.731	7643.97
278.108	7774.85
278.484	7904.87
278.861	8036.33
279.238	8177.82
279.614	8316.47
279.991	8457.27
280.367	8596.68
280.744	8745.4
281.12	8894.84
281.497	9041.78
281.873	9199.38
282.249	9350.43
282.625	9498.05
283.002	9643.96
283.378	9793.04
283.754	9941.63
284.13	10096.02
284.506	10257.89
284.882	10415.62
285.258	10574.71
285.634	10728.47
286.01	10888.95
286.386	11044.07
286.762	11213.27
287.138	11375.07
287.513	11538.8
287.889	11703.77
288.265	11867
288.641	12023.42
289.016	12183.81
289.392	12350.66
289.767	12510.89
290.143	12674.23
290.518	12835.01
290.894	13001.44
291.269	13164.59
291.644	13324.07
292.02	13477.82
292.395	13631.75
292.77	13788.35
293.145	13946.31
293.52	14102.89
293.895	14248.82
294.27	14407.02
294.646	14553.76
295.02	14704
295.395	14856.2
295.77	15013.94
296.145	15170.7
296.52	15329.88
296.895	15483.11
297.269	15635.65
297.644	15786.93
298.019	15942.58
298.393	16100.95
298.768	16250.42
299.143	16405.65
299.517	16558.45
299.891	16713.9
300.266	16872.4
300.64	17027.87
301.015	17189.05
301.389	17357.26
301.763	17535.29
302.137	17701.11
302.512	17880.4
302.886	18057.16
303.26	18243.07
303.634	18419.38
304.008	18600.21
304.382	18781.18
304.756	18964.15
305.13	19152.51
305.504	19334.86
305.877	19526.09
306.251	19725.02
306.625	19931.16
306.999	20135.08
307.372	20348.84
307.746	20566.37
308.119	20777.34
308.493	20987.77
308.866	21197.95
309.24	21408.54
309.613	21616.45
309.987	21831.95
310.36	22027.7
310.733	22241.96
311.107	22455.46
311.48	22671.1
311.853	22898.71
312.226	23120.75
312.599	23348.62
312.972	23571.52
313.345	23803.16
313.718	24023.3
314.091	24245.31
314.464	24467.4
314.837	24690.07
315.21	24901.32
315.582	25121.74
315.955	25333.77
316.328	25556.15
316.7	25770.2
317.073	25995.05
317.446	26221.15
317.818	26446.88
318.191	26672.72
318.563	26890.07
318.936	27094.09
319.308	27296.31
319.68	27494.25
320.053	27693.65
320.425	27882.59
320.797	28067.02
321.169	28227.21
321.541	28373.32
321.913	28504.32
322.285	28627.11
322.657	28757.24
323.029	28899.15
323.401	29038.52
323.773	29203.78
324.145	29374.46
324.517	29562.17
324.889	29737.72
325.26	29930.4
325.632	30143.46
326.004	30383.08
326.375	30637.87
326.747	30911.25
327.118	31206.46
327.49	31492.18
327.861	31802.44
328.233	32104.34
328.604	32410.79
328.975	32720.45
329.346	33026.33
329.718	33332.76
330.089	33630.58
330.46	33915.25
330.831	34191.02
331.202	34449.97
331.573	34692.99
331.944	34923.35
332.315	35151.24
332.686	35367.81
333.057	35567.08
333.428	35743.59
333.799	35914.3
334.169	36069.92
334.54	36213.38
334.911	36334.66
335.281	36473.63
335.652	36591.22
336.022	36725.7
336.393	36865.46
336.763	37033.75
337.134	37219.95
337.504	37423.92
337.874	37627.19
338.245	37835.6
338.615	38045.17
338.985	38266.19
339.355	38488.39
339.726	38707.54
340.096	38930.74
340.466	39178.76
340.836	39426.59
341.206	39675.72
341.576	39913.59
341.945	40151.31
342.315	40377.95
342.685	40624.76
343.055	40866.32
343.425	41106.18
343.794	41341.21
344.164	41574.52
344.533	41806.17
344.903	42036.81
345.273	42263.05
345.642	42495.51
346.011	42717.1
346.381	42954.67
346.75	43182.81
347.12	43431.08
347.489	43687.3
347.858	43925.3
348.227	44132.76
348.596	44349.84
348.965	44582.54
349.334	44816.98
349.704	45055.65
350.072	45303.61
350.441	45539.96
350.81	45784.04
351.179	46009.92
351.548	46246.26
351.917	46470.89
352.285	46663.59
352.654	46871.21
353.023	47087.86
353.391	47286.77
353.76	47505.44
354.129	47694.5
354.497	47931.82
354.865	48148.31
355.234	48370.17
355.602	48592.3
355.971	48845.61
356.339	49062.75
356.707	49273.71
357.075	49494.88
357.443	49715.46
357.811	49925.61
358.18	50129.47
358.548	50333.65
358.916	50543.58
359.284	50758.73
359.651	50971.74
360.019	51190.68
360.387	51391.05
360.755	51583.1
361.123	51805.62
361.49	52036.41
361.858	52259.17
362.226	52454.69
362.593	52651.17
362.961	52829.42
363.328	53024.64
363.696	53186.9
364.063	53404.29
364.43	53611.13
364.798	53814.92
365.165	53997.66
365.532	54182.37
365.899	54374.54
366.267	54537.08
366.634	54687.06
367.001	54854.7
367.368	54994.02
367.735	55178.36
368.102	55356.41
368.469	55553.47
368.835	55737.13
369.202	55893.6
369.569	56081.35
369.936	56270.42
370.303	56455.65
370.669	56658.51
371.036	56830.73
371.402	57036.46
371.769	57211.67
372.135	57368.84
372.502	57496.11
372.868	57634.6
373.235	57780.87
373.601	57908.41
373.967	58080.03
374.333	58270.48
374.7	58449.22
375.066	58647.56
375.432	58829.66
375.798	59009.68
376.164	59170.17
376.53	59316.02
376.896	59480.73
377.262	59645.42
377.628	59764.29
377.993	59911.58
378.359	60052.28
378.725	60197.94
379.091	60343.34
379.456	60476.47
379.822	60606.31
380.187	60759.33
380.553	60950.66
380.918	61143.59
381.284	61323.82
381.649	61494.61
382.015	61634.62
382.38	61755.37
382.745	61927.25
383.11	62077.56
383.476	62221.58
383.841	62355.81
384.206	62508.79
384.571	62629.47
384.936	62766.43
385.301	62944.88
385.666	63078.62
386.031	63233.62
386.396	63402.74
386.76	63559.7
387.125	63747.84
387.49	63948.36
387.855	64139.57
388.219	64300.09
388.584	64460.36
388.948	64649.24
389.313	64817.71
389.677	65016.44
390.042	65245.65
390.406	65395.94
390.771	65583.86
391.135	65767.81
391.499	65982.56
391.863	66212.63
392.227	66450.77
392.592	66644.05
392.956	66839.39
393.32	67035.24
393.684	67244.89
394.048	67414.6
394.412	67593.03
394.775	67743.64
395.139	67891.54
395.503	68049.17
395.867	68202.22
396.231	68351.52
396.594	68458.38
396.958	68595.51
397.321	68758.53
397.685	68886.76
398.048	69028.61
398.412	69161.33
398.775	69288.58
399.139	69418.11
399.502	69528.39
399.865	69674.88
400.228	69867.87
400.592	69999.15
400.955	70196.86
401.318	70336.63
401.681	70499.78
402.044	70628.44
402.407	70778.92
402.77	70936.17
403.133	71117.62
403.496	71263.42
403.859	71412.35
404.221	71650.25
404.584	71874.14
404.947	72109.69
405.309	72312.57
405.672	72545.94
406.034	72773.66
406.397	73024.05
406.759	73246.3
407.122	73420.28
407.484	73593.54
407.847	73776.73
408.209	74025.17
408.571	74253.17
408.933	74509.17
409.296	74759.57
409.658	75005.02
410.02	75277.56
410.382	75586.54
410.744	75851.29
411.106	76139.42
411.468	76419.4
411.83	76654.41
412.191	76861.7
412.553	77042.68
412.915	77258.76
413.277	77471.23
413.638	77671.2
414	77848.36
414.361	78035.07
414.723	78278.41
415.084	78495.73
415.446	78676.66
415.807	78823.17
416.169	78938.28
416.53	79034.32
416.891	79144.77
417.252	79278.33
417.614	79367.17
417.975	79415.31
418.336	79470.72
418.697	79528.67
419.058	79583.87
419.419	79627.24
419.78	79675.21
420.141	79710.15
420.501	79741.45
420.862	79764.4
421.223	79783.74
421.584	79822.3
421.944	79843.92
422.305	79857.07
422.666	79867.94
423.026	79871.3
423.387	79882.67
423.747	79891.7
424.107	79901.8
424.468	79913.85
424.828	79920.72
425.188	79924.96
425.549	79932.57
425.909	79937.4
426.269	79936.66
426.629	79939.62
426.989	79943.16
427.349	79948
427.709	79952.39
428.069	79954.35
428.429	79959.41
428.789	79963.92
429.149	79968.83
429.508	79973.63
429.868	79977.96
430.228	79982.65
430.587	79988.74
430.947	79996.02
431.306	80002.97
431.666	80007.18
432.025	80009.43
432.385	80012.02
432.744	80013.46
433.103	80014.98
433.463	80017.75
433.822	80025.32
434.181	80031.57
434.54	80035.26
434.899	80036.19
435.258	80038.67
435.618	80041.66
435.976	80046.06
436.335	80047.84
436.694	80048.17
437.053	80047.87
437.412	80048.5
437.771	80050.76
438.129	80051.42
438.488	80051.17
438.847	80049.76
439.205	80051.42
439.564	80052.94
439.922	80053.24
440.281	80054.05
440.639	80056.08
440.997	80057.42
441.356	80058.41
441.714	80056.86
442.072	80058.34
442.431	80058.9
442.789	80058.6
443.147	80057.93
443.505	80057.67
443.863	80056.49
444.221	80057.05
444.579	80058.01
444.937	80058.34
445.294	80059.12
445.652	80059.49
446.01	80059.41
446.368	80061.56
446.725	80061.52
447.083	80061.71
447.441	80062.08
447.798	80062
448.156	80061.52
448.513	80062.19
448.87	80063.89
449.228	80065.18
449.585	80064.85
449.942	80063.82
450.3	80064.48
450.657	80064.41
451.014	80065.59
451.371	80066.63
451.728	80067.66
452.085	80067.92
452.442	80069.22
452.799	80068.59
453.156	80069.4
453.513	80069.62
453.869	80067
454.226	80067.33
454.583	80067.22
454.939	80065.7
455.296	80066.89
455.653	80067.22
456.009	80065.96
456.366	80065.37
456.722	80065.3
457.078	80064.19
457.435	80065.26
457.791	80064.44
458.147	80064.85
458.503	80064.22
458.86	80065.55
459.216	80066.59
459.572	80067.77
459.928	80068.33
460.284	80066.37
460.64	80066.63
460.996	80066.59
461.351	80068.92
461.707	80069
462.063	80070.59
462.419	80072.33
462.774	80073.29
463.13	80073.55
463.486	80075.47
463.841	80075.73
464.197	80076.4
464.552	80077.76
464.908	80078.58
465.263	80080.47
465.618	80081.58
465.974	80081.61
466.329	80082.06
466.684	80081.61
467.039	80081.5
467.394	80081.83
467.749	80084.02
468.104	80085.09
468.459	80086.16
468.814	80087.5
469.169	80088.9
469.524	80088.87
469.879	80090.42
470.233	80089.31
470.588	80089.68
470.943	80089.83
471.297	80089.49
471.652	80090.05
472.006	80091.42
472.361	80093.31
472.715	80093.71
473.07	80093.23
473.424	80094.31
473.778	80093.97
474.133	80095.94
474.487	80097.19
474.841	80095.57
475.195	80096.86
475.549	80097.42
475.903	80097.12
476.257	80097.57
476.611	80098.86
476.965	80099.27
477.319	80099.93
477.673	80100.6
478.026	80100.16
478.38	80099.82
478.734	80101.3
479.087	80100.97
479.441	80101.01
479.795	80100.16
480.148	80101.79
480.502	80102.08
480.855	80103.78
481.208	80105.19
481.562	80104.97
481.915	80106.6
482.268	80108.34
482.621	80108.89
482.974	80109.19
483.328	80108.78
483.681	80109.6
484.034	80108.82
484.387	80108.15
484.739	80107.01
485.092	80108.12
485.445	80109.78
485.798	80109.52
486.151	80107.86
486.503	80108.52
486.856	80109.08
487.209	80109.75
487.561	80108.45
487.914	80109.67
488.266	80108.38
488.618	80107.82
488.971	80107.75
489.323	80106.93
489.675	80108.12
490.028	80108
490.38	80106.34
490.732	80109.23
491.084	80108.86
491.436	80110
491.788	80111.6
492.14	80113.26
492.492	80113.15
492.844	80114.15
493.196	80115.59
493.548	80118.11
493.899	80118
494.251	80118.93
494.603	80118.11
494.954	80119.78
495.306	80118.7
495.657	80117.89
496.009	80119.04
496.36	80118.3
496.712	80118.19
497.063	80117.85
497.414	80117.67
497.765	80119.7
498.117	80119.52
498.468	80118.33
498.819	80118.08
499.17	80118.3
499.521	80118.26
499.872	80118.82
500.223	80119.26
500.574	80118.45
500.924	80118
501.275	80120.04
501.626	80117.96
501.977	80119.59
502.327	80118.7
502.678	80118.93
503.029	80120.63
503.379	80120.04
503.73	80120.04
504.08	80120.07
504.43	80118.41
504.781	80118.78
505.131	80118.59
505.481	80117.11
505.831	80118.45
506.182	80118.33
506.532	80116.93
506.882	80117.11
507.232	80117
507.582	80115.15
507.932	80115.52
508.281	80115.63
508.631	80114.48
508.981	80114.52
509.331	80112.82
509.681	80112.96
510.03	80112.26
510.38	80112.26
510.729	80112.11
511.079	80113.22
511.428	80111
511.778	80113.93
512.127	80114.26
512.476	80113.23
512.826	80114.78
513.175	80113.34
513.524	80113.63
513.873	80115.78
514.222	80114.82
514.571	80114.48
514.92	80115.97
515.269	80115.82
515.618	80116.67
515.967	80116.15
516.316	80117.52
516.665	80117.63
517.014	80116.34
517.362	80116.89
517.711	80115.34
518.059	80114.08
518.408	80114.45
518.757	80114.86
519.105	80114.11
519.453	80112.74
519.802	80113.45
520.15	80112.93
520.498	80113.19
520.847	80112.15
521.195	80111.26
521.543	80112.97
521.891	80113.3
522.239	80112.74
522.587	80112
522.935	80111.26
523.283	80111.19
523.631	80109.71
523.979	80109.6
524.326	80109.37
524.674	80110.89
525.022	80112
525.369	80113.82
525.717	80114.08
526.064	80116.19
526.412	80114.59
526.759	80114.22
527.107	80113.67
527.454	80113.08
527.801	80113.97
528.149	80113.37
528.496	80113.26
528.843	80110.97
529.19	80111.67
529.537	80111.78
529.884	80113.6
530.231	80113.22
530.578	80112.97
530.925	80114.26
531.272	80114.93
531.619	80117.56
531.966	80117.78
532.312	80116.93
532.659	80118.45
533.006	80116.63
533.352	80116.19
533.699	80118.15
534.045	80118.52
534.392	80118.56
534.738	80120.11
535.084	80120
535.431	80120.45
535.777	80121.15
536.123	80123.11
536.469	80121.7
536.815	80121.89
537.161	80120.93
537.507	80120.52
537.853	80121.74
538.199	80120.78
538.545	80121.82
538.891	80121.22
539.237	80120.48
539.582	80121.41
539.928	80120.33
540.274	80121.07
540.619	80122.37
540.965	80121.3
541.31	80121.07
541.656	80121.7
542.001	80122.11
542.347	80121.63
542.692	80122.63
543.037	80121.63
543.382	80121.07
543.728	80122.19
544.073	80123.15
544.418	80123.96
544.763	80125.18
545.108	80123.67
545.453	80124.7
545.798	80124.56
546.142	80122.67
546.487	80122.63
546.832	80122.7
547.177	80122.07
547.521	80122.04
547.866	80120.56
548.211	80119.37
548.555	80119.22
548.9	80119.45
549.244	80116.85
549.588	80116.26
549.933	80115.41
550.277	80115.11
550.621	80115.85
550.965	80114.37
551.31	80111.37
551.654	80110.37
551.998	80110.04
552.342	80112.82
552.686	80113.37
553.03	80112.11
553.373	80112.37
553.717	80111.41
554.061	80110.71
554.405	80109.37
554.748	80108.41
555.092	80108.19
555.436	80108.41
555.779	80109.86
556.123	80108.63
556.466	80110.41
556.81	80111.6
557.153	80111.89
557.496	80111.71
557.839	80111.19
558.183	80111.93
558.526	80112.34
558.869	80113.34
559.212	80112.19
559.555	80111.41
559.898	80109.93
560.241	80110.37
560.584	80111.37
560.927	80112.48
561.269	80114.52
561.612	80113.97
561.955	80115.19
562.297	80115.48
562.64	80115.52
562.983	80114.48
563.325	80114.74
563.668	80116.11
564.01	80116.19
564.352	80116
564.695	80115.45
565.037	80115.56
565.379	80114.74
565.721	80114.6
566.063	80113.71
566.406	80114.78
566.748	80114
567.09	80113.41
567.431	80111.52
567.773	80110.89
568.115	80110.38
568.457	80108.3
568.799	80110.49
569.14	80109.67
569.482	80109.34
569.824	80108.93
570.165	80107.6
570.507	80108.01
570.848	80105.45
571.19	80103.3
571.531	80102.34
571.872	80102.49
572.214	80101.3
572.555	80101.86
572.896	80101.6
573.237	80099.64
573.578	80097.6
573.919	80096.68
574.26	80097.68
574.601	80099.75
574.942	80098.71
575.283	80097.9
575.624	80098.64
575.964	80097.27
576.305	80096.38
576.646	80095.71
576.986	80095.97
577.327	80098.34
577.667	80098.19
578.008	80097.6
578.348	80099.9
578.689	80100.93
579.029	80101.86
579.369	80101.53
579.71	80101.3
580.05	80101.41
580.39	80103.45
580.73	80104.38
581.07	80102.53
581.41	80101.71
581.75	80099.93
582.09	80100.71
582.43	80100.53
582.769	80098.42
583.109	80098.93
583.449	80098.75
583.789	80098.45
584.128	80098.31
584.468	80097.12
584.807	80096.68
585.147	80097.05
585.486	80094.49
585.825	80093.97
586.165	80092.2
586.504	80091.12
586.843	80091.09
587.182	80091.53
587.522	80090.57
587.861	80090.27
588.2	80092.53
588.539	80092.12
588.878	80092.09
589.216	80091.53
589.555	80092.16
589.894	80092.64
590.233	80091.57
590.572	80091.46
590.91	80090.49
591.249	80088.9
591.587	80089.57
591.926	80090.42
592.264	80089.61
592.603	80090.05
592.941	80088.98
593.279	80090.31
593.618	80091.94
593.956	80091.86
594.294	80090.57
594.632	80089.53
594.97	80088.98
595.308	80086.42
595.646	80086.31
595.984	80087.83
596.322	80087.35
596.66	80086.98
596.998	80087.65
597.335	80089.35
597.673	80089.64
598.011	80089.5
598.348	80090.64
598.686	80089.83
599.023	80088.68
599.361	80088.72
599.698	80087.72
600.035	80089.27
600.373	80088.53
600.71	80087.94
601.047	80087.87
601.384	80089.9
601.722	80089.35
602.059	80090.16
602.396	80090.94
602.733	80091.31
603.069	80091.05
603.406	80090.46
603.743	80091.2
604.08	80091.38
604.417	80090.75
604.753	80089.76
605.09	80091.46
605.426	80091.61
605.763	80091.35
606.099	80091.94
606.436	80092.2
606.772	80092.57
607.109	80091.12
607.445	80091.16
607.781	80091.27
608.117	80091.83
608.453	80090.5
608.79	80090.46
609.126	80089.98
609.462	80089.76
609.798	80088.57
610.133	80086.68
610.469	80087.31
610.805	80085.79
611.141	80082.91
611.477	80080.24
611.812	80079.1
612.148	80077.51
612.483	80076.51
612.819	80073.81
613.154	80072.4
613.49	80071.44
613.825	80072.29
614.16	80072.4
614.496	80071.03
614.831	80067.92
615.166	80065.89
615.501	80064.78
615.836	80065.63
616.171	80066.15
616.506	80067.63
616.841	80068.07
617.176	80068.85
617.511	80067.15
617.846	80066.89
618.18	80067.15
618.515	80067.55
618.85	80068.63
619.184	80069.59
619.519	80069.03
619.853	80069.59
620.188	80069.22
620.522	80069.11
620.856	80068.48
621.191	80067
621.525	80068.37
621.859	80070.77
622.193	80071.62
622.527	80071.33
622.861	80071.07
623.195	80069.7
623.529	80067
623.863	80067.15
624.197	80066.44
624.531	80067.22
624.865	80067.74
625.198	80068
625.532	80068.29
625.866	80069.22
626.199	80068.48
626.533	80069.25
626.866	80070.22
627.2	80069.25
627.533	80069.85
627.866	80068.59
628.2	80069.03
628.533	80068
628.866	80068.74
629.199	80070.36
629.532	80070.55
629.865	80070.44
630.198	80069.03
630.531	80070.66
630.864	80068.92
631.197	80069.48
631.529	80069.03
631.862	80068.59
632.195	80069.4
632.527	80069.4
632.86	80068.77
633.193	80068
633.525	80068.7
633.857	80069.55
634.19	80070.77
634.522	80070.92
634.854	80072.21
635.187	80072.44
635.519	80073.69
635.851	80073.47
636.183	80071.03
636.515	80072.81
636.847	80073.44
637.179	80073.77
637.511	80073.92
637.843	80073.88
638.174	80073.88
638.506	80074.06
638.838	80075.54
639.17	80076.25
639.501	80076.14
639.833	80076.43
640.164	80077.14
640.496	80076.36
640.827	80074.4
641.158	80073.51
641.49	80073.73
641.821	80073.62
642.152	80074.44
642.483	80072.18
642.814	80071.07
643.145	80069.85
643.476	80067.48
643.807	80065.7
644.138	80066.92
644.469	80067.26
644.8	80066.37
645.131	80066.07
645.461	80066.7
645.792	80064.89
646.122	80063.59
646.453	80064.96
646.784	80064.22
647.114	80063.34
647.444	80064.37
647.775	80065.78
648.105	80066.18
648.435	80065.11
648.765	80065.15
649.096	80064.56
649.426	80065.22
649.756	80065.26
650.086	80066.11
650.416	80067.33
650.746	80069.81
651.075	80068.63
651.405	80066.48
651.735	80066.81
652.065	80066.29
652.394	80067
652.724	80064.85
653.054	80065.56
653.383	80063.89
653.712	80063.74
654.042	80061.78
654.371	80059.53
654.701	80059.12
655.03	80059.41
655.359	80058.79
655.688	80057.56
656.017	80056.64
656.346	80057.42
656.675	80056.27
657.004	80056.27
657.333	80054.98
657.662	80053.53
657.991	80054.27
658.32	80056.08
658.648	80057.01
658.977	80055.75
659.306	80054.57
659.634	80056.38
659.963	80055.09
660.291	80055.34
660.619	80054.31
660.948	80055.27
661.276	80055.94
661.604	80055.79
661.933	80054.86
662.261	80054.53
662.589	80053.2
662.917	80053.94
663.245	80052.35
663.573	80053.53
663.901	80054.49
664.229	80055.05
664.556	80054.97
664.884	80053.72
665.212	80051.2
665.539	80049.72
665.867	80050.39
666.195	80049.43
666.522	80047.54
666.85	80047.47
667.177	80045.21
667.504	80045.17
667.832	80045.58
668.159	80045.17
668.486	80044.62
668.813	80044.17
669.14	80044.21
669.467	80045.58
669.794	80045.21
670.121	80044.88
670.448	80043.25
670.775	80040.96
671.102	80040.14
671.429	80038.44
671.755	80038.29
672.082	80039.7
672.409	80041.14
672.735	80040.85
673.062	80039.88
673.388	80040.99
673.714	80041.33
674.041	80041.77
674.367	80042.77
674.693	80041.66
675.019	80042.14
675.346	80041.55
675.672	80041.25
675.998	80038.85
676.324	80037.07
676.65	80036.26
676.976	80035.3
677.301	80034.93
677.627	80033.34
677.953	80033.34
678.279	80033.82
678.604	80035.08
678.93	80033.75
679.255	80031.75
679.581	80031.12
679.906	80031.71
680.232	80031.64
680.557	80030.94
680.882	80031.64
681.208	80030.68
681.533	80031.08
681.858	80029.57
682.183	80028.79
682.508	80027.94
682.833	80030.46
683.158	80032.23
683.483	80032.75
683.808	80032.08
684.132	80031.75
684.457	80033.08
684.782	80032.08
685.106	80031.19
685.431	80028.79
685.755	80028.83
686.08	80027.87
686.404	80026.5
686.729	80025.13
687.053	80023.95
687.377	80022.62
687.701	80021.36
688.026	80020.88
688.35	80019.62
688.674	80017.92
688.998	80016.74
689.322	80016.11
689.646	80013.82
689.97	80011.12
690.293	80009.83
690.617	80008.46
690.941	80006.32
691.264	80004.28
691.588	80002.66
691.912	80001.07
692.235	80000.59
692.559	79998.33
692.882	79996.93
693.205	79995.9
693.529	79994.27
693.852	79992.64
694.175	79991.83
694.498	79988.69
694.821	79985.18
695.144	79983.52
695.467	79979.9
695.79	79976.65
696.113	79972.18
696.436	79966.61
696.759	79959.82
697.082	79952.03
697.404	79945.68
697.727	79938.71
698.049	79929.67
698.372	79916.55
698.694	79899.27
699.017	79880.75
699.339	79860.5
699.662	79835.61
699.984	79792.91
700.306	79745.93
700.628	79676.66
700.95	79581.71
701.272	79463.51
701.594	79333.31
701.916	79204.97
702.238	79057.81
702.56	78857.63
702.882	78671.65
703.204	78499.57
703.525	78300.16
703.847	78060.07
704.169	77838.3
704.49	77603.61
704.812	77357.3
705.133	77109.95
705.455	76857.54
705.776	76580.59
706.097	76325.81
706.419	76054.86
706.74	75787.95
707.061	75506.15
707.382	75204.62
707.703	74905.08
708.024	74642.7
708.345	74364.07
708.666	74065.96
708.987	73771.1
709.307	73533.69
709.628	73231.56
709.949	72912.83
710.27	72612.24
710.59	72353.74
710.911	72061.61
711.231	71758.5
711.552	71483.6
711.872	71157.87
712.192	70881.54
712.512	70629.91
712.833	70348.76
713.153	70081.14
713.473	69839.79
713.793	69607.32
714.113	69395.83
714.433	69198.49
714.753	68992.44
715.073	68805.48
715.393	68614.26
715.712	68449.16
716.032	68230.13
716.352	68071.87
716.671	67916.82
716.991	67749.07
717.31	67560.07
717.63	67396.63
717.949	67221.05
718.268	67018.55
718.588	66848.39
718.907	66630.13
719.226	66371.3
719.545	66127.49
719.864	65851.64
720.183	65576.75
720.502	65289.22
720.821	65020.94
721.14	64741.5
721.459	64434.52
721.778	64156.91
722.096	63833.96
722.415	63534.27
722.734	63273.3
723.052	62980.18
723.371	62686.42
723.689	62405.19
724.008	62115.72
724.326	61820.5
724.644	61551.2
724.963	61285.41
725.281	61054.31
725.599	60819.61
725.917	60633.52
726.235	60440.96
726.553	60282.81
726.871	60094.72
727.189	59905.88
727.507	59703.99
727.824	59548.18
728.142	59409.36
728.46	59217.77
728.777	59116.61
729.095	58985.66
729.413	58839.11
729.73	58699.39
730.047	58567.5
730.365	58456.57
730.682	58359.6
730.999	58275.55
731.317	58203.72
731.634	58121.9
731.951	58011.79
732.268	57887.91
732.585	57738.76
732.902	57584.15
733.219	57425.51
733.536	57250.48
733.852	57121.22
734.169	56987.2
734.486	56836.43
734.802	56680.61
735.119	56559.26
735.435	56381.47
735.752	56219.97
736.068	56050.41
736.385	55880.94
736.701	55694.45
737.017	55465.51
737.333	55216.48
737.65	54909.82
737.966	54537.7
738.282	54145.09
738.598	53728.99
738.914	53278.17
739.23	52796.13
739.545	52278.49
739.861	51735.31
740.177	51191.93
740.493	50594.6
740.808	50024.72
741.124	49416.77
741.439	48832.61
741.755	48264.87
742.07	47748.97
742.386	47187.27
742.701	46680.74
743.016	46194.3
743.331	45724.5
743.647	45299.57
743.962	44911.1
744.277	44566.17
744.592	44290.06
744.907	44070.87
745.222	43905.43
745.537	43807.53
745.851	43774.38
746.166	43788.13
746.481	43837.71
746.795	43952.14
747.11	44109.68
747.424	44280.75
747.739	44445.99
748.053	44629.84
748.368	44776.23
748.682	44893.15
748.996	45028.72
749.311	45127.08
749.625	45222.03
749.939	45314.75
750.253	45374.97
750.567	45448.78
750.881	45509.73
751.195	45571.68
751.509	45637.52
751.822	45688.03
752.136	45738.78
752.45	45789.7
752.763	45850.81
753.077	45909.17
753.39	45936.32
753.704	45960.27
754.017	45972.1
754.331	46013.34
754.644	46007.64
754.957	46022.62
755.27	46024.98
755.584	46033
755.897	46045.77
756.21	46040.67
756.523	46018.66
756.836	45998.53
757.149	45922.82
757.461	45854.26
757.774	45775.41
758.087	45648.81
758.4	45508.75
758.712	45360.36
759.025	45199.6
759.337	45051.34
759.65	44890.01
759.962	44740.84
760.275	44581.82
760.587	44440.32
760.899	44299.39
761.211	44210.67
761.523	44131.59
761.836	44128.8
762.148	44138.4
762.46	44169.33
762.772	44235.8
763.083	44370.69
763.395	44515.06
763.707	44726.05
764.019	44948.25
764.33	45175.26
764.642	45437.74
764.954	45709.64
765.265	45988.42
765.577	46259.92
765.888	46498.41
766.199	46739.25
766.511	46954.09
766.822	47171.59
767.133	47349.76
767.444	47514.6
767.755	47603.93
768.066	47666.89
768.377	47656.92
768.688	47593.4
768.999	47507.23
769.31	47384.04
769.621	47200.09
769.931	46976.44
770.242	46715.82
770.553	46418.18
770.863	46082.33
771.174	45729.3
771.484	45347.35
771.794	44942.02
772.105	44534.24
772.415	44109.04
772.725	43669.09
773.035	43225.55
773.345	42768.86
773.656	42303.44
773.966	41838.32
774.276	41407.72
774.585	40974.51
774.895	40542.69
775.205	40161.11
775.515	39762.36
775.824	39369.09
776.134	38976.27
776.444	38620.15
776.753	38259.75
777.063	37925.62
777.372	37608.53
777.681	37282.35
777.991	36984.59
778.3	36681.81
778.609	36379.6
778.918	36099.87
779.228	35834.16
779.537	35582.44
779.846	35331.34
780.154	35081.58
780.463	34848.27
780.772	34611.16
781.081	34385.58
781.39	34187.59
781.698	33972.01
782.007	33772.18
782.316	33568.44
782.624	33358.06
782.932	33150.83
783.241	32960.03
783.549	32763.62
783.858	32590.7
784.166	32425.78
784.474	32252.11
784.782	32094.23
785.09	31940.68
785.398	31793.26
785.706	31652.61
786.014	31507.73
786.322	31364.32
786.63	31231.93
786.937	31103.27
787.245	30977.58
787.553	30853.06
787.86	30737.2
788.168	30616.84
788.475	30505.78
788.783	30412.75
789.09	30322.48
789.398	30229.89
789.705	30129.68
790.012	30029.13
790.319	29925.24
790.626	29818.98
790.933	29717.59
791.24	29628.93
791.547	29536.46
791.854	29438.78
792.161	29339.07
792.468	29238.23
792.774	29144.38
793.081	29062.02
793.388	28978.33
793.694	28880.55
794.001	28796.4
794.307	28676.02
794.614	28565.8
794.92	28437.46
795.226	28305.02
795.533	28186.13
795.839	28083.85
796.145	27969.8
796.451	27861.33
796.757	27753.05
797.063	27643.61
797.369	27537.41
797.675	27429.52
797.98	27329.26
798.286	27207.03
798.592	27106.97
798.898	26995.48
799.203	26882.43
799.509	26771.23
799.814	26644.1
800.12	26544.22
800.425	26431.54
800.73	26321.82
801.035	26210.3
801.341	26115.51
801.646	26018.15
801.951	25918.27
802.256	25818.45
802.561	25721.75
802.866	25635.57
803.171	25541.34
803.476	25458.41
803.78	25366.02
804.085	25265.8
804.39	25152.82
804.694	25063.86
804.999	24961.47
805.303	24869.84
805.608	24790.01
805.912	24698.74
806.216	24629.03
806.521	24557.9
806.825	24479.63
807.129	24409.86
807.433	24337.47
807.737	24260.6
808.041	24202.35
808.345	24149.68
808.649	24095.77
808.953	24051.67
809.257	23991.17
809.561	23935.25
809.864	23881.95
810.168	23852.5
810.471	23826.9
810.775	23800.51
811.078	23777.91
811.382	23755.91
811.685	23755.6
811.988	23744.05
812.292	23735.09
812.595	23732.82
812.898	23729.55
813.201	23740.73
813.504	23765.4
813.807	23797.51
814.11	23830.11
814.413	23860.42
814.716	23892.62
815.018	23938.47
815.321	23996.97
815.624	24076.87
815.926	24178.18
816.229	24301.64
816.531	24437.44
816.834	24599.01
817.136	24786
817.438	24995.44
817.74	25264.19
818.043	25572.37
818.345	25948.12
818.647	26402.4
818.949	26940.67
819.251	27572.65
819.553	28314.87
819.855	29178.45
820.156	30140.54
820.458	31218.98
820.76	32369.76
821.062	33578.61
821.363	34838.62
821.665	36168.46
821.966	37591.34
822.268	39038.42
822.569	40484.29
822.87	41960.59
823.171	43437.74
823.473	44973.57
823.774	46559.58
824.075	48083.54
824.376	49569.92
824.677	51035.1
824.978	52414.81
825.279	53706.61
825.58	54879.03
825.88	55914.3
826.181	56797.34
826.482	57587.16
826.782	58214.29
827.083	58726.91
827.383	59105.05
827.684	59319.91
827.984	59403.26
828.284	59319
828.585	59093.94
828.885	58790.96
829.185	58341.28
829.485	57794.65
829.785	57123.62
830.085	56288.11
830.385	55412.47
830.685	54481.63
830.985	53437.6
831.285	52367.06
831.584	51252.27
831.884	50106.8
832.183	48938.64
832.483	47730.74
832.782	46457.73
833.082	45183.01
833.381	43905.54
833.681	42669.43
833.98	41508.03
834.279	40376.55
834.578	39278.94
834.877	38247.88
835.176	37236.63
835.475	36305.54
835.774	35419.45
836.073	34553.04
836.372	33738.82
836.671	32934.52
836.969	32144.48
837.268	31405.19
837.567	30696.99
837.865	30008.01
838.164	29339.28
838.462	28693.87
838.761	28090.04
839.059	27506.84
839.357	26964.21
839.655	26436.7
839.953	25900.37
840.252	25375.4
840.55	24857.88
840.848	24347.91
841.146	23858.55
841.443	23367.91
841.741	22860.22
842.039	22355.96
842.337	21859.55
842.634	21396.55
842.932	20955.49
843.229	20527.3
843.527	20109.85
843.824	19673.23
844.122	19231.98
844.419	18806.64
844.716	18383.65
845.013	17968.72
845.311	17588.88
845.608	17213.76
845.905	16848.85
846.202	16498.27
846.499	16129.83
846.796	15765.42
847.092	15398.71
847.389	15033.46
847.686	14699.99
847.982	14390.77
848.279	14080.94
848.576	13792.35
848.872	13498.86
849.168	13213.13
849.465	12937.48
849.761	12651.31
850.057	12377.47
850.354	12117.12
850.65	11869
850.946	11639.26
851.242	11420.54
851.538	11202.87
851.834	10983.28
852.13	10770.49
852.425	10573.05
852.721	10395.21
853.017	10228.84
853.312	10078.53
853.608	9937.26
853.903	9796.42
854.199	9649.43
854.494	9521.13
854.79	9391.93
855.085	9260.32
855.38	9132.8
855.675	9003.99
855.971	8885.67
856.266	8788.55
856.561	8695.67
856.856	8603.03
857.151	8508.86
857.445	8411.48
857.74	8312.54
858.035	8223.04
858.33	8131.37
858.624	8045.78
858.919	7970.69
859.213	7886.69
859.508	7807.74
859.802	7719.6
860.096	7640.51
860.391	7578.35
860.685	7519.81
860.979	7459.77
861.273	7409.63
861.567	7351.92
861.861	7288.73
862.155	7232.49
862.449	7161.88
862.743	7096.2
863.037	7035.09
863.33	6979.37
863.624	6925.43
863.918	6877.71
864.211	6838.17
864.505	6806.25
864.798	6767.57
865.092	6720.82
865.385	6677.31
865.678	6625.72
865.971	6593.81
866.264	6558.6
866.558	6528.56
866.851	6495.22
867.144	6465.48
867.437	6430.73
867.729	6398.98
868.022	6375.01
868.315	6358
868.608	6347.57
868.9	6340.42
869.193	6325.23
869.485	6298.39
869.778	6274.65
870.07	6252.56
870.363	6231.72
870.655	6212.96
870.947	6203.37
871.239	6196.47
871.532	6195.45
871.824	6197.61
872.116	6194.57
872.408	6190.44
872.699	6178.31
872.991	6172.84
873.283	6167.32
873.575	6171.64
873.867	6181.15
874.158	6191.64
874.45	6190.2
874.741	6187.55
875.033	6181.57
875.324	6193.54
875.615	6215.59
875.907	6238.86
876.198	6252.42
876.489	6262.69
876.78	6268.05
877.071	6268.94
877.362	6270.98
877.653	6273.6
877.944	6286.4
878.235	6294.68
878.526	6305.24
878.816	6320.36
