Data from 24HourExp_27052025_FLMS018081_18-28-21-518.txt Node
Date: Tue May 27 18:28:21 BST 2025
User: adleo
Spectrometer: FLMS01808
Trigger mode: 0
Integration Time (sec): 4.000000E-1
Scans to average: 10
Electric dark correction enabled: true
Nonlinearity correction enabled: true
Boxcar width: 10
XAxis mode: Wavelengths
Number of Pixels in Spectrum: 2048
>>>>>Begin Spectral Data<<<<<
178.471	-126.65
178.857	-118.35
179.244	-111.56
179.631	-103.32
180.017	-95.43
180.404	-87.54
180.79	-76.22
181.176	-67.58
181.563	-58.2
181.949	-48.26
182.335	-38.59
182.722	-22.63
183.108	-3.98
183.494	21.76
183.88	76.66
184.266	128.36
184.653	185.53
185.039	238.55
185.425	295.29
185.811	350.23
186.197	403.28
186.582	454.16
186.968	505.7
187.354	558.28
187.74	609.25
188.126	660.67
188.511	710.84
188.897	760.29
189.283	806.83
189.668	852.46
190.054	896.79
190.439	941.91
190.825	985.42
191.21	1026.62
191.596	1061.7
191.981	1068.4
192.366	1074.26
192.752	1074.61
193.137	1079.53
193.522	1079.85
193.908	1081.4
194.293	1085.81
194.678	1087.18
195.063	1089.88
195.448	1091.47
195.833	1089.59
196.218	1088.28
196.603	1089.29
196.988	1086.62
197.373	1087.45
197.757	1088.32
198.142	1089.88
198.527	1089.15
198.912	1090.15
199.296	1089.71
199.681	1087.45
200.066	1087.19
200.45	1086.88
200.835	1088.29
201.219	1087.43
201.604	1088.44
201.988	1088.79
202.372	1088.23
202.757	1089.93
203.141	1090.2
203.525	1090.81
203.91	1093.44
204.294	1094.44
204.678	1093.56
205.062	1094.88
205.446	1097.55
205.83	1098.8
206.214	1098.94
206.598	1099.74
206.982	1099.35
207.366	1100.22
207.75	1101.02
208.134	1101.13
208.517	1101.41
208.901	1100.94
209.285	1102.04
209.669	1103.27
210.052	1104.45
210.436	1103.66
210.819	1103.11
211.203	1103.81
211.586	1103.59
211.97	1104.42
212.353	1103.66
212.737	1106.11
213.12	1106.26
213.503	1105.78
213.886	1106.32
214.27	1107.92
214.653	1109.31
215.036	1111.15
215.419	1112.24
215.802	1115.34
216.185	1116.22
216.568	1120.04
216.951	1122.4
217.334	1125.57
217.717	1128.11
218.1	1129.06
218.482	1131.74
218.865	1134.28
219.248	1136.36
219.631	1140.57
220.013	1145.63
220.396	1154.42
220.778	1158.87
221.161	1165.68
221.544	1173.04
221.926	1181.63
222.308	1189.67
222.691	1195.89
223.073	1203.26
223.455	1212.18
223.838	1222.66
224.22	1232.85
224.602	1243.71
224.984	1255.25
225.366	1265.1
225.749	1278.71
226.131	1292.59
226.513	1307.32
226.895	1323.99
227.276	1338.96
227.658	1354.22
228.04	1368.46
228.422	1382.7
228.804	1398.49
229.186	1414
229.567	1430.7
229.949	1446.15
230.331	1463.38
230.712	1483.6
231.094	1502.41
231.475	1522.93
231.857	1541.22
232.238	1561.51
232.62	1580.62
233.001	1599.98
233.382	1622.72
233.763	1641.91
234.145	1662.28
234.526	1682.93
234.907	1702.41
235.288	1723.17
235.669	1744.35
236.05	1763.71
236.431	1785.11
236.812	1810.24
237.193	1832.74
237.574	1854.96
237.955	1876.2
238.336	1898.62
238.717	1921.09
239.097	1947.58
239.478	1969.22
239.859	1993.13
240.239	2018.12
240.62	2044.37
241.001	2068.44
241.381	2092.16
241.762	2116.32
242.142	2141.32
242.522	2165.58
242.903	2192.54
243.283	2221.51
243.663	2247.57
244.044	2279.7
244.424	2309.36
244.804	2335.94
245.184	2365.41
245.564	2396.64
245.944	2430.69
246.324	2461.77
246.704	2491.81
247.084	2520.04
247.464	2550.53
247.844	2582.59
248.224	2614.21
248.604	2647.33
248.983	2679.52
249.363	2713.16
249.743	2745.56
250.122	2778.42
250.502	2811.31
250.882	2842.72
251.261	2873.47
251.641	2907.35
252.02	2938.06
252.399	2970.48
252.779	3008.2
253.158	3043.48
253.537	3082.75
253.917	3126.15
254.296	3166.86
254.675	3210.06
255.054	3251.58
255.433	3295.57
255.812	3336.46
256.191	3379.89
256.57	3420.88
256.949	3466.35
257.328	3512.9
257.707	3559.27
258.086	3607.81
258.465	3658.79
258.843	3713.46
259.222	3768.16
259.601	3822.47
259.979	3880.44
260.358	3939.15
260.736	3991.02
261.115	4050.15
261.493	4104.36
261.872	4156.06
262.25	4214.6
262.629	4273.38
263.007	4335.25
263.385	4396.38
263.763	4459.21
264.142	4524.36
264.52	4591.37
264.898	4659.16
265.276	4725.3
265.654	4798.79
266.032	4871.56
266.41	4940.37
266.788	5012.45
267.166	5088.53
267.544	5167.38
267.921	5245.2
268.299	5322.9
268.677	5406.75
269.055	5489.15
269.432	5573.87
269.81	5661.89
270.188	5748.01
270.565	5837.81
270.943	5930.03
271.32	6020.55
271.697	6116.9
272.075	6214.24
272.452	6312.02
272.829	6412.92
273.207	6516.49
273.584	6619.15
273.961	6722.76
274.338	6841.39
274.715	6959.13
275.092	7075.76
275.469	7194.14
275.846	7316.15
276.223	7442.89
276.6	7565
276.977	7690.92
277.354	7820.05
277.731	7946.56
278.108	8079.09
278.484	8213.56
278.861	8346.9
279.238	8493.08
279.614	8632.65
279.991	8773.9
280.367	8918.64
280.744	9065.37
281.12	9214
281.497	9361.94
281.873	9515.75
282.249	9663.51
282.625	9811.4
283.002	9962.25
283.378	10113.18
283.754	10263.57
284.13	10415.53
284.506	10577.91
284.882	10737.82
285.258	10892.37
285.634	11048.86
286.01	11212.76
286.386	11368.42
286.762	11532.15
287.138	11691.21
287.513	11857.99
287.889	12022.68
288.265	12186.15
288.641	12347.83
289.016	12510.14
289.392	12680.96
289.767	12843.6
290.143	13007.9
290.518	13165.39
290.894	13327.28
291.269	13487.09
291.644	13646.3
292.02	13799.51
292.395	13952.85
292.77	14108.86
293.145	14268.24
293.52	14426.73
293.895	14575.07
294.27	14730.28
294.646	14885.62
295.02	15037.19
295.395	15189.23
295.77	15346.25
296.145	15504.02
296.52	15660.4
296.895	15817.82
297.269	15967.31
297.644	16121.72
298.019	16274.8
298.393	16435.55
298.768	16592.18
299.143	16746.48
299.517	16902.37
299.891	17064.2
300.266	17224.62
300.64	17386.64
301.015	17553.74
301.389	17728.6
301.763	17900.91
302.137	18071.29
302.512	18248.19
302.886	18429.55
303.26	18611.55
303.634	18791.16
304.008	18967.23
304.382	19150.98
304.756	19333.8
305.13	19526.59
305.504	19709.57
305.877	19900.14
306.251	20105.73
306.625	20305.34
306.999	20514.93
307.372	20730.59
307.746	20948.17
308.119	21163.9
308.493	21374.65
308.866	21585.23
309.24	21798.99
309.613	22016.81
309.987	22231.4
310.36	22431.87
310.733	22636.62
311.107	22859.45
311.48	23079.32
311.853	23315.92
312.226	23538.1
312.599	23769.84
312.972	23991.87
313.345	24227.76
313.718	24461.6
314.091	24684.49
314.464	24918.54
314.837	25147.28
315.21	25362.79
315.582	25585.94
315.955	25799.49
316.328	26025.72
316.7	26247.08
317.073	26470.8
317.446	26691.98
317.818	26924.8
318.191	27161.37
318.563	27393.38
318.936	27593.75
319.308	27801.16
319.68	28005.8
320.053	28210.38
320.425	28398.79
320.797	28581.79
321.169	28753.1
321.541	28897.08
321.913	29026.53
322.285	29144.63
322.657	29264.32
323.029	29413.25
323.401	29553.8
323.773	29719.77
324.145	29892.69
324.517	30076.13
324.889	30257.49
325.26	30464.69
325.632	30680.82
326.004	30914.49
326.375	31173
326.747	31459.09
327.118	31761.09
327.49	32046.4
327.861	32364.74
328.233	32679.37
328.604	32997.42
328.975	33309.01
329.346	33628.91
329.718	33946.03
330.089	34254.55
330.46	34558.86
330.831	34827.67
331.202	35092.56
331.573	35347.49
331.944	35575.85
332.315	35806.68
332.686	36024.13
333.057	36226.7
333.428	36411.37
333.799	36586.66
334.169	36742.8
334.54	36879.63
334.911	37003.54
335.281	37137.58
335.652	37253.93
336.022	37388.26
336.393	37532.11
336.763	37699.44
337.134	37886.2
337.504	38082.52
337.874	38292.38
338.245	38506.12
338.615	38734.13
338.985	38964.16
339.355	39184.81
339.726	39407.44
340.096	39629.47
340.466	39879
340.836	40122.04
341.206	40366.72
341.576	40613.13
341.945	40858.49
342.315	41094.42
342.685	41335.31
343.055	41592.63
343.425	41838.49
343.794	42071.7
344.164	42309.43
344.533	42546.45
344.903	42777.22
345.273	43016.59
345.642	43244.53
346.011	43463.77
346.381	43693.04
346.75	43924.67
347.12	44169.09
347.489	44425.34
347.858	44671.8
348.227	44883.81
348.596	45110.86
348.965	45349.74
349.334	45581.59
349.704	45821.85
350.072	46075.27
350.441	46316.09
350.81	46546.75
351.179	46780.42
351.548	47018.39
351.917	47232.72
352.285	47420.25
352.654	47625.24
353.023	47827.36
353.391	48026.14
353.76	48246.73
354.129	48438.1
354.497	48670.57
354.865	48889.43
355.234	49121.63
355.602	49342.44
355.971	49590.85
356.339	49803.88
356.707	50021.98
357.075	50239.88
357.443	50458.15
357.811	50669.04
358.18	50873.84
358.548	51085.72
358.916	51292.15
359.284	51507.65
359.651	51731.24
360.019	51961.11
360.387	52165.81
360.755	52371.88
361.123	52601.26
361.49	52831.16
361.858	53050.57
362.226	53240.15
362.593	53448.63
362.961	53630.07
363.328	53830.65
363.696	54000.19
364.063	54217.57
364.43	54423.17
364.798	54632.49
365.165	54812.57
365.532	55002.63
365.899	55196.66
366.267	55364.99
366.634	55517.67
367.001	55681.09
367.368	55824.78
367.735	56006.23
368.102	56186.33
368.469	56384.93
368.835	56565.54
369.202	56724.75
369.569	56925.25
369.936	57122.96
370.303	57305.3
370.669	57503.98
371.036	57674.77
371.402	57881.4
371.769	58063.32
372.135	58215.92
372.502	58345.18
372.868	58488.05
373.235	58630.01
373.601	58765.85
373.967	58941.73
374.333	59132.06
374.7	59316.23
375.066	59516.61
375.432	59700.35
375.798	59882.51
376.164	60042.22
376.53	60194.05
376.896	60369.18
377.262	60534.34
377.628	60666.69
377.993	60814.15
378.359	60957.4
378.725	61117.86
379.091	61268.05
379.456	61401.49
379.822	61539.27
380.187	61693.79
380.553	61879.19
380.918	62071.79
381.284	62247.06
381.649	62416.14
382.015	62559.8
382.38	62685.56
382.745	62853.53
383.11	63014.06
383.476	63159.09
383.841	63297.73
384.206	63460.61
384.571	63582.6
384.936	63720.48
385.301	63895.45
385.666	64031.37
386.031	64191.8
386.396	64350.66
386.76	64499.45
387.125	64689.3
387.49	64889.7
387.855	65085.87
388.219	65261.35
388.584	65435.75
388.948	65633.26
389.313	65797.98
389.677	66002.31
390.042	66242.69
390.406	66403.09
390.771	66592.28
391.135	66783.71
391.499	67015.1
391.863	67242.68
392.227	67484.1
392.592	67685.64
392.956	67886.43
393.32	68095.42
393.684	68316.75
394.048	68489.39
394.412	68673.65
394.775	68822.19
395.139	68964.77
395.503	69126.16
395.867	69279.79
396.231	69427.08
396.594	69534.04
396.958	69668.67
397.321	69825.32
397.685	69943.83
398.048	70080.01
398.412	70210.52
398.775	70340.16
399.139	70471.56
399.502	70580.71
399.865	70720.89
400.228	70915.02
400.592	71047.22
400.955	71237.86
401.318	71364.68
401.681	71528.63
402.044	71674.99
402.407	71832.14
402.77	72000.79
403.133	72198.74
403.496	72348.09
403.859	72504.28
404.221	72740.75
404.584	72990.93
404.947	73238.04
405.309	73466.36
405.672	73716.99
406.034	73951.24
406.397	74211.84
406.759	74434.53
407.122	74630.84
407.484	74801.55
407.847	74988.85
408.209	75236.75
408.571	75466.11
408.933	75730.94
409.296	75998.31
409.658	76257.31
410.02	76529.18
410.382	76819.42
410.744	77054.2
411.106	77327.22
411.468	77585.5
411.83	77804.97
412.191	77980.48
412.553	78130.28
412.915	78298.63
413.277	78465.7
413.638	78618.12
414	78751.77
414.361	78891.04
414.723	79071.23
415.084	79249.34
415.446	79374.21
415.807	79470.24
416.169	79538.39
416.53	79586.07
416.891	79639.07
417.252	79700.38
417.614	79738.86
417.975	79755.19
418.336	79774.31
418.697	79796.33
419.058	79814.98
419.419	79828.46
419.78	79844.55
420.141	79854.39
420.501	79865.19
420.862	79873.33
421.223	79881.03
421.584	79898.66
421.944	79904.71
422.305	79908.69
422.666	79913.68
423.026	79913.9
423.387	79922.08
423.747	79926.14
424.107	79932.79
424.468	79939.13
424.828	79943.05
425.188	79946.41
425.549	79950.13
425.909	79953.6
426.269	79952.9
426.629	79956.26
426.989	79958.52
427.349	79960.81
427.709	79964.35
428.069	79964.43
428.429	79966.61
428.789	79970.89
429.149	79974.36
429.508	79977.98
429.868	79981.86
430.228	79983.82
430.587	79987.29
430.947	79990.32
431.306	79993.35
431.666	79994.64
432.025	79996.94
432.385	79999.15
432.744	80001.89
433.103	80004.66
433.463	80007.58
433.822	80013.05
434.181	80015.63
434.54	80017.34
434.899	80018.48
435.258	80018.59
435.618	80020.33
435.976	80023.62
436.335	80024.25
436.694	80026.24
437.053	80028.09
437.412	80028.5
437.771	80030.16
438.129	80031.16
438.488	80031.6
438.847	80032.01
439.205	80034.27
439.564	80034.67
439.922	80035.49
440.281	80033.93
440.639	80032.2
440.997	80031.72
441.356	80031.75
441.714	80030.35
442.072	80030.68
442.431	80031.46
442.789	80031.2
443.147	80032.71
443.505	80033.12
443.863	80033.64
444.221	80030.09
444.579	80030.72
444.937	80032.53
445.294	80031.94
445.652	80032.72
446.01	80032.46
446.368	80033.6
446.725	80032.05
447.083	80031.9
447.441	80032.23
447.798	80032.86
448.156	80035.71
448.513	80036.67
448.87	80037.89
449.228	80039.33
449.585	80039.74
449.942	80040.26
450.3	80040.63
450.657	80040.59
451.014	80039.56
451.371	80038.59
451.728	80042.18
452.085	80041.55
452.442	80040.15
452.799	80041.51
453.156	80042.77
453.513	80043.51
453.869	80042.25
454.226	80043.4
454.583	80043.58
454.939	80043.18
455.296	80043.99
455.653	80044.32
456.009	80043.62
456.366	80044.25
456.722	80043.73
457.078	80043.73
457.435	80044.51
457.791	80046.91
458.147	80045.84
458.503	80047.17
458.86	80049.17
459.216	80049.39
459.572	80050.21
459.928	80049.21
460.284	80049.28
460.64	80049.5
460.996	80050.13
461.351	80051.17
461.707	80051.57
462.063	80051.02
462.419	80052.02
462.774	80051.98
463.13	80051.94
463.486	80053.5
463.841	80054.01
464.197	80055.75
464.552	80056.53
464.908	80056.27
465.263	80055.61
465.618	80057.86
465.974	80059.75
466.329	80059.79
466.684	80058.56
467.039	80058.16
467.394	80060.23
467.749	80060.56
468.104	80061.08
468.459	80061.15
468.814	80061.15
469.169	80061.82
469.524	80065.04
469.879	80064.37
470.233	80064.85
470.588	80065.37
470.943	80065.22
471.297	80063.56
471.652	80063.67
472.006	80064.56
472.361	80064.82
472.715	80066.04
473.07	80066.07
473.424	80064.45
473.778	80065.85
474.133	80067.07
474.487	80066.93
474.841	80065.59
475.195	80065.78
475.549	80066.37
475.903	80067.37
476.257	80068.55
476.611	80068
476.965	80066.15
477.319	80067.67
477.673	80067.37
478.026	80067.85
478.38	80068.11
478.734	80069.37
479.087	80070.11
479.441	80069.63
479.795	80071.03
480.148	80072.44
480.502	80072.81
480.855	80073.44
481.208	80073.25
481.562	80074.7
481.915	80077.58
482.268	80080.1
482.621	80080.99
482.974	80079.73
483.328	80080.54
483.681	80081.54
484.034	80082.54
484.387	80083.76
484.739	80084.46
485.092	80085.17
485.445	80085.87
485.798	80086.35
486.151	80086.94
486.503	80087.24
486.856	80089.05
487.209	80089.2
487.561	80088.39
487.914	80089.57
488.266	80090.72
488.618	80089.57
488.971	80089.83
489.323	80087.65
489.675	80088.13
490.028	80089.5
490.38	80089.83
490.732	80089.02
491.084	80088.2
491.436	80089.94
491.788	80091.09
492.14	80089.28
492.492	80090.54
492.844	80091.5
493.196	80093.2
493.548	80094.53
493.899	80093.83
494.251	80091.2
494.603	80090.91
494.954	80090.61
495.306	80088.91
495.657	80088.8
496.009	80089.8
496.36	80089.61
496.712	80091.13
497.063	80091.2
497.414	80089.2
497.765	80089.94
498.117	80090.91
498.468	80091.02
498.819	80089.13
499.17	80087.28
499.521	80088.2
499.872	80086.69
500.223	80085.54
500.574	80085.13
500.924	80084.43
501.275	80084.21
501.626	80085.06
501.977	80084.72
502.327	80085.24
502.678	80086.61
503.029	80086.28
503.379	80086.17
503.73	80084.58
504.08	80083.21
504.43	80080.99
504.781	80081.39
505.131	80079.95
505.481	80078.14
505.831	80078.06
506.182	80077.66
506.532	80079.1
506.882	80079.47
507.232	80080.8
507.582	80080.43
507.932	80079.8
508.281	80080.1
508.631	80080.91
508.981	80080.58
509.331	80080.28
509.681	80079.25
510.03	80077.54
510.38	80076.51
510.729	80078.14
511.079	80078.77
511.428	80078.91
511.778	80080.32
512.127	80080.21
512.476	80081.47
512.826	80081.69
513.175	80082.69
513.524	80083.54
513.873	80082.36
514.222	80082.65
514.571	80082.13
514.92	80081.5
515.269	80081.39
515.618	80079.58
515.967	80079.06
516.316	80078.91
516.665	80079.43
517.014	80080.02
517.362	80080.32
517.711	80081.32
518.059	80080.73
518.408	80080.87
518.757	80081.21
519.105	80080.47
519.453	80080.47
519.802	80080.24
520.15	80081.73
520.498	80081.36
520.847	80080.47
521.195	80081.84
521.543	80081.32
521.891	80082.24
522.239	80082.21
522.587	80082.47
522.935	80084.5
523.283	80086.17
523.631	80086.57
523.979	80085.94
524.326	80086.57
524.674	80087.17
525.022	80087.68
525.369	80088.17
525.717	80089.35
526.064	80090.24
526.412	80090.53
526.759	80091.13
527.107	80092.38
527.454	80092.5
527.801	80092.42
528.149	80094.94
528.496	80093.98
528.843	80095.42
529.19	80094.83
529.537	80095.46
529.884	80095.53
530.231	80095.12
530.578	80094.31
530.925	80094.83
531.272	80096.68
531.619	80097.2
531.966	80099.71
532.312	80099.6
532.659	80098.38
533.006	80096.83
533.352	80096.38
533.699	80097.64
534.045	80098.71
534.392	80097.31
534.738	80096.72
535.084	80097.86
535.431	80097.72
535.777	80098.16
536.123	80097.68
536.469	80097.64
536.815	80098.31
537.161	80099.01
537.507	80098.16
537.853	80098.05
538.199	80097.64
538.545	80095.94
538.891	80094.27
539.237	80092.5
539.582	80092.13
539.928	80093.72
540.274	80095.01
540.619	80095.98
540.965	80094.9
541.31	80092.42
541.656	80093.2
542.001	80094.46
542.347	80093.57
542.692	80093.2
543.037	80093.72
543.382	80093.94
543.728	80093.87
544.073	80094.42
544.418	80095.61
544.763	80095.9
545.108	80095.46
545.453	80094.9
545.798	80095.2
546.142	80096.05
546.487	80096.27
546.832	80097.27
547.177	80096.75
547.521	80097.42
547.866	80096.12
548.211	80096.57
548.555	80098.27
548.9	80097.09
549.244	80096.9
549.588	80096.86
549.933	80096.23
550.277	80096.12
550.621	80094.64
550.965	80093.83
551.31	80092.64
551.654	80092.31
551.998	80093.87
552.342	80094.98
552.686	80096.57
553.03	80097.05
553.373	80097.57
553.717	80096.57
554.061	80093.87
554.405	80093.83
554.748	80091.65
555.092	80092.68
555.436	80091.94
555.779	80092.9
556.123	80094.02
556.466	80092.42
556.81	80091.79
557.153	80091.31
557.496	80090.91
557.839	80092.39
558.183	80093.02
558.526	80094.24
558.869	80092.72
559.212	80090.17
559.555	80088.91
559.898	80087.87
560.241	80087.57
560.584	80086.65
560.927	80087.91
561.269	80090.28
561.612	80089.68
561.955	80090.02
562.297	80089.05
562.64	80088.87
562.983	80086.98
563.325	80086.87
563.668	80085.39
564.01	80084.02
564.352	80082.36
564.695	80081.21
565.037	80079.88
565.379	80079.54
565.721	80076.95
566.063	80075.62
566.406	80076.32
566.748	80076.1
567.09	80075.47
567.431	80074.18
567.773	80073.7
568.115	80073.14
568.457	80071.59
568.799	80068.7
569.14	80068.52
569.482	80067.67
569.824	80067.59
570.165	80066.22
570.507	80066.44
570.848	80068.55
571.19	80069.26
571.531	80071.03
571.872	80071.85
572.214	80072.25
572.555	80073.1
572.896	80073.62
573.237	80072.55
573.578	80071.14
573.919	80069.44
574.26	80069.37
574.601	80071.11
574.942	80072.29
575.283	80069.37
575.624	80070.33
575.964	80071.63
576.305	80071.22
576.646	80072.25
576.986	80072.22
577.327	80073.48
577.667	80073.03
578.008	80071.88
578.348	80072.81
578.689	80070.44
579.029	80069.63
579.369	80068.85
579.71	80068.04
580.05	80068.3
580.39	80069.7
580.73	80071.18
581.07	80073.59
581.41	80073.59
581.75	80072.73
582.09	80072.11
582.43	80074.69
582.769	80073.25
583.109	80073.81
583.449	80074.29
583.789	80074.51
584.128	80074.29
584.468	80073.92
584.807	80072.84
585.147	80074.25
585.486	80073.73
585.825	80075.47
586.165	80075.32
586.504	80074.47
586.843	80074.55
587.182	80074.69
587.522	80073.84
587.861	80073.58
588.2	80072.84
588.539	80072.33
588.878	80072.1
589.216	80072.51
589.555	80072.44
589.894	80073.92
590.233	80073.4
590.572	80072.59
590.91	80071.29
591.249	80071.48
591.587	80070.99
591.926	80072.51
592.264	80072.18
592.603	80072.1
592.941	80071.66
593.279	80072.18
593.618	80072.92
593.956	80072.66
594.294	80071.66
594.632	80071.07
594.97	80070.26
595.308	80068
595.646	80068.52
595.984	80068.26
596.322	80065.7
596.66	80064.78
596.998	80062.93
597.335	80064.11
597.673	80063.93
598.011	80064.08
598.348	80064.11
598.686	80063.71
599.023	80061.38
599.361	80061.97
599.698	80059.9
600.035	80060.6
600.373	80060.34
600.71	80060.97
601.047	80061.27
601.384	80061.38
601.722	80062.08
602.059	80062.52
602.396	80063.74
602.733	80063.45
603.069	80063.37
603.406	80062.97
603.743	80062.01
604.08	80063.15
604.417	80062.23
604.753	80062.78
605.09	80063.08
605.426	80063.15
605.763	80063.34
606.099	80064.23
606.436	80063.67
606.772	80066.52
607.109	80063.89
607.445	80062.63
607.781	80062.45
608.117	80062.78
608.453	80063.78
608.79	80062.97
609.126	80061.93
609.462	80062.01
609.798	80061.34
610.133	80061.6
610.469	80062.56
610.805	80062.78
611.141	80061.45
611.477	80061.41
611.812	80061.86
612.148	80060.05
612.483	80059.05
612.819	80058.86
613.154	80056.94
613.49	80054.35
613.825	80054.02
614.16	80056.09
614.496	80055.75
614.831	80054.46
615.166	80052.76
615.501	80052.31
615.836	80052.05
616.171	80052.83
616.506	80053.76
616.841	80054.16
617.176	80052.98
617.511	80052.13
617.846	80051.09
618.18	80051.54
618.515	80051.28
618.85	80049.47
619.184	80049.84
619.519	80050.17
619.853	80050.83
620.188	80051.32
620.522	80052.24
620.856	80051.02
621.191	80049.54
621.525	80050.35
621.859	80051.13
622.193	80051.72
622.527	80050.17
622.861	80052.57
623.195	80050.95
623.529	80049.87
623.863	80050.28
624.197	80049.98
624.531	80049.8
624.865	80050.83
625.198	80049.84
625.532	80048.58
625.866	80049.02
626.199	80049.35
626.533	80048.91
626.866	80048.24
627.2	80048.06
627.533	80047.43
627.866	80046.54
628.2	80047.54
628.533	80047.14
628.866	80045.1
629.199	80043.92
629.532	80044.88
629.865	80043.77
630.198	80044.14
630.531	80043.18
630.864	80042.4
631.197	80041.88
631.529	80041.07
631.862	80040.63
632.195	80041.62
632.527	80043.07
632.86	80041.77
633.193	80042.66
633.525	80042.73
633.857	80042.59
634.19	80042.66
634.522	80042.14
634.854	80042.33
635.187	80040.85
635.519	80041.44
635.851	80042.4
636.183	80043.25
636.515	80042.03
636.847	80041.11
637.179	80040.92
637.511	80041.14
637.843	80041.07
638.174	80042.88
638.506	80043.47
638.838	80043.4
639.17	80043.59
639.501	80042.88
639.833	80045.58
640.164	80044.58
640.496	80044.32
640.827	80043.18
641.158	80042.85
641.49	80044.03
641.821	80044.55
642.152	80045.18
642.483	80044.21
642.814	80046.66
643.145	80045.95
643.476	80046.43
643.807	80046.32
644.138	80047.47
644.469	80047.76
644.8	80045.81
645.131	80042.88
645.461	80043.55
645.792	80042
646.122	80041.7
646.453	80039.41
646.784	80036.93
647.114	80034.68
647.444	80034.16
647.775	80033.49
648.105	80032.31
648.435	80031.87
648.765	80032.27
649.096	80032.46
649.426	80033.34
649.756	80030.9
650.086	80031.2
650.416	80030.76
650.746	80031.75
651.075	80030.68
651.405	80029.35
651.735	80031.68
652.065	80033.01
652.394	80032.71
652.724	80035.52
653.054	80035.78
653.383	80035.45
653.712	80035.67
654.042	80037.41
654.371	80037.15
654.701	80037.67
655.03	80038.45
655.359	80038.7
655.688	80036.34
656.017	80036.08
656.346	80034.41
656.675	80032.42
657.004	80029.72
657.333	80029.46
657.662	80026.95
657.991	80027.5
658.32	80028.43
658.648	80027.09
658.977	80026.43
659.306	80026.76
659.634	80025.28
659.963	80023.32
660.291	80026.24
660.619	80027.32
660.948	80027.83
661.276	80027.76
661.604	80027.24
661.933	80027.32
662.261	80026.35
662.589	80027.83
662.917	80026.13
663.245	80027.09
663.573	80027.98
663.901	80030.05
664.229	80028.87
664.556	80029.46
664.884	80028.28
665.212	80027.09
665.539	80025.39
665.867	80025.76
666.195	80024.32
666.522	80023.21
666.85	80023.73
667.177	80023.25
667.504	80021.47
667.832	80020.18
668.159	80020.44
668.486	80021.66
668.813	80021.92
669.14	80021.55
669.467	80020.44
669.794	80021.99
670.121	80021.4
670.448	80021.47
670.775	80020.22
671.102	80021.33
671.429	80021.69
671.755	80022.51
672.082	80023.69
672.409	80024.73
672.735	80024.06
673.062	80024.5
673.388	80022.32
673.714	80022.92
674.041	80021.66
674.367	80021.81
674.693	80021.58
675.019	80019.4
675.346	80018.66
675.672	80017.59
675.998	80017.22
676.324	80017.26
676.65	80016.78
676.976	80015.93
677.301	80015.63
677.627	80016.22
677.953	80015.86
678.279	80014.6
678.604	80013.19
678.93	80011.2
679.255	80010.75
679.581	80008.98
679.906	80008.91
680.232	80010.61
680.557	80009.31
680.882	80008.72
681.208	80009.09
681.533	80008.02
681.858	80008.24
682.183	80007.91
682.508	80008.57
682.833	80008.24
683.158	80006.35
683.483	80004.62
683.808	80005.28
684.132	80003.69
684.457	80002.84
684.782	80001.85
685.106	80002.47
685.431	80002.25
685.755	80003.14
686.08	80003.66
686.404	80005.14
686.729	80003.44
687.053	80003.81
687.377	80003.66
687.701	80001.99
688.026	79999.56
688.35	79999.04
688.674	79999.19
688.998	79998.82
689.322	79996.41
689.646	79994.9
689.97	79994.72
690.293	79994.72
690.617	79992.24
690.941	79992.2
691.264	79989.76
691.588	79987.99
691.912	79986.25
692.235	79983.67
692.559	79982.08
692.882	79980.79
693.205	79978.38
693.529	79977.5
693.852	79975.65
694.175	79972.4
694.498	79970.85
694.821	79969.34
695.144	79967.64
695.467	79964.09
695.79	79961.17
696.113	79957.33
696.436	79952.79
696.759	79947.59
697.082	79942.02
697.404	79938.44
697.727	79932.24
698.049	79927
698.372	79918.89
698.694	79908.82
699.017	79898.65
699.339	79885.82
699.662	79870.75
699.984	79848.02
700.306	79826.43
700.628	79790.36
700.95	79742.6
701.272	79685.22
701.594	79614.32
701.916	79547.98
702.238	79471.51
702.56	79350.22
702.882	79222.32
703.204	79105.54
703.525	78975.19
703.847	78795.94
704.169	78618.55
704.49	78430.34
704.812	78237.29
705.133	78036.98
705.455	77835.65
705.776	77614.09
706.097	77407.2
706.419	77179.89
706.74	76941.87
707.061	76683.74
707.382	76399.29
707.703	76114.52
708.024	75837.79
708.345	75553.33
708.666	75242.54
708.987	74921.59
709.307	74648.37
709.628	74337.12
709.949	74023.26
710.27	73688.85
710.59	73415.18
710.911	73115.11
711.231	72805.16
711.552	72523.09
711.872	72191.32
712.192	71906.64
712.512	71632.6
712.833	71345.28
713.153	71056.01
713.473	70817.71
713.793	70573.78
714.113	70354.56
714.433	70146.79
714.753	69934.08
715.073	69734.33
715.393	69533.94
715.712	69365.28
716.032	69147.09
716.352	68969.91
716.671	68791.72
716.991	68620.72
717.31	68417.41
717.63	68259.75
717.949	68077.95
718.268	67864.97
718.588	67688.23
718.907	67446.58
719.226	67184.09
719.545	66926.8
719.864	66652.3
720.183	66365.74
720.502	66077.99
720.821	65796.75
721.14	65498.62
721.459	65184.95
721.778	64898.66
722.096	64569.45
722.415	64266.32
722.734	63995.2
723.052	63714.61
723.371	63420.82
723.689	63137.69
724.008	62857.29
724.326	62551.25
724.644	62290.28
724.963	62013.49
725.281	61780.93
725.599	61549.53
725.917	61361.74
726.235	61160.34
726.553	61004.29
726.871	60811.27
727.189	60607.1
727.507	60402.68
727.824	60248.73
728.142	60111.73
728.46	59916.24
728.777	59812.49
729.095	59665.6
729.413	59518.52
729.73	59364.72
730.047	59229.55
730.365	59117.7
730.682	59008.9
730.999	58920.57
731.317	58843.97
731.634	58758.47
731.951	58638.46
732.268	58519.26
732.585	58366.59
732.902	58211.19
733.219	58054.76
733.536	57879.69
733.852	57752.52
734.169	57625.02
734.486	57473.06
734.802	57311.5
735.119	57193.77
735.435	57019.05
735.752	56861.72
736.068	56682.42
736.385	56525.32
736.701	56331.38
737.017	56098.05
737.333	55854.67
737.65	55549.45
737.966	55162.07
738.282	54774.09
738.598	54363.01
738.914	53909.88
739.23	53423.24
739.545	52908.06
739.861	52349.18
740.177	51803.14
740.493	51207
740.808	50625.92
741.124	50015.75
741.439	49434.97
741.755	48861.85
742.07	48341.86
742.386	47780.69
742.701	47278.5
743.016	46782.14
743.331	46314.58
743.647	45889.75
743.962	45491.04
744.277	45143.72
744.592	44874.51
744.907	44647.54
745.222	44486.14
745.537	44388.96
745.851	44352.31
746.166	44364.6
746.481	44423.89
746.795	44532.53
747.11	44690.13
747.424	44868.47
747.739	45038.87
748.053	45215.84
748.368	45371.17
748.682	45481.6
748.996	45621.24
749.311	45720.13
749.625	45817.32
749.939	45915.29
750.253	45977.62
750.567	46054.62
750.881	46113.56
751.195	46175.9
751.509	46247.89
751.822	46287.36
752.136	46338.03
752.45	46398.4
752.763	46468.04
753.077	46525.66
753.39	46553.65
753.704	46584.37
754.017	46603.22
754.331	46636.24
754.644	46641.82
754.957	46649.3
755.27	46659.72
755.584	46667.89
755.897	46678.18
756.21	46667.34
756.523	46639.99
756.836	46618.9
757.149	46540.36
757.461	46473.84
757.774	46388.69
758.087	46272.77
758.4	46137.26
758.712	45981.93
759.025	45820.58
759.337	45663.27
759.65	45497.43
759.962	45348.7
760.275	45180.67
760.587	45034.62
760.899	44891.98
761.211	44794.23
761.523	44721.8
761.836	44716.69
762.148	44724.49
762.46	44753.7
762.772	44823.5
763.083	44962.32
763.395	45101.8
763.707	45318.5
764.019	45546.15
764.33	45775.53
764.642	46025.06
764.954	46297.93
765.265	46574.1
765.577	46840.58
765.888	47074.88
766.199	47322.64
766.511	47540.95
766.822	47761.07
767.133	47938.48
767.444	48112.46
767.755	48206.67
768.066	48268.49
768.377	48263.99
768.688	48203.64
768.999	48115.69
769.31	47993.87
769.621	47795.76
769.931	47587.43
770.242	47331.52
770.553	47033.36
770.863	46700.82
771.174	46339.93
771.484	45954.53
771.794	45553.69
772.105	45147.42
772.415	44725.99
772.725	44269.91
773.035	43828.7
773.345	43380.73
773.656	42914
773.966	42436.75
774.276	42008.32
774.585	41573.61
774.895	41133.87
775.205	40740.66
775.515	40347.46
775.824	39952.72
776.134	39566.84
776.444	39198.68
776.753	38829.39
777.063	38482.19
777.372	38155.38
777.681	37842.06
777.991	37535.31
778.3	37231
778.609	36926.76
778.918	36641.43
779.228	36379.23
779.537	36114.14
779.846	35846.67
780.154	35594.61
780.463	35362.89
780.772	35110.97
781.081	34877.9
781.39	34671.1
781.698	34453.83
782.007	34242.42
782.316	34029.54
782.624	33815.69
782.932	33610.31
783.241	33418.61
783.549	33222.44
783.858	33053.9
784.166	32883.67
784.474	32712.41
784.782	32552.63
785.09	32393.5
785.398	32243.2
785.706	32099.39
786.014	31951.21
786.322	31817.24
786.63	31684.41
786.937	31546.6
787.245	31420
787.553	31290.86
787.86	31178.56
788.168	31058.85
788.475	30952.24
788.783	30858.31
789.09	30760.4
789.398	30664.69
789.705	30555.56
790.012	30454.94
790.319	30345.3
790.626	30235.6
790.933	30140.78
791.24	30042.56
791.547	29950.87
791.854	29853.87
792.161	29761.17
792.468	29665.85
792.774	29565.98
793.081	29480.8
793.388	29399.83
793.694	29307.08
794.001	29218.77
794.307	29092.35
794.614	28989.64
794.92	28856.77
795.226	28726.01
795.533	28619.99
795.839	28520.7
796.145	28412.77
796.451	28299.62
796.757	28197.14
797.063	28086.61
797.369	27974.45
797.675	27875.45
797.98	27774.83
798.286	27653.79
798.592	27542.54
798.898	27431.58
799.203	27317.72
799.509	27197.61
799.814	27071.42
800.12	26972.56
800.425	26863.16
800.73	26756.97
801.035	26639.58
801.341	26548.55
801.646	26450.36
801.951	26344.87
802.256	26236.2
802.561	26134.46
802.866	26047.18
803.171	25950.22
803.476	25860.14
803.78	25766.97
804.085	25664.31
804.39	25547.64
804.694	25452.88
804.999	25354.03
805.303	25260.99
805.608	25173.79
805.912	25083.98
806.216	25016.59
806.521	24936.23
806.825	24858.01
807.129	24786.47
807.433	24709.1
807.737	24637.56
808.041	24578.74
808.345	24523.49
808.649	24466.61
808.953	24416.84
809.257	24356.8
809.561	24300.26
809.864	24249.96
810.168	24212.15
810.471	24183.77
810.775	24158.32
811.078	24135.03
811.382	24106.66
811.685	24103.24
811.988	24091.76
812.292	24083.02
812.595	24075.87
812.898	24077.5
813.201	24088.43
813.504	24116.24
813.807	24147.53
814.11	24170.64
814.413	24196.42
814.716	24222.04
815.018	24263.52
815.321	24322.29
815.624	24410.18
815.926	24512.86
816.229	24643.12
816.531	24784.42
816.834	24939.46
817.136	25134.31
817.438	25351.15
817.74	25623.79
818.043	25935.02
818.345	26312.89
818.647	26772.42
818.949	27322.64
819.251	27955.6
819.553	28703.9
819.855	29564.54
820.156	30540.04
820.458	31629.34
820.76	32789.32
821.062	34006.45
821.363	35280.19
821.665	36621.89
821.966	38054.36
822.268	39509.3
822.569	40965.57
822.87	42451.09
823.171	43945.89
823.473	45483.8
823.774	47066.95
824.075	48600.29
824.376	50095.7
824.677	51579.11
824.978	52964.66
825.279	54265.72
825.58	55445.74
825.88	56488.05
826.181	57377.07
826.482	58163.86
826.782	58788.45
827.083	59302.2
827.383	59688.43
827.684	59903.66
827.984	59986.58
828.284	59898.86
828.585	59668.8
828.885	59357.13
829.185	58901.3
829.485	58344.71
829.785	57675.37
830.085	56846.67
830.385	55976.24
830.685	55047.87
830.985	53995.91
831.285	52921.73
831.584	51788.58
831.884	50629.32
832.183	49451.83
832.483	48241.93
832.782	46965.41
833.082	45686.1
833.381	44398.41
833.681	43153.97
833.98	41986.29
834.279	40843.55
834.578	39725.78
834.877	38686.73
835.176	37675.99
835.475	36738.83
835.774	35847.68
836.073	34974.28
836.372	34151.02
836.671	33332.35
836.969	32517.3
837.268	31768.81
837.567	31048.75
837.865	30360.15
838.164	29682.9
838.462	29031.54
838.761	28414.89
839.059	27825.85
839.357	27272.8
839.655	26744.67
839.953	26204.57
840.252	25671.09
840.55	25152.38
840.848	24645.71
841.146	24150.53
841.443	23648.77
841.741	23141.72
842.039	22634.11
842.337	22123.07
842.634	21656.87
842.932	21209.88
843.229	20792.67
843.527	20372.86
843.824	19933.29
844.122	19487.79
844.419	19064.28
844.716	18632.27
845.013	18219.58
845.311	17831.98
845.608	17455.17
845.905	17085.96
846.202	16726.43
846.499	16358.92
846.796	15990.21
847.092	15621.06
847.389	15254.65
847.686	14915.95
847.982	14598.17
848.279	14288.13
848.576	13999.65
848.872	13698.67
849.168	13411.92
849.465	13125.58
849.761	12834.77
850.057	12556.69
850.354	12288.25
850.65	12038.2
850.946	11808.67
851.242	11585.96
851.538	11365.16
851.834	11146.57
852.13	10931.76
852.425	10732.46
852.721	10552.44
853.017	10385.47
853.312	10232.56
853.608	10089.15
853.903	9946.79
854.199	9801.38
854.494	9669.56
854.79	9541.35
855.085	9408.99
855.38	9278.47
855.675	9148
855.971	9026.45
856.266	8926.35
856.561	8830.64
856.856	8737.12
857.151	8642.35
857.445	8542.8
857.74	8444.31
858.035	8352.17
858.33	8256.91
858.624	8171.19
858.919	8090.52
859.213	8003.2
859.508	7920.95
859.802	7831.53
860.096	7749.51
860.391	7681.45
860.685	7616.66
860.979	7554.97
861.273	7506.12
861.567	7447.37
861.861	7381.65
862.155	7325.4
862.449	7257.89
862.743	7190.92
863.037	7133.16
863.33	7075.13
863.624	7022.36
863.918	6975.77
864.211	6934.1
864.505	6901.55
864.798	6860.89
865.092	6814.46
865.385	6769.28
865.678	6719.35
865.971	6684.33
866.264	6649.18
866.558	6621.64
866.851	6590.12
867.144	6560.38
867.437	6526.49
867.729	6497.16
868.022	6477.09
868.315	6458.9
868.608	6447.52
868.9	6442.25
869.193	6421.04
869.485	6393.2
869.778	6369.85
870.07	6341.79
870.363	6320.63
870.655	6305.1
870.947	6296.34
871.239	6286.6
871.532	6288.54
871.824	6291.72
872.116	6288.35
872.408	6285.54
872.699	6271.42
872.991	6263.43
873.283	6257.96
873.575	6255.98
873.867	6262.03
874.158	6266.11
874.45	6260.76
874.741	6255.83
875.033	6252.34
875.324	6264.92
875.615	6287.8
875.907	6309.42
876.198	6325.4
876.489	6335.02
876.78	6335.64
877.071	6335.23
877.362	6340.75
877.653	6341.6
877.944	6348.72
878.235	6357.25
878.526	6364.62
878.816	6380.33
