Data from 24HourExp_27052025_FLMS018081_09-28-19-370.txt Node
Date: Wed May 28 09:28:19 BST 2025
User: adleo
Spectrometer: FLMS01808
Trigger mode: 0
Integration Time (sec): 4.000000E-1
Scans to average: 10
Electric dark correction enabled: true
Nonlinearity correction enabled: true
Boxcar width: 10
XAxis mode: Wavelengths
Number of Pixels in Spectrum: 2048
>>>>>Begin Spectral Data<<<<<
178.471	-124.73
178.857	-118
179.244	-111.65
179.631	-102.94
180.017	-95.52
180.404	-88.02
180.79	-77.51
181.176	-69.43
181.563	-60.37
181.949	-48.91
182.335	-38.96
182.722	-23.12
183.108	-4.4
183.494	22.18
183.88	74.99
184.266	128.95
184.653	183.85
185.039	238.83
185.425	292.77
185.811	347.18
186.197	399.56
186.582	451.8
186.968	502.97
187.354	553.59
187.74	603.44
188.126	653.81
188.511	703.89
188.897	751.61
189.283	800.69
189.668	847.53
190.054	890.22
190.439	936.26
190.825	978.49
191.21	1017.96
191.596	1049.94
191.981	1059.48
192.366	1065.55
192.752	1066.76
193.137	1069.37
193.522	1070.82
193.908	1071.44
194.293	1074.12
194.678	1075.87
195.063	1078.01
195.448	1080.22
195.833	1079.89
196.218	1079.5
196.603	1079.08
196.988	1078.99
197.373	1078.79
197.757	1078.4
198.142	1079.31
198.527	1076.92
198.912	1077.35
199.296	1076.25
199.681	1075.76
200.066	1072.9
200.45	1071.06
200.835	1073.64
201.219	1073.22
201.604	1074.31
201.988	1076.19
202.372	1078.42
202.757	1077.31
203.141	1077.94
203.525	1079.53
203.91	1080.55
204.294	1084.26
204.678	1084.92
205.062	1083.72
205.446	1082.83
205.83	1084.36
206.214	1084.39
206.598	1085.52
206.982	1086.04
207.366	1088.17
207.75	1089.26
208.134	1090.89
208.517	1092.92
208.901	1090.8
209.285	1092.33
209.669	1092.32
210.052	1091.5
210.436	1091.12
210.819	1092.79
211.203	1092.62
211.586	1091.9
211.97	1091.65
212.353	1090.14
212.737	1092.23
213.12	1094.83
213.503	1097.14
213.886	1096.71
214.27	1098.78
214.653	1100.07
215.036	1101.5
215.419	1102.88
215.802	1104.35
216.185	1106.11
216.568	1107.9
216.951	1112.16
217.334	1114.14
217.717	1118.1
218.1	1121.48
218.482	1124.94
218.865	1129.33
219.248	1134.18
219.631	1139.34
220.013	1145.77
220.396	1152.74
220.778	1157.61
221.161	1163.01
221.544	1168.68
221.926	1177.1
222.308	1183.48
222.691	1191.38
223.073	1200.8
223.455	1208.98
223.838	1218.93
224.22	1227.47
224.602	1238.6
224.984	1249.23
225.366	1259.34
225.749	1275.62
226.131	1289.08
226.513	1300.71
226.895	1314.67
227.276	1330.97
227.658	1345.11
228.04	1361.17
228.422	1375.81
228.804	1393.1
229.186	1409.01
229.567	1427.72
229.949	1443.49
230.331	1460.93
230.712	1478.96
231.094	1497.33
231.475	1517.7
231.857	1536.68
232.238	1557.87
232.62	1576.2
233.001	1595.3
233.382	1617.11
233.763	1631.98
234.145	1651.79
234.526	1673.2
234.907	1691.44
235.288	1709.75
235.669	1729.94
236.05	1747.43
236.431	1765.16
236.812	1783.75
237.193	1805.82
237.574	1823.76
237.955	1845.87
238.336	1864.74
238.717	1885.45
239.097	1907.4
239.478	1928.36
239.859	1949.53
240.239	1970.53
240.62	1995.63
241.001	2017.01
241.381	2039.95
241.762	2062.91
242.142	2085.75
242.522	2108
242.903	2131.06
243.283	2155.12
243.663	2180.38
244.044	2209.36
244.424	2236.5
244.804	2262.73
245.184	2288.96
245.564	2319.38
245.944	2348.86
246.324	2378.75
246.704	2408.36
247.084	2435.5
247.464	2465.31
247.844	2494.64
248.224	2523.5
248.604	2551.6
248.983	2582.7
249.363	2612.36
249.743	2643.23
250.122	2671.52
250.502	2701.42
250.882	2733.2
251.261	2764.97
251.641	2795.82
252.02	2825.58
252.399	2859.79
252.779	2894.55
253.158	2929.18
253.537	2964.2
253.917	3003.79
254.296	3042.1
254.675	3080.95
255.054	3118.28
255.433	3160.52
255.812	3198.72
256.191	3239.97
256.57	3278.88
256.949	3321.8
257.328	3365.57
257.707	3410.52
258.086	3458.19
258.465	3506.19
258.843	3556.66
259.222	3605.55
259.601	3659.14
259.979	3710.41
260.358	3762.41
260.736	3816.87
261.115	3873.4
261.493	3926.37
261.872	3976.36
262.25	4034.67
262.629	4089.73
263.007	4152.9
263.385	4210.2
263.763	4275.51
264.142	4340.64
264.52	4405.4
264.898	4467.72
265.276	4532.27
265.654	4600.8
266.032	4670.66
266.41	4738.95
266.788	4808.11
267.166	4883.21
267.544	4955.39
267.921	5034.94
268.299	5112.16
268.677	5191.77
269.055	5272.36
269.432	5356.33
269.81	5440.4
270.188	5524.31
270.565	5612.91
270.943	5700.73
271.32	5788.51
271.697	5877.06
272.075	5970.57
272.452	6066.52
272.829	6163.44
273.207	6263.42
273.584	6365.34
273.961	6467.4
274.338	6577.92
274.715	6693.75
275.092	6811.53
275.469	6930.27
275.846	7052.84
276.223	7175.23
276.6	7292.47
276.977	7416.58
277.354	7543.76
277.731	7672.19
278.108	7804.56
278.484	7936.52
278.861	8068.03
279.238	8205.65
279.614	8346.27
279.991	8484.14
280.367	8627.26
280.744	8774.94
281.12	8924.96
281.497	9072.25
281.873	9227.04
282.249	9379.05
282.625	9525.27
283.002	9670.05
283.378	9818.79
283.754	9964.94
284.13	10116.78
284.506	10279.85
284.882	10438.42
285.258	10590.48
285.634	10748.66
286.01	10907.47
286.386	11065.14
286.762	11228.2
287.138	11392.13
287.513	11556.79
287.889	11723.42
288.265	11883.31
288.641	12044.56
289.016	12205.2
289.392	12371.77
289.767	12535.58
290.143	12698.9
290.518	12860.9
290.894	13027.01
291.269	13187.5
291.644	13348.8
292.02	13504.29
292.395	13656.67
292.77	13809.29
293.145	13966.7
293.52	14122.08
293.895	14273.94
294.27	14429.63
294.646	14579.38
295.02	14724.11
295.395	14875.98
295.77	15027.54
296.145	15187.45
296.52	15343.96
296.895	15500.11
297.269	15653.61
297.644	15804.18
298.019	15957.83
298.393	16110.81
298.768	16259.02
299.143	16411.36
299.517	16559.94
299.891	16718.74
300.266	16874.75
300.64	17037.29
301.015	17202.94
301.389	17371.6
301.763	17542.32
302.137	17708.19
302.512	17894.7
302.886	18074.89
303.26	18259.55
303.634	18438.92
304.008	18615.19
304.382	18798.41
304.756	18975.12
305.13	19160.91
305.504	19345.04
305.877	19532.94
306.251	19737.32
306.625	19942.13
306.999	20154.35
307.372	20367.9
307.746	20584.5
308.119	20799.46
308.493	21004.16
308.866	21209.24
309.24	21420.92
309.613	21627.26
309.987	21841.71
310.36	22031.68
310.733	22243.59
311.107	22456.66
311.48	22673.22
311.853	22899.65
312.226	23118.32
312.599	23352.89
312.972	23571.12
313.345	23795.41
313.718	24023.79
314.091	24241.09
314.464	24473.4
314.837	24695.43
315.21	24908.28
315.582	25123.71
315.955	25332.64
316.328	25555.89
316.7	25776.51
317.073	25995.71
317.446	26216.47
317.818	26438.62
318.191	26670.19
318.563	26894.34
318.936	27097.74
319.308	27304.74
319.68	27507.25
320.053	27705.66
320.425	27887.37
320.797	28066.59
321.169	28231.58
321.541	28375.02
321.913	28505.13
322.285	28618.23
322.657	28735.88
323.029	28885.01
323.401	29031.17
323.773	29198.52
324.145	29370.02
324.517	29554.44
324.889	29726.92
325.26	29925.99
325.632	30142.33
326.004	30377.62
326.375	30628
326.747	30907.09
327.118	31202.78
327.49	31489.55
327.861	31799.02
328.233	32110.25
328.604	32422
328.975	32735.09
329.346	33051.01
329.718	33360.72
330.089	33665.01
330.46	33964.32
330.831	34231.23
331.202	34489.93
331.573	34734.18
331.944	34954.77
332.315	35181.8
332.686	35404.25
333.057	35607.82
333.428	35787.88
333.799	35956.44
334.169	36112.58
334.54	36251.51
334.911	36372.93
335.281	36500.17
335.652	36627.53
336.022	36758.83
336.393	36906.91
336.763	37077.09
337.134	37259.47
337.504	37460.69
337.874	37663.68
338.245	37864.03
338.615	38084.62
338.985	38308.18
339.355	38531
339.726	38759.59
340.096	38983.74
340.466	39236.53
340.836	39478.21
341.206	39721.06
341.576	39964.99
341.945	40208.56
342.315	40442.3
342.685	40686.5
343.055	40935.29
343.425	41173
343.794	41400.22
344.164	41629.5
344.533	41853.98
344.903	42084.76
345.273	42315.89
345.642	42542.75
346.011	42778.31
346.381	43008.07
346.75	43236.18
347.12	43482.41
347.489	43734.86
347.858	43973.57
348.227	44182
348.596	44404.88
348.965	44640.31
349.334	44865.9
349.704	45099.98
350.072	45337.76
350.441	45568.11
350.81	45803.75
351.179	46031.99
351.548	46273.93
351.917	46496.56
352.285	46696.7
352.654	46894.68
353.023	47107.43
353.391	47306.63
353.76	47516.65
354.129	47705.46
354.497	47931.64
354.865	48144.56
355.234	48374.86
355.602	48591.53
355.971	48838.37
356.339	49050.65
356.707	49266.5
357.075	49488.9
357.443	49713.02
357.811	49925.8
358.18	50141.5
358.548	50352.36
358.916	50560.69
359.284	50774.93
359.651	50995.33
360.019	51207.94
360.387	51413.92
360.755	51609.83
361.123	51837.7
361.49	52062.14
361.858	52273.18
362.226	52471.77
362.593	52673.21
362.961	52849.02
363.328	53051.73
363.696	53218.48
364.063	53437.7
364.43	53640.3
364.798	53848.98
365.165	54027.94
365.532	54212.9
365.899	54395.05
366.267	54560.08
366.634	54710.88
367.001	54874.65
367.368	55012.25
367.735	55196.84
368.102	55379.74
368.469	55569.28
368.835	55745.65
369.202	55903.08
369.569	56099.37
369.936	56290.68
370.303	56473.79
370.669	56663.66
371.036	56828.37
371.402	57028.2
371.769	57207.08
372.135	57360.46
372.502	57493.13
372.868	57625.37
373.235	57768.59
373.601	57906.37
373.967	58071.56
374.333	58257.41
374.7	58433.9
375.066	58636.59
375.432	58821.26
375.798	58991.83
376.164	59159.19
376.53	59308.76
376.896	59481.12
377.262	59652.82
377.628	59777.06
377.993	59929
378.359	60079.37
378.725	60232.67
379.091	60380.33
379.456	60508.66
379.822	60637.91
380.187	60779.54
380.553	60979.07
380.918	61171.34
381.284	61344.91
381.649	61523.69
382.015	61661.95
382.38	61785.63
382.745	61953.39
383.11	62104.88
383.476	62246.52
383.841	62371.8
384.206	62525.81
384.571	62642.39
384.936	62778.58
385.301	62954.01
385.666	63079.62
386.031	63229.13
386.396	63388.79
386.76	63540.04
387.125	63727.34
387.49	63929.25
387.855	64128.14
388.219	64288.97
388.584	64458.42
388.948	64645.29
389.313	64804.98
389.677	65005.92
390.042	65239.32
390.406	65383.77
390.771	65563.01
391.135	65754.18
391.499	65988.21
391.863	66217.79
392.227	66456.53
392.592	66646.35
392.956	66832.6
393.32	67031.31
393.684	67250.64
394.048	67423.19
394.412	67600.48
394.775	67754.44
395.139	67908.08
395.503	68058.3
395.867	68204.99
396.231	68344.13
396.594	68448.02
396.958	68588.2
397.321	68744.05
397.685	68861.26
398.048	68997.11
398.412	69137.98
398.775	69260.7
399.139	69382.91
399.502	69484.15
399.865	69627.94
400.228	69826.35
400.592	69959.58
400.955	70156.96
401.318	70286.41
401.681	70443.24
402.044	70583.63
402.407	70730.98
402.77	70882.43
403.133	71072.31
403.496	71220.43
403.859	71376.94
404.221	71619.28
404.584	71853.21
404.947	72094.79
405.309	72295.26
405.672	72540.33
406.034	72763.96
406.397	73020.15
406.759	73239.7
407.122	73428.4
407.484	73604.38
407.847	73786.35
408.209	74039.09
408.571	74267.38
408.933	74529.59
409.296	74783.87
409.658	75015.97
410.02	75293.92
410.382	75603.19
410.744	75859.4
411.106	76145.61
411.468	76420.86
411.83	76656.62
412.191	76859.68
412.553	77040.47
412.915	77271.55
413.277	77478.83
413.638	77679.65
414	77853.16
414.361	78035.8
414.723	78269.91
415.084	78488.49
415.446	78666
415.807	78814.08
416.169	78929.75
416.53	79026.4
416.891	79144.31
417.252	79286.31
417.614	79371.47
417.975	79423.23
418.336	79483.83
418.697	79547.98
419.058	79605.19
419.419	79648.79
419.78	79694.87
420.141	79731.07
420.501	79759.33
420.862	79785.33
421.223	79803.09
421.584	79841.3
421.944	79866.97
422.305	79883.15
422.666	79892.18
423.026	79896.42
423.387	79909.47
423.747	79920.2
424.107	79930.82
424.468	79942.66
424.828	79950.12
425.188	79954.48
425.549	79961.46
425.909	79967.92
426.269	79965.01
426.629	79973.17
426.989	79980.3
427.349	79986.06
427.709	79989.5
428.069	79992.64
428.429	79999.44
428.789	80005.01
429.149	80011
429.508	80014.29
429.868	80017.77
430.228	80023.16
430.587	80026.9
430.947	80029.96
431.306	80035.03
431.666	80040.43
432.025	80041.94
432.385	80044.64
432.744	80047.57
433.103	80049.19
433.463	80051.93
433.822	80062.02
434.181	80063.76
434.54	80065.39
434.899	80068.27
435.258	80072.01
435.618	80075.86
435.976	80077.11
436.335	80080.15
436.694	80081.92
437.053	80083.59
437.412	80084.89
437.771	80084.18
438.129	80086.03
438.488	80088.1
438.847	80088.81
439.205	80089.36
439.564	80091.92
439.922	80092.58
440.281	80092.43
440.639	80093.8
440.997	80093.47
441.356	80092.17
441.714	80092.99
442.072	80091.92
442.431	80092.36
442.789	80092.77
443.147	80091.21
443.505	80092.77
443.863	80092.91
444.221	80092.66
444.579	80094.66
444.937	80095.95
445.294	80097.02
445.652	80098.25
446.01	80099.84
446.368	80099.8
446.725	80100.99
447.083	80099.32
447.441	80099.65
447.798	80102.8
448.156	80102.84
448.513	80103.65
448.87	80105.69
449.228	80105.06
449.585	80104.8
449.942	80104.13
450.3	80103.65
450.657	80105.76
451.014	80106.02
451.371	80106.17
451.728	80106.5
452.085	80105.13
452.442	80103.43
452.799	80104.35
453.156	80104.72
453.513	80103.28
453.869	80104.32
454.226	80103.8
454.583	80105.24
454.939	80104.28
455.296	80103.83
455.653	80104.83
456.009	80103.06
456.366	80102.5
456.722	80104.5
457.078	80105.76
457.435	80106.17
457.791	80106.35
458.147	80104.87
458.503	80105.61
458.86	80106.17
459.216	80105.54
459.572	80105.09
459.928	80107.61
460.284	80107.98
460.64	80108.43
460.996	80109.05
461.351	80109.68
461.707	80110.54
462.063	80110.83
462.419	80110.98
462.774	80111.13
463.13	80111.35
463.486	80112.46
463.841	80114.02
464.197	80112.05
464.552	80110.91
464.908	80111.35
465.263	80113.2
465.618	80115.02
465.974	80114.57
466.329	80115.05
466.684	80116.16
467.039	80116.57
467.394	80115.9
467.749	80116.31
468.104	80115.9
468.459	80116.13
468.814	80116.16
469.169	80115.68
469.524	80116.53
469.879	80117.24
470.233	80117.5
470.588	80117.68
470.943	80118.79
471.297	80119.31
471.652	80121.98
472.006	80124.61
472.361	80124.79
472.715	80124.42
473.07	80122.75
473.424	80123.72
473.778	80123.05
474.133	80123.38
474.487	80125.42
474.841	80126.42
475.195	80127.57
475.549	80127.68
475.903	80129.16
476.257	80129.31
476.611	80129.53
476.965	80130.35
477.319	80131.27
477.673	80132.46
478.026	80133.42
478.38	80135.27
478.734	80134.42
479.087	80135.2
479.441	80135.24
479.795	80135.13
480.148	80135.38
480.502	80137.46
480.855	80138.13
481.208	80139.94
481.562	80139.79
481.915	80140.46
482.268	80141.01
482.621	80140.83
482.974	80142.98
483.328	80144.16
483.681	80145.09
484.034	80146.24
484.387	80146.13
484.739	80147.39
485.092	80145.2
485.445	80144.9
485.798	80143.2
486.151	80145.09
486.503	80145.42
486.856	80144.2
487.209	80145.5
487.561	80145.5
487.914	80145.28
488.266	80144.65
488.618	80143.42
488.971	80144.09
489.323	80142.24
489.675	80142.61
490.028	80144.09
490.38	80143.68
490.732	80142.57
491.084	80143.2
491.436	80142.61
491.788	80142.79
492.14	80143.28
492.492	80144.57
492.844	80145.68
493.196	80146.76
493.548	80145.13
493.899	80144.76
494.251	80147.46
494.603	80147.35
494.954	80146.39
495.306	80146.2
495.657	80146.39
496.009	80148.76
496.36	80149.83
496.712	80151.24
497.063	80150.68
497.414	80149.16
497.765	80149.61
498.117	80149.2
498.468	80147.94
498.819	80150.05
499.17	80150.09
499.521	80148.57
499.872	80148.42
500.223	80148.31
500.574	80149.39
500.924	80150.28
501.275	80149.65
501.626	80149.2
501.977	80148.46
502.327	80149.68
502.678	80151.31
503.029	80152.35
503.379	80152.13
503.73	80152.5
504.08	80151.31
504.43	80148.91
504.781	80149.39
505.131	80148.79
505.481	80149.02
505.831	80147.98
506.182	80148.02
506.532	80147.31
506.882	80146.57
507.232	80147.94
507.582	80147.83
507.932	80146.5
508.281	80146.42
508.631	80146.5
508.981	80145.68
509.331	80146.76
509.681	80146.76
510.03	80145.94
510.38	80146.61
510.729	80145.79
511.079	80144.5
511.428	80143.68
511.778	80145.76
512.127	80144.68
512.476	80144.27
512.826	80145.02
513.175	80146.98
513.524	80145.53
513.873	80145.05
514.222	80145.46
514.571	80145.09
514.92	80144.57
515.269	80144.57
515.618	80145.31
515.967	80147.05
516.316	80147.39
516.665	80148.65
517.014	80149.28
517.362	80150.68
517.711	80149.2
518.059	80149.17
518.408	80148.94
518.757	80150.46
519.105	80151.05
519.453	80151.65
519.802	80151.2
520.15	80150.94
520.498	80149.61
520.847	80148.5
521.195	80149.54
521.543	80152.02
521.891	80152.46
522.239	80153.91
522.587	80154.32
522.935	80154.35
523.283	80153.17
523.631	80152.76
523.979	80151.91
524.326	80151.09
524.674	80149.02
525.022	80149.2
525.369	80148.46
525.717	80150.17
526.064	80148.46
526.412	80147.39
526.759	80148.98
527.107	80149.28
527.454	80148.65
527.801	80149.72
528.149	80151.43
528.496	80152.91
528.843	80151.17
529.19	80151.28
529.537	80149.72
529.884	80150.42
530.231	80148.72
530.578	80149.94
530.925	80151.02
531.272	80150.35
531.619	80152.5
531.966	80154.58
532.312	80154.17
532.659	80154.69
533.006	80153.28
533.352	80154.98
533.699	80155.76
534.045	80153.94
534.392	80154.5
534.738	80155.09
535.084	80155.91
535.431	80155.09
535.777	80153.31
536.123	80155.35
536.469	80154.91
536.815	80155.39
537.161	80155.17
537.507	80153.76
537.853	80153.28
538.199	80151.61
538.545	80151.31
538.891	80149.76
539.237	80148.54
539.582	80149.54
539.928	80150.02
540.274	80149.05
540.619	80149.8
540.965	80148.72
541.31	80148.24
541.656	80147.61
542.001	80148.46
542.347	80146.87
542.692	80146.16
543.037	80146.2
543.382	80142.57
543.728	80142.76
544.073	80141.57
544.418	80140.87
544.763	80142.16
545.108	80141.57
545.453	80141.79
545.798	80143.83
546.142	80142.42
546.487	80142.09
546.832	80142.76
547.177	80143.61
547.521	80144.83
547.866	80144.28
548.211	80144.68
548.555	80143.87
548.9	80145.02
549.244	80144.02
549.588	80144.39
549.933	80146.39
550.277	80148.24
550.621	80151.72
550.965	80151.83
551.31	80151.39
551.654	80152.02
551.998	80153.46
552.342	80152.2
552.686	80153.39
553.03	80151.5
553.373	80153.06
553.717	80152.61
554.061	80150.87
554.405	80149.13
554.748	80148.13
555.092	80148.28
555.436	80149.13
555.779	80151.87
556.123	80150.87
556.466	80152.94
556.81	80153.09
557.153	80150.35
557.496	80149.13
557.839	80146.65
558.183	80146.42
558.526	80147.79
558.869	80147.72
559.212	80146.72
559.555	80147.39
559.898	80146.94
560.241	80146.68
560.584	80146.39
560.927	80149.05
561.269	80148.17
561.612	80150.31
561.955	80149.09
562.297	80147.2
562.64	80147.32
562.983	80145.98
563.325	80146.17
563.668	80144.05
564.01	80142.24
564.352	80142.46
564.695	80141.16
565.037	80141.13
565.379	80139.61
565.721	80139.68
566.063	80137.46
566.406	80136.16
566.748	80136.13
567.09	80133.79
567.431	80132.91
567.773	80132.76
568.115	80130.61
568.457	80132.39
568.799	80129.61
569.14	80130.72
569.482	80131.64
569.824	80131.53
570.165	80129.72
570.507	80129.46
570.848	80130.13
571.19	80132.64
571.531	80134.76
571.872	80134.94
572.214	80135.39
572.555	80135.39
572.896	80134.31
573.237	80135.16
573.578	80136.39
573.919	80136.31
574.26	80138.2
574.601	80139.35
574.942	80139.46
575.283	80137.72
575.624	80137.16
575.964	80138.57
576.305	80139.42
576.646	80139.57
576.986	80139.53
577.327	80139.53
577.667	80139.72
578.008	80139.87
578.348	80138.42
578.689	80137.72
579.029	80136.83
579.369	80137.75
579.71	80139.09
580.05	80139.87
580.39	80139.87
580.73	80139.31
581.07	80139.2
581.41	80139.46
581.75	80138.87
582.09	80138.79
582.43	80140.53
582.769	80139.57
583.109	80139.87
583.449	80138.94
583.789	80137.31
584.128	80137.42
584.468	80137.83
584.807	80137.57
585.147	80133.31
585.486	80132.39
585.825	80131.61
586.165	80133.09
586.504	80132.79
586.843	80132.05
587.182	80132.98
587.522	80133.53
587.861	80133.5
588.2	80133.02
588.539	80133.9
588.878	80133.65
589.216	80132.13
589.555	80131.42
589.894	80131.35
590.233	80130.31
590.572	80131.87
590.91	80133.87
591.249	80133.72
591.587	80135.68
591.926	80135.02
592.264	80137.13
592.603	80137.5
592.941	80137.35
593.279	80136.53
593.618	80136.42
593.956	80136.31
594.294	80134.49
594.632	80133.42
594.97	80134.79
595.308	80134.31
595.646	80131.42
595.984	80131.31
596.322	80131.75
596.66	80131.16
596.998	80131.42
597.335	80131.24
597.673	80129.79
598.011	80128.49
598.348	80126.42
598.686	80125.16
599.023	80124.68
599.361	80125.05
599.698	80125.01
600.035	80124.46
600.373	80123.64
600.71	80121.68
601.047	80120.53
601.384	80121.16
601.722	80121.72
602.059	80120.09
602.396	80119.2
602.733	80119.35
603.069	80119.31
603.406	80118.2
603.743	80118.83
604.08	80119.05
604.417	80118.09
604.753	80118.13
605.09	80118.98
605.426	80119.79
605.763	80119.16
606.099	80121.79
606.436	80120.53
606.772	80120.46
607.109	80121.31
607.445	80121.83
607.781	80122.94
608.117	80122.72
608.453	80121.09
608.79	80121.5
609.126	80122.61
609.462	80125.31
609.798	80125.87
610.133	80125.98
610.469	80126.16
610.805	80124.9
611.141	80123.24
611.477	80122.9
611.812	80121.72
612.148	80120.83
612.483	80120.13
612.819	80121.09
613.154	80118.35
613.49	80118.57
613.825	80117.76
614.16	80117.05
614.496	80116.16
614.831	80116.98
615.166	80117.42
615.501	80117.46
615.836	80116.42
616.171	80114.61
616.506	80112.16
616.841	80111.9
617.176	80111.02
617.511	80110.39
617.846	80109.94
618.18	80109.83
618.515	80110.5
618.85	80110.94
619.184	80109.98
619.519	80110.02
619.853	80109.94
620.188	80110.16
620.522	80111.28
620.856	80112.28
621.191	80111.68
621.525	80113.28
621.859	80112.53
622.193	80112.31
622.527	80111.53
622.861	80110.83
623.195	80110.31
623.529	80111.91
623.863	80110.91
624.197	80112.05
624.531	80112.68
624.865	80111.54
625.198	80110.98
625.532	80110.65
625.866	80110.17
626.199	80109.87
626.533	80109.09
626.866	80107.06
627.2	80107.2
627.533	80105.87
627.866	80105.24
628.2	80104.1
628.533	80102.69
628.866	80101.69
629.199	80100.54
629.532	80100.24
629.865	80100.17
630.198	80099.1
630.531	80097.91
630.864	80099.76
631.197	80098.28
631.529	80096.54
631.862	80098.17
632.195	80099.21
632.527	80098.39
632.86	80098.1
633.193	80098.91
633.525	80097.62
633.857	80099.32
634.19	80098.65
634.522	80098.06
634.854	80098.25
635.187	80099.58
635.519	80098.43
635.851	80097.32
636.183	80099.25
636.515	80099.84
636.847	80100.21
637.179	80101.28
637.511	80099.13
637.843	80098.47
638.174	80098.91
638.506	80100.13
638.838	80100.17
639.17	80100.47
639.501	80101.06
639.833	80101.47
640.164	80100.13
640.496	80102.8
640.827	80101.5
641.158	80101.06
641.49	80101.21
641.821	80100.72
642.152	80100.69
642.483	80101.95
642.814	80102.5
643.145	80101.5
643.476	80101.21
643.807	80100.43
644.138	80099.47
644.469	80100.98
644.8	80098.91
645.131	80098.24
645.461	80098.43
645.792	80096.91
646.122	80095.32
646.453	80094.73
646.784	80092.91
647.114	80093.88
647.444	80092.77
647.775	80091.51
648.105	80091.14
648.435	80091.8
648.765	80090.99
649.096	80090.18
649.426	80089.47
649.756	80089.25
650.086	80089.47
650.416	80089.47
650.746	80089.32
651.075	80090.66
651.405	80089.81
651.735	80090.58
652.065	80088.84
652.394	80088.77
652.724	80089.14
653.054	80089.84
653.383	80089.21
653.712	80090.14
654.042	80089.92
654.371	80089.51
654.701	80090.62
655.03	80091.32
655.359	80091.4
655.688	80091.91
656.017	80092.58
656.346	80090.06
656.675	80090.99
657.004	80089.51
657.333	80088.4
657.662	80087.33
657.991	80085.62
658.32	80085.7
658.648	80085.22
658.977	80086.66
659.306	80086.7
659.634	80087.7
659.963	80086.4
660.291	80086.77
660.619	80086.66
660.948	80084.7
661.276	80083.33
661.604	80083.77
661.933	80082.7
662.261	80080.81
662.589	80079.3
662.917	80078.04
663.245	80079.55
663.573	80077.33
663.901	80077.15
664.229	80077.67
664.556	80079.3
664.884	80080.26
665.212	80079.96
665.539	80077.45
665.867	80076.56
666.195	80077.19
666.522	80076.48
666.85	80077.82
667.177	80077.89
667.504	80076.3
667.832	80076.6
668.159	80077.56
668.486	80076.78
668.813	80077.85
669.14	80077.78
669.467	80077.93
669.794	80078.63
670.121	80078.15
670.448	80078.89
670.775	80078.26
671.102	80078.67
671.429	80075.89
671.755	80075.15
672.082	80073.71
672.409	80075.41
672.735	80075.56
673.062	80073.41
673.388	80072.27
673.714	80070.23
674.041	80069.19
674.367	80070.56
674.693	80071.23
675.019	80069.82
675.346	80067.53
675.672	80065.31
675.998	80065.27
676.324	80065.72
676.65	80064.05
676.976	80063.9
677.301	80063.27
677.627	80063.2
677.953	80062.68
678.279	80063.64
678.604	80063.46
678.93	80064.31
679.255	80064.01
679.581	80064.35
679.906	80062.65
680.232	80062.31
680.557	80061.83
680.882	80063.13
681.208	80061.72
681.533	80061.35
681.858	80060.94
682.183	80062.13
682.508	80061.57
682.833	80061.79
683.158	80060.72
683.483	80062.13
683.808	80061.06
684.132	80060.28
684.457	80060.39
684.782	80059.98
685.106	80059.54
685.431	80058.61
685.755	80057.98
686.08	80057.21
686.404	80053.88
686.729	80054.84
687.053	80056.21
687.377	80056.99
687.701	80055.58
688.026	80055.47
688.35	80054.99
688.674	80054.73
688.998	80053.77
689.322	80053.4
689.646	80051.59
689.97	80051.99
690.293	80049.44
690.617	80048.22
690.941	80047.37
691.264	80045.59
691.588	80044.3
691.912	80044.89
692.235	80043.3
692.559	80040.86
692.882	80039.16
693.205	80039.35
693.529	80036.57
693.852	80031.88
694.175	80026.63
694.498	80022.75
694.821	80018.31
695.144	80013.66
695.467	80009.22
695.79	80004.38
696.113	79999.69
696.436	79992.78
696.759	79983.18
697.082	79975.83
697.404	79969.37
697.727	79959.63
698.049	79949.88
698.372	79934.06
698.694	79914.53
699.017	79894.16
699.339	79872.4
699.662	79840.98
699.984	79789.42
700.306	79728.98
700.628	79638.7
700.95	79521.25
701.272	79378.72
701.594	79223.49
701.916	79081.79
702.238	78927.15
702.56	78717.64
702.882	78509.23
703.204	78329.14
703.525	78121.62
703.847	77868
704.169	77629.55
704.49	77375.65
704.812	77116.39
705.133	76851.63
705.455	76591.06
705.776	76311.95
706.097	76036.96
706.419	75763.55
706.74	75486.63
707.061	75197.16
707.382	74903.21
707.703	74625.26
708.024	74373.12
708.345	74109.05
708.666	73810.12
708.987	73512.34
709.307	73271.86
709.628	72989.28
709.949	72668.89
710.27	72358.63
710.59	72100.89
710.911	71806.05
711.231	71514.23
711.552	71237.51
711.872	70918.87
712.192	70638.85
712.512	70378.61
712.833	70114.47
713.153	69834.02
713.473	69598.36
713.793	69370.34
714.113	69159.44
714.433	68952.13
714.753	68739.5
715.073	68546.74
715.393	68352.5
715.712	68178.23
716.032	67956.83
716.352	67779.29
716.671	67625.94
716.991	67468.96
717.31	67280.12
717.63	67117.58
717.949	66940.03
718.268	66733.27
718.588	66561.14
718.907	66340.85
719.226	66090.05
719.545	65840.54
719.864	65573.22
720.183	65296.24
720.502	65013.71
720.821	64738.61
721.14	64460.34
721.459	64159.79
721.778	63889.62
722.096	63572.49
722.415	63285.07
722.734	63027.07
723.052	62749.43
723.371	62453.58
723.689	62175.03
724.008	61900.1
724.326	61611.32
724.644	61341.87
724.963	61080.95
725.281	60855.4
725.599	60624
725.917	60431.91
726.235	60239.51
726.553	60084.72
726.871	59901.36
727.189	59705.6
727.507	59512.64
727.824	59359.29
728.142	59220.84
728.46	59028.63
728.777	58933.64
729.095	58793.78
729.413	58649.91
729.73	58507.61
730.047	58379.38
730.365	58262.4
730.682	58154.82
730.999	58076.63
731.317	58007.34
731.634	57932.91
731.951	57813.3
732.268	57696.64
732.585	57554.76
732.902	57394.71
733.219	57241.36
733.536	57066.95
733.852	56949.5
734.169	56822.68
734.486	56674.54
734.802	56520.08
735.119	56401.41
735.435	56221.74
735.752	56064.48
736.068	55892.46
736.385	55726.1
736.701	55535.9
737.017	55301.48
737.333	55049.69
737.65	54734.93
737.966	54360.14
738.282	53963.72
738.598	53552.52
738.914	53095.69
739.23	52607.79
739.545	52092.44
739.861	51534.84
740.177	50989.78
740.493	50393.94
740.808	49817.27
741.124	49205.1
741.439	48627.91
741.755	48057.18
742.07	47535.01
742.386	46977.51
742.701	46477.04
743.016	45981.32
743.331	45510.48
743.647	45096.68
743.962	44709.31
744.277	44370.95
744.592	44096.16
744.907	43878.9
745.222	43720.75
745.537	43631.62
745.851	43595.12
746.166	43617.17
746.481	43677.71
746.795	43787.98
747.11	43939.03
747.424	44109.94
747.739	44278.24
748.053	44449.7
748.368	44593.23
748.682	44710.47
748.996	44841.08
749.311	44942.08
749.625	45044.84
749.939	45143.93
750.253	45199.45
750.567	45266.11
750.881	45325.77
751.195	45385.62
751.509	45448.74
751.822	45492.35
752.136	45535.69
752.45	45591.43
752.763	45652.67
753.077	45708.89
753.39	45741.63
753.704	45762.91
754.017	45781.88
754.331	45821.26
754.644	45830.63
754.957	45845.51
755.27	45848.48
755.584	45863.92
755.897	45868.25
756.21	45859.3
756.523	45833.56
756.836	45816.76
757.149	45748.58
757.461	45683.19
757.774	45601.45
758.087	45483.52
758.4	45353.55
758.712	45200.63
759.025	45047.9
759.337	44891.01
759.65	44731.22
759.962	44583.99
760.275	44436.46
760.587	44291.09
760.899	44149.3
761.211	44050.11
761.523	43981.81
761.836	43985.93
762.148	43989.24
762.46	44028.1
762.772	44095.91
763.083	44229.74
763.395	44370.14
763.707	44582.85
764.019	44800.77
764.33	45028.68
764.642	45280.97
764.954	45547.27
765.265	45824.41
765.577	46089.57
765.888	46331.69
766.199	46574.37
766.511	46788.17
766.822	46998.03
767.133	47172.96
767.444	47341.35
767.755	47433.6
768.066	47491.83
768.377	47478.26
768.688	47409.27
768.999	47314.37
769.31	47183.59
769.621	46990.49
769.931	46776.37
770.242	46519.38
770.553	46223.57
770.863	45887.93
771.174	45534.14
771.484	45148.68
771.794	44746.92
772.105	44336.12
772.415	43911.93
772.725	43466.39
773.035	43021.42
773.345	42566.88
773.656	42105.88
773.966	41638.69
774.276	41212.46
774.585	40782.94
774.895	40350.96
775.205	39975.4
775.515	39580.21
775.824	39192.97
776.134	38812.33
776.444	38447.15
776.753	38084.14
777.063	37746.97
777.372	37429.15
777.681	37104.73
777.991	36802.37
778.3	36507.64
778.609	36210.36
778.918	35925.07
779.228	35667.6
779.537	35415.21
779.846	35159.13
780.154	34911.42
780.463	34673.57
780.772	34433.73
781.081	34209.14
781.39	34010.72
781.698	33793.85
782.007	33595.09
782.316	33391.89
782.624	33178.96
782.932	32975.96
783.241	32790.37
783.549	32595.83
783.858	32429.81
784.166	32266.91
784.474	32098.9
784.782	31934.36
785.09	31772.38
785.398	31631.73
785.706	31491.48
786.014	31348.64
786.322	31210.66
786.63	31077.19
786.937	30948.23
787.245	30822.7
787.553	30699.29
787.86	30593.41
788.168	30477.04
788.475	30368.27
788.783	30274.32
789.09	30181.91
789.398	30089.49
789.705	29991.47
790.012	29895.34
790.319	29789.62
790.626	29687.03
790.933	29597.93
791.24	29510.93
791.547	29428.9
791.854	29334.96
792.161	29233.58
792.468	29138.77
792.774	29045.09
793.081	28962.2
793.388	28882.54
793.694	28784.69
794.001	28692.6
794.307	28572.98
794.614	28468.07
794.92	28342.65
795.226	28217.36
795.533	28107.83
795.839	28005.9
796.145	27885.36
796.451	27776.9
796.757	27670.42
797.063	27563.74
797.369	27456.3
797.675	27351.42
797.98	27244.06
798.286	27123.58
798.592	27026.7
798.898	26912.47
799.203	26797.25
799.509	26679.68
799.814	26555.42
800.12	26459.39
800.425	26347.82
800.73	26236.98
801.035	26118.25
801.341	26017.04
801.646	25919.72
801.951	25813.73
802.256	25710.02
802.561	25610.85
802.866	25515.4
803.171	25421.22
803.476	25334.38
803.78	25238.59
804.085	25139.84
804.39	25031.36
804.694	24935.58
804.999	24825.67
805.303	24736.34
805.608	24660.19
805.912	24579.78
806.216	24511.26
806.521	24434.29
806.825	24358.93
807.129	24283.53
807.433	24216.67
807.737	24148.81
808.041	24085.54
808.345	24037.3
808.649	23981.16
808.953	23938.21
809.257	23884.76
809.561	23838.97
809.864	23787.62
810.168	23751.06
810.471	23719.26
810.775	23691.93
811.078	23671.94
811.382	23651.84
811.685	23648.02
811.988	23636.24
812.292	23623.82
812.595	23623.78
812.898	23626.04
813.201	23632
813.504	23651.04
813.807	23676.78
814.11	23702.56
814.413	23733.89
814.716	23758.84
815.018	23805.16
815.321	23862.1
815.624	23943.39
815.926	24040.4
816.229	24157.14
816.531	24298.82
816.834	24455.77
817.136	24656.36
817.438	24871.56
817.74	25141.28
818.043	25449.06
818.345	25822.92
818.647	26282.74
818.949	26822.97
819.251	27451.12
819.553	28204.91
819.855	29076.48
820.156	30046.53
820.458	31128.37
820.76	32278.49
821.062	33487.07
821.363	34753.19
821.665	36089.17
821.966	37516.31
822.268	38958.44
822.569	40412.3
822.87	41891.88
823.171	43380.7
823.473	44903.94
823.774	46478.69
824.075	48003.01
824.376	49495.33
824.677	50966.99
824.978	52340.67
825.279	53625.99
825.58	54797.66
825.88	55825.01
826.181	56706.43
826.482	57488.63
826.782	58110.28
827.083	58623.8
827.383	59007.01
827.684	59222.54
827.984	59304.18
828.284	59210.07
828.585	58982.45
828.885	58676.16
829.185	58216.5
829.485	57662.81
829.785	56985
830.085	56153.1
830.385	55278.74
830.685	54346.51
830.985	53293.72
831.285	52224.42
831.584	51110.25
831.884	49959.66
832.183	48792.23
832.483	47585.1
832.782	46312.95
833.082	45039.75
833.381	43763.28
833.681	42523.63
833.98	41361.81
834.279	40223.96
834.578	39122.86
834.877	38092.61
835.176	37087.91
835.475	36151.55
835.774	35272.12
836.073	34413.65
836.372	33595.17
836.671	32781.93
836.969	31983.6
837.268	31247.66
837.567	30540.03
837.865	29856.52
838.164	29188.03
838.462	28541.47
838.761	27935.14
839.059	27361.9
839.357	26820.79
839.655	26289.58
839.953	25760.61
840.252	25235.8
840.55	24717.92
840.848	24216.29
841.146	23727.37
841.443	23231.25
841.741	22737.18
842.039	22230.34
842.337	21728.26
842.634	21271.38
842.932	20841.06
843.229	20421.1
843.527	20007.56
843.824	19571.27
844.122	19130.16
844.419	18714.94
844.716	18290.32
845.013	17878.92
845.311	17491.93
845.608	17116.3
845.905	16760.88
846.202	16405.88
846.499	16039.04
846.796	15681.5
847.092	15316.59
847.389	14957.43
847.686	14625.85
847.982	14313.32
848.279	14008.01
848.576	13725.29
848.872	13432.87
849.168	13145.72
849.465	12870.55
849.761	12581.75
850.057	12307.72
850.354	12047.13
850.65	11800.75
850.946	11574.68
851.242	11357.93
851.538	11138.91
851.834	10924.78
852.13	10710.57
852.425	10518.48
852.721	10346.71
853.017	10182.45
853.312	10037.19
853.608	9894.49
853.903	9753.74
854.199	9609.31
854.494	9481.02
854.79	9350.81
855.085	9220.97
855.38	9096.39
855.675	8965.01
855.971	8848.62
856.266	8748.7
856.561	8655.35
856.856	8563.38
857.151	8476.19
857.445	8376.61
857.74	8281.25
858.035	8189.01
858.33	8099.63
858.624	8014.05
858.919	7933.87
859.213	7850.75
859.508	7766.3
859.802	7679.32
860.096	7598.01
860.391	7534.28
860.685	7470.53
860.979	7414.16
861.273	7364.7
861.567	7305.85
861.861	7244.65
862.155	7193.36
862.449	7125.74
862.743	7062.46
863.037	7003.83
863.33	6945.12
863.624	6895.27
863.918	6852.97
864.211	6815.19
864.505	6783.33
864.798	6745.08
865.092	6695.81
865.385	6652.12
865.678	6602.14
865.971	6567.24
866.264	6538.4
866.558	6510.82
866.851	6484.07
867.144	6452.57
867.437	6419.4
867.729	6387.82
868.022	6366.83
868.315	6347.2
868.608	6338.25
868.9	6328.78
869.193	6312.04
869.485	6286
869.778	6261.68
870.07	6233.74
870.363	6212.44
870.655	6193.7
870.947	6187.58
871.239	6181.52
871.532	6181.65
871.824	6188.68
872.116	6187.12
872.408	6181.96
872.699	6167.17
872.991	6156.79
873.283	6151.34
873.575	6152.05
873.867	6161.4
874.158	6168.1
874.45	6163.98
874.741	6159.89
875.033	6156.95
875.324	6169.41
875.615	6192.35
875.907	6216.93
876.198	6233.56
876.489	6244.64
876.78	6248.37
877.071	6244.65
877.362	6248.6
877.653	6249.48
877.944	6256.19
878.235	6266.86
878.526	6274.75
878.816	6293.73
