Data from 24HourExp_27052025_FLMS018081_12-48-20-002.txt Node
Date: Tue May 27 12:48:20 BST 2025
User: adleo
Spectrometer: FLMS01808
Trigger mode: 0
Integration Time (sec): 4.000000E-1
Scans to average: 10
Electric dark correction enabled: true
Nonlinearity correction enabled: true
Boxcar width: 10
XAxis mode: Wavelengths
Number of Pixels in Spectrum: 2048
>>>>>Begin Spectral Data<<<<<
178.471	-120.56
178.857	-114.65
179.244	-110.07
179.631	-100.28
180.017	-93.17
180.404	-86.25
180.79	-75.63
181.176	-67.73
181.563	-58.99
181.949	-48.28
182.335	-38.5
182.722	-22.75
183.108	-4.93
183.494	21.41
183.88	73.94
184.266	124.81
184.653	179.66
185.039	234.31
185.425	290.56
185.811	341.81
186.197	392.97
186.582	444.13
186.968	495.77
187.354	548.58
187.74	598.65
188.126	648.39
188.511	700.21
188.897	746.94
189.283	794.51
189.668	840.27
190.054	883.72
190.439	928.87
190.825	970.75
191.21	1011.89
191.596	1045.66
191.981	1054.3
192.366	1061.48
192.752	1063.61
193.137	1066.4
193.522	1066.09
193.908	1069.21
194.293	1073.83
194.678	1074.5
195.063	1075.84
195.448	1077.94
195.833	1077
196.218	1077.97
196.603	1075.81
196.988	1075.92
197.373	1077.04
197.757	1077.95
198.142	1078.18
198.527	1076.27
198.912	1076.34
199.296	1076.25
199.681	1073.9
200.066	1070.74
200.45	1070.48
200.835	1071.44
201.219	1071.9
201.604	1073.41
201.988	1073.05
202.372	1072.9
202.757	1073.83
203.141	1076.16
203.525	1074.89
203.91	1076.01
204.294	1077.62
204.678	1078.15
205.062	1077.74
205.446	1078.76
205.83	1080.14
206.214	1079.88
206.598	1080.5
206.982	1081.94
207.366	1080.96
207.75	1081.88
208.134	1084.02
208.517	1084.57
208.901	1085.59
209.285	1085.71
209.669	1085.11
210.052	1086.18
210.436	1086.44
210.819	1087.54
211.203	1086.8
211.586	1089.31
211.97	1090.85
212.353	1088.59
212.737	1091.44
213.12	1094.07
213.503	1094.56
213.886	1093.53
214.27	1097.26
214.653	1098.25
215.036	1100.21
215.419	1103.74
215.802	1106.64
216.185	1108.87
216.568	1112.25
216.951	1113.81
217.334	1116.21
217.717	1121.42
218.1	1124.58
218.482	1127.32
218.865	1130.59
219.248	1136.21
219.631	1138.75
220.013	1143.03
220.396	1151.38
220.778	1154.52
221.161	1159.82
221.544	1165.15
221.926	1173.22
222.308	1179.67
222.691	1186.19
223.073	1195.76
223.455	1204.85
223.838	1213.82
224.22	1220.78
224.602	1229.7
224.984	1240.14
225.366	1252.9
225.749	1264.21
226.131	1276.58
226.513	1289.66
226.895	1303.78
227.276	1315.65
227.658	1333.32
228.04	1347.55
228.422	1361.72
228.804	1379.08
229.186	1393.85
229.567	1411.52
229.949	1427.5
230.331	1442.85
230.712	1461.11
231.094	1478.02
231.475	1496.1
231.857	1515.31
232.238	1537.03
232.62	1556.48
233.001	1576.98
233.382	1595.17
233.763	1615.82
234.145	1634.93
234.526	1655.3
234.907	1673.86
235.288	1692.2
235.669	1708.91
236.05	1727.01
236.431	1744.52
236.812	1764.08
237.193	1785.86
237.574	1806.04
237.955	1827.97
238.336	1850.95
238.717	1873.93
239.097	1895.7
239.478	1917.76
239.859	1937.11
240.239	1960.12
240.62	1982.43
241.001	2001.03
241.381	2024.86
241.762	2046.38
242.142	2068.73
242.522	2091.61
242.903	2115.78
243.283	2141.8
243.663	2167.29
244.044	2197.77
244.424	2226.63
244.804	2253.9
245.184	2283.41
245.564	2310.77
245.944	2340.37
246.324	2369.05
246.704	2400.61
247.084	2428.59
247.464	2458.6
247.844	2490.88
248.224	2520.32
248.604	2553.56
248.983	2586.93
249.363	2618.05
249.743	2646.77
250.122	2677.09
250.502	2705.81
250.882	2735.89
251.261	2767.92
251.641	2800.69
252.02	2830.65
252.399	2863.65
252.779	2897.29
253.158	2930.14
253.537	2967.73
253.917	3009.94
254.296	3046.99
254.675	3083.45
255.054	3124.25
255.433	3164.09
255.812	3202.33
256.191	3243.33
256.57	3280.61
256.949	3322.47
257.328	3364.15
257.707	3408.02
258.086	3454.25
258.465	3500.99
258.843	3554.24
259.222	3601.18
259.601	3653.24
259.979	3704.88
260.358	3757.01
260.736	3810.93
261.115	3863.78
261.493	3915.71
261.872	3963.43
262.25	4018.43
262.629	4070.84
263.007	4126.66
263.385	4180.92
263.763	4242.26
264.142	4302.76
264.52	4366.08
264.898	4428.37
265.276	4492.42
265.654	4561.6
266.032	4628.99
266.41	4698.19
266.788	4764.22
267.166	4840.86
267.544	4911.73
267.921	4990.29
268.299	5068.64
268.677	5146.13
269.055	5226.64
269.432	5308.92
269.81	5393.3
270.188	5481.39
270.565	5573.43
270.943	5663.03
271.32	5755.35
271.697	5846.11
272.075	5936.91
272.452	6031.47
272.829	6128.91
273.207	6226.13
273.584	6326.53
273.961	6431.03
274.338	6543.07
274.715	6657.35
275.092	6775.2
275.469	6898.35
275.846	7014.14
276.223	7133.18
276.6	7251.84
276.977	7378.41
277.354	7504.97
277.731	7631.39
278.108	7760.53
278.484	7889.42
278.861	8024.22
279.238	8165.15
279.614	8305.67
279.991	8449.1
280.367	8592.58
280.744	8738.5
281.12	8888.63
281.497	9037.62
281.873	9191.07
282.249	9337.71
282.625	9486.86
283.002	9633.06
283.378	9778.36
283.754	9929.29
284.13	10083.31
284.506	10246.34
284.882	10401.31
285.258	10556.14
285.634	10711.23
286.01	10871.27
286.386	11031.19
286.762	11191.88
287.138	11351.87
287.513	11513.41
287.889	11675.84
288.265	11841.01
288.641	11998.74
289.016	12156.58
289.392	12320.59
289.767	12480.59
290.143	12649.82
290.518	12811.57
290.894	12972.55
291.269	13129.66
291.644	13291.25
292.02	13447.03
292.395	13595.38
292.77	13752.93
293.145	13909.18
293.52	14065.41
293.895	14213.74
294.27	14366.55
294.646	14522.15
295.02	14673.14
295.395	14827.31
295.77	14985.66
296.145	15138.37
296.52	15299.4
296.895	15459.93
297.269	15614.71
297.644	15770.7
298.019	15919.76
298.393	16077.16
298.768	16232.04
299.143	16392.29
299.517	16541.33
299.891	16697.2
300.266	16861.04
300.64	17013.68
301.015	17174.64
301.389	17348.07
301.763	17520.6
302.137	17691.73
302.512	17867.2
302.886	18046.4
303.26	18231.53
303.634	18410.82
304.008	18588.79
304.382	18772.2
304.756	18955.12
305.13	19138.84
305.504	19316.59
305.877	19502.15
306.251	19704.78
306.625	19905.39
306.999	20107.62
307.372	20320.08
307.746	20537.23
308.119	20748.54
308.493	20963.39
308.866	21172.62
309.24	21381.02
309.613	21589.38
309.987	21794.11
310.36	21988.21
310.733	22198.65
311.107	22408.17
311.48	22624.23
311.853	22852
312.226	23073.6
312.599	23300.9
312.972	23522.01
313.345	23748.92
313.718	23979.85
314.091	24192.53
314.464	24424.4
314.837	24648.52
315.21	24862.25
315.582	25079.96
315.955	25290.46
316.328	25513.4
316.7	25737.31
317.073	25955.89
317.446	26176.98
317.818	26412.72
318.191	26646.33
318.563	26862.65
318.936	27072.37
319.308	27274.22
319.68	27473.91
320.053	27669.85
320.425	27853.1
320.797	28037.06
321.169	28201.15
321.541	28345.52
321.913	28478.75
322.285	28594.38
322.657	28720.59
323.029	28863.05
323.401	29004.28
323.773	29169.75
324.145	29334.79
324.517	29519.27
324.889	29699.23
325.26	29898.76
325.632	30107.22
326.004	30338.66
326.375	30590.68
326.747	30861.28
327.118	31160.42
327.49	31446.35
327.861	31752.32
328.233	32058.63
328.604	32366.07
328.975	32681.25
329.346	32999.35
329.718	33306.8
330.089	33604.92
330.46	33889.07
330.831	34163.85
331.202	34420.74
331.573	34668.98
331.944	34893.45
332.315	35116.86
332.686	35331.23
333.057	35530.01
333.428	35707.67
333.799	35882.3
334.169	36034.28
334.54	36176.52
334.911	36291.8
335.281	36420.12
335.652	36543.69
336.022	36684.39
336.393	36828.84
336.763	36990.88
337.134	37169.07
337.504	37372.03
337.874	37579.04
338.245	37790.21
338.615	38005.41
338.985	38231.99
339.355	38450.38
339.726	38677.17
340.096	38896.51
340.466	39147.33
340.836	39384.34
341.206	39632.32
341.576	39871.68
341.945	40116.49
342.315	40345.53
342.685	40590.28
343.055	40839.91
343.425	41077.84
343.794	41299.49
344.164	41531.39
344.533	41770.6
344.903	41996.14
345.273	42222.7
345.642	42448.16
346.011	42680.02
346.381	42916.69
346.75	43148.08
347.12	43385.57
347.489	43638.95
347.858	43882.44
348.227	44089.39
348.596	44311.37
348.965	44543.99
349.334	44772.18
349.704	45011.6
350.072	45261.99
350.441	45498.72
350.81	45738.61
351.179	45968.78
351.548	46208.5
351.917	46428.68
352.285	46616.83
352.654	46823.25
353.023	47030.69
353.391	47229.47
353.76	47438.49
354.129	47621.85
354.497	47853.65
354.865	48073.18
355.234	48297.8
355.602	48516.76
355.971	48769.36
356.339	48989.93
356.707	49205.47
357.075	49424.26
357.443	49643.92
357.811	49852.46
358.18	50058.95
358.548	50267.26
358.916	50478.24
359.284	50693.87
359.651	50916.88
360.019	51138.79
360.387	51341.12
360.755	51539.7
361.123	51765.75
361.49	51990.57
361.858	52205.75
362.226	52404.61
362.593	52612.69
362.961	52792.4
363.328	52989.54
363.696	53151.74
364.063	53367.99
364.43	53575.08
364.798	53785.61
365.165	53964.33
365.532	54152.45
365.899	54337.55
366.267	54508.5
366.634	54659.04
367.001	54826.22
367.368	54959.88
367.735	55137.59
368.102	55309.28
368.469	55509.93
368.835	55687.28
369.202	55844.32
369.569	56040.5
369.936	56225.41
370.303	56406.79
370.669	56608.74
371.036	56774.19
371.402	56977.99
371.769	57157.97
372.135	57302.88
372.502	57430.9
372.868	57574.13
373.235	57708.56
373.601	57847.85
373.967	58013.94
374.333	58193.9
374.7	58367.86
375.066	58569.24
375.432	58754.79
375.798	58937.44
376.164	59093.49
376.53	59238.45
376.896	59411.2
377.262	59576.86
377.628	59699.58
377.993	59844.52
378.359	59988.81
378.725	60144.15
379.091	60288.79
379.456	60419.76
379.822	60560.71
380.187	60702.38
380.553	60890.12
380.918	61090.55
381.284	61266.32
381.649	61428.86
382.015	61566.4
382.38	61692.67
382.745	61858.23
383.11	62013.75
383.476	62156.66
383.841	62286.6
384.206	62442.88
384.571	62557.25
384.936	62689.06
385.301	62861.14
385.666	62996.19
386.031	63142.72
386.396	63305.11
386.76	63457.82
387.125	63649.88
387.49	63845.01
387.855	64042.57
388.219	64205.04
388.584	64378.29
388.948	64567.58
389.313	64734.81
389.677	64947.52
390.042	65177.61
390.406	65331.66
390.771	65502.04
391.135	65692.33
391.499	65929.88
391.863	66161.44
392.227	66404.63
392.592	66599.53
392.956	66797.16
393.32	66984.81
393.684	67197.59
394.048	67369.5
394.412	67550.18
394.775	67690.31
395.139	67829.71
395.503	67988.93
395.867	68138.6
396.231	68272.23
396.594	68378.78
396.958	68520.06
397.321	68679.54
397.685	68801.64
398.048	68943.35
398.412	69085.92
398.775	69210.18
399.139	69332.79
399.502	69444.16
399.865	69578.15
400.228	69763.52
400.592	69896.12
400.955	70095.11
401.318	70226.75
401.681	70384.56
402.044	70513.27
402.407	70666.67
402.77	70834.11
403.133	71017.23
403.496	71153.17
403.859	71306.31
404.221	71546.65
404.584	71782.85
404.947	72017.61
405.309	72220.22
405.672	72442.33
406.034	72666.1
406.397	72921.67
406.759	73138.33
407.122	73311.98
407.484	73491.24
407.847	73688.22
408.209	73931.59
408.571	74161.6
408.933	74430.49
409.296	74680.19
409.658	74924.89
410.02	75200.82
410.382	75510.98
410.744	75772.44
411.106	76071.09
411.468	76351.29
411.83	76583.08
412.191	76778.15
412.553	76954.9
412.915	77177.82
413.277	77401.98
413.638	77605.35
414	77775.27
414.361	77959.08
414.723	78202.13
415.084	78426.28
415.446	78604.29
415.807	78755.4
416.169	78873.22
416.53	78965.8
416.891	79083.76
417.252	79222.17
417.614	79311.88
417.975	79358.5
418.336	79415.92
418.697	79477.12
419.058	79531.17
419.419	79576.61
419.78	79630.11
420.141	79670.48
420.501	79701.93
420.862	79727.73
421.223	79748.63
421.584	79791.9
421.944	79816.05
422.305	79830.7
422.666	79839.36
423.026	79845.07
423.387	79857.41
423.747	79866.54
424.107	79881.09
424.468	79894.54
424.828	79901.18
425.188	79905.94
425.549	79914.16
425.909	79920.21
426.269	79920.4
426.629	79925.38
426.989	79928.85
427.349	79934.87
427.709	79937.34
428.069	79941.81
428.429	79945.1
428.789	79953.85
429.149	79959.43
429.508	79962.86
429.868	79968.48
430.228	79974.57
430.587	79980.96
430.947	79986.65
431.306	79992.74
431.666	79996.77
432.025	79998.92
432.385	80001.5
432.744	80004.24
433.103	80007.42
433.463	80011.41
433.822	80019.68
434.181	80023.23
434.54	80026.4
434.899	80025.66
435.258	80029.06
435.618	80030.4
435.976	80034.79
436.335	80036.27
436.694	80037.16
437.053	80037.9
437.412	80036.86
437.771	80038.82
438.129	80038.08
438.488	80039.49
438.847	80041.12
439.205	80040.53
439.564	80042.89
439.922	80045.11
440.281	80046.03
440.639	80045.41
440.997	80046.29
441.356	80047.63
441.714	80047.63
442.072	80047.63
442.431	80049.18
442.789	80049.55
443.147	80049.47
443.505	80050.73
443.863	80050.33
444.221	80050.03
444.579	80049.29
444.937	80048.74
445.294	80048
445.652	80049.14
446.01	80048.92
446.368	80049.88
446.725	80051.03
447.083	80050.14
447.441	80050.66
447.798	80051.77
448.156	80055.14
448.513	80055.62
448.87	80056.5
449.228	80057.43
449.585	80057.61
449.942	80057.91
450.3	80058.58
450.657	80058.8
451.014	80057.98
451.371	80057.84
451.728	80057.72
452.085	80057.87
452.442	80060.17
452.799	80060.76
453.156	80060.83
453.513	80060.13
453.869	80059.57
454.226	80059.43
454.583	80060.31
454.939	80060.16
455.296	80059.35
455.653	80058.5
456.009	80057.28
456.366	80055.47
456.722	80053.84
457.078	80054.58
457.435	80054.58
457.791	80054.06
458.147	80053.73
458.503	80052.88
458.86	80055.25
459.216	80057.69
459.572	80059.06
459.928	80059.13
460.284	80060.17
460.64	80059.32
460.996	80059.39
461.351	80059.35
461.707	80059.17
462.063	80058.35
462.419	80058.61
462.774	80057.84
463.13	80055.91
463.486	80056.76
463.841	80058.13
464.197	80059.57
464.552	80060.65
464.908	80059.8
465.263	80061.9
465.618	80063.46
465.974	80064.16
466.329	80062.79
466.684	80061.61
467.039	80062.75
467.394	80063.42
467.749	80062.68
468.104	80063.64
468.459	80064.9
468.814	80065.49
469.169	80065.53
469.524	80067.01
469.879	80066.71
470.233	80066.86
470.588	80069.08
470.943	80069.38
471.297	80069.6
471.652	80070.78
472.006	80070.6
472.361	80071.93
472.715	80070.89
473.07	80070.97
473.424	80073.3
473.778	80074.26
474.133	80075.59
474.487	80075.89
474.841	80075
475.195	80076.07
475.549	80078.07
475.903	80079.59
476.257	80081.14
476.611	80084.4
476.965	80085.47
477.319	80086.73
477.673	80090.14
478.026	80091.51
478.38	80092.17
478.734	80092.62
479.087	80095.06
479.441	80095.65
479.795	80098.28
480.148	80099.69
480.502	80101.09
480.855	80101.21
481.208	80101.98
481.562	80100.8
481.915	80101.98
482.268	80104.91
482.621	80105.94
482.974	80105.68
483.328	80106.57
483.681	80106.02
484.034	80104.8
484.387	80102.95
484.739	80103.39
485.092	80101.54
485.445	80101.46
485.798	80102.35
486.151	80103.17
486.503	80102.8
486.856	80103.28
487.209	80100.54
487.561	80100.06
487.914	80100.2
488.266	80099.17
488.618	80096.95
488.971	80098.09
489.323	80096.39
489.675	80094.43
490.028	80092.36
490.38	80092.73
490.732	80091.36
491.084	80092.06
491.436	80091.58
491.788	80093.65
492.14	80094.69
492.492	80097.02
492.844	80097.06
493.196	80097.58
493.548	80097.95
493.899	80096.39
494.251	80096.1
494.603	80098.06
494.954	80097.61
495.306	80096.99
495.657	80097.84
496.009	80098.95
496.36	80098.76
496.712	80101.98
497.063	80103.09
497.414	80104.31
497.765	80103.31
498.117	80102.13
498.468	80102.2
498.819	80103.94
499.17	80103.39
499.521	80103.35
499.872	80101.02
500.223	80100.13
500.574	80099.21
500.924	80100.24
501.275	80101.02
501.626	80102.24
501.977	80103.28
502.327	80102.72
502.678	80105.54
503.029	80105.94
503.379	80107.5
503.73	80108.46
504.08	80105.72
504.43	80105.06
504.781	80105.06
505.131	80104.17
505.481	80105.35
505.831	80104.61
506.182	80105.02
506.532	80105.02
506.882	80104.24
507.232	80105.54
507.582	80106.06
507.932	80107.05
508.281	80105.8
508.631	80105.98
508.981	80105.13
509.331	80104.31
509.681	80106.24
510.03	80103.72
510.38	80104.87
510.729	80103.43
511.079	80103.24
511.428	80103.83
511.778	80105.05
512.127	80105.13
512.476	80106.16
512.826	80107.35
513.175	80107.87
513.524	80107.13
513.873	80107.9
514.222	80108.5
514.571	80107.35
514.92	80107.13
515.269	80105.42
515.618	80106.09
515.967	80106.87
516.316	80108.09
516.665	80106.98
517.014	80106.9
517.362	80106.13
517.711	80103.35
518.059	80103.91
518.408	80104.31
518.757	80104.5
519.105	80103.94
519.453	80103.94
519.802	80104.57
520.15	80102.06
520.498	80102.98
520.847	80101.72
521.195	80100.24
521.543	80101.61
521.891	80103.83
522.239	80104.17
522.587	80104.87
522.935	80104.72
523.283	80104.31
523.631	80102.35
523.979	80102.17
524.326	80102.17
524.674	80103.46
525.022	80106.2
525.369	80106.61
525.717	80105.24
526.064	80105.54
526.412	80104.5
526.759	80104.13
527.107	80102.76
527.454	80104.76
527.801	80104.5
528.149	80104.68
528.496	80105.61
528.843	80103.98
529.19	80102.8
529.537	80102.13
529.884	80102.17
530.231	80100.76
530.578	80101.65
530.925	80103.5
531.272	80103.28
531.619	80101.76
531.966	80100.39
532.312	80098.17
532.659	80096.72
533.006	80097.8
533.352	80097.95
533.699	80099.58
534.045	80099.69
534.392	80098.54
534.738	80098.43
535.084	80097.91
535.431	80099.28
535.777	80099.35
536.123	80100.65
536.469	80101.2
536.815	80100.87
537.161	80101.43
537.507	80101.54
537.853	80099.54
538.199	80098.65
538.545	80099.43
538.891	80099.72
539.237	80099.98
539.582	80102.09
539.928	80102.91
540.274	80101.5
540.619	80102.17
540.965	80100.39
541.31	80102.2
541.656	80104.13
542.001	80104.61
542.347	80103.83
542.692	80102.54
543.037	80102.91
543.382	80101.24
543.728	80101.35
544.073	80102.46
544.418	80101.32
544.763	80102.06
545.108	80102.06
545.453	80100.83
545.798	80099.98
546.142	80099.83
546.487	80100.5
546.832	80099.13
547.177	80099.65
547.521	80099.35
547.866	80100.13
548.211	80100.69
548.555	80099.95
548.9	80098.72
549.244	80096.95
549.588	80095.95
549.933	80097.36
550.277	80097.24
550.621	80096.84
550.965	80095.5
551.31	80094.99
551.654	80096.02
551.998	80096.54
552.342	80097.69
552.686	80099.46
553.03	80098.65
553.373	80099.13
553.717	80099.58
554.061	80099.98
554.405	80098.65
554.748	80100.28
555.092	80098.65
555.436	80099.98
555.779	80101.95
556.123	80103.35
556.466	80103.94
556.81	80105.76
557.153	80104.17
557.496	80102.35
557.839	80102.83
558.183	80103.43
558.526	80105.05
558.869	80104.06
559.212	80102.61
559.555	80101.28
559.898	80101.46
560.241	80102.57
560.584	80102.72
560.927	80102.35
561.269	80101.76
561.612	80102.24
561.955	80102.5
562.297	80102.06
562.64	80100.39
562.983	80098.61
563.325	80098.8
563.668	80098.8
564.01	80097.76
564.352	80097.02
564.695	80098.46
565.037	80097.39
565.379	80096.21
565.721	80093.65
566.063	80092.58
566.406	80091.99
566.748	80091.51
567.09	80090.32
567.431	80089.51
567.773	80089.17
568.115	80088.66
568.457	80088.69
568.799	80087.14
569.14	80085.55
569.482	80085.44
569.824	80086.92
570.165	80086.03
570.507	80086.29
570.848	80086.77
571.19	80086.51
571.531	80089.55
571.872	80090.32
572.214	80092.14
572.555	80092.32
572.896	80092.84
573.237	80094.17
573.578	80096.39
573.919	80096.98
574.26	80096.76
574.601	80096.95
574.942	80095.69
575.283	80095.02
575.624	80094.21
575.964	80095.06
576.305	80093.91
576.646	80094.17
576.986	80092.99
577.327	80091.58
577.667	80090.58
578.008	80089.62
578.348	80090.03
578.689	80086.07
579.029	80083.81
579.369	80082.33
579.71	80082.7
580.05	80083.55
580.39	80082.99
580.73	80081.03
581.07	80079.74
581.41	80079.14
581.75	80077.89
582.09	80078.89
582.43	80080.22
582.769	80081.48
583.109	80081.88
583.449	80082.81
583.789	80081.22
584.128	80080.81
584.468	80080.7
584.807	80079.55
585.147	80078.59
585.486	80078.96
585.825	80080.11
586.165	80081
586.504	80081.99
586.843	80082.11
587.182	80082.44
587.522	80081.33
587.861	80080.92
588.2	80081.11
588.539	80080.96
588.878	80082.4
589.216	80081.77
589.555	80081.7
589.894	80080.88
590.233	80080.29
590.572	80080.51
590.91	80081.81
591.249	80083.25
591.587	80083.99
591.926	80084.07
592.264	80084.51
592.603	80083.88
592.941	80084.14
593.279	80084.36
593.618	80085.18
593.956	80084.77
594.294	80082.85
594.632	80083.92
594.97	80084.47
595.308	80085.07
595.646	80085.81
595.984	80084.62
596.322	80084.62
596.66	80084.1
596.998	80083.44
597.335	80083.47
597.673	80084.55
598.011	80084.55
598.348	80083.33
598.686	80083.29
599.023	80083.07
599.361	80082.59
599.698	80082.62
600.035	80081.48
600.373	80081.66
600.71	80079.22
601.047	80078.15
601.384	80079.48
601.722	80080.51
602.059	80079.37
602.396	80080.26
602.733	80079.59
603.069	80079.85
603.406	80079.37
603.743	80077.96
604.08	80079.22
604.417	80079.22
604.753	80077.7
605.09	80076.85
605.426	80076.33
605.763	80077.52
606.099	80077.22
606.436	80078.03
606.772	80078.41
607.109	80079.15
607.445	80077.33
607.781	80077.48
608.117	80077.66
608.453	80074.85
608.79	80074.96
609.126	80074.15
609.462	80072.52
609.798	80073.11
610.133	80072.15
610.469	80072.45
610.805	80072.56
611.141	80071.67
611.477	80071.34
611.812	80070.78
612.148	80070.38
612.483	80069.97
612.819	80069.45
613.154	80069.19
613.49	80068.04
613.825	80065.68
614.16	80065.83
614.496	80067.16
614.831	80067.93
615.166	80067.12
615.501	80069.6
615.836	80068.6
616.171	80070.71
616.506	80072.23
616.841	80071.78
617.176	80072.34
617.511	80072.71
617.846	80073.22
618.18	80071.34
618.515	80071.93
618.85	80070.86
619.184	80071.82
619.519	80072.97
619.853	80071.63
620.188	80072.41
620.522	80072.56
620.856	80073.74
621.191	80073.22
621.525	80072.6
621.859	80072.63
622.193	80073.26
622.527	80072.89
622.861	80071.89
623.195	80072.04
623.529	80071.04
623.863	80070.45
624.197	80071.45
624.531	80071.67
624.865	80069.86
625.198	80069.04
625.532	80067.93
625.866	80069.19
626.199	80068.64
626.533	80068.08
626.866	80067.97
627.2	80067.64
627.533	80067.38
627.866	80066.68
628.2	80065.05
628.533	80064.2
628.866	80063.57
629.199	80063.38
629.532	80061.87
629.865	80062.57
630.198	80059.68
630.531	80058.69
630.864	80057.69
631.197	80057.58
631.529	80056.43
631.862	80057.28
632.195	80059.24
632.527	80060.09
632.86	80060.53
633.193	80060.28
633.525	80059.65
633.857	80058.06
634.19	80056.69
634.522	80056.69
634.854	80057.35
635.187	80060.31
635.519	80060.94
635.851	80060.94
636.183	80060.72
636.515	80061.5
636.847	80060.98
637.179	80061.57
637.511	80062.13
637.843	80061.98
638.174	80058.5
638.506	80059.35
638.838	80059.43
639.17	80058.83
639.501	80056.47
639.833	80056.25
640.164	80055.76
640.496	80054.88
640.827	80056.06
641.158	80055.58
641.49	80056.76
641.821	80055.32
642.152	80052.92
642.483	80051.84
642.814	80051.21
643.145	80049.66
643.476	80048.7
643.807	80049.14
644.138	80049
644.469	80048.11
644.8	80048.7
645.131	80050.99
645.461	80050.25
645.792	80049.07
646.122	80049.36
646.453	80050.55
646.784	80049.92
647.114	80050.51
647.444	80051.29
647.775	80051.07
648.105	80051.58
648.435	80050.55
648.765	80050.55
649.096	80050.66
649.426	80050.21
649.756	80048.92
650.086	80048.33
650.416	80047.48
650.746	80046.55
651.075	80047.48
651.405	80048.29
651.735	80047.7
652.065	80047.03
652.394	80045.33
652.724	80045.26
653.054	80042.97
653.383	80042.67
653.712	80041.41
654.042	80040.86
654.371	80039.53
654.701	80039.86
655.03	80040.19
655.359	80039.6
655.688	80040.15
656.017	80040.97
656.346	80041.38
656.675	80041.89
657.004	80043.93
657.333	80044.56
657.662	80043.26
657.991	80042.45
658.32	80040.86
658.648	80040.67
658.977	80039.38
659.306	80040.97
659.634	80040.89
659.963	80040.01
660.291	80039.93
660.619	80039.79
660.948	80037.94
661.276	80038.12
661.604	80037.31
661.933	80037.2
662.261	80036.75
662.589	80036.61
662.917	80034.76
663.245	80033.61
663.573	80032.98
663.901	80032.5
664.229	80033.35
664.556	80033.94
664.884	80033.83
665.212	80034.83
665.539	80033.94
665.867	80034.46
666.195	80032.13
666.522	80031.69
666.85	80034.24
667.177	80034.57
667.504	80034.76
667.832	80036.68
668.159	80035.57
668.486	80035.83
668.813	80035.61
669.14	80033.87
669.467	80033.39
669.794	80033.83
670.121	80034.02
670.448	80034.5
670.775	80033.13
671.102	80032.65
671.429	80032.94
671.755	80032.83
672.082	80031.95
672.409	80033.43
672.735	80033.57
673.062	80034.42
673.388	80034.05
673.714	80032.06
674.041	80032.02
674.367	80032.54
674.693	80031.1
675.019	80031.8
675.346	80029.4
675.672	80028.21
675.998	80028.66
676.324	80027.88
676.65	80025.22
676.976	80025.29
677.301	80023.3
677.627	80022.19
677.953	80020.74
678.279	80020.82
678.604	80021.15
678.93	80019.97
679.255	80016.68
679.581	80016.16
679.906	80015.75
680.232	80015.5
680.557	80016.01
680.882	80015.13
681.208	80015.27
681.533	80015.13
681.858	80013.91
682.183	80015.61
682.508	80015.64
682.833	80015.75
683.158	80016.38
683.483	80017.49
683.808	80017.05
684.132	80017.64
684.457	80019.75
684.782	80018.56
685.106	80017.56
685.431	80015.94
685.755	80016.64
686.08	80017.64
686.404	80015.46
686.729	80015.05
687.053	80016.42
687.377	80016.42
687.701	80016.42
688.026	80015.72
688.35	80013.83
688.674	80012.65
688.998	80011.13
689.322	80009.66
689.646	80007.62
689.97	80005.48
690.293	80004.48
690.617	80003.26
690.941	80000.86
691.264	79998.16
691.588	79997.02
691.912	79995.61
692.235	79994.84
692.559	79993.17
692.882	79991.29
693.205	79991.29
693.529	79988.81
693.852	79985.27
694.175	79982.61
694.498	79980.13
694.821	79975.96
695.144	79974.18
695.467	79971.56
695.79	79966.98
696.113	79962.41
696.436	79958.46
696.759	79953.69
697.082	79948.64
697.404	79940.34
697.727	79932.37
698.049	79923.33
698.372	79909.99
698.694	79892.17
699.017	79872.76
699.339	79850.24
699.662	79823.85
699.984	79779.99
700.306	79731.2
700.628	79653.89
700.95	79548.65
701.272	79421.16
701.594	79285.7
701.916	79153.96
702.238	79001.19
702.56	78802.52
702.882	78617.15
703.204	78439.97
703.525	78238.5
703.847	77994.76
704.169	77773.53
704.49	77528.56
704.812	77274.63
705.133	77023.99
705.455	76772.15
705.776	76500.09
706.097	76245.72
706.419	75977.47
706.74	75704.57
707.061	75420.79
707.382	75130.65
707.703	74840.4
708.024	74585.37
708.345	74309.26
708.666	74015.25
708.987	73726.86
709.307	73483.6
709.628	73186.06
709.949	72877.78
710.27	72571.33
710.59	72313.69
710.911	72015.02
711.231	71722.51
711.552	71458.91
711.872	71137.58
712.192	70860.65
712.512	70605.54
712.833	70334.32
713.153	70053.94
713.473	69821.74
713.793	69586.74
714.113	69368.79
714.433	69170.34
714.753	68960.51
715.073	68774.37
715.393	68579.58
715.712	68406.36
716.032	68193.14
716.352	68027.35
716.671	67871.01
716.991	67710.05
717.31	67514.62
717.63	67361.6
717.949	67188.09
718.268	66980.4
718.588	66804.92
718.907	66579.17
719.226	66318.26
719.545	66064.45
719.864	65801.6
720.183	65523.85
720.502	65245.26
720.821	64974.82
721.14	64690.88
721.459	64383.44
721.778	64107.3
722.096	63784.44
722.415	63491.98
722.734	63223.61
723.052	62935.52
723.371	62638.79
723.689	62359.41
724.008	62087.16
724.326	61789.35
724.644	61523.12
724.963	61250.27
725.281	61028.73
725.599	60800.08
725.917	60613.13
726.235	60420.74
726.553	60268.62
726.871	60081.23
727.189	59876.67
727.507	59679.67
727.824	59523.53
728.142	59385.84
728.46	59187.94
728.777	59083.93
729.095	58943.94
729.413	58803.78
729.73	58659.09
730.047	58524.71
730.365	58404.14
730.682	58295.37
730.999	58208.54
731.317	58131.22
731.634	58052.8
731.951	57932.46
732.268	57811.61
732.585	57661.1
732.902	57501.69
733.219	57333.33
733.536	57156.58
733.852	57044.24
734.169	56912.42
734.486	56771
734.802	56610.78
735.119	56502
735.435	56327.61
735.752	56164.43
736.068	55990.39
736.385	55829.46
736.701	55639.18
737.017	55414.44
737.333	55169.38
737.65	54865.74
737.966	54488.59
738.282	54101.43
738.598	53694.91
738.914	53241.12
739.23	52756.66
739.545	52243.43
739.861	51695.71
740.177	51150.9
740.493	50550.16
740.808	49974.62
741.124	49370.41
741.439	48789.03
741.755	48210.51
742.07	47691.36
742.386	47142.01
742.701	46642.45
743.016	46147.82
743.331	45672.62
743.647	45249.8
743.962	44858.14
744.277	44513.91
744.592	44243.78
744.907	44019.24
745.222	43849.5
745.537	43755.39
745.851	43722.37
746.166	43728.75
746.481	43782.91
746.795	43900.05
747.11	44050.98
747.424	44228.01
747.739	44387.68
748.053	44566.93
748.368	44717.22
748.682	44833.69
748.996	44968.3
749.311	45066.86
749.625	45167.01
749.939	45269.94
750.253	45329.92
750.567	45400.81
750.881	45455.32
751.195	45521.87
751.509	45589.37
751.822	45648.69
752.136	45691.34
752.45	45747.48
752.763	45816.51
753.077	45882.11
753.39	45911.61
753.704	45941.23
754.017	45950.75
754.331	45992.57
754.644	46001.79
754.957	46009.12
755.27	46016.62
755.584	46029.14
755.897	46039.22
756.21	46030.16
756.523	46007.4
756.836	45992.5
757.149	45912.71
757.461	45843.37
757.774	45755.4
758.087	45634.29
758.4	45493.11
758.712	45350.83
759.025	45195.49
759.337	45041.62
759.65	44875.29
759.962	44726.01
760.275	44566.4
760.587	44421.74
760.899	44281.52
761.211	44181.09
761.523	44114.54
761.836	44112.99
762.148	44111.7
762.46	44138.67
762.772	44200.47
763.083	44333.81
763.395	44472.46
763.707	44691.16
764.019	44914.34
764.33	45143.07
764.642	45399
764.954	45660.38
765.265	45938.79
765.577	46201.84
765.888	46446.94
766.199	46694.92
766.511	46906.67
766.822	47133.33
767.133	47317.84
767.444	47484.61
767.755	47588.03
768.066	47649.03
768.377	47645.64
768.688	47585.02
768.999	47506.35
769.31	47384.59
769.621	47194.23
769.931	46981.34
770.242	46721.65
770.553	46427.57
770.863	46091.65
771.174	45737.78
771.484	45354.65
771.794	44949.85
772.105	44544.3
772.415	44124.38
772.725	43665.7
773.035	43224.35
773.345	42761.41
773.656	42297.91
773.966	41832.97
774.276	41400.35
774.585	40972.81
774.895	40533.23
775.205	40148.01
775.515	39748.28
775.824	39359.43
776.134	38976.35
776.444	38611.42
776.753	38255.47
777.063	37920.03
777.372	37603.66
777.681	37281.02
777.991	36980.74
778.3	36677.52
778.609	36380.29
778.918	36087.36
779.228	35830.76
779.537	35574.17
779.846	35313.18
780.154	35064.42
780.463	34820.87
780.772	34568.43
781.081	34337.09
781.39	34135.69
781.698	33924.34
782.007	33715.77
782.316	33512.97
782.624	33302.77
782.932	33100.23
783.241	32905.13
783.549	32713.29
783.858	32544.8
784.166	32373.36
784.474	32201.49
784.782	32039.72
785.09	31881.42
785.398	31739.13
785.706	31605.05
786.014	31460.38
786.322	31323.75
786.63	31190.23
786.937	31069.14
787.245	30950.6
787.553	30828.43
787.86	30713.32
788.168	30585.51
788.475	30485.21
788.783	30390.05
789.09	30296.73
789.398	30196.34
789.705	30098.88
790.012	29995.57
790.319	29887.52
790.626	29788.2
790.933	29696.81
791.24	29611.04
791.547	29522.4
791.854	29427.47
792.161	29327.2
792.468	29231.67
792.774	29141.45
793.081	29053.74
793.388	28973.12
793.694	28878.29
794.001	28784.01
794.307	28667.72
794.614	28572.01
794.92	28440.75
795.226	28308.06
795.533	28196.54
795.839	28098.24
796.145	27985.72
796.451	27877.94
796.757	27770.89
797.063	27667.74
797.369	27555.33
797.675	27445.66
797.98	27343.51
798.286	27222.99
798.592	27115.61
798.898	27003.37
799.203	26887.12
799.509	26773.36
799.814	26637.2
800.12	26536.73
800.425	26426.21
800.73	26317.18
801.035	26197.89
801.341	26099.71
801.646	26011.16
801.951	25908.12
802.256	25803.8
802.561	25705.58
802.866	25615.94
803.171	25522.86
803.476	25428.2
803.78	25335.33
804.085	25239.45
804.39	25126.25
804.694	25031.97
804.999	24936.79
805.303	24844.7
805.608	24760.59
805.912	24675.54
806.216	24609.87
806.521	24541.49
806.825	24466.44
807.129	24394.38
807.433	24321.61
807.737	24250.94
808.041	24189.33
808.345	24131.97
808.649	24078.67
808.953	24029.25
809.257	23966.54
809.561	23910.54
809.864	23858.75
810.168	23827.04
810.471	23798.05
810.775	23770.9
811.078	23749.9
811.382	23723.68
811.685	23719.86
811.988	23710.15
812.292	23703.23
812.595	23703.1
812.898	23698.22
813.201	23708.06
813.504	23727.56
813.807	23759.85
814.11	23791.99
814.413	23816.48
814.716	23846.56
815.018	23892.35
815.321	23953.76
815.624	24036.01
815.926	24145.39
816.229	24267
816.531	24405.62
816.834	24565.09
817.136	24757.03
817.438	24971.63
817.74	25241.46
818.043	25552.25
818.345	25926.01
818.647	26381.04
818.949	26926.29
819.251	27555.95
819.553	28302.37
819.855	29173.86
820.156	30139.52
820.458	31220.78
820.76	32371
821.062	33580.47
821.363	34837.73
821.665	36164.43
821.966	37594.57
822.268	39038.41
822.569	40495.42
822.87	41974.01
823.171	43455.13
823.473	44982.17
823.774	46560.23
824.075	48081.47
824.376	49567.72
824.677	51035.53
824.978	52414.43
825.279	53704.85
825.58	54878.63
825.88	55913.8
826.181	56797.58
826.482	57585.36
826.782	58205.1
827.083	58717.93
827.383	59105.08
827.684	59325.02
827.984	59413.45
828.284	59329.14
828.585	59107.59
828.885	58799.58
829.185	58342.32
829.485	57801.09
829.785	57133.22
830.085	56296.52
830.385	55422.16
830.685	54501.96
830.985	53459.46
831.285	52387
831.584	51257.85
831.884	50108.19
832.183	48941.31
832.483	47735.99
832.782	46457.22
833.082	45182.67
833.381	43911.78
833.681	42669.41
833.98	41503.76
834.279	40368.97
834.578	39263.68
834.877	38221.95
835.176	37216.89
835.475	36288.49
835.774	35393.07
836.073	34526.79
836.372	33714.64
836.671	32909.86
836.969	32104.12
837.268	31363.59
837.567	30659.03
837.865	29977.03
838.164	29308.7
838.462	28657.31
838.761	28044.9
839.059	27470.59
839.357	26927.59
839.655	26395.49
839.953	25858.78
840.252	25337.74
840.55	24812.3
840.848	24305.82
841.146	23816.48
841.443	23322.89
841.741	22826.49
842.039	22325.59
842.337	21829.99
842.634	21368.77
842.932	20932.49
843.229	20515.11
843.527	20097.38
843.824	19654.63
844.122	19214.51
844.419	18791.38
844.716	18367.09
845.013	17955.42
845.311	17571.08
845.608	17195.36
845.905	16830.1
846.202	16480.77
846.499	16115.91
846.796	15762.99
847.092	15396.64
847.389	15037.44
847.686	14702.64
847.982	14385.33
848.279	14077.97
848.576	13791.32
848.872	13496.11
849.168	13204.92
849.465	12919.98
849.761	12637.01
850.057	12363.33
850.354	12103.57
850.65	11858.38
850.946	11629.9
851.242	11413.02
851.538	11195.28
851.834	10980.55
852.13	10771.19
852.425	10575.21
852.721	10396.82
853.017	10227.21
853.312	10077.37
853.608	9933.42
853.903	9793.32
854.199	9649.43
854.494	9522.74
854.79	9390.66
855.085	9261.32
855.38	9136.81
855.675	9009.42
855.971	8889.94
856.266	8789.72
856.561	8691.24
856.856	8595.49
857.151	8506.76
857.445	8407.4
857.74	8310.73
858.035	8218.14
858.33	8123.11
858.624	8037.06
858.919	7960.84
859.213	7877.36
859.508	7797.19
859.802	7709.07
860.096	7627.54
860.391	7565.08
860.685	7500.59
860.979	7441.91
861.273	7392.4
861.567	7334.52
861.861	7274.43
862.155	7222.61
862.449	7154.92
862.743	7093.74
863.037	7035.57
863.33	6978.59
863.624	6924.15
863.918	6879.06
864.211	6840.29
864.505	6810.36
864.798	6767.86
865.092	6718.55
865.385	6672.92
865.678	6620.5
865.971	6586.43
866.264	6551.63
866.558	6521.13
866.851	6489.97
867.144	6460.58
867.437	6429.62
867.729	6398.74
868.022	6375.68
868.315	6352.21
868.608	6341.39
868.9	6335.96
869.193	6320.15
869.485	6291.91
869.778	6269.15
870.07	6242.52
870.363	6219.31
870.655	6200.51
870.947	6193.95
871.239	6186.34
871.532	6187.04
871.824	6192.86
872.116	6188.19
872.408	6183.93
872.699	6168.8
872.991	6163.92
873.283	6158.61
873.575	6158.67
873.867	6166.58
874.158	6172.77
874.45	6173.61
874.741	6173.38
875.033	6170.7
875.324	6183.22
875.615	6206.63
875.907	6231.55
876.198	6247.42
876.489	6259.79
876.78	6263.7
877.071	6264.44
877.362	6269.36
877.653	6272.92
877.944	6282.42
878.235	6295.91
878.526	6307.32
878.816	6325.26
