Data from 24HourExp_27052025_FLMS018081_08-28-19-782.txt Node
Date: Wed May 28 08:28:19 BST 2025
User: adleo
Spectrometer: FLMS01808
Trigger mode: 0
Integration Time (sec): 4.000000E-1
Scans to average: 10
Electric dark correction enabled: true
Nonlinearity correction enabled: true
Boxcar width: 10
XAxis mode: Wavelengths
Number of Pixels in Spectrum: 2048
>>>>>Begin Spectral Data<<<<<
178.471	-130.34
178.857	-122.65
179.244	-114.86
179.631	-106.7
180.017	-97.43
180.404	-90.23
180.79	-78.5
181.176	-69.29
181.563	-60.08
181.949	-50.19
182.335	-40.62
182.722	-24.67
183.108	-4.46
183.494	22.49
183.88	77.17
184.266	130.07
184.653	186.49
185.039	241.51
185.425	297.68
185.811	350.96
186.197	404.99
186.582	455.56
186.968	507.47
187.354	558.02
187.74	609.41
188.126	659.88
188.511	710.71
188.897	757.59
189.283	805
189.668	851.59
190.054	896.38
190.439	943.02
190.825	988.34
191.21	1028.79
191.596	1062.31
191.981	1068.45
192.366	1072.3
192.752	1075.02
193.137	1076.77
193.522	1076.67
193.908	1078.3
194.293	1079.41
194.678	1082.06
195.063	1085.07
195.448	1089.38
195.833	1089.24
196.218	1088.34
196.603	1087.81
196.988	1086.56
197.373	1085.44
197.757	1084.94
198.142	1086.22
198.527	1082.41
198.912	1080.3
199.296	1079.42
199.681	1078.63
200.066	1077.57
200.45	1077.53
200.835	1077.44
201.219	1079.14
201.604	1080.03
201.988	1080.65
202.372	1082.4
202.757	1082.66
203.141	1083.26
203.525	1082.1
203.91	1082.23
204.294	1082.01
204.678	1082.67
205.062	1084.27
205.446	1085.86
205.83	1086.31
206.214	1085.37
206.598	1088.03
206.982	1089.36
207.366	1088.96
207.75	1088.33
208.134	1091.16
208.517	1092.94
208.901	1092.31
209.285	1092.38
209.669	1091.59
210.052	1091.51
210.436	1091.36
210.819	1091.5
211.203	1088.03
211.586	1088.27
211.97	1090.97
212.353	1091.77
212.737	1094.75
213.12	1095.88
213.503	1095.94
213.886	1098.07
214.27	1100.44
214.653	1100.03
215.036	1100.91
215.419	1103.02
215.802	1105.97
216.185	1106.67
216.568	1109.51
216.951	1113.9
217.334	1115.91
217.717	1122.64
218.1	1124.36
218.482	1127.18
218.865	1132.82
219.248	1140.64
219.631	1144.97
220.013	1149.39
220.396	1157.09
220.778	1160.22
221.161	1166.36
221.544	1174.63
221.926	1182.57
222.308	1189.75
222.691	1199.37
223.073	1208.63
223.455	1217.61
223.838	1226.87
224.22	1236.95
224.602	1248.13
224.984	1259.33
225.366	1272.8
225.749	1285.93
226.131	1299.12
226.513	1312.63
226.895	1326.71
227.276	1338.45
227.658	1355.01
228.04	1369.49
228.422	1384.57
228.804	1401.63
229.186	1417.68
229.567	1434.51
229.949	1450.2
230.331	1467.85
230.712	1483.51
231.094	1501.25
231.475	1520.25
231.857	1539.55
232.238	1559.84
232.62	1577.73
233.001	1595.81
233.382	1614.03
233.763	1631.63
234.145	1652.73
234.526	1673.15
234.907	1691.84
235.288	1710.86
235.669	1729.49
236.05	1749.97
236.431	1768.22
236.812	1789.1
237.193	1810.05
237.574	1830.17
237.955	1850.06
238.336	1872.03
238.717	1897.41
239.097	1918.9
239.478	1939.98
239.859	1961.7
240.239	1985.55
240.62	2009.52
241.001	2032.35
241.381	2056.97
241.762	2080.87
242.142	2102.43
242.522	2125.43
242.903	2149.78
243.283	2175.86
243.663	2199.59
244.044	2225.72
244.424	2254.17
244.804	2279.99
245.184	2308.81
245.564	2336.24
245.944	2367.21
246.324	2396.16
246.704	2422.6
247.084	2451.25
247.464	2481.77
247.844	2511.61
248.224	2540.26
248.604	2571.06
248.983	2601.76
249.363	2633.08
249.743	2662.15
250.122	2694.63
250.502	2726.41
250.882	2757.31
251.261	2789.02
251.641	2821.1
252.02	2852.61
252.399	2886.37
252.779	2924.27
253.158	2959.34
253.537	2997.62
253.917	3040.32
254.296	3076.68
254.675	3116.29
255.054	3157.9
255.433	3199.24
255.812	3238.59
256.191	3280.86
256.57	3319.98
256.949	3363.96
257.328	3407.91
257.707	3450.87
258.086	3497.07
258.465	3543.22
258.843	3592.4
259.222	3646.14
259.601	3701.68
259.979	3755.36
260.358	3808.18
260.736	3860.27
261.115	3916.34
261.493	3972.42
261.872	4022.26
262.25	4080.44
262.629	4138.09
263.007	4195.56
263.385	4253.68
263.763	4317.62
264.142	4381.01
264.52	4447.52
264.898	4510.13
265.276	4575.11
265.654	4648.39
266.032	4718.95
266.41	4789.54
266.788	4862.98
267.166	4935.55
267.544	5008.05
267.921	5087.01
268.299	5167.2
268.677	5248.93
269.055	5330.51
269.432	5411.75
269.81	5499.83
270.188	5587.38
270.565	5675.76
270.943	5768.27
271.32	5860.25
271.697	5956.48
272.075	6053.81
272.452	6149.12
272.829	6250.04
273.207	6349.64
273.584	6453.64
273.961	6557.52
274.338	6670.95
274.715	6786.24
275.092	6906.43
275.469	7030.59
275.846	7149.95
276.223	7271.74
276.6	7390.61
276.977	7515.58
277.354	7643.94
277.731	7771.29
278.108	7900.99
278.484	8033.13
278.861	8164.6
279.238	8305.59
279.614	8443.39
279.991	8583.14
280.367	8729.32
280.744	8879.25
281.12	9032.49
281.497	9179.07
281.873	9332.88
282.249	9483.9
282.625	9630.86
283.002	9775.9
283.378	9922.88
283.754	10074.74
284.13	10230.27
284.506	10391.03
284.882	10551.08
285.258	10704.17
285.634	10859.01
286.01	11023.82
286.386	11182.62
286.762	11349.75
287.138	11511.56
287.513	11677.11
287.889	11841.29
288.265	12002.99
288.641	12164.91
289.016	12327.66
289.392	12490.01
289.767	12655.39
290.143	12820.29
290.518	12983.37
290.894	13148.82
291.269	13310.6
291.644	13473.9
292.02	13627.76
292.395	13782.77
292.77	13936.75
293.145	14097.99
293.52	14254.95
293.895	14402.48
294.27	14561.75
294.646	14714.65
295.02	14866.53
295.395	15019.6
295.77	15177.9
296.145	15335.59
296.52	15490.79
296.895	15648.57
297.269	15808.28
297.644	15959.7
298.019	16112.97
298.393	16268.97
298.768	16421.09
299.143	16572.97
299.517	16723.02
299.891	16882.55
300.266	17042.11
300.64	17203.86
301.015	17369.05
301.389	17545.81
301.763	17723.98
302.137	17891.52
302.512	18080.19
302.886	18260.46
303.26	18448.71
303.634	18628.8
304.008	18809.69
304.382	18992.14
304.756	19177.98
305.13	19363.59
305.504	19544.81
305.877	19735.82
306.251	19939.94
306.625	20148.81
306.999	20360.97
307.372	20576.41
307.746	20793.73
308.119	21009.93
308.493	21218.23
308.866	21430.89
309.24	21643.43
309.613	21851.43
309.987	22065.95
310.36	22258.12
310.733	22469.38
311.107	22682.82
311.48	22903.47
311.853	23135.31
312.226	23364.78
312.599	23589.81
312.972	23820.29
313.345	24051.44
313.718	24282.92
314.091	24507.9
314.464	24737.81
314.837	24966.78
315.21	25182.28
315.582	25399.1
315.955	25610.24
316.328	25836.89
316.7	26049.68
317.073	26272.46
317.446	26495.35
317.818	26725.74
318.191	26956.3
318.563	27181.6
318.936	27391.93
319.308	27594.91
319.68	27797.33
320.053	27990.33
320.425	28175.48
320.797	28355.69
321.169	28522.01
321.541	28667.46
321.913	28798.46
322.285	28911.39
322.657	29032.23
323.029	29176.87
323.401	29321.8
323.773	29484.29
324.145	29657.29
324.517	29845.48
324.889	30017.02
325.26	30221.47
325.632	30436.38
326.004	30672.7
326.375	30928.51
326.747	31201.57
327.118	31504.78
327.49	31792.4
327.861	32106.35
328.233	32421.17
328.604	32729.94
328.975	33044.58
329.346	33356.34
329.718	33664.52
330.089	33976.73
330.46	34272.94
330.831	34552.64
331.202	34813.54
331.573	35064.02
331.944	35291.9
332.315	35524.6
332.686	35745.98
333.057	35947.89
333.428	36125.98
333.799	36292.22
334.169	36440.34
334.54	36583.06
334.911	36700.05
335.281	36828.29
335.652	36950.58
336.022	37082.21
336.393	37228.71
336.763	37395.04
337.134	37582.51
337.504	37784.68
337.874	37986.03
338.245	38191.48
338.615	38405.57
338.985	38638.02
339.355	38861.82
339.726	39086.43
340.096	39307.89
340.466	39560.27
340.836	39795.81
341.206	40041.84
341.576	40289.5
341.945	40536.45
342.315	40761.14
342.685	41010.38
343.055	41264.04
343.425	41507.12
343.794	41738.72
344.164	41972.14
344.533	42209.22
344.903	42436.21
345.273	42669.62
345.642	42893.2
346.011	43122.06
346.381	43356.94
346.75	43584.83
347.12	43830.07
347.489	44077.54
347.858	44314.31
348.227	44522.55
348.596	44757.27
348.965	44999.68
349.334	45228.25
349.704	45466.35
350.072	45718.11
350.441	45950.02
350.81	46187.15
351.179	46415.01
351.548	46653.41
351.917	46879.2
352.285	47081.27
352.654	47287.27
353.023	47494.44
353.391	47700.87
353.76	47917.3
354.129	48101.23
354.497	48337.64
354.865	48558.94
355.234	48791.77
355.602	49020.79
355.971	49272.31
356.339	49479.03
356.707	49693.48
357.075	49915.68
357.443	50133.32
357.811	50350.78
358.18	50557.17
358.548	50761.87
358.916	50976.85
359.284	51195.85
359.651	51412.15
360.019	51623.38
360.387	51824.68
360.755	52031.25
361.123	52260.9
361.49	52491.52
361.858	52705.66
362.226	52899.15
362.593	53093
362.961	53270.37
363.328	53473.87
363.696	53631.89
364.063	53845.75
364.43	54048
364.798	54259.43
365.165	54443.96
365.532	54626.49
365.899	54816.39
366.267	54983.99
366.634	55130.31
367.001	55288.3
367.368	55425.83
367.735	55603.07
368.102	55782.43
368.469	55970.81
368.835	56149.4
369.202	56309.51
369.569	56510.9
369.936	56695.38
370.303	56885.72
370.669	57087.89
371.036	57249.55
371.402	57466.47
371.769	57649.75
372.135	57800.26
372.502	57924.03
372.868	58068.85
373.235	58207.22
373.601	58348.26
373.967	58526.78
374.333	58712.01
374.7	58899.74
375.066	59103.45
375.432	59292.19
375.798	59474.63
376.164	59641.71
376.53	59781.99
376.896	59951.48
377.262	60126.66
377.628	60258.58
377.993	60411.17
378.359	60556.51
378.725	60710.88
379.091	60854.36
379.456	60986.08
379.822	61128.21
380.187	61281.15
380.553	61469.21
380.918	61667.38
381.284	61839.22
381.649	62004.86
382.015	62147.73
382.38	62262.7
382.745	62432.13
383.11	62586.5
383.476	62727.13
383.841	62854.57
384.206	63017.06
384.571	63135.88
384.936	63263.79
385.301	63437.05
385.666	63570.81
386.031	63720.4
386.396	63883.25
386.76	64036.12
387.125	64227.16
387.49	64416.44
387.855	64612.06
388.219	64783.65
388.584	64957.92
388.948	65153.83
389.313	65325.33
389.677	65530.34
390.042	65771.38
390.406	65924.11
390.771	66112.73
391.135	66297.47
391.499	66533.71
391.863	66768.81
392.227	67011.21
392.592	67217.26
392.956	67416.73
393.32	67607.79
393.684	67829.92
394.048	68004.39
394.412	68185.37
394.775	68334.69
395.139	68484.81
395.503	68643.3
395.867	68789.95
396.231	68931.78
396.594	69034.17
396.958	69173.87
397.321	69328.71
397.685	69449.71
398.048	69584.15
398.412	69720.27
398.775	69858.94
399.139	69975.88
399.502	70080.17
399.865	70226.84
400.228	70415.39
400.592	70552.73
400.955	70757.5
401.318	70879.92
401.681	71034.42
402.044	71174.62
402.407	71332.52
402.77	71496.2
403.133	71690.46
403.496	71834.41
403.859	71984.31
404.221	72221.49
404.584	72448.2
404.947	72689.68
405.309	72895.13
405.672	73134.85
406.034	73351.24
406.397	73602.61
406.759	73832.55
407.122	74021.79
407.484	74187.73
407.847	74376.54
408.209	74622.48
408.571	74845.83
408.933	75114.86
409.296	75379.53
409.658	75628.4
410.02	75901.2
410.382	76202.14
410.744	76450.93
411.106	76740.31
411.468	77018.32
411.83	77250.27
412.191	77447.39
412.553	77619.02
412.915	77826.54
413.277	78025.82
413.638	78214.87
414	78374.36
414.361	78537.04
414.723	78745.96
415.084	78943.21
415.446	79090.3
415.807	79208.73
416.169	79301.02
416.53	79373.29
416.891	79457.92
417.252	79556.98
417.614	79616.48
417.975	79648.31
418.336	79682.93
418.697	79718.51
419.058	79747.49
419.419	79771.35
419.78	79800.74
420.141	79819.95
420.501	79836.74
420.862	79848.56
421.223	79860.83
421.584	79886.96
421.944	79899.68
422.305	79907.75
422.666	79914.06
423.026	79917.24
423.387	79925.94
423.747	79933.5
424.107	79943.61
424.468	79950.92
424.828	79955.09
425.188	79959.12
425.549	79963.73
425.909	79967.68
426.269	79965.73
426.629	79972.52
426.989	79976.73
427.349	79979.8
427.709	79982.09
428.069	79983.64
428.429	79987.82
428.789	79993.4
429.149	79996.54
429.508	80000.27
429.868	80003.08
430.228	80007.74
430.587	80009.58
430.947	80014.43
431.306	80018.23
431.666	80019.71
432.025	80020.67
432.385	80023.93
432.744	80026.74
433.103	80030.62
433.463	80032.43
433.822	80040.56
434.181	80043
434.54	80043.85
434.899	80044.55
435.258	80046.4
435.618	80049.66
435.976	80053.65
436.335	80052.54
436.694	80053.98
437.053	80054.54
437.412	80057.28
437.771	80057.68
438.129	80058.24
438.488	80056.65
438.847	80057.35
439.205	80059.38
439.564	80061.01
439.922	80060.23
440.281	80060.86
440.639	80061.01
440.997	80061.64
441.356	80061.31
441.714	80061.6
442.072	80061.64
442.431	80061.49
442.789	80063.97
443.147	80062.86
443.505	80062.45
443.863	80064.04
444.221	80064.64
444.579	80065.12
444.937	80064.71
445.294	80065.3
445.652	80067.23
446.01	80068.41
446.368	80069.11
446.725	80068.08
447.083	80068.45
447.441	80070.41
447.798	80070.63
448.156	80070.48
448.513	80071.3
448.87	80070.7
449.228	80070.41
449.585	80071.74
449.942	80071.89
450.3	80070.52
450.657	80071.07
451.014	80070.96
451.371	80071.59
451.728	80071.52
452.085	80072.03
452.442	80070.93
452.799	80071.15
453.156	80070.04
453.513	80070.96
453.869	80070.48
454.226	80070.74
454.583	80070.74
454.939	80069.04
455.296	80067.48
455.653	80068.45
456.009	80068.96
456.366	80069.74
456.722	80071.3
457.078	80071.37
457.435	80072.18
457.791	80072.26
458.147	80072.66
458.503	80071.52
458.86	80072.07
459.216	80073.33
459.572	80073.81
459.928	80074.89
460.284	80074.26
460.64	80076.62
460.996	80074.85
461.351	80076.74
461.707	80077.88
462.063	80079.7
462.419	80080.25
462.774	80080.73
463.13	80080.77
463.486	80080.25
463.841	80080.62
464.197	80080.73
464.552	80081.1
464.908	80080.95
465.263	80082.77
465.618	80083.58
465.974	80084.95
466.329	80084.17
466.684	80084.73
467.039	80083.73
467.394	80084.32
467.749	80084.62
468.104	80084.51
468.459	80085.95
468.814	80084.14
469.169	80082.8
469.524	80082.1
469.879	80083.54
470.233	80085.32
470.588	80086.21
470.943	80087.1
471.297	80087.65
471.652	80087.54
472.006	80088.73
472.361	80092.72
472.715	80093.02
473.07	80093.32
473.424	80094.8
473.778	80095.8
474.133	80096.54
474.487	80098.65
474.841	80101.31
475.195	80101.94
475.549	80103.01
475.903	80103.98
476.257	80105.64
476.611	80107.6
476.965	80106.9
477.319	80107.42
477.673	80107.42
478.026	80108.38
478.38	80108.94
478.734	80110.31
479.087	80110.94
479.441	80110.31
479.795	80108.31
480.148	80109.31
480.502	80110.9
480.855	80111.05
481.208	80112.23
481.562	80111.97
481.915	80112.12
482.268	80111.71
482.621	80113.53
482.974	80112.53
483.328	80112.75
483.681	80113.93
484.034	80114.23
484.387	80116.6
484.739	80116.34
485.092	80117.56
485.445	80117.82
485.798	80118.01
486.151	80116.86
486.503	80117.04
486.856	80119.82
487.209	80120.56
487.561	80120.08
487.914	80119.56
488.266	80119.71
488.618	80117.86
488.971	80117.82
489.323	80117.67
489.675	80118.86
490.028	80117.64
490.38	80117.79
490.732	80118.56
491.084	80118.23
491.436	80117.9
491.788	80117.71
492.14	80118.08
492.492	80117.68
492.844	80118.3
493.196	80119.38
493.548	80120.42
493.899	80120.05
494.251	80119.23
494.603	80119.53
494.954	80119.34
495.306	80119.34
495.657	80119.01
496.009	80121.01
496.36	80121.12
496.712	80120.41
497.063	80118.12
497.414	80118.71
497.765	80119.82
498.117	80118.27
498.468	80118.45
498.819	80119.34
499.17	80118.93
499.521	80119.16
499.872	80120.6
500.223	80119.49
500.574	80118.53
500.924	80119.08
501.275	80119.79
501.626	80119.23
501.977	80119.41
502.327	80120.16
502.678	80119.9
503.029	80119.97
503.379	80119.71
503.73	80119.97
504.08	80121.34
504.43	80121.56
504.781	80122.67
505.131	80121.82
505.481	80122.52
505.831	80122.52
506.182	80123.15
506.532	80123.15
506.882	80123.19
507.232	80122.12
507.582	80119.64
507.932	80119.01
508.281	80117.97
508.631	80117.45
508.981	80116.97
509.331	80116.42
509.681	80116.71
510.03	80117.05
510.38	80117.79
510.729	80116.79
511.079	80116.45
511.428	80115.42
511.778	80116.05
512.127	80114.6
512.476	80115.3
512.826	80115.08
513.175	80116.75
513.524	80115.79
513.873	80115.49
514.222	80115.38
514.571	80115.64
514.92	80119.93
515.269	80121.38
515.618	80121.75
515.967	80121.79
516.316	80122.71
516.665	80122.27
517.014	80121.71
517.362	80122.16
517.711	80121.86
518.059	80123.08
518.408	80122.82
518.757	80123.12
519.105	80122.67
519.453	80122.01
519.802	80121.86
520.15	80123.23
520.498	80121.56
520.847	80121.49
521.195	80122.12
521.543	80123.82
521.891	80124.78
522.239	80123.19
522.587	80122.08
522.935	80123.04
523.283	80123.38
523.631	80122.16
523.979	80123.27
524.326	80123.93
524.674	80121.64
525.022	80121.97
525.369	80121.82
525.717	80122.19
526.064	80123.04
526.412	80123.56
526.759	80126.41
527.107	80126.6
527.454	80126.82
527.801	80127.08
528.149	80128.01
528.496	80129.04
528.843	80128.53
529.19	80126.71
529.537	80125.23
529.884	80125.67
530.231	80125.53
530.578	80125.82
530.925	80127.45
531.272	80127.19
531.619	80126.97
531.966	80127.82
532.312	80128.01
532.659	80126.34
533.006	80126.49
533.352	80124.86
533.699	80126.19
534.045	80124.27
534.392	80123.86
534.738	80122.67
535.084	80122.67
535.431	80122.08
535.777	80121.56
536.123	80120.23
536.469	80120.56
536.815	80121.16
537.161	80122.93
537.507	80122.49
537.853	80121.42
538.199	80119.27
538.545	80119.79
538.891	80119.9
539.237	80121.67
539.582	80121.12
539.928	80122.75
540.274	80121.75
540.619	80124.08
540.965	80123.45
541.31	80123.56
541.656	80123.56
542.001	80124.19
542.347	80124.64
542.692	80124.41
543.037	80124.9
543.382	80126.16
543.728	80126.67
544.073	80127.08
544.418	80126.93
544.763	80125.23
545.108	80125.71
545.453	80126.49
545.798	80126.93
546.142	80126.19
546.487	80126.64
546.832	80125.23
547.177	80125.49
547.521	80126.04
547.866	80125.41
548.211	80124.08
548.555	80123.97
548.9	80123.3
549.244	80122.75
549.588	80120.97
549.933	80121.23
550.277	80120.42
550.621	80118.93
550.965	80119.97
551.31	80119.82
551.654	80120.42
551.998	80122.12
552.342	80121.82
552.686	80120.86
553.03	80119.93
553.373	80120.45
553.717	80118.64
554.061	80119.19
554.405	80119.19
554.748	80119.67
555.092	80119.79
555.436	80120.56
555.779	80121.27
556.123	80122.53
556.466	80123.67
556.81	80125.49
557.153	80126.78
557.496	80126.6
557.839	80127.08
558.183	80126.34
558.526	80127.41
558.869	80127.12
559.212	80127.27
559.555	80127.04
559.898	80127.34
560.241	80127.86
560.584	80128.41
560.927	80127.82
561.269	80129.49
561.612	80129.93
561.955	80130.3
562.297	80128.82
562.64	80128.08
562.983	80127.38
563.325	80127.3
563.668	80126.67
564.01	80126.3
564.352	80122.97
564.695	80122.93
565.037	80122.27
565.379	80121.01
565.721	80120.3
566.063	80117.19
566.406	80116.71
566.748	80117.75
567.09	80117.64
567.431	80115.71
567.773	80114.82
568.115	80115.9
568.457	80113.53
568.799	80112.31
569.14	80111.97
569.482	80111.6
569.824	80111.94
570.165	80111.2
570.507	80109.83
570.848	80109.31
571.19	80108.31
571.531	80108.71
571.872	80109.01
572.214	80110.71
572.555	80111.75
572.896	80111.01
573.237	80111.16
573.578	80110.64
573.919	80109.94
574.26	80111.38
574.601	80111.2
574.942	80108.64
575.283	80107.75
575.624	80109.23
575.964	80109.31
576.305	80109.27
576.646	80108.53
576.986	80108.38
577.327	80109.49
577.667	80109.6
578.008	80108.23
578.348	80107.53
578.689	80107.64
579.029	80106.16
579.369	80104.53
579.71	80103.61
580.05	80103.86
580.39	80105.2
580.73	80106.01
581.07	80104.75
581.41	80102.5
581.75	80102.61
582.09	80104.2
582.43	80102.79
582.769	80101.27
583.109	80099.98
583.449	80098.98
583.789	80101.61
584.128	80100.94
584.468	80099.39
584.807	80098.68
585.147	80098.94
585.486	80098.02
585.825	80097.98
586.165	80097.24
586.504	80096.39
586.843	80096.79
587.182	80096.05
587.522	80096.02
587.861	80095.65
588.2	80096.5
588.539	80094.54
588.878	80095.83
589.216	80095.28
589.555	80095.69
589.894	80096.02
590.233	80095.5
590.572	80096.69
590.91	80095.39
591.249	80096.35
591.587	80097.57
591.926	80097.24
592.264	80097.54
592.603	80099.13
592.941	80099.68
593.279	80100.94
593.618	80102.76
593.956	80101.65
594.294	80102.98
594.632	80103.5
594.97	80102.76
595.308	80101.76
595.646	80104.24
595.984	80103.35
596.322	80103.75
596.66	80103.31
596.998	80103.09
597.335	80103.38
597.673	80101.27
598.011	80100.35
598.348	80098.5
598.686	80097.09
599.023	80098.02
599.361	80098.16
599.698	80096.98
600.035	80095.2
600.373	80094.91
600.71	80093.57
601.047	80092.76
601.384	80091.54
601.722	80090.87
602.059	80090.24
602.396	80091.2
602.733	80091.83
603.069	80091.43
603.406	80091.8
603.743	80091.94
604.08	80092.8
604.417	80092.2
604.753	80092.98
605.09	80092.35
605.426	80091.58
605.763	80091.21
606.099	80091.17
606.436	80091.54
606.772	80091.46
607.109	80091.32
607.445	80091.43
607.781	80090.69
608.117	80089.87
608.453	80089.36
608.79	80088.36
609.126	80087.62
609.462	80086.54
609.798	80084.8
610.133	80085.28
610.469	80084.4
610.805	80085.88
611.141	80084.8
611.477	80086.13
611.812	80086.88
612.148	80086.99
612.483	80087.95
612.819	80087.99
613.154	80086.76
613.49	80086.17
613.825	80086.06
614.16	80086.43
614.496	80085.8
614.831	80086.58
615.166	80088.58
615.501	80087.39
615.836	80087.36
616.171	80087.24
616.506	80088.87
616.841	80089.95
617.176	80089.43
617.511	80087.76
617.846	80087.58
618.18	80086.95
618.515	80086.21
618.85	80085.1
619.184	80085.47
619.519	80085.84
619.853	80085.99
620.188	80087.13
620.522	80086.17
620.856	80085.28
621.191	80086.69
621.525	80086.06
621.859	80085.95
622.193	80085.28
622.527	80085.06
622.861	80083.69
623.195	80084.88
623.529	80083.58
623.863	80081.81
624.197	80080.25
624.531	80081.32
624.865	80080.03
625.198	80081.36
625.532	80081.62
625.866	80081.21
626.199	80080.81
626.533	80080.1
626.866	80079.14
627.2	80076.85
627.533	80076.51
627.866	80076.81
628.2	80075.11
628.533	80074.77
628.866	80075.03
629.199	80074.92
629.532	80076.33
629.865	80077.7
630.198	80076.96
630.531	80077.18
630.864	80077.96
631.197	80078.73
631.529	80079.4
631.862	80079.84
632.195	80078.92
632.527	80078.77
632.86	80077.96
633.193	80078.47
633.525	80078.59
633.857	80080.14
634.19	80081.29
634.522	80080.73
634.854	80081.69
635.187	80081.99
635.519	80082.66
635.851	80081.62
636.183	80081.14
636.515	80081.54
636.847	80080.18
637.179	80079.44
637.511	80078.29
637.843	80077.03
638.174	80077.33
638.506	80076.77
638.838	80075.37
639.17	80074.88
639.501	80074.44
639.833	80075.33
640.164	80074.22
640.496	80072.41
640.827	80071.48
641.158	80071.78
641.49	80072.41
641.821	80071.96
642.152	80072.55
642.483	80071.63
642.814	80071
643.145	80070.85
643.476	80069.26
643.807	80069.15
644.138	80069.78
644.469	80070.78
644.8	80072.11
645.131	80072.29
645.461	80072.15
645.792	80071.7
646.122	80070.96
646.453	80070.33
646.784	80069.11
647.114	80070.44
647.444	80071.67
647.775	80071.55
648.105	80070.63
648.435	80072.7
648.765	80072.18
649.096	80071.93
649.426	80071.85
649.756	80072.37
650.086	80071.52
650.416	80072.41
650.746	80072.85
651.075	80072.11
651.405	80070.96
651.735	80070.96
652.065	80071
652.394	80070.19
652.724	80071.7
653.054	80072.44
653.383	80071.59
653.712	80070.08
654.042	80068.41
654.371	80068.93
654.701	80069.96
655.03	80070.26
655.359	80069.11
655.688	80067.67
656.017	80067.49
656.346	80068.67
656.675	80066.97
657.004	80068.45
657.333	80067.04
657.662	80066.67
657.991	80066.3
658.32	80066.49
658.648	80065.56
658.977	80064.75
659.306	80064.19
659.634	80062.45
659.963	80062.86
660.291	80063.19
660.619	80065.23
660.948	80064.71
661.276	80063.64
661.604	80061.31
661.933	80060.97
662.261	80058.87
662.589	80059.57
662.917	80058.05
663.245	80056.76
663.573	80057.39
663.901	80055.5
664.229	80054.28
664.556	80054.28
664.884	80053.98
665.212	80053.02
665.539	80054.39
665.867	80052.58
666.195	80052.5
666.522	80052.95
666.85	80052.06
667.177	80051.65
667.504	80052.32
667.832	80053.35
668.159	80052.06
668.486	80052.13
668.813	80051.76
669.14	80053.13
669.467	80052.17
669.794	80052.17
670.121	80051.87
670.448	80052.32
670.775	80051.58
671.102	80052.91
671.429	80051.58
671.755	80051.54
672.082	80051.58
672.409	80050.95
672.735	80051.28
673.062	80051.62
673.388	80051.1
673.714	80052.76
674.041	80053.76
674.367	80051.14
674.693	80048.25
675.019	80049.14
675.346	80049.66
675.672	80048.25
675.998	80046.92
676.324	80047.44
676.65	80047.58
676.976	80047.07
677.301	80046.44
677.627	80046.81
677.953	80046.14
678.279	80045.99
678.604	80045.4
678.93	80045.07
679.255	80042.67
679.581	80044.85
679.906	80044.03
680.232	80045
680.557	80042.67
680.882	80042.22
681.208	80043.55
681.533	80045.36
681.858	80045.77
682.183	80045.36
682.508	80045.99
682.833	80045.85
683.158	80046.14
683.483	80047.18
683.808	80046.96
684.132	80046.51
684.457	80047.14
684.782	80045.66
685.106	80046.1
685.431	80043.92
685.755	80043.63
686.08	80044.18
686.404	80042
686.729	80041.89
687.053	80039.63
687.377	80040.34
687.701	80038.04
688.026	80037.08
688.35	80037.3
688.674	80036.19
688.998	80035.49
689.322	80034.57
689.646	80033.68
689.97	80032.83
690.293	80029.39
690.617	80026.84
690.941	80024.11
691.264	80022.63
691.588	80023.03
691.912	80020.96
692.235	80021.41
692.559	80018.67
692.882	80016.45
693.205	80012.87
693.529	80010.72
693.852	80009.43
694.175	80005.29
694.498	80004.48
694.821	80001.04
695.144	79997.75
695.467	79993.58
695.79	79988.26
696.113	79984.45
696.436	79978.88
696.759	79971.93
697.082	79966.62
697.404	79960.93
697.727	79953.52
698.049	79944.7
698.372	79932.71
698.694	79920.1
699.017	79904.32
699.339	79886.65
699.662	79865.85
699.984	79830.55
700.306	79791.41
700.628	79733.07
700.95	79654.12
701.272	79553.59
701.594	79442.21
701.916	79330.3
702.238	79202.29
702.56	79029.02
702.882	78865.72
703.204	78708.49
703.525	78523.37
703.847	78297.48
704.169	78092.86
704.49	77863.67
704.812	77629.45
705.133	77387.89
705.455	77145.94
705.776	76884.73
706.097	76633.72
706.419	76381.64
706.74	76109.4
707.061	75834.07
707.382	75533.1
707.703	75237.24
708.024	74967.76
708.345	74695
708.666	74402.84
708.987	74100.03
709.307	73848.72
709.628	73542.99
709.949	73228.81
710.27	72922.49
710.59	72665.28
710.911	72359.19
711.231	72065.31
711.552	71795.91
711.872	71472.91
712.192	71194
712.512	70932.49
712.833	70658.91
713.153	70373.7
713.473	70147.32
713.793	69903.61
714.113	69686.96
714.433	69481.41
714.753	69278.47
715.073	69071.79
715.393	68859.02
715.712	68689.39
716.032	68463.62
716.352	68288.6
716.671	68129.53
716.991	67955.31
717.31	67759.26
717.63	67601.46
717.949	67422.24
718.268	67207.46
718.588	67033.92
718.907	66810.33
719.226	66551.78
719.545	66306.4
719.864	66026.15
720.183	65748.53
720.502	65473.02
720.821	65200.19
721.14	64921.46
721.459	64606.21
721.778	64332.73
722.096	64022.97
722.415	63727.1
722.734	63473.93
723.052	63194.73
723.371	62897.17
723.689	62624.72
724.008	62341.5
724.326	62044.7
724.644	61779.29
724.963	61509.51
725.281	61287.74
725.599	61053.93
725.917	60864.85
726.235	60669.49
726.553	60517.63
726.871	60324.01
727.189	60122.55
727.507	59926.07
727.824	59764.4
728.142	59628.58
728.46	59427.01
728.777	59323.3
729.095	59177.22
729.413	59024.57
729.73	58878.89
730.047	58748.97
730.365	58631.05
730.682	58524.51
730.999	58440.83
731.317	58358.59
731.634	58281.33
731.951	58159.32
732.268	58039.11
732.585	57894.51
732.902	57728.86
733.219	57572.24
733.536	57398.9
733.852	57280.37
734.169	57150.24
734.486	56998.79
734.802	56841.83
735.119	56730.12
735.435	56547.63
735.752	56395.45
736.068	56219.63
736.385	56053.48
736.701	55862.31
737.017	55632.58
737.333	55385.47
737.65	55073.22
737.966	54704.14
738.282	54313.67
738.598	53899.25
738.914	53444.72
739.23	52958.07
739.545	52446.87
739.861	51902.54
740.177	51351.46
740.493	50750.65
740.808	50172.97
741.124	49566.78
741.439	48986.72
741.755	48409.61
742.07	47893.66
742.386	47336.41
742.701	46840.79
743.016	46345.72
743.331	45868.76
743.647	45447.6
743.962	45057.57
744.277	44715.99
744.592	44442
744.907	44217.74
745.222	44054.86
745.537	43963.48
745.851	43940.04
746.166	43957.66
746.481	44003.7
746.795	44122.12
747.11	44277.33
747.424	44450.42
747.739	44616.15
748.053	44788.58
748.368	44947.22
748.682	45058.59
748.996	45191.77
749.311	45291.74
749.625	45384.2
749.939	45491.1
750.253	45549.11
750.567	45623.8
750.881	45685.99
751.195	45746.55
751.509	45814.49
751.822	45862.91
752.136	45910.09
752.45	45958.88
752.763	46025.27
753.077	46087.78
753.39	46117.66
753.704	46136.49
754.017	46154.19
754.331	46194.16
754.644	46203.53
754.957	46212.15
755.27	46224.28
755.584	46237.68
755.897	46245.83
756.21	46247.13
756.523	46217.68
756.836	46198.09
757.149	46113.73
757.461	46041.58
757.774	45958.83
758.087	45834.09
758.4	45693.93
758.712	45536.97
759.025	45374.03
759.337	45210.61
759.65	45049.01
759.962	44901.81
760.275	44743.07
760.587	44601.45
760.899	44458.12
761.211	44360.77
761.523	44285.55
761.836	44280.41
762.148	44279.85
762.46	44308.88
762.772	44370.64
763.083	44508.39
763.395	44654.16
763.707	44875.12
764.019	45104.52
764.33	45328.21
764.642	45594.13
764.954	45864.93
765.265	46148.25
765.577	46417.2
765.888	46659.87
766.199	46900.5
766.511	47113.26
766.822	47335.23
767.133	47513
767.444	47688.11
767.755	47778.95
768.066	47840.28
768.377	47832.35
768.688	47766.02
768.999	47676.83
769.31	47550.95
769.621	47351.77
769.931	47130.56
770.242	46870.78
770.553	46573.15
770.863	46246.77
771.174	45886.1
771.484	45508.31
771.794	45106.36
772.105	44696.18
772.415	44271.53
772.725	43825.51
773.035	43388.18
773.345	42933.01
773.656	42466.84
773.966	41988.73
774.276	41555.83
774.585	41121.57
774.895	40685.88
775.205	40304.09
775.515	39904.57
775.824	39507.33
776.134	39122.99
776.444	38762.32
776.753	38400.36
777.063	38060.57
777.372	37733.5
777.681	37405.24
777.991	37099.48
778.3	36792.09
778.609	36488.62
778.918	36206.97
779.228	35946.11
779.537	35681.35
779.846	35420.05
780.154	35168.97
780.463	34934.95
780.772	34693.07
781.081	34468.27
781.39	34274.87
781.698	34063.25
782.007	33864.74
782.316	33672.4
782.624	33463.76
782.932	33261.26
783.241	33071.4
783.549	32879.16
783.858	32707.78
784.166	32545.65
784.474	32366.03
784.782	32203.07
785.09	32050.89
785.398	31904.38
785.706	31765.58
786.014	31629.87
786.322	31494.63
786.63	31361.87
786.937	31238.44
787.245	31112.41
787.553	30986.24
787.86	30864.92
788.168	30743.57
788.475	30631.39
788.783	30533.19
789.09	30437
789.398	30344.23
789.705	30248.45
790.012	30146.33
790.319	30045.94
790.626	29937.97
790.933	29853.01
791.24	29768.79
791.547	29683.3
791.854	29590.85
792.161	29489.7
792.468	29383.22
792.774	29286.83
793.081	29201.97
793.388	29113.81
793.694	29023.96
794.001	28935.64
794.307	28817.05
794.614	28712.9
794.92	28588.07
795.226	28460.86
795.533	28352.26
795.839	28244.84
796.145	28127.22
796.451	28015.31
796.757	27902.92
797.063	27798.11
797.369	27684.81
797.675	27578.12
797.98	27468.43
798.286	27349.17
798.592	27242.08
798.898	27131.53
799.203	27017.09
799.509	26898.79
799.814	26779.06
800.12	26674.24
800.425	26561.31
800.73	26449
801.035	26333.57
801.341	26231.47
801.646	26130.46
801.951	26027.26
802.256	25926.55
802.561	25828.49
802.866	25738.42
803.171	25649.79
803.476	25556.47
803.78	25466.9
804.085	25367.24
804.39	25256.01
804.694	25157.31
804.999	25055.71
805.303	24967.4
805.608	24887.31
805.912	24809.13
806.216	24735.76
806.521	24662.54
806.825	24587.48
807.129	24519.92
807.433	24442.96
807.737	24375.23
808.041	24314.45
808.345	24255.59
808.649	24197.74
808.953	24141.03
809.257	24082.5
809.561	24027.56
809.864	23978.97
810.168	23946.9
810.471	23914.72
810.775	23893.14
811.078	23875.56
811.382	23854.84
811.685	23846.44
811.988	23832.23
812.292	23818.26
812.595	23818.02
812.898	23816.81
813.201	23828.06
813.504	23846.66
813.807	23885.29
814.11	23915.22
814.413	23941.86
814.716	23972.96
815.018	24020.82
815.321	24085.46
815.624	24166.09
815.926	24270.87
816.229	24394.96
816.531	24531.3
816.834	24694.07
817.136	24882.94
817.438	25098.74
817.74	25365.54
818.043	25676.92
818.345	26059.93
818.647	26521.67
818.949	27067.13
819.251	27702.92
819.553	28454.21
819.855	29316.68
820.156	30285.47
820.458	31360.98
820.76	32512.07
821.062	33715.45
821.363	34976.75
821.665	36315.96
821.966	37755.71
822.268	39197.11
822.569	40650.77
822.87	42130.64
823.171	43621.46
823.473	45149.61
823.774	46725.45
824.075	48253.25
824.376	49750.17
824.677	51213.92
824.978	52594.37
825.279	53887
825.58	55057.59
825.88	56085.82
826.181	56974.84
826.482	57756.48
826.782	58384.62
827.083	58901.48
827.383	59285.17
827.684	59500.05
827.984	59579.79
828.284	59482.99
828.585	59259.29
828.885	58956.84
829.185	58500.2
829.485	57944.87
829.785	57278.07
830.085	56441.87
830.385	55574.9
830.685	54643.59
830.985	53594.35
831.285	52521.11
831.584	51396.72
831.884	50246.67
832.183	49082.9
832.483	47875.17
832.782	46601.84
833.082	45329.69
833.381	44052.43
833.681	42813.73
833.98	41649.01
834.279	40517.27
834.578	39410.03
834.877	38374.51
835.176	37360.7
835.475	36430.81
835.774	35544.23
836.073	34677.91
836.372	33865.83
836.671	33054.17
836.969	32245.75
837.268	31504.77
837.567	30790.35
837.865	30102.57
838.164	29423.15
838.462	28766.25
838.761	28157.76
839.059	27573.84
839.357	27024.32
839.655	26492.65
839.953	25964.75
840.252	25441.83
840.55	24916.49
840.848	24409.98
841.146	23917.94
841.443	23423.89
841.741	22918.17
842.039	22410.62
842.337	21905.1
842.634	21443.27
842.932	20998.94
843.229	20579.72
843.527	20166.59
843.824	19723.18
844.122	19279.55
844.419	18861.99
844.716	18438.74
845.013	18023.06
845.311	17640.9
845.608	17265.16
845.905	16905.13
846.202	16549.12
846.499	16177.37
846.796	15815.17
847.092	15450.44
847.389	15090.2
847.686	14753.34
847.982	14439.32
848.279	14130.3
848.576	13844.03
848.872	13546.39
849.168	13255.43
849.465	12972.88
849.761	12685.03
850.057	12415.07
850.354	12151.36
850.65	11901.39
850.946	11670.93
851.242	11450.73
851.538	11232.03
851.834	11014.51
852.13	10798.9
852.425	10601.95
852.721	10427.9
853.017	10261.91
853.312	10112.26
853.608	9968.08
853.903	9824.43
854.199	9678.64
854.494	9547.62
854.79	9417.85
855.085	9289.38
855.38	9164.69
855.675	9036.87
855.971	8918.28
856.266	8818.09
856.561	8724.7
856.856	8632.86
857.151	8540.38
857.445	8442.57
857.74	8343.05
858.035	8252.98
858.33	8162.82
858.624	8077.24
858.919	7997.91
859.213	7911.85
859.508	7830.32
859.802	7742.82
860.096	7659.6
860.391	7595.59
860.685	7534.52
860.979	7471.06
861.273	7418.26
861.567	7362.45
861.861	7298.53
862.155	7245.03
862.449	7176.84
862.743	7110.1
863.037	7051.84
863.33	6999
863.624	6947.93
863.918	6902.18
864.211	6862.42
864.505	6824.41
864.798	6786.74
865.092	6741.45
865.385	6694.45
865.678	6643.41
865.971	6608.36
866.264	6582.23
866.558	6552.42
866.851	6520.77
867.144	6494.69
867.437	6458.75
867.729	6426.45
868.022	6406.41
868.315	6383.76
868.608	6373.63
868.9	6367.38
869.193	6350.19
869.485	6320.82
869.778	6297.62
870.07	6271.91
870.363	6250.9
870.655	6235.09
870.947	6223.35
871.239	6214.59
871.532	6218.61
871.824	6223.53
872.116	6219.23
872.408	6213.48
872.699	6199.97
872.991	6192.7
873.283	6185.26
873.575	6186.18
873.867	6195.91
874.158	6203
874.45	6204.1
874.741	6200.29
875.033	6198.74
875.324	6212.82
875.615	6235.73
875.907	6257.73
876.198	6272.97
876.489	6283.65
876.78	6288.37
877.071	6289.37
877.362	6294.74
877.653	6296.18
877.944	6303.09
878.235	6315.47
878.526	6322.47
878.816	6339.79
