Data from 24HourExp_27052025_FLMS018081_09-38-19-354.txt Node
Date: Wed May 28 09:38:19 BST 2025
User: adleo
Spectrometer: FLMS01808
Trigger mode: 0
Integration Time (sec): 4.000000E-1
Scans to average: 10
Electric dark correction enabled: true
Nonlinearity correction enabled: true
Boxcar width: 10
XAxis mode: Wavelengths
Number of Pixels in Spectrum: 2048
>>>>>Begin Spectral Data<<<<<
178.471	-133.51
178.857	-125.18
179.244	-116.84
179.631	-107.36
180.017	-99.63
180.404	-90.29
180.79	-78.9
181.176	-70.26
181.563	-61.5
181.949	-51.31
182.335	-42.52
182.722	-26.98
183.108	-7.77
183.494	19.68
183.88	73.33
184.266	126.69
184.653	183.8
185.039	236.94
185.425	291.36
185.811	345.02
186.197	396.18
186.582	446.57
186.968	496.11
187.354	545
187.74	595.13
188.126	646.42
188.511	696.15
188.897	742.15
189.283	788.93
189.668	835.28
190.054	879.26
190.439	926.41
190.825	970.09
191.21	1009.72
191.596	1042.02
191.981	1051.44
192.366	1054.9
192.752	1056.47
193.137	1060.37
193.522	1061.23
193.908	1062.47
194.293	1066.75
194.678	1069.19
195.063	1071.94
195.448	1075.07
195.833	1074.45
196.218	1072.32
196.603	1071.27
196.988	1071.06
197.373	1071.8
197.757	1071.08
198.142	1072.93
198.527	1068.56
198.912	1067.14
199.296	1068.58
199.681	1067.29
200.066	1064.7
200.45	1064.77
200.835	1064.16
201.219	1062.83
201.604	1062.21
201.988	1064.3
202.372	1064.18
202.757	1064.96
203.141	1066.03
203.525	1067.67
203.91	1068.93
204.294	1071.14
204.678	1072.34
205.062	1072.16
205.446	1072.48
205.83	1074.04
206.214	1072.51
206.598	1075.25
206.982	1078.62
207.366	1077.43
207.75	1078.2
208.134	1080.84
208.517	1081.34
208.901	1082.41
209.285	1083.36
209.669	1085.75
210.052	1085.07
210.436	1085.8
210.819	1086.6
211.203	1087.53
211.586	1087.83
211.97	1087.23
212.353	1086.5
212.737	1086.46
213.12	1089.3
213.503	1088.69
213.886	1089.41
214.27	1091.68
214.653	1093.01
215.036	1094.07
215.419	1095.84
215.802	1097.77
216.185	1098.19
216.568	1100.71
216.951	1102.98
217.334	1105.53
217.717	1108.96
218.1	1111.89
218.482	1114.66
218.865	1119.26
219.248	1123.61
219.631	1127.09
220.013	1132.76
220.396	1142.09
220.778	1148.31
221.161	1154.57
221.544	1162.32
221.926	1169.8
222.308	1178.01
222.691	1185.78
223.073	1194.97
223.455	1204.29
223.838	1213.42
224.22	1223.47
224.602	1235.65
224.984	1245.98
225.366	1257.37
225.749	1270.73
226.131	1284.55
226.513	1297.38
226.895	1312.1
227.276	1325.19
227.658	1339.74
228.04	1355.05
228.422	1369.16
228.804	1383.84
229.186	1399.73
229.567	1417.4
229.949	1432.95
230.331	1447.5
230.712	1466.72
231.094	1483.42
231.475	1503.96
231.857	1523.79
232.238	1542.37
232.62	1560.9
233.001	1580.41
233.382	1600.62
233.763	1619.62
234.145	1638.42
234.526	1659.05
234.907	1675.87
235.288	1694.78
235.669	1714.6
236.05	1735.02
236.431	1752.08
236.812	1772.89
237.193	1792.49
237.574	1813.04
237.955	1834.71
238.336	1856.98
238.717	1876.33
239.097	1897.74
239.478	1917.29
239.859	1938.14
240.239	1961.82
240.62	1983.52
241.001	2005.08
241.381	2028.27
241.762	2049.4
242.142	2072.36
242.522	2095.32
242.903	2119.78
243.283	2146.18
243.663	2170.47
244.044	2197.06
244.424	2224.85
244.804	2250.75
245.184	2277.93
245.564	2304.53
245.944	2334.53
246.324	2364.99
246.704	2393.94
247.084	2420.31
247.464	2448.68
247.844	2478.62
248.224	2508.29
248.604	2539.19
248.983	2569.23
249.363	2599.5
249.743	2630.19
250.122	2657.76
250.502	2686.44
250.882	2716.44
251.261	2747.04
251.641	2776.64
252.02	2805.48
252.399	2838.63
252.779	2873.17
253.158	2907.96
253.537	2945.45
253.917	2985.53
254.296	3020.44
254.675	3057.62
255.054	3097.39
255.433	3139.7
255.812	3179.58
256.191	3218.05
256.57	3256.99
256.949	3300.06
257.328	3343.13
257.707	3385.91
258.086	3433.11
258.465	3482.49
258.843	3531.34
259.222	3580.01
259.601	3633.29
259.979	3688.77
260.358	3741.54
260.736	3795.56
261.115	3849.08
261.493	3901.72
261.872	3951.56
262.25	4007.21
262.629	4063.49
263.007	4123.06
263.385	4179.29
263.763	4238.49
264.142	4301.58
264.52	4366.89
264.898	4432.45
265.276	4496.52
265.654	4566.09
266.032	4633.46
266.41	4702.28
266.788	4772.02
267.166	4847.84
267.544	4919.96
267.921	4993.05
268.299	5069.67
268.677	5146.82
269.055	5229.18
269.432	5314.53
269.81	5399.61
270.188	5485.45
270.565	5573.53
270.943	5664.2
271.32	5754.47
271.697	5849.77
272.075	5943.85
272.452	6036.71
272.829	6133.31
273.207	6230.62
273.584	6332.31
273.961	6436.86
274.338	6545.69
274.715	6663.93
275.092	6777.07
275.469	6897.64
275.846	7018.55
276.223	7139.86
276.6	7261.18
276.977	7385.37
277.354	7508.3
277.731	7632.55
278.108	7762.19
278.484	7892.23
278.861	8021.39
279.238	8159.79
279.614	8295.85
279.991	8434.45
280.367	8580.66
280.744	8727.7
281.12	8880.31
281.497	9025.8
281.873	9179.25
282.249	9329.86
282.625	9472.13
283.002	9618.12
283.378	9768.56
283.754	9916.16
284.13	10067.05
284.506	10224.2
284.882	10380.48
285.258	10532.96
285.634	10691.59
286.01	10851.69
286.386	11011.43
286.762	11178.01
287.138	11342.46
287.513	11504.47
287.889	11670.92
288.265	11829.68
288.641	11988.89
289.016	12146.52
289.392	12308.17
289.767	12469.2
290.143	12632.37
290.518	12794.21
290.894	12960.77
291.269	13120.59
291.644	13282.04
292.02	13435.2
292.395	13586.74
292.77	13740.76
293.145	13899.88
293.52	14053.69
293.895	14204.33
294.27	14358.85
294.646	14503.8
295.02	14645.92
295.395	14802.35
295.77	14954.7
296.145	15111.35
296.52	15263.11
296.895	15419.36
297.269	15572.66
297.644	15719.99
298.019	15870.16
298.393	16025.02
298.768	16177.36
299.143	16328.82
299.517	16480.83
299.891	16644.17
300.266	16803.62
300.64	16964.43
301.015	17124.68
301.389	17292.5
301.763	17465.6
302.137	17634.45
302.512	17818.15
302.886	17999.24
303.26	18183.82
303.634	18364.38
304.008	18537.52
304.382	18723.43
304.756	18905.44
305.13	19095.31
305.504	19279.38
305.877	19468.25
306.251	19673.5
306.625	19871.05
306.999	20081
307.372	20287.8
307.746	20499.89
308.119	20715.22
308.493	20922.29
308.866	21134
309.24	21342.06
309.613	21544.51
309.987	21750.68
310.36	21941.32
310.733	22146.79
311.107	22354.9
311.48	22569.74
311.853	22799.6
312.226	23014.92
312.599	23241.74
312.972	23463.05
313.345	23696.37
313.718	23922.92
314.091	24138.57
314.464	24365.63
314.837	24580.55
315.21	24794.73
315.582	25007.71
315.955	25213.04
316.328	25431.35
316.7	25643.18
317.073	25865.86
317.446	26092.15
317.818	26327.8
318.191	26561.38
318.563	26784.87
318.936	26989.05
319.308	27192.73
319.68	27392.59
320.053	27595.17
320.425	27777.97
320.797	27955.8
321.169	28113.28
321.541	28259.07
321.913	28390.85
322.285	28505.46
322.657	28634.13
323.029	28781.08
323.401	28924.44
323.773	29091.54
324.145	29263.5
324.517	29454.89
324.889	29632.36
325.26	29828.86
325.632	30031.96
326.004	30260.56
326.375	30511.62
326.747	30784.63
327.118	31079.04
327.49	31361.92
327.861	31670.73
328.233	31979.16
328.604	32285.72
328.975	32600.4
329.346	32905.58
329.718	33217.13
330.089	33519.95
330.46	33815.66
330.831	34083.92
331.202	34333.9
331.573	34577.82
331.944	34806.89
332.315	35026.96
332.686	35238.95
333.057	35434.47
333.428	35616.37
333.799	35783.87
334.169	35938.69
334.54	36078.98
334.911	36199.65
335.281	36335.15
335.652	36455.58
336.022	36587.36
336.393	36731.64
336.763	36895.04
337.134	37088.32
337.504	37279.53
337.874	37484.29
338.245	37679.99
338.615	37897.21
338.985	38127.52
339.355	38345.85
339.726	38563.55
340.096	38781.45
340.466	39025.68
340.836	39267.96
341.206	39515.52
341.576	39761.24
341.945	40001.76
342.315	40230.7
342.685	40473.36
343.055	40715.89
343.425	40953.23
343.794	41182.48
344.164	41420.97
344.533	41649.95
344.903	41876.25
345.273	42113.47
345.642	42338.61
346.011	42567.44
346.381	42795.05
346.75	43028.18
347.12	43277.66
347.489	43523.24
347.858	43774.44
348.227	43992.51
348.596	44215.43
348.965	44448.46
349.334	44678.91
349.704	44923.06
350.072	45172.2
350.441	45402.56
350.81	45645.13
351.179	45873.91
351.548	46112.81
351.917	46331.05
352.285	46528.09
352.654	46728.11
353.023	46928.43
353.391	47125.43
353.76	47345.36
354.129	47535.77
354.497	47761.75
354.865	47978
355.234	48217.15
355.602	48429.62
355.971	48673.72
356.339	48893.27
356.707	49103.68
357.075	49325.87
357.443	49534.2
357.811	49745.31
358.18	49955.42
358.548	50160.21
358.916	50369.16
359.284	50578.02
359.651	50794.37
360.019	51011.98
360.387	51213.81
360.755	51418.52
361.123	51648.98
361.49	51868.59
361.858	52083.39
362.226	52284.93
362.593	52478.75
362.961	52653
363.328	52857.1
363.696	53023.89
364.063	53232.84
364.43	53438.9
364.798	53645.08
365.165	53828.53
365.532	54006.62
365.899	54193.95
366.267	54356.01
366.634	54500.08
367.001	54665.09
367.368	54799.33
367.735	54978.41
368.102	55156.29
368.469	55346.52
368.835	55523.5
369.202	55682.24
369.569	55877.27
369.936	56060.77
370.303	56246
370.669	56445.33
371.036	56611.06
371.402	56814.85
371.769	56993.88
372.135	57146.14
372.502	57273.78
372.868	57414.57
373.235	57558.63
373.601	57690.66
373.967	57855.95
374.333	58042.88
374.7	58221.52
375.066	58423.33
375.432	58606.06
375.798	58782.52
376.164	58945.37
376.53	59093.58
376.896	59268.02
377.262	59435.91
377.628	59561.89
377.993	59706.48
378.359	59848.49
378.725	59990.33
379.091	60143.37
379.456	60263.87
379.822	60392.38
380.187	60529.45
380.553	60719.48
380.918	60918.8
381.284	61097.52
381.649	61275.17
382.015	61420.04
382.38	61543.96
382.745	61707.75
383.11	61857.95
383.476	61996.87
383.841	62128.07
384.206	62283.97
384.571	62391.71
384.936	62521.57
385.301	62691.86
385.666	62831.6
386.031	62971.63
386.396	63140.08
386.76	63280.76
387.125	63475.41
387.49	63676.51
387.855	63870.05
388.219	64036.21
388.584	64193.33
388.948	64382.47
389.313	64542.59
389.677	64736.84
390.042	64965.62
390.406	65113.96
390.771	65300.01
391.135	65487.41
391.499	65706.38
391.863	65938.36
392.227	66178.19
392.592	66377.36
392.956	66575.89
393.32	66762.38
393.684	66987.79
394.048	67155.98
394.412	67338.08
394.775	67488.11
395.139	67622.01
395.503	67777.51
395.867	67921.51
396.231	68065.4
396.594	68162.57
396.958	68301.53
397.321	68460.77
397.685	68582.57
398.048	68729.83
398.412	68864.53
398.775	68990.09
399.139	69122.34
399.502	69220.96
399.865	69358.95
400.228	69544.64
400.592	69679.47
400.955	69880.27
401.318	70010.03
401.681	70167.82
402.044	70300.66
402.407	70452.57
402.77	70617.73
403.133	70810.5
403.496	70955.78
403.859	71107.65
404.221	71350.2
404.584	71586.1
404.947	71823.35
405.309	72022.62
405.672	72249.62
406.034	72464.85
406.397	72714.24
406.759	72926.44
407.122	73106.87
407.484	73283.23
407.847	73472.29
408.209	73714.53
408.571	73939.39
408.933	74189.44
409.296	74432.95
409.658	74664.64
410.02	74941.89
410.382	75256.4
410.744	75517.4
411.106	75805.79
411.468	76083.93
411.83	76322.09
412.191	76519.83
412.553	76706.56
412.915	76941.56
413.277	77162.01
413.638	77375.13
414	77553.11
414.361	77742.41
414.723	77988.88
415.084	78219.92
415.446	78408.78
415.807	78564.28
416.169	78691.22
416.53	78808.2
416.891	78943.33
417.252	79099.41
417.614	79196.52
417.975	79256.41
418.336	79324.83
418.697	79397.01
419.058	79466.14
419.419	79519.97
419.78	79579.53
420.141	79622.23
420.501	79657.77
420.862	79692.23
421.223	79719.46
421.584	79772.63
421.944	79807.42
422.305	79827.72
422.666	79842.01
423.026	79848.65
423.387	79865.33
423.747	79877.84
424.107	79891.59
424.468	79905.34
424.828	79913.86
425.188	79919.58
425.549	79929.07
425.909	79936.19
426.269	79936.23
426.629	79942.87
426.989	79948.23
427.349	79955.83
427.709	79963.26
428.069	79968.17
428.429	79973.75
428.789	79979.91
429.149	79986.08
429.508	79991.92
429.868	79997.02
430.228	80002.27
430.587	80006.44
430.947	80011.62
431.306	80017.79
431.666	80021.04
432.025	80026.11
432.385	80029.51
432.744	80032.73
433.103	80033.1
433.463	80035.39
433.822	80044.84
434.181	80049.06
434.54	80052.65
434.899	80055.09
435.258	80057.71
435.618	80057.82
435.976	80061.6
436.335	80064.67
436.694	80066.44
437.053	80067.41
437.412	80068.11
437.771	80069.92
438.129	80072.03
438.488	80072.58
438.847	80074.29
439.205	80076.91
439.564	80076.36
439.922	80078.17
440.281	80078.8
440.639	80081.21
440.997	80083.02
441.356	80083.61
441.714	80083.72
442.072	80084.17
442.431	80084.57
442.789	80085.17
443.147	80086.02
443.505	80085.2
443.863	80084.24
444.221	80084.91
444.579	80083.91
444.937	80084.57
445.294	80085.31
445.652	80085.28
446.01	80084.72
446.368	80085.54
446.725	80082.54
447.083	80082.24
447.441	80081.8
447.798	80081.24
448.156	80079.61
448.513	80079.32
448.87	80078.8
449.228	80079.13
449.585	80079.73
449.942	80078.73
450.3	80078.91
450.657	80081.1
451.014	80081.28
451.371	80083.46
451.728	80083.69
452.085	80083.28
452.442	80083.54
452.799	80082.87
453.156	80083.17
453.513	80084.35
453.869	80084.76
454.226	80087.28
454.583	80087.87
454.939	80087.9
455.296	80088.87
455.653	80089.68
456.009	80090.64
456.366	80091.09
456.722	80091.86
457.078	80091.6
457.435	80092.64
457.791	80092.97
458.147	80091.72
458.503	80093.6
458.86	80091.9
459.216	80090.79
459.572	80091.72
459.928	80091.35
460.284	80092.68
460.64	80093.86
460.996	80093.9
461.351	80094.31
461.707	80095.53
462.063	80096.49
462.419	80097.75
462.774	80098.34
463.13	80098.93
463.486	80099.75
463.841	80102.3
464.197	80101.49
464.552	80099.68
464.908	80100.16
465.263	80099.93
465.618	80101.19
465.974	80101.45
466.329	80102.38
466.684	80101.38
467.039	80101.67
467.394	80103.97
467.749	80103.53
468.104	80103.6
468.459	80105.19
468.814	80105.97
469.169	80106.67
469.524	80108.27
469.879	80108.38
470.233	80108.64
470.588	80109.41
470.943	80109.71
471.297	80110.15
471.652	80111.6
472.006	80114.71
472.361	80115.71
472.715	80115.41
473.07	80114.37
473.424	80114.04
473.778	80114.41
474.133	80117.93
474.487	80119.22
474.841	80118.08
475.195	80119.15
475.549	80120.89
475.903	80120.37
476.257	80119.52
476.611	80119.33
476.965	80119.74
477.319	80121.37
477.673	80123.07
478.026	80123.37
478.38	80123.45
478.734	80122.52
479.087	80123.07
479.441	80122.11
479.795	80121.08
480.148	80123.33
480.502	80124.93
480.855	80125.3
481.208	80127
481.562	80127.52
481.915	80128.59
482.268	80129.63
482.621	80131.67
482.974	80132.41
483.328	80134.7
483.681	80133.78
484.034	80132.37
484.387	80130.67
484.739	80128.78
485.092	80127.93
485.445	80127.52
485.798	80127.26
486.151	80127.7
486.503	80128.85
486.856	80130.45
487.209	80130.96
487.561	80129.96
487.914	80131.59
488.266	80130.96
488.618	80130.22
488.971	80128.93
489.323	80129.33
489.675	80131.15
490.028	80129.82
490.38	80129.26
490.732	80128.7
491.084	80130.93
491.436	80132.78
491.788	80133.96
492.14	80134.78
492.492	80134.93
492.844	80136.22
493.196	80136.33
493.548	80136.26
493.899	80136.15
494.251	80136.96
494.603	80137.41
494.954	80137.56
495.306	80136.22
495.657	80135.74
496.009	80137.26
496.36	80138.48
496.712	80137.93
497.063	80135.63
497.414	80136.41
497.765	80135.56
498.117	80135.63
498.468	80135.33
498.819	80134.07
499.17	80134.41
499.521	80135.19
499.872	80136.82
500.223	80137.26
500.574	80137.22
500.924	80138.3
501.275	80136.22
501.626	80136.96
501.977	80139.59
502.327	80139.15
502.678	80139.71
503.029	80141.78
503.379	80139.08
503.73	80138.82
504.08	80137.3
504.43	80138.71
504.781	80138
505.131	80137.78
505.481	80134.23
505.831	80132.52
506.182	80134.04
506.532	80131.71
506.882	80131.37
507.232	80130.89
507.582	80130.52
507.932	80129.74
508.281	80129.89
508.631	80131.71
508.981	80131.19
509.331	80129.52
509.681	80129.82
510.03	80128.48
510.38	80128.15
510.729	80130.41
511.079	80130
511.428	80130.96
511.778	80130.11
512.127	80129.48
512.476	80130.08
512.826	80132.56
513.175	80134.26
513.524	80135.33
513.873	80134.78
514.222	80134.67
514.571	80134.26
514.92	80133.74
515.269	80134.67
515.618	80133.78
515.967	80133.15
516.316	80130.22
516.665	80128.93
517.014	80130.15
517.362	80129.45
517.711	80129.22
518.059	80127.89
518.408	80129.85
518.757	80130.11
519.105	80130.89
519.453	80131.85
519.802	80133.34
520.15	80131.93
520.498	80132.08
520.847	80130.19
521.195	80132.15
521.543	80133.19
521.891	80132.7
522.239	80132.93
522.587	80132.45
522.935	80133.85
523.283	80133.96
523.631	80137.19
523.979	80138.82
524.326	80138.63
524.674	80139.82
525.022	80139.3
525.369	80141.48
525.717	80140.85
526.064	80140.56
526.412	80140.96
526.759	80140.85
527.107	80139.26
527.454	80141.15
527.801	80140.74
528.149	80140.96
528.496	80140.33
528.843	80138.74
529.19	80139.04
529.537	80140.22
529.884	80141.74
530.231	80141.19
530.578	80142.41
530.925	80141.11
531.272	80138.59
531.619	80139.04
531.966	80141.19
532.312	80141.89
532.659	80141.08
533.006	80139.74
533.352	80140.82
533.699	80140.22
534.045	80139.7
534.392	80138.15
534.738	80136.85
535.084	80136.93
535.431	80137.52
535.777	80138.08
536.123	80138.74
536.469	80138.45
536.815	80136.45
537.161	80135.89
537.507	80135.59
537.853	80135.48
538.199	80134.7
538.545	80136.48
538.891	80135.93
539.237	80134.26
539.582	80134.89
539.928	80133.96
540.274	80134.04
540.619	80132.93
540.965	80134.48
541.31	80134.56
541.656	80135.74
542.001	80138
542.347	80138.41
542.692	80138.7
543.037	80140.56
543.382	80140.85
543.728	80140.93
544.073	80142.7
544.418	80143.04
544.763	80141.3
545.108	80139
545.453	80138.74
545.798	80138
546.142	80138.89
546.487	80139.04
546.832	80139.41
547.177	80140.11
547.521	80140.19
547.866	80140.82
548.211	80139.67
548.555	80140.89
548.9	80141.7
549.244	80140.59
549.588	80140.11
549.933	80139.33
550.277	80138.52
550.621	80138.85
550.965	80139.33
551.31	80138.37
551.654	80137.41
551.998	80139.44
552.342	80141.85
552.686	80142.59
553.03	80143.48
553.373	80143.44
553.717	80143.59
554.061	80141.7
554.405	80141.18
554.748	80140.19
555.092	80140.7
555.436	80139.48
555.779	80137.7
556.123	80138.78
556.466	80138.81
556.81	80138.41
557.153	80136.56
557.496	80136.3
557.839	80136.44
558.183	80135.78
558.526	80135.93
558.869	80135.11
559.212	80133.89
559.555	80133.59
559.898	80133.63
560.241	80133.7
560.584	80133.44
560.927	80133.37
561.269	80134.63
561.612	80135.04
561.955	80135.44
562.297	80132.15
562.64	80133.3
562.983	80133.7
563.325	80133.22
563.668	80134.07
564.01	80134.45
564.352	80135.74
564.695	80134.89
565.037	80134
565.379	80134.7
565.721	80133.67
566.063	80133.11
566.406	80132.22
566.748	80130.93
567.09	80131.52
567.431	80130.07
567.773	80128.19
568.115	80127.93
568.457	80127.67
568.799	80126.63
569.14	80128.63
569.482	80131.63
569.824	80130.63
570.165	80129.67
570.507	80129.74
570.848	80129
571.19	80128.26
571.531	80129.04
571.872	80129.19
572.214	80129.04
572.555	80127.41
572.896	80127.48
573.237	80128.78
573.578	80129.33
573.919	80128.63
574.26	80127.78
574.601	80129.67
574.942	80130.52
575.283	80130.67
575.624	80129.44
575.964	80129.07
576.305	80126.89
576.646	80124.04
576.986	80124.48
577.327	80124.44
577.667	80122
578.008	80121.15
578.348	80121.48
578.689	80120.67
579.029	80119.74
579.369	80119.74
579.71	80120.63
580.05	80120.15
580.39	80119.78
580.73	80120.19
581.07	80120.3
581.41	80120.93
581.75	80119.59
582.09	80118.93
582.43	80118.48
582.769	80119.93
583.109	80119.63
583.449	80119.74
583.789	80122.22
584.128	80122.96
584.468	80124.15
584.807	80125.26
585.147	80125.07
585.486	80123.85
585.825	80124.15
586.165	80124.37
586.504	80123.78
586.843	80123.74
587.182	80122.93
587.522	80122.26
587.861	80121.52
588.2	80121.33
588.539	80119.7
588.878	80119.67
589.216	80119.78
589.555	80118.26
589.894	80118
590.233	80118.33
590.572	80119.3
590.91	80117.93
591.249	80118.22
591.587	80117.19
591.926	80117.45
592.264	80116.89
592.603	80117.67
592.941	80116.3
593.279	80115.63
593.618	80115.22
593.956	80113.63
594.294	80114.19
594.632	80114.41
594.97	80114.26
595.308	80113.71
595.646	80113.6
595.984	80112.04
596.322	80111.71
596.66	80112.74
596.998	80111.6
597.335	80111.3
597.673	80111.45
598.011	80111.78
598.348	80109.56
598.686	80109.82
599.023	80109.23
599.361	80109.45
599.698	80108.89
600.035	80108.63
600.373	80109.89
600.71	80109.78
601.047	80110.82
601.384	80111.26
601.722	80112.63
602.059	80112.82
602.396	80113.89
602.733	80114.48
603.069	80115.11
603.406	80116.67
603.743	80116.89
604.08	80116.26
604.417	80115.04
604.753	80113.74
605.09	80113.08
605.426	80114.63
605.763	80115.15
606.099	80114.96
606.436	80113.67
606.772	80113.97
607.109	80113.6
607.445	80113.63
607.781	80114.82
608.117	80114
608.453	80113.37
608.79	80111.23
609.126	80110.34
609.462	80109.56
609.798	80108.86
610.133	80108.97
610.469	80106.15
610.805	80104.41
611.141	80103.53
611.477	80104.04
611.812	80103.78
612.148	80102.93
612.483	80100.08
612.819	80099.08
613.154	80098.75
613.49	80099.3
613.825	80098.53
614.16	80099.79
614.496	80099.23
614.831	80097.6
615.166	80097.38
615.501	80097.16
615.836	80098.05
616.171	80098.05
616.506	80099.3
616.841	80100.12
617.176	80100.75
617.511	80101.53
617.846	80103.04
618.18	80102.52
618.515	80101.67
618.85	80099.9
619.184	80100.79
619.519	80100.97
619.853	80100.34
620.188	80099.97
620.522	80100.71
620.856	80100.79
621.191	80099.08
621.525	80097.71
621.859	80098.53
622.193	80097.9
622.527	80095.97
622.861	80094.46
623.195	80093.86
623.529	80092.09
623.863	80090.9
624.197	80089.2
624.531	80089.68
624.865	80087.13
625.198	80086.87
625.532	80086.39
625.866	80087.35
626.199	80087.09
626.533	80086.94
626.866	80085.91
627.2	80084.46
627.533	80083.2
627.866	80082.8
628.2	80083.5
628.533	80083.72
628.866	80082.2
629.199	80082.35
629.532	80083.65
629.865	80084.28
630.198	80084.54
630.531	80084.35
630.864	80083.98
631.197	80084.98
631.529	80084.02
631.862	80086.79
632.195	80087.87
632.527	80089.46
632.86	80090.05
633.193	80089.42
633.525	80089.42
633.857	80089.9
634.19	80090.05
634.522	80088.94
634.854	80089.98
635.187	80090.16
635.519	80090.75
635.851	80090.61
636.183	80091.05
636.515	80091.83
636.847	80092.6
637.179	80090.98
637.511	80091.01
637.843	80091.46
638.174	80090.46
638.506	80090.83
638.838	80088.27
639.17	80088.31
639.501	80086.98
639.833	80086.28
640.164	80086.39
640.496	80086.76
640.827	80088.05
641.158	80087.28
641.49	80088.13
641.821	80087.39
642.152	80085.72
642.483	80085.24
642.814	80084.94
643.145	80083.91
643.476	80082.46
643.807	80081.39
644.138	80083.43
644.469	80083.65
644.8	80082.54
645.131	80083.02
645.461	80080.32
645.792	80079.25
646.122	80078.84
646.453	80078.99
646.784	80078.39
647.114	80078.76
647.444	80077.36
647.775	80076.69
648.105	80077.14
648.435	80077.14
648.765	80077.76
649.096	80078.47
649.426	80078.02
649.756	80078.91
650.086	80079.87
650.416	80081.84
650.746	80080.36
651.075	80078.32
651.405	80078.51
651.735	80079.65
652.065	80078.51
652.394	80079.47
652.724	80082.24
653.054	80083.09
653.383	80083.39
653.712	80084.39
654.042	80083.91
654.371	80085.05
654.701	80084.83
655.03	80084.91
655.359	80083.94
655.688	80083.35
656.017	80082.5
656.346	80082.61
656.675	80081.72
657.004	80082.65
657.333	80081.43
657.662	80082.95
657.991	80084.13
658.32	80083.87
658.648	80083.57
658.977	80083.69
659.306	80084.35
659.634	80083.94
659.963	80083.06
660.291	80083.28
660.619	80081.8
660.948	80081.06
661.276	80080.47
661.604	80079.98
661.933	80080.24
662.261	80080.8
662.589	80080.17
662.917	80081.13
663.245	80081.02
663.573	80081.2
663.901	80077.58
664.229	80076.84
664.556	80076.32
664.884	80076.51
665.212	80075.28
665.539	80074.32
665.867	80074.8
666.195	80076.25
666.522	80075.1
666.85	80076.1
667.177	80074.95
667.504	80074.88
667.832	80074.32
668.159	80074.25
668.486	80073.58
668.813	80073.18
669.14	80072.92
669.467	80072.36
669.794	80070.81
670.121	80070.99
670.448	80069.51
670.775	80070.92
671.102	80070.25
671.429	80069.55
671.755	80068.7
672.082	80069.4
672.409	80068.77
672.735	80068.33
673.062	80064.48
673.388	80062.93
673.714	80061.26
674.041	80061.85
674.367	80061.56
674.693	80061.52
675.019	80060.63
675.346	80059.34
675.672	80057.93
675.998	80057.86
676.324	80057.23
676.65	80058.08
676.976	80056.34
677.301	80057.08
677.627	80056.45
677.953	80056.9
678.279	80057.3
678.604	80055.94
678.93	80054.86
679.255	80054.97
679.581	80054.01
679.906	80055.97
680.232	80055.42
680.557	80055.23
680.882	80054.53
681.208	80053.86
681.533	80053.86
681.858	80055.94
682.183	80056.82
682.508	80058.12
682.833	80055.79
683.158	80056.31
683.483	80055.79
683.808	80055.01
684.132	80054.68
684.457	80052.87
684.782	80052.05
685.106	80050.32
685.431	80051.31
685.755	80050.5
686.08	80050.24
686.404	80050.91
686.729	80050.13
687.053	80050.28
687.377	80048.65
687.701	80048.1
688.026	80047.87
688.35	80046.36
688.674	80043.58
688.998	80042.58
689.322	80040.14
689.646	80040.77
689.97	80038.52
690.293	80036.89
690.617	80036.56
690.941	80033.45
691.264	80033.41
691.588	80031.45
691.912	80031.57
692.235	80028.53
692.559	80026.02
692.882	80023.36
693.205	80018.85
693.529	80015.48
693.852	80013.01
694.175	80009.79
694.498	80006.98
694.821	80002.77
695.144	80000.26
695.467	79994.46
695.79	79988.84
696.113	79981.42
696.436	79973.49
696.759	79965.81
697.082	79957.61
697.404	79948.9
697.727	79938.58
698.049	79924.9
698.372	79907.76
698.694	79883.68
699.017	79859.37
699.339	79828.47
699.662	79790.7
699.984	79730.9
700.306	79653.99
700.628	79539.58
700.95	79394.32
701.272	79233.28
701.594	79066.87
701.916	78902.76
702.238	78728.07
702.56	78497.55
702.882	78286.3
703.204	78086.65
703.525	77857.18
703.847	77586.01
704.169	77337.46
704.49	77066.07
704.812	76791.23
705.133	76518.8
705.455	76246.95
705.776	75956.8
706.097	75681.34
706.419	75399.55
706.74	75113.46
707.061	74823.5
707.382	74538.73
707.703	74274.03
708.024	74020.98
708.345	73759.95
708.666	73477.2
708.987	73176.62
709.307	72943.98
709.628	72659.11
709.949	72344.84
710.27	72046.29
710.59	71800.62
710.911	71509.69
711.231	71220.79
711.552	70947.27
711.872	70627.84
712.192	70354
712.512	70090.83
712.833	69818.63
713.153	69543.72
713.473	69321
713.793	69097.42
714.113	68889.23
714.433	68683.61
714.753	68480.04
715.073	68286.24
715.393	68084.14
715.712	67919.67
716.032	67700.83
716.352	67522.76
716.671	67364.58
716.991	67192.25
717.31	66993.96
717.63	66834.34
717.949	66656.23
718.268	66457.2
718.588	66291.23
718.907	66064.87
719.226	65819.1
719.545	65584.09
719.864	65317.28
720.183	65039.7
720.502	64756.17
720.821	64482.88
721.14	64208.88
721.459	63911.32
721.778	63635.75
722.096	63326.15
722.415	63036.86
722.734	62779.28
723.052	62503.92
723.371	62224.62
723.689	61961.68
724.008	61689.4
724.326	61395.57
724.644	61141.96
724.963	60879.76
725.281	60653.6
725.599	60438.08
725.917	60248.46
726.235	60048.06
726.553	59890.36
726.871	59703.36
727.189	59511.19
727.507	59317.09
727.824	59158.74
728.142	59020.56
728.46	58825.77
728.777	58722.92
729.095	58584.82
729.413	58445.22
729.73	58305.72
730.047	58167.3
730.365	58051.14
730.682	57944.47
730.999	57862.96
731.317	57785.84
731.634	57702.13
731.951	57582.71
732.268	57452.65
732.585	57299.38
732.902	57140.69
733.219	56989.79
733.536	56820.42
733.852	56700.88
734.169	56571.17
734.486	56424.17
734.802	56264.01
735.119	56154.46
735.435	55974.87
735.752	55822.37
736.068	55642.22
736.385	55471.28
736.701	55279.12
737.017	55049.98
737.333	54800.77
737.65	54493.25
737.966	54119.79
738.282	53732.93
738.598	53324.61
738.914	52875.1
739.23	52398.15
739.545	51882.22
739.861	51329.99
740.177	50778.72
740.493	50188.13
740.808	49617.22
741.124	49011.04
741.439	48435.98
741.755	47862.32
742.07	47348.62
742.386	46787.51
742.701	46290.03
743.016	45795.67
743.331	45331.38
743.647	44910.69
743.962	44531.4
744.277	44192.33
744.592	43923.86
744.907	43706.39
745.222	43540.41
745.537	43450.69
745.851	43420.98
746.166	43443.58
746.481	43495.74
746.795	43614.18
747.11	43763.24
747.424	43934.99
747.739	44104.37
748.053	44273.84
748.368	44424.18
748.682	44538.69
748.996	44678.32
749.311	44782.87
749.625	44880.36
749.939	44971.28
750.253	45027.41
750.567	45086.88
750.881	45142.17
751.195	45201.88
751.509	45269.19
751.822	45317.99
752.136	45355.82
752.45	45411.93
752.763	45472.69
753.077	45533.85
753.39	45564.74
753.704	45589.51
754.017	45597.38
754.331	45631.03
754.644	45642.35
754.957	45653.53
755.27	45659.29
755.584	45669.59
755.897	45676.3
756.21	45679.69
756.523	45659.34
756.836	45639.74
757.149	45566.59
757.461	45501.84
757.774	45417.6
758.087	45294.57
758.4	45154.17
758.712	45013.71
759.025	44855.38
759.337	44693.81
759.65	44534.66
759.962	44384.78
760.275	44225.37
760.587	44086.6
760.899	43947.05
761.211	43852.73
761.523	43786.26
761.836	43785.95
762.148	43790.17
762.46	43820.07
762.772	43881.38
763.083	44012.4
763.395	44154.53
763.707	44375.74
764.019	44600.72
764.33	44825.07
764.642	45069.45
764.954	45338.99
765.265	45610.91
765.577	45868.44
765.888	46123.07
766.199	46364.52
766.511	46574.69
766.822	46796.09
767.133	46981.89
767.444	47151.21
767.755	47245.25
768.066	47302.1
768.377	47295.24
768.688	47230.05
768.999	47135.47
769.31	47004.27
769.621	46823.99
769.931	46600.3
770.242	46338.94
770.553	46033.57
770.863	45707.16
771.174	45366.37
771.484	44990.57
771.794	44587.8
772.105	44181.52
772.415	43757.04
772.725	43313.71
773.035	42878.34
773.345	42426.3
773.656	41963.11
773.966	41496.6
774.276	41062.98
774.585	40634.44
774.895	40206.43
775.205	39826.89
775.515	39441.44
775.824	39056.11
776.134	38672.54
776.444	38322.77
776.753	37965.35
777.063	37630.53
777.372	37309.09
777.681	36984.13
777.991	36675.25
778.3	36381.6
778.609	36092.35
778.918	35803.37
779.228	35542.19
779.537	35282.99
779.846	35020.6
780.154	34772.73
780.463	34540.97
780.772	34301.29
781.081	34078.38
781.39	33870.13
781.698	33652.66
782.007	33453.03
782.316	33247.6
782.624	33035.96
782.932	32832.7
783.241	32643.98
783.549	32460.14
783.858	32292.81
784.166	32136.55
784.474	31966.82
784.782	31801.05
785.09	31647.85
785.398	31506.16
785.706	31368.8
786.014	31230.96
786.322	31096.67
786.63	30965.21
786.937	30833.85
787.245	30714.71
787.553	30585.55
787.86	30476.84
788.168	30359.86
788.475	30256.11
788.783	30165.67
789.09	30071.18
789.398	29973.85
789.705	29871.02
790.012	29770.72
790.319	29664.17
790.626	29558.02
790.933	29475.06
791.24	29394.06
791.547	29300.42
791.854	29207.53
792.161	29111.39
792.468	29015.95
792.774	28927.18
793.081	28843.89
793.388	28762.52
793.694	28663.76
794.001	28573.85
794.307	28453.23
794.614	28351.31
794.92	28218
795.226	28092.77
795.533	27980.44
795.839	27888.42
796.145	27778.96
796.451	27662.79
796.757	27557.06
797.063	27445.36
797.369	27329.91
797.675	27225.1
797.98	27127.45
798.286	27007.04
798.592	26899.72
798.898	26784.02
799.203	26671.79
799.509	26550.1
799.814	26426.58
800.12	26328.87
800.425	26223.38
800.73	26115.9
801.035	26005.03
801.341	25905.03
801.646	25805.83
801.951	25705.21
802.256	25597
802.561	25503.12
802.866	25417.54
803.171	25323.14
803.476	25232.78
803.78	25143.74
804.085	25045.01
804.39	24934.73
804.694	24840.1
804.999	24741.41
805.303	24654.07
805.608	24569.53
805.912	24491.96
806.216	24422.55
806.521	24348.92
806.825	24268.02
807.129	24200.52
807.433	24121.97
807.737	24053.24
808.041	23989.29
808.345	23936.63
808.649	23883.53
808.953	23830.97
809.257	23776.6
809.561	23727.95
809.864	23679.88
810.168	23645.49
810.471	23609.26
810.775	23578.32
811.078	23554.2
811.382	23530.86
811.685	23527.93
811.988	23518.07
812.292	23504.9
812.595	23501.59
812.898	23503.16
813.201	23513.34
813.504	23536.73
813.807	23572.04
814.11	23602.65
814.413	23637.04
814.716	23664.1
815.018	23710.85
815.321	23769.21
815.624	23850.02
815.926	23947.14
816.229	24068.96
816.531	24209.38
816.834	24367.8
817.136	24560.56
817.438	24778.11
817.74	25044.37
818.043	25347.28
818.345	25725.23
818.647	26176.43
818.949	26716.51
819.251	27344.48
819.553	28095.33
819.855	28955.47
820.156	29919.84
820.458	31000.78
820.76	32144.91
821.062	33350.33
821.363	34609.01
821.665	35945.98
821.966	37365.76
822.268	38807.28
822.569	40260.61
822.87	41734.05
823.171	43216.32
823.473	44741.14
823.774	46313.17
824.075	47831.17
824.376	49322.65
824.677	50782.6
824.978	52160.43
825.279	53451.97
825.58	54619.12
825.88	55650.17
826.181	56530.25
826.482	57314.63
826.782	57932.11
827.083	58451.3
827.383	58837.45
827.684	59048.69
827.984	59124.07
828.284	59034.27
828.585	58811.18
828.885	58502.57
829.185	58043.09
829.485	57488.49
829.785	56819.79
830.085	55985.04
830.385	55117.35
830.685	54188.39
830.985	53144.84
831.285	52073.4
831.584	50956.96
831.884	49815.29
832.183	48642.78
832.483	47439.26
832.782	46169.84
833.082	44898.58
833.381	43626.62
833.681	42391.61
833.98	41233.18
834.279	40098.9
834.578	38999.72
834.877	37970.98
835.176	36965.99
835.475	36046.49
835.774	35166.9
836.073	34305.31
836.372	33498.13
836.671	32689.48
836.969	31893.06
837.268	31153.43
837.567	30450.38
837.865	29765.62
838.164	29090.41
838.462	28442.83
838.761	27836.63
839.059	27256.35
839.357	26718.47
839.655	26186.78
839.953	25657.08
840.252	25135.21
840.55	24618.43
840.848	24119.46
841.146	23631.48
841.443	23143.21
841.741	22638.79
842.039	22141.63
842.337	21644.2
842.634	21185.96
842.932	20753.77
843.229	20333.68
843.527	19925.78
843.824	19489.58
844.122	19051.49
844.419	18639.19
844.716	18220.34
845.013	17813.06
845.311	17432.37
845.608	17056.21
845.905	16696
846.202	16337.13
846.499	15975.49
846.796	15618.16
847.092	15251.72
847.389	14890.76
847.686	14553.69
847.982	14239.85
848.279	13931.78
848.576	13646.32
848.872	13356.01
849.168	13072.28
849.465	12797.9
849.761	12508.67
850.057	12240.69
850.354	11978.19
850.65	11734.31
850.946	11506.17
851.242	11286.39
851.538	11069.51
851.834	10857.04
852.13	10648
852.425	10457.12
852.721	10280.86
853.017	10119.34
853.312	9971.49
853.608	9829.7
853.903	9692.19
854.199	9550.33
854.494	9423.6
854.79	9297.16
855.085	9169.79
855.38	9041.99
855.675	8911.02
855.971	8795.31
856.266	8693.45
856.561	8597.8
856.856	8505.8
857.151	8420.64
857.445	8324.85
857.74	8229.51
858.035	8141.68
858.33	8047.96
858.624	7965.66
858.919	7888.97
859.213	7802.72
859.508	7723.33
859.802	7635.49
860.096	7554.93
860.391	7495.23
860.685	7432.47
860.979	7371.81
861.273	7318.95
861.567	7262.07
861.861	7200.61
862.155	7150.14
862.449	7086.23
862.743	7024.6
863.037	6965.8
863.33	6907.99
863.624	6855.98
863.918	6811.61
864.211	6767.3
864.505	6735.69
864.798	6695.61
865.092	6649.54
865.385	6605.58
865.678	6554.18
865.971	6522.69
866.264	6490.34
866.558	6461.06
866.851	6429.53
867.144	6399.01
867.437	6366.79
867.729	6339.09
868.022	6320.09
868.315	6299.24
868.608	6287.03
868.9	6281.45
869.193	6262.91
869.485	6239.01
869.778	6216.78
870.07	6188.8
870.363	6169.1
870.655	6153.65
870.947	6145.91
871.239	6137.42
871.532	6137.22
871.824	6141.69
872.116	6139.85
872.408	6137.72
872.699	6120.6
872.991	6117.34
873.283	6114.12
873.575	6115
873.867	6121.79
874.158	6126.61
874.45	6124.41
874.741	6121.34
875.033	6117.5
875.324	6129.12
875.615	6147.63
875.907	6168.91
876.198	6186.08
876.489	6197.6
876.78	6199.15
877.071	6197.26
877.362	6201.42
877.653	6206.89
877.944	6218.23
878.235	6225.01
878.526	6231.34
878.816	6252.97
