Data from 24HourExp_27052025_FLMS018081_01-18-20-666.txt Node
Date: Wed May 28 01:18:20 BST 2025
User: adleo
Spectrometer: FLMS01808
Trigger mode: 0
Integration Time (sec): 4.000000E-1
Scans to average: 10
Electric dark correction enabled: true
Nonlinearity correction enabled: true
Boxcar width: 10
XAxis mode: Wavelengths
Number of Pixels in Spectrum: 2048
>>>>>Begin Spectral Data<<<<<
178.471	-129.38
178.857	-121.34
179.244	-113.34
179.631	-105.23
180.017	-97.44
180.404	-90.17
180.79	-78.65
181.176	-69.51
181.563	-60.02
181.949	-50.56
182.335	-39.85
182.722	-24.72
183.108	-6.38
183.494	19.23
183.88	72.34
184.266	126.11
184.653	181.82
185.039	237.53
185.425	292.22
185.811	346.17
186.197	398.88
186.582	449.41
186.968	501.24
187.354	551.99
187.74	605.09
188.126	655.6
188.511	706.66
188.897	754.03
189.283	801.1
189.668	847.09
190.054	893.44
190.439	939.35
190.825	983.53
191.21	1025.15
191.596	1059.57
191.981	1069.17
192.366	1075.36
192.752	1076.83
193.137	1080.44
193.522	1081.89
193.908	1083.4
194.293	1087.04
194.678	1090.78
195.063	1093.02
195.448	1096.4
195.833	1094.83
196.218	1094.73
196.603	1095.82
196.988	1094.84
197.373	1095.85
197.757	1095.98
198.142	1095.02
198.527	1092.86
198.912	1092.55
199.296	1091.96
199.681	1090.9
200.066	1086.96
200.45	1084.51
200.835	1083.12
201.219	1083.23
201.604	1084.49
201.988	1085.76
202.372	1087
202.757	1087.86
203.141	1087.3
203.525	1087.04
203.91	1088.06
204.294	1088.48
204.678	1086.25
205.062	1086.82
205.446	1085.64
205.83	1086.29
206.214	1086.68
206.598	1086.16
206.982	1087.61
207.366	1088.53
207.75	1089.32
208.134	1092.4
208.517	1094.06
208.901	1094.82
209.285	1095.09
209.669	1095.18
210.052	1095.08
210.436	1094.47
210.819	1094.25
211.203	1095.16
211.586	1096.16
211.97	1098.08
212.353	1099.96
212.737	1103.41
213.12	1105.54
213.503	1107.47
213.886	1108.81
214.27	1111.01
214.653	1112.24
215.036	1114.19
215.419	1116.35
215.802	1118.92
216.185	1120.41
216.568	1123.4
216.951	1127.84
217.334	1130.74
217.717	1134.22
218.1	1137.1
218.482	1141.26
218.865	1142.6
219.248	1148.03
219.631	1152.46
220.013	1155.06
220.396	1161.86
220.778	1165.61
221.161	1171.4
221.544	1176.85
221.926	1185.98
222.308	1193.68
222.691	1203.57
223.073	1211.31
223.455	1220.6
223.838	1228.48
224.22	1239.46
224.602	1250.13
224.984	1260.78
225.366	1272.09
225.749	1287.39
226.131	1299.29
226.513	1311.56
226.895	1326.78
227.276	1338.93
227.658	1352.62
228.04	1368.27
228.422	1382.43
228.804	1399.36
229.186	1415.12
229.567	1434.04
229.949	1448.81
230.331	1464.83
230.712	1482.28
231.094	1500.06
231.475	1517.54
231.857	1537.98
232.238	1556.27
232.62	1575.29
233.001	1597.09
233.382	1619.13
233.763	1636.5
234.145	1658.3
234.526	1677.98
234.907	1695.41
235.288	1715.91
235.669	1735.93
236.05	1755.3
236.431	1773.68
236.812	1795.84
237.193	1815.75
237.574	1835.42
237.955	1858.46
238.336	1881.51
238.717	1903.17
239.097	1927.9
239.478	1950.12
239.859	1973.71
240.239	1998.92
240.62	2021.25
241.001	2043.11
241.381	2064.4
241.762	2086.37
242.142	2110.11
242.522	2135.69
242.903	2163.24
243.283	2191.85
243.663	2217.92
244.044	2248.71
244.424	2278.99
244.804	2306.89
245.184	2338.35
245.564	2367.44
245.944	2398.85
246.324	2430.8
246.704	2460.63
247.084	2488.35
247.464	2519.66
247.844	2550.71
248.224	2581.63
248.604	2614.54
248.983	2645.05
249.363	2680.02
249.743	2714.63
250.122	2745.8
250.502	2778.57
250.882	2812.2
251.261	2844.17
251.641	2878.06
252.02	2909.5
252.399	2944.16
252.779	2979.61
253.158	3015.26
253.537	3057.02
253.917	3098.18
254.296	3135.18
254.675	3175.88
255.054	3218.46
255.433	3263.82
255.812	3304.36
256.191	3345.28
256.57	3387.82
256.949	3432.33
257.328	3475.24
257.707	3519.33
258.086	3567.95
258.465	3615.58
258.843	3666.87
259.222	3716.46
259.601	3769.62
259.979	3824.85
260.358	3879.54
260.736	3935.48
261.115	3991.57
261.493	4045.37
261.872	4095.33
262.25	4154.79
262.629	4213.02
263.007	4272.75
263.385	4331
263.763	4392.86
264.142	4458.78
264.52	4523.57
264.898	4585.62
265.276	4653.69
265.654	4723.79
266.032	4794.72
266.41	4867.45
266.788	4937.94
267.166	5017.61
267.544	5093.98
267.921	5170.92
268.299	5250.99
268.677	5330.34
269.055	5413.33
269.432	5500.04
269.81	5589.52
270.188	5679.01
270.565	5769.67
270.943	5861.26
271.32	5950.96
271.697	6045.28
272.075	6139.41
272.452	6235.47
272.829	6339.94
273.207	6443.06
273.584	6548.24
273.961	6649.52
274.338	6762.7
274.715	6880.08
275.092	6998.07
275.469	7120.12
275.846	7242.13
276.223	7364.92
276.6	7486.87
276.977	7612.86
277.354	7736.63
277.731	7861.91
278.108	7991.41
278.484	8121.47
278.861	8252.77
279.238	8395.71
279.614	8535.09
279.991	8680.6
280.367	8828.65
280.744	8980.55
281.12	9129.48
281.497	9278.7
281.873	9433.88
282.249	9582.39
282.625	9732.51
283.002	9878.99
283.378	10027.14
283.754	10178.95
284.13	10336.31
284.506	10496.19
284.882	10654.52
285.258	10811.11
285.634	10971.35
286.01	11131.66
286.386	11294.97
286.762	11461.48
287.138	11624.25
287.513	11792.04
287.889	11955.04
288.265	12113.32
288.641	12270.63
289.016	12431.63
289.392	12595.9
289.767	12762.01
290.143	12928.01
290.518	13085.64
290.894	13253.5
291.269	13410.46
291.644	13569.09
292.02	13719.65
292.395	13873.39
292.77	14030.4
293.145	14183.86
293.52	14337.73
293.895	14487.87
294.27	14639.56
294.646	14792.23
295.02	14940.04
295.395	15090.83
295.77	15243.97
296.145	15400.05
296.52	15553.98
296.895	15706.54
297.269	15855.89
297.644	16011.14
298.019	16165.33
298.393	16323.64
298.768	16472.29
299.143	16628.93
299.517	16780.41
299.891	16938.98
300.266	17099.13
300.64	17259.38
301.015	17429.82
301.389	17602.96
301.763	17780.1
302.137	17949.1
302.512	18127.55
302.886	18306.51
303.26	18492.88
303.634	18675.6
304.008	18852.79
304.382	19040.93
304.756	19231.12
305.13	19424.08
305.504	19603.39
305.877	19791.77
306.251	20000.62
306.625	20204.6
306.999	20419.39
307.372	20635.71
307.746	20856.2
308.119	21070.24
308.493	21277.57
308.866	21489.33
309.24	21702.75
309.613	21905.93
309.987	22118.45
310.36	22310.05
310.733	22520
311.107	22736.57
311.48	22952
311.853	23192.62
312.226	23414.76
312.599	23644.51
312.972	23871.54
313.345	24102.09
313.718	24332.83
314.091	24550.59
314.464	24777.78
314.837	25002.76
315.21	25211.26
315.582	25427.12
315.955	25637.94
316.328	25862.18
316.7	26077.5
317.073	26300.23
317.446	26529.28
317.818	26763.32
318.191	27001.26
318.563	27226.86
318.936	27431.11
319.308	27638.98
319.68	27837.92
320.053	28037.71
320.425	28220.47
320.797	28400.83
321.169	28562.9
321.541	28703.31
321.913	28835.82
322.285	28954.19
322.657	29071.07
323.029	29224.94
323.401	29371.6
323.773	29545.92
324.145	29715.05
324.517	29906.4
324.889	30081.16
325.26	30277.33
325.632	30490.97
326.004	30728.59
326.375	30986.24
326.747	31264.82
327.118	31570.03
327.49	31860.85
327.861	32174.79
328.233	32488.97
328.604	32801.5
328.975	33118
329.346	33441.99
329.718	33748.31
330.089	34058.26
330.46	34362.54
330.831	34638.95
331.202	34897.7
331.573	35140.06
331.944	35373.66
332.315	35602.28
332.686	35826.05
333.057	36036.45
333.428	36214.37
333.799	36386.39
334.169	36536.93
334.54	36679.21
334.911	36795.9
335.281	36924.07
335.652	37048.7
336.022	37179.89
336.393	37329.24
336.763	37500.95
337.134	37681.9
337.504	37887.55
337.874	38090.99
338.245	38300.51
338.615	38517.69
338.985	38747.67
339.355	38973.1
339.726	39201.61
340.096	39421.49
340.466	39668.07
340.836	39909.43
341.206	40164.98
341.576	40414.23
341.945	40660.97
342.315	40889.05
342.685	41138.67
343.055	41388.42
343.425	41625.85
343.794	41857.24
344.164	42085.55
344.533	42320.89
344.903	42548.79
345.273	42785.66
345.642	43010.03
346.011	43235.79
346.381	43461.8
346.75	43688.24
347.12	43936.39
347.489	44181.3
347.858	44424.29
348.227	44637.15
348.596	44859.41
348.965	45089.88
349.334	45314.29
349.704	45558.2
350.072	45812.31
350.441	46036.36
350.81	46276.14
351.179	46506.52
351.548	46745.45
351.917	46972.47
352.285	47163.63
352.654	47368.09
353.023	47579.1
353.391	47784.16
353.76	47997.85
354.129	48195.92
354.497	48429.68
354.865	48645.5
355.234	48869.22
355.602	49091.64
355.971	49338.15
356.339	49552.19
356.707	49769.65
357.075	49991.11
357.443	50203.28
357.811	50411.76
358.18	50630.02
358.548	50837.38
358.916	51044.99
359.284	51261.54
359.651	51475.9
360.019	51698.22
360.387	51909.19
360.755	52104.12
361.123	52334.46
361.49	52556.16
361.858	52770.19
362.226	52967.31
362.593	53166.53
362.961	53358.04
363.328	53557.82
363.696	53726.63
364.063	53939.8
364.43	54147.66
364.798	54359.66
365.165	54550.65
365.532	54737.24
365.899	54925.21
366.267	55089.65
366.634	55248.96
367.001	55414.32
367.368	55552.56
367.735	55728.88
368.102	55901.52
368.469	56089.43
368.835	56266.21
369.202	56431.92
369.569	56623.08
369.936	56814.62
370.303	57002.1
370.669	57196.55
371.036	57364.41
371.402	57562.76
371.769	57744.09
372.135	57888.92
372.502	58012.87
372.868	58153.27
373.235	58294.75
373.601	58430.56
373.967	58603.12
374.333	58783.9
374.7	58965.15
375.066	59172.79
375.432	59363
375.798	59545.81
376.164	59711.52
376.53	59857.43
376.896	60028.66
377.262	60202.04
377.628	60332.31
377.993	60478.51
378.359	60631.4
378.725	60788.75
379.091	60944.82
379.456	61083.32
379.822	61221.95
380.187	61380.53
380.553	61563.29
380.918	61760.26
381.284	61939.26
381.649	62115.59
382.015	62259.37
382.38	62380.66
382.745	62544.04
383.11	62700.12
383.476	62847.66
383.841	62981.96
384.206	63138.88
384.571	63257.9
384.936	63390.75
385.301	63561.47
385.666	63690.48
386.031	63836.92
386.396	63993.58
386.76	64147.64
387.125	64341.73
387.49	64543.37
387.855	64731.22
388.219	64903.65
388.584	65076.47
388.948	65264.64
389.313	65436.26
389.677	65643.61
390.042	65878.54
390.406	66036.66
390.771	66217.5
391.135	66406.32
391.499	66645.41
391.863	66883.59
392.227	67126.06
392.592	67327.13
392.956	67528.29
393.32	67731.08
393.684	67951.1
394.048	68127.13
394.412	68305.51
394.775	68446.93
395.139	68593.06
395.503	68754.58
395.867	68906.4
396.231	69043.19
396.594	69148.09
396.958	69276.8
397.321	69439.6
397.685	69569.73
398.048	69709.03
398.412	69847.56
398.775	69976.32
399.139	70106.86
399.502	70207.66
399.865	70350.81
400.228	70543.02
400.592	70674.65
400.955	70880.93
401.318	71016.87
401.681	71183.14
402.044	71323.37
402.407	71485.83
402.77	71648.62
403.133	71844.42
403.496	71981.99
403.859	72140.45
404.221	72381.66
404.584	72625.69
404.947	72858.78
405.309	73066.77
405.672	73312.04
406.034	73534.9
406.397	73793.59
406.759	74006.78
407.122	74201.74
407.484	74374.18
407.847	74557.95
408.209	74807.42
408.571	75030.84
408.933	75289.4
409.296	75545.08
409.658	75796.77
410.02	76063.51
410.382	76361.05
410.744	76605.29
411.106	76895.22
411.468	77168.64
411.83	77398.3
412.191	77586.28
412.553	77751.73
412.915	77948.4
413.277	78129.98
413.638	78309.89
414	78457.03
414.361	78614.68
414.723	78816.39
415.084	79006.63
415.446	79155.89
415.807	79268.65
416.169	79353.59
416.53	79417.75
416.891	79495.26
417.252	79585.97
417.614	79642.12
417.975	79668.94
418.336	79700.67
418.697	79732.7
419.058	79758.35
419.419	79775.82
419.78	79798.44
420.141	79814.97
420.501	79828.71
420.862	79840.3
421.223	79850.32
421.584	79873.37
421.944	79885.17
422.305	79893.17
422.666	79898.92
423.026	79901.03
423.387	79909.84
423.747	79915.3
424.107	79924.51
424.468	79930.31
424.828	79936.47
425.188	79938.76
425.549	79945.07
425.909	79948.8
426.269	79948.69
426.629	79953.93
426.989	79957.55
427.349	79959.32
427.709	79960.21
428.069	79962.13
428.429	79967.6
428.789	79971.29
429.149	79975.54
429.508	79978.2
429.868	79979.49
430.228	79983.44
430.587	79987.25
430.947	79991.5
431.306	79995.19
431.666	79997.34
432.025	79999.74
432.385	80001.96
432.744	80003.18
433.103	80003.84
433.463	80005.39
433.822	80010.27
434.181	80013.19
434.54	80015.22
434.899	80018.36
435.258	80018.55
435.618	80020.91
435.976	80023.13
436.335	80024.09
436.694	80024.17
437.053	80024.8
437.412	80028.2
437.771	80028.31
438.129	80029.34
438.488	80029.31
438.847	80029.08
439.205	80029.79
439.564	80030.71
439.922	80028.34
440.281	80031.38
440.639	80032.52
440.997	80032.49
441.356	80033.37
441.714	80032.52
442.072	80031.82
442.431	80028.97
442.789	80032.63
443.147	80032.04
443.505	80032.23
443.863	80033.45
444.221	80033.56
444.579	80033.48
444.937	80033.37
445.294	80033.96
445.652	80033.93
446.01	80033.3
446.368	80033.63
446.725	80032.49
447.083	80032.67
447.441	80033.63
447.798	80030.6
448.156	80030.56
448.513	80032.12
448.87	80033.34
449.228	80033.63
449.585	80035.04
449.942	80037.18
450.3	80036.18
450.657	80037
451.014	80037.85
451.371	80037.62
451.728	80040.07
452.085	80040.32
452.442	80040.14
452.799	80039.77
453.156	80041.21
453.513	80042.43
453.869	80043.62
454.226	80045.58
454.583	80047.06
454.939	80047.65
455.296	80049.53
455.653	80050.46
456.009	80050.46
456.366	80050.83
456.722	80052.79
457.078	80051.2
457.435	80052.53
457.791	80052.57
458.147	80052.97
458.503	80051.86
458.86	80051.16
459.216	80048.98
459.572	80049.5
459.928	80048.98
460.284	80049.46
460.64	80049.9
460.996	80049.31
461.351	80049.09
461.707	80048.42
462.063	80047.61
462.419	80048.46
462.774	80048.61
463.13	80050.09
463.486	80048.94
463.841	80048.79
464.197	80049.5
464.552	80051.86
464.908	80052.05
465.263	80053.16
465.618	80052.86
465.974	80052.49
466.329	80054.05
466.684	80055.23
467.039	80056.19
467.394	80056.12
467.749	80055.71
468.104	80053.42
468.459	80053.34
468.814	80054.38
469.169	80055.67
469.524	80055.75
469.879	80055.82
470.233	80056.75
470.588	80055.56
470.943	80056.74
471.297	80056.67
471.652	80056.08
472.006	80056.34
472.361	80056.67
472.715	80057.37
473.07	80057.93
473.424	80060.52
473.778	80062.63
474.133	80064.4
474.487	80065
474.841	80065.44
475.195	80067.96
475.549	80070.66
475.903	80072.73
476.257	80074.43
476.611	80075.43
476.965	80077.09
477.319	80077.76
477.673	80078.94
478.026	80078.8
478.38	80079.98
478.734	80081.24
479.087	80081.42
479.441	80081.13
479.795	80082.87
480.148	80082.68
480.502	80084.35
480.855	80084.2
481.208	80084.16
481.562	80085.57
481.915	80086.2
482.268	80086.94
482.621	80086.9
482.974	80087.27
483.328	80087.75
483.681	80086.27
484.034	80087.23
484.387	80086.42
484.739	80087.42
485.092	80086.6
485.445	80088.94
485.798	80089.12
486.151	80090.01
486.503	80090.68
486.856	80091.75
487.209	80089.6
487.561	80090.45
487.914	80089.57
488.266	80088.57
488.618	80087.05
488.971	80084.98
489.323	80083.09
489.675	80084.61
490.028	80083.53
490.38	80082.76
490.732	80082.64
491.084	80081.94
491.436	80080.79
491.788	80081.68
492.14	80080.98
492.492	80080.79
492.844	80082.72
493.196	80084.46
493.548	80084.09
493.899	80084.31
494.251	80083.16
494.603	80084.2
494.954	80084.27
495.306	80083.35
495.657	80085.01
496.009	80086.01
496.36	80086.61
496.712	80088.83
497.063	80087.86
497.414	80088.97
497.765	80089.31
498.117	80088.42
498.468	80091.08
498.819	80091.23
499.17	80091.01
499.521	80091.42
499.872	80091.71
500.223	80088.31
500.574	80086.46
500.924	80086.01
501.275	80086.57
501.626	80086.94
501.977	80086.86
502.327	80085.68
502.678	80086.49
503.029	80085.68
503.379	80086.53
503.73	80085.9
504.08	80084.53
504.43	80084.35
504.781	80084.68
505.131	80085.57
505.481	80086.94
505.831	80085.16
506.182	80085.09
506.532	80084.75
506.882	80084.09
507.232	80084.94
507.582	80085.31
507.932	80084.86
508.281	80085.49
508.631	80084.24
508.981	80083.53
509.331	80082.72
509.681	80085.01
510.03	80087.34
510.38	80088.6
510.729	80086.6
511.079	80086.86
511.428	80088.46
511.778	80088.64
512.127	80087.31
512.476	80084.5
512.826	80084.68
513.175	80085.72
513.524	80087.75
513.873	80088.42
514.222	80090.05
514.571	80090.2
514.92	80091.12
515.269	80091.75
515.618	80091.08
515.967	80091.6
516.316	80091.82
516.665	80092.82
517.014	80090.64
517.362	80089.08
517.711	80087.16
518.059	80087.46
518.408	80087.53
518.757	80086.27
519.105	80087.49
519.453	80087.53
519.802	80090.68
520.15	80090.79
520.498	80089.45
520.847	80086.64
521.195	80088.16
521.543	80087.09
521.891	80086.2
522.239	80085.94
522.587	80085.98
522.935	80086.01
523.283	80087.12
523.631	80087.53
523.979	80087.79
524.326	80089.16
524.674	80089.12
525.022	80090.01
525.369	80090.64
525.717	80090.68
526.064	80092.01
526.412	80092.6
526.759	80094.12
527.107	80092.53
527.454	80093.38
527.801	80092.79
528.149	80094.52
528.496	80093.75
528.843	80094.19
529.19	80095.86
529.537	80096.45
529.884	80096.6
530.231	80095.56
530.578	80095.3
530.925	80096.97
531.272	80097.49
531.619	80097.19
531.966	80097.15
532.312	80097.89
532.659	80099.04
533.006	80099.34
533.352	80098.67
533.699	80097.49
534.045	80096.12
534.392	80096.12
534.738	80094.01
535.084	80095.82
535.431	80095.34
535.777	80093.78
536.123	80093.93
536.469	80091.79
536.815	80090.6
537.161	80089.97
537.507	80091.23
537.853	80090.9
538.199	80090.19
538.545	80088.01
538.891	80086.46
539.237	80087.46
539.582	80087.31
539.928	80086.49
540.274	80085.79
540.619	80084.79
540.965	80086.05
541.31	80086.16
541.656	80086.94
542.001	80087.53
542.347	80087.34
542.692	80086.53
543.037	80086.42
543.382	80085.12
543.728	80086.94
544.073	80087.2
544.418	80087.57
544.763	80087.6
545.108	80086.79
545.453	80088.01
545.798	80090.45
546.142	80091.08
546.487	80090.68
546.832	80092.08
547.177	80091.08
547.521	80091.08
547.866	80092.42
548.211	80089.64
548.555	80090.16
548.9	80090.01
549.244	80089.05
549.588	80088.53
549.933	80088.53
550.277	80088.57
550.621	80090.6
550.965	80090.23
551.31	80090.34
551.654	80090.27
551.998	80088.68
552.342	80088.16
552.686	80086.05
553.03	80085.42
553.373	80086.79
553.717	80085.12
554.061	80082.83
554.405	80082.68
554.748	80082.53
555.092	80082.64
555.436	80084.72
555.779	80084.35
556.123	80081.83
556.466	80083.98
556.81	80084.83
557.153	80087.49
557.496	80086.53
557.839	80084.64
558.183	80084.31
558.526	80083.72
558.869	80083.87
559.212	80085.46
559.555	80084.68
559.898	80084.94
560.241	80084.09
560.584	80084.16
560.927	80083.9
561.269	80084.27
561.612	80085.87
561.955	80086.72
562.297	80085.05
562.64	80083.76
562.983	80083.02
563.325	80084.94
563.668	80083.2
564.01	80081.42
564.352	80078.8
564.695	80080.35
565.037	80080.87
565.379	80079.76
565.721	80078.54
566.063	80078.83
566.406	80078.57
566.748	80081.09
567.09	80080.46
567.431	80081.02
567.773	80080.94
568.115	80080.83
568.457	80079.79
568.799	80078.28
569.14	80076.46
569.482	80077.06
569.824	80077.91
570.165	80077.09
570.507	80077.72
570.848	80078.06
571.19	80078.28
571.531	80079.24
571.872	80078.91
572.214	80078.65
572.555	80078.94
572.896	80080.61
573.237	80078.72
573.578	80077.76
573.919	80075.65
574.26	80076.21
574.601	80074.47
574.942	80072.76
575.283	80072.99
575.624	80072.02
575.964	80070.66
576.305	80071.51
576.646	80070.84
576.986	80068.62
577.327	80068.62
577.667	80067.18
578.008	80066.47
578.348	80067.14
578.689	80067.73
579.029	80067.62
579.369	80069.4
579.71	80069.81
580.05	80068.18
580.39	80069.73
580.73	80069.44
581.07	80070.62
581.41	80070.18
581.75	80071.58
582.09	80071.84
582.43	80071.43
582.769	80073.39
583.109	80075.13
583.449	80072.95
583.789	80072.99
584.128	80073.88
584.468	80074.95
584.807	80075.21
585.147	80075.98
585.486	80075.36
585.825	80073.43
586.165	80073.47
586.504	80071.03
586.843	80071.1
587.182	80072.54
587.522	80072.21
587.861	80072.36
588.2	80072.1
588.539	80072.69
588.878	80071.58
589.216	80070.03
589.555	80070.36
589.894	80069.43
590.233	80069.25
590.572	80071.47
590.91	80070.88
591.249	80071.17
591.587	80071.21
591.926	80071.43
592.264	80070.32
592.603	80069.62
592.941	80069.84
593.279	80069.21
593.618	80069.36
593.956	80069.03
594.294	80068.73
594.632	80068.36
594.97	80068.69
595.308	80068.18
595.646	80067.73
595.984	80069.25
596.322	80070.21
596.66	80070.77
596.998	80070.51
597.335	80070.4
597.673	80069.47
598.011	80070.1
598.348	80070.36
598.686	80070.25
599.023	80069.69
599.361	80069.84
599.698	80070.43
600.035	80069.99
600.373	80068.88
600.71	80068.62
601.047	80068.73
601.384	80067.21
601.722	80067.62
602.059	80065.7
602.396	80064.88
602.733	80063.55
603.069	80062.81
603.406	80062.59
603.743	80062.15
604.08	80061.74
604.417	80061.29
604.753	80063.26
605.09	80064
605.426	80064.66
605.763	80062.74
606.099	80062.89
606.436	80062.74
606.772	80062.04
607.109	80061.63
607.445	80062.85
607.781	80062.92
608.117	80063.11
608.453	80062.85
608.79	80062.59
609.126	80064.14
609.462	80062.41
609.798	80063.41
610.133	80061.37
610.469	80061.22
610.805	80060.48
611.141	80059.37
611.477	80058.52
611.812	80055.49
612.148	80054.34
612.483	80053.34
612.819	80054.38
613.154	80053.45
613.49	80054.12
613.825	80053.01
614.16	80053.64
614.496	80053.82
614.831	80053.19
615.166	80052.2
615.501	80053.53
615.836	80052.34
616.171	80052.01
616.506	80054.41
616.841	80054.71
617.176	80055.15
617.511	80055.71
617.846	80055.97
618.18	80057.71
618.515	80057.74
618.85	80059.19
619.184	80058.3
619.519	80056.93
619.853	80056.78
620.188	80056.12
620.522	80055.38
620.856	80057.19
621.191	80056.08
621.525	80056.08
621.859	80055.67
622.193	80055.49
622.527	80055.34
622.861	80055.15
623.195	80055.34
623.529	80054.16
623.863	80053.67
624.197	80052.71
624.531	80051.27
624.865	80050.61
625.198	80049.09
625.532	80049.2
625.866	80047.28
626.199	80047.87
626.533	80047.54
626.866	80046.57
627.2	80048.02
627.533	80047.94
627.866	80047.46
628.2	80047.05
628.533	80044.24
628.866	80043.87
629.199	80042.84
629.532	80042.14
629.865	80041.03
630.198	80040.29
630.531	80039.99
630.864	80038.73
631.197	80039.69
631.529	80039.66
631.862	80038.14
632.195	80040.25
632.527	80039.77
632.86	80041.32
633.193	80041.17
633.525	80041.51
633.857	80043.36
634.19	80041.29
634.522	80041.69
634.854	80040.18
635.187	80041.32
635.519	80043.02
635.851	80044.06
636.183	80044.17
636.515	80043.62
636.847	80044.98
637.179	80045.43
637.511	80045.35
637.843	80046.06
638.174	80044.8
638.506	80046.06
638.838	80047.05
639.17	80045.91
639.501	80044.76
639.833	80042.69
640.164	80042.36
640.496	80042.54
640.827	80040.62
641.158	80042.1
641.49	80041.06
641.821	80041.14
642.152	80040.14
642.483	80041.06
642.814	80040.95
643.145	80040.55
643.476	80041.66
643.807	80041.47
644.138	80041.21
644.469	80042.06
644.8	80040.32
645.131	80040.92
645.461	80041.14
645.792	80039.44
646.122	80038.77
646.453	80039.84
646.784	80042.1
647.114	80041.54
647.444	80041.54
647.775	80042.88
648.105	80041.25
648.435	80040.55
648.765	80040.81
649.096	80041.84
649.426	80041.58
649.756	80039.55
650.086	80038.85
650.416	80036.7
650.746	80035.26
651.075	80035.55
651.405	80035.11
651.735	80036.7
652.065	80035.67
652.394	80034.96
652.724	80036.33
653.054	80035.48
653.383	80036
653.712	80034.11
654.042	80034.52
654.371	80034.11
654.701	80034.22
655.03	80036.48
655.359	80034.82
655.688	80035
656.017	80033.85
656.346	80032.23
656.675	80032.6
657.004	80033.63
657.333	80033.82
657.662	80035.04
657.991	80035.11
658.32	80033.89
658.648	80032.63
658.977	80034.7
659.306	80031.97
659.634	80032.15
659.963	80031.27
660.291	80029.82
660.619	80029.86
660.948	80028.09
661.276	80027.94
661.604	80025.24
661.933	80023.46
662.261	80024.72
662.589	80023.24
662.917	80022.95
663.245	80022.35
663.573	80021.65
663.901	80021.47
664.229	80019.88
664.556	80018.58
664.884	80016.48
665.212	80017.44
665.539	80017.66
665.867	80016.29
666.195	80017.1
666.522	80017.22
666.85	80017.62
667.177	80018.21
667.504	80018.84
667.832	80019.88
668.159	80017.22
668.486	80017.77
668.813	80018.58
669.14	80018.29
669.467	80019.4
669.794	80019.21
670.121	80020.32
670.448	80019.58
670.775	80018.58
671.102	80018.62
671.429	80019.47
671.755	80020.58
672.082	80020.06
672.409	80018.99
672.735	80018.36
673.062	80018.81
673.388	80017.92
673.714	80017.96
674.041	80016.99
674.367	80016.62
674.693	80016.62
675.019	80019.54
675.346	80019.99
675.672	80019.62
675.998	80019.25
676.324	80018.36
676.65	80017.88
676.976	80016
677.301	80016.29
677.627	80015.26
677.953	80016.22
678.279	80014.48
678.604	80014.52
678.93	80012.78
679.255	80012.74
679.581	80010.97
679.906	80011.23
680.232	80011.23
680.557	80009.34
680.882	80008.97
681.208	80008.53
681.533	80008.83
681.858	80007.16
682.183	80007.05
682.508	80006.39
682.833	80005.57
683.158	80004.94
683.483	80003.69
683.808	80004.39
684.132	80006.57
684.457	80006.94
684.782	80007.42
685.106	80007.61
685.431	80005.57
685.755	80006.42
686.08	80005.5
686.404	80007.94
686.729	80006.5
687.053	80004.8
687.377	80005.94
687.701	80004.8
688.026	80004.39
688.35	80002.17
688.674	80001.18
688.998	79999.88
689.322	79997.85
689.646	79997.78
689.97	79997.96
690.293	79997.15
690.617	79996.04
690.941	79991.72
691.264	79990.16
691.588	79988.54
691.912	79986.69
692.235	79986.17
692.559	79983.85
692.882	79982.96
693.205	79980.96
693.529	79979.97
693.852	79979.6
694.175	79975.94
694.498	79974.94
694.821	79971.77
695.144	79970.55
695.467	79967.19
695.79	79962.98
696.113	79959.29
696.436	79954.08
696.759	79947.03
697.082	79942.6
697.404	79936.66
697.727	79930.54
698.049	79923.9
698.372	79913.28
698.694	79900.75
699.017	79886.19
699.339	79870.73
699.662	79853.09
699.984	79823.55
700.306	79793.43
700.628	79742.35
700.95	79678.09
701.272	79595.93
701.594	79500.49
701.916	79411.36
702.238	79301.79
702.56	79145.8
702.882	78990.88
703.204	78848.13
703.525	78683.51
703.847	78468.99
704.169	78275.2
704.49	78064.3
704.812	77844.99
705.133	77621.42
705.455	77391.22
705.776	77148.92
706.097	76916.21
706.419	76672.11
706.74	76414.15
707.061	76137.96
707.382	75845.65
707.703	75550.23
708.024	75277.86
708.345	74990.82
708.666	74682.33
708.987	74381.99
709.307	74128.41
709.628	73824.8
709.949	73509.88
710.27	73199.39
710.59	72940.26
710.911	72641.81
711.231	72336.27
711.552	72057.09
711.872	71724.61
712.192	71456.56
712.512	71194.2
712.833	70921.06
713.153	70640.98
713.473	70404.33
713.793	70169.23
714.113	69952.83
714.433	69745.5
714.753	69529.33
715.073	69342.79
715.393	69141.26
715.712	68971.38
716.032	68745.04
716.352	68572.14
716.671	68406.53
716.991	68231.16
717.31	68033.77
717.63	67869.49
717.949	67689.03
718.268	67473.11
718.588	67295.81
718.907	67055.04
719.226	66783.11
719.545	66529.74
719.864	66253.13
720.183	65975.42
720.502	65693.87
720.821	65413.65
721.14	65126.4
721.459	64823.54
721.778	64541.58
722.096	64218.13
722.415	63905.29
722.734	63644.46
723.052	63360.36
723.371	63066.31
723.689	62791.2
724.008	62513.61
724.326	62214.38
724.644	61948.55
724.963	61684.5
725.281	61465.89
725.599	61239.1
725.917	61056.88
726.235	60860.2
726.553	60703.05
726.871	60507.91
727.189	60302.19
727.507	60104.92
727.824	59951.17
728.142	59810.96
728.46	59608.72
728.777	59510.86
729.095	59375.62
729.413	59227.53
729.73	59082.97
730.047	58953.78
730.365	58835.44
730.682	58724.81
730.999	58635.95
731.317	58567.99
731.634	58488.01
731.951	58365.61
732.268	58235.4
732.585	58088.93
732.902	57928.31
733.219	57765.46
733.536	57588.72
733.852	57466.15
734.169	57339.89
734.486	57190.12
734.802	57031.41
735.119	56917.12
735.435	56738.8
735.752	56577.66
736.068	56403.24
736.385	56235.51
736.701	56034.49
737.017	55800.94
737.333	55549.71
737.65	55247.42
737.966	54863.52
738.282	54465.6
738.598	54056.26
738.914	53610.45
739.23	53121.86
739.545	52604.71
739.861	52049.63
740.177	51502.97
740.493	50903.39
740.808	50320.28
741.124	49713.29
741.439	49130.17
741.755	48546.9
742.07	48022.3
742.386	47465.62
742.701	46959.25
743.016	46465.53
743.331	45995.47
743.647	45576.44
743.962	45193.79
744.277	44850.86
744.592	44580.39
744.907	44368.07
745.222	44203.08
745.537	44111.38
745.851	44078.87
746.166	44094.24
746.481	44153.94
746.795	44267.75
747.11	44425.15
747.424	44599.27
747.739	44766
748.053	44945.36
748.368	45105.25
748.682	45220.21
748.996	45354.57
749.311	45456.86
749.625	45554.84
749.939	45655.35
750.253	45715.12
750.567	45778.98
750.881	45842.71
751.195	45906.01
751.509	45966.29
751.822	46010.31
752.136	46049.4
752.45	46105.13
752.763	46166.92
753.077	46221.47
753.39	46254.56
753.704	46278.89
754.017	46308.15
754.331	46342.78
754.644	46347.7
754.957	46358.14
755.27	46364.81
755.584	46380.25
755.897	46393.46
756.21	46392.07
756.523	46361
756.836	46344.12
757.149	46264.17
757.461	46192.24
757.774	46102.57
758.087	45989.21
758.4	45854.04
758.712	45709.22
759.025	45546.53
759.337	45393.97
759.65	45237.5
759.962	45086.34
760.275	44928.33
760.587	44770.1
760.899	44638.21
761.211	44545.49
761.523	44479.17
761.836	44478.28
762.148	44477.49
762.46	44505.99
762.772	44561.39
763.083	44706.28
763.395	44848.51
763.707	45064.8
764.019	45281.46
764.33	45511.08
764.642	45762.69
764.954	46033.37
765.265	46310.22
765.577	46576.36
765.888	46818.92
766.199	47052.17
766.511	47269.89
766.822	47492.36
767.133	47677.23
767.444	47840.49
767.755	47928.29
768.066	47982.71
768.377	47975.32
768.688	47912.56
768.999	47824.04
769.31	47705.78
769.621	47516.43
769.931	47295.78
770.242	47045.49
770.553	46753.44
770.863	46425.84
771.174	46071.53
771.484	45686.5
771.794	45286.04
772.105	44879.56
772.415	44449.77
772.725	44009.02
773.035	43562.31
773.345	43104.28
773.656	42636.22
773.966	42166.94
774.276	41734.32
774.585	41301.09
774.895	40861.17
775.205	40484.07
775.515	40085.28
775.824	39691.41
776.134	39296.2
776.444	38926.65
776.753	38564.18
777.063	38216.23
777.372	37890.28
777.681	37562.44
777.991	37256.55
778.3	36950.31
778.609	36653.77
778.918	36364.38
779.228	36104.54
779.537	35850.38
779.846	35586.17
780.154	35335.85
780.463	35089.62
780.772	34841.43
781.081	34609.81
781.39	34412.83
781.698	34189.25
782.007	33988.63
782.316	33782.11
782.624	33572.85
782.932	33366.11
783.241	33169.55
783.549	32981.74
783.858	32814.39
784.166	32645.16
784.474	32471.21
784.782	32305.89
785.09	32144.54
785.398	32001.95
785.706	31862.07
786.014	31717.8
786.322	31579.98
786.63	31449.35
786.937	31326.2
787.245	31209.57
787.553	31091.96
787.86	30979.77
788.168	30858.67
788.475	30753
788.783	30660.57
789.09	30569.42
789.398	30477.04
789.705	30379.74
790.012	30279.18
790.319	30169.14
790.626	30068.51
790.933	29978.28
791.24	29893.2
791.547	29800.43
791.854	29710.75
792.161	29609.71
792.468	29511.58
792.774	29419.34
793.081	29334.43
793.388	29253.43
793.694	29155.74
794.001	29062.58
794.307	28938.72
794.614	28833.45
794.92	28704.09
795.226	28572.79
795.533	28456.97
795.839	28357.11
796.145	28240.15
796.451	28122.33
796.757	28017.14
797.063	27905.13
797.369	27794.97
797.675	27683.92
797.98	27581.58
798.286	27453.85
798.592	27352.13
798.898	27233.17
799.203	27122.31
799.509	27001.54
799.814	26871.23
800.12	26768.87
800.425	26658.78
800.73	26550.72
801.035	26438.16
801.341	26333.62
801.646	26235.45
801.951	26134.52
802.256	26035.35
802.561	25941.57
802.866	25858.24
803.171	25768.53
803.476	25682.68
803.78	25592.14
804.085	25497.73
804.39	25390.48
804.694	25299.6
804.999	25194.73
805.303	25106.58
805.608	25022.16
805.912	24938.56
806.216	24873.34
806.521	24801.14
806.825	24719.86
807.129	24646.94
807.433	24574.4
807.737	24505.95
808.041	24440.75
808.345	24384.66
808.649	24326.46
808.953	24269.89
809.257	24203.74
809.561	24146
809.864	24094.31
810.168	24058.22
810.471	24024.43
810.775	23994.91
811.078	23971.8
811.382	23951.21
811.685	23946.05
811.988	23933.58
812.292	23922.65
812.595	23919.92
812.898	23918.51
813.201	23933.3
813.504	23959.55
813.807	23992.13
814.11	24023.08
814.413	24051.95
814.716	24079.58
815.018	24123.42
815.321	24183.6
815.624	24271.74
815.926	24371.13
816.229	24500.72
816.531	24643.97
816.834	24806.5
817.136	25003.29
817.438	25216.99
817.74	25485.17
818.043	25796.84
818.345	26168.98
818.647	26629.8
818.949	27175.46
819.251	27811.06
819.553	28561.26
819.855	29428.24
820.156	30399.18
820.458	31483.2
820.76	32643.58
821.062	33855.64
821.363	35125.38
821.665	36468.52
821.966	37899.46
822.268	39350.37
822.569	40798.8
822.87	42279.01
823.171	43765.02
823.473	45297.18
823.774	46882.36
824.075	48407.91
824.376	49906.54
824.677	51387.06
824.978	52766.07
825.279	54059.97
825.58	55231.27
825.88	56269.7
826.181	57147.25
826.482	57927.15
826.782	58551.83
827.083	59062.08
827.383	59444
827.684	59656.74
827.984	59739.55
828.284	59649.28
828.585	59423.84
828.885	59119.41
829.185	58663.24
829.485	58115.25
829.785	57434.87
830.085	56596.61
830.385	55722.28
830.685	54782.82
830.985	53723.93
831.285	52646.77
831.584	51518.15
831.884	50365.9
832.183	49188.36
832.483	47987.12
832.782	46713.46
833.082	45424.33
833.381	44149.52
833.681	42914.67
833.98	41755.3
834.279	40613.64
834.578	39504.67
834.877	38462.99
835.176	37448.95
835.475	36508.67
835.774	35614.25
836.073	34750.39
836.372	33927.54
836.671	33119.02
836.969	32318.16
837.268	31576.66
837.567	30868.21
837.865	30181.95
838.164	29505.89
838.462	28850.96
838.761	28240.57
839.059	27654.5
839.357	27115.72
839.655	26583.32
839.953	26044.29
840.252	25510.59
840.55	24987.79
840.848	24486
841.146	23995.34
841.443	23500.08
841.741	23000.33
842.039	22492.81
842.337	21989.45
842.634	21530.35
842.932	21086.61
843.229	20660.69
843.527	20242.77
843.824	19797.88
844.122	19351.05
844.419	18930.08
844.716	18504.7
845.013	18087.2
845.311	17702.1
845.608	17322.08
845.905	16957.55
846.202	16596.69
846.499	16231
846.796	15866.57
847.092	15495.35
847.389	15130.15
847.686	14790.43
847.982	14473.03
848.279	14166.03
848.576	13882.18
848.872	13589.05
849.168	13296.58
849.465	13019.51
849.761	12733.61
850.057	12459.79
850.354	12197.43
850.65	11945.43
850.946	11717.58
851.242	11493.1
851.538	11273.23
851.834	11055.65
852.13	10839.26
852.425	10648.09
852.721	10468.12
853.017	10303.01
853.312	10151.79
853.608	10005.75
853.903	9864.91
854.199	9718.23
854.494	9587.88
854.79	9451.07
855.085	9317.14
855.38	9192.36
855.675	9062.33
855.971	8943.23
856.266	8842.29
856.561	8749
856.856	8658.02
857.151	8564.52
857.445	8465.78
857.74	8371.23
858.035	8281.84
858.33	8189.24
858.624	8098.71
858.919	8018.35
859.213	7933.83
859.508	7853.24
859.802	7766.92
860.096	7686.9
860.391	7624.91
860.685	7564.73
860.979	7505.39
861.273	7458.26
861.567	7403.06
861.861	7339.52
862.155	7285.12
862.449	7216.45
862.743	7149.49
863.037	7090.49
863.33	7034.01
863.624	6979.89
863.918	6933.89
864.211	6892.73
864.505	6859.77
864.798	6821.82
865.092	6775.57
865.385	6728.76
865.678	6679.4
865.971	6645.71
866.264	6614.45
866.558	6583.22
866.851	6549.34
867.144	6520.6
867.437	6484.4
867.729	6451.06
868.022	6429.7
868.315	6411.58
868.608	6404.12
868.9	6397.24
869.193	6379.25
869.485	6352.83
869.778	6331.24
870.07	6302.89
870.363	6283.53
870.655	6264.09
870.947	6253.95
871.239	6248.16
871.532	6249.84
871.824	6251.9
872.116	6251.22
872.408	6246.15
872.699	6230.88
872.991	6225.07
873.283	6221.2
873.575	6221.03
873.867	6229.05
874.158	6235.76
874.45	6232.42
874.741	6226.22
875.033	6223.66
875.324	6237.93
875.615	6261.06
875.907	6286.82
876.198	6303.34
876.489	6312.81
876.78	6318.44
877.071	6319.76
877.362	6321.21
877.653	6323.77
877.944	6334.69
878.235	6343.51
878.526	6352.46
878.816	6372.71
