Data from 24HourExp_27052025_FLMS018081_07-08-19-959.txt Node
Date: Wed May 28 07:08:19 BST 2025
User: adleo
Spectrometer: FLMS01808
Trigger mode: 0
Integration Time (sec): 4.000000E-1
Scans to average: 10
Electric dark correction enabled: true
Nonlinearity correction enabled: true
Boxcar width: 10
XAxis mode: Wavelengths
Number of Pixels in Spectrum: 2048
>>>>>Begin Spectral Data<<<<<
178.471	-129.53
178.857	-121.69
179.244	-116.24
179.631	-106.2
180.017	-97.56
180.404	-90.15
180.79	-79.33
181.176	-71.11
181.563	-60.93
181.949	-49.01
182.335	-39.7
182.722	-23.07
183.108	-3.86
183.494	24.29
183.88	78.36
184.266	130.86
184.653	186.68
185.039	242.11
185.425	297.42
185.811	351.09
186.197	404.63
186.582	456.97
186.968	509.25
187.354	562.57
187.74	612.63
188.126	662.49
188.511	712.2
188.897	759.3
189.283	807.09
189.668	851.77
190.054	894.05
190.439	941.08
190.825	984.8
191.21	1023.67
191.596	1055.21
191.981	1063.99
192.366	1070.25
192.752	1071.39
193.137	1075.43
193.522	1075.87
193.908	1078.47
194.293	1080.61
194.678	1083.43
195.063	1085.4
195.448	1086.19
195.833	1086.54
196.218	1086.26
196.603	1086.68
196.988	1087.63
197.373	1087.58
197.757	1088.63
198.142	1090.64
198.527	1088.2
198.912	1087.35
199.296	1088.44
199.681	1086.96
200.066	1084.75
200.45	1081.77
200.835	1083.22
201.219	1083.35
201.604	1081.93
201.988	1082.62
202.372	1084.46
202.757	1083.76
203.141	1084.42
203.525	1086.12
203.91	1085.42
204.294	1086.66
204.678	1086.66
205.062	1085.43
205.446	1086.45
205.83	1086.97
206.214	1085.99
206.598	1086.92
206.982	1087.72
207.366	1087.36
207.75	1088.8
208.134	1088.88
208.517	1092.65
208.901	1093.5
209.285	1092.09
209.669	1095.68
210.052	1095.2
210.436	1092.95
210.819	1093.95
211.203	1095.41
211.586	1094.65
211.97	1097
212.353	1096.42
212.737	1098.09
213.12	1101.36
213.503	1102.4
213.886	1104.13
214.27	1106.36
214.653	1106.59
215.036	1107.77
215.419	1108.99
215.802	1110.88
216.185	1114.27
216.568	1116.84
216.951	1120.5
217.334	1124.45
217.717	1127.35
218.1	1130.13
218.482	1135.07
218.865	1138.4
219.248	1140.35
219.631	1146.6
220.013	1151.78
220.396	1158.63
220.778	1163.61
221.161	1169.63
221.544	1176.5
221.926	1184.48
222.308	1192.13
222.691	1201.37
223.073	1210.84
223.455	1220.78
223.838	1230.74
224.22	1240.4
224.602	1251.45
224.984	1260.25
225.366	1270.46
225.749	1283.87
226.131	1297.02
226.513	1309.89
226.895	1323.69
227.276	1338.42
227.658	1353.38
228.04	1368.25
228.422	1384.03
228.804	1401.38
229.186	1415.69
229.567	1434.04
229.949	1449.94
230.331	1467.29
230.712	1485.59
231.094	1503.35
231.475	1522.29
231.857	1542.52
232.238	1561.21
232.62	1578.91
233.001	1598.88
233.382	1622.47
233.763	1638.39
234.145	1659.58
234.526	1680.42
234.907	1702.15
235.288	1721.48
235.669	1739.52
236.05	1759.53
236.431	1778.16
236.812	1797.96
237.193	1819.63
237.574	1838.68
237.955	1860.44
238.336	1881.34
238.717	1902.76
239.097	1925.16
239.478	1948.25
239.859	1969.47
240.239	1991.74
240.62	2014.79
241.001	2038.45
241.381	2061.04
241.762	2086.88
242.142	2109.35
242.522	2132.12
242.903	2156.65
243.283	2182.86
243.663	2209.33
244.044	2235.66
244.424	2264.65
244.804	2292.38
245.184	2321.84
245.564	2350.04
245.944	2381.25
246.324	2409.74
246.704	2438.84
247.084	2468.42
247.464	2497.96
247.844	2529.63
248.224	2562.87
248.604	2594.59
248.983	2624.37
249.363	2655.29
249.743	2685.76
250.122	2715.24
250.502	2746.59
250.882	2775.84
251.261	2806.69
251.641	2838.24
252.02	2870.66
252.399	2904.12
252.779	2941.68
253.158	2976.78
253.537	3014.37
253.917	3055.73
254.296	3094.78
254.675	3134.22
255.054	3172.72
255.433	3215.69
255.812	3251.92
256.191	3290.23
256.57	3332.01
256.949	3376.13
257.328	3417.07
257.707	3462.94
258.086	3511.41
258.465	3557.8
258.843	3609.49
259.222	3661.95
259.601	3716.27
259.979	3771.01
260.358	3825.79
260.736	3880.19
261.115	3935.39
261.493	3989.69
261.872	4040.03
262.25	4096.95
262.629	4154.73
263.007	4213.4
263.385	4271.62
263.763	4335.62
264.142	4399.89
264.52	4464.44
264.898	4528.67
265.276	4595.78
265.654	4664.18
266.032	4735.37
266.41	4805.47
266.788	4875.65
267.166	4949.59
267.544	5025.17
267.921	5100.53
268.299	5176.33
268.677	5251.89
269.055	5335.39
269.432	5417.49
269.81	5503.68
270.188	5593.08
270.565	5679.76
270.943	5773.07
271.32	5862.56
271.697	5957.51
272.075	6052.87
272.452	6148.48
272.829	6247.22
273.207	6351.72
273.584	6455.61
273.961	6557.74
274.338	6672.93
274.715	6793.31
275.092	6908.96
275.469	7026.87
275.846	7148.34
276.223	7270.86
276.6	7396.87
276.977	7520.65
277.354	7647.62
277.731	7773.15
278.108	7901.23
278.484	8036.82
278.861	8168.69
279.238	8311.35
279.614	8450.73
279.991	8593.94
280.367	8741.97
280.744	8892.28
281.12	9040.33
281.497	9186.68
281.873	9340.34
282.249	9490.3
282.625	9637.17
283.002	9788.42
283.378	9937.22
283.754	10084.99
284.13	10241.55
284.506	10399.94
284.882	10557.96
285.258	10718.53
285.634	10876.35
286.01	11039.04
286.386	11193.53
286.762	11359.46
287.138	11521.26
287.513	11686.84
287.889	11849.43
288.265	12010.02
288.641	12172.01
289.016	12335.46
289.392	12506.65
289.767	12669.64
290.143	12839.53
290.518	13001.95
290.894	13164.18
291.269	13325.56
291.644	13491.69
292.02	13647.11
292.395	13802.03
292.77	13956.82
293.145	14110.62
293.52	14272.7
293.895	14422.63
294.27	14587
294.646	14741.49
295.02	14893.33
295.395	15043.78
295.77	15202.26
296.145	15357.79
296.52	15515.82
296.895	15670.82
297.269	15821.84
297.644	15977.72
298.019	16122
298.393	16277.34
298.768	16430.45
299.143	16587.29
299.517	16737.75
299.891	16893.91
300.266	17057.17
300.64	17220.21
301.015	17387.18
301.389	17556.55
301.763	17731.17
302.137	17896.84
302.512	18075.89
302.886	18253.32
303.26	18440.32
303.634	18621.72
304.008	18801.32
304.382	18981.13
304.756	19163.3
305.13	19352.27
305.504	19531.57
305.877	19725.29
306.251	19931.29
306.625	20135.94
306.999	20347.03
307.372	20566.36
307.746	20784.61
308.119	20996.65
308.493	21205.11
308.866	21415.04
309.24	21630.44
309.613	21840.85
309.987	22051.63
310.36	22246.31
310.733	22452.94
311.107	22670.31
311.48	22886.25
311.853	23119.06
312.226	23346.48
312.599	23583.88
312.972	23805.93
313.345	24044.08
313.718	24281.17
314.091	24504.85
314.464	24733.69
314.837	24958.17
315.21	25170.84
315.582	25393.34
315.955	25602.78
316.328	25828.25
316.7	26048.04
317.073	26265.11
317.446	26492.06
317.818	26724.2
318.191	26957.6
318.563	27187.15
318.936	27399.06
319.308	27602.52
319.68	27799.16
320.053	27997.28
320.425	28179.76
320.797	28361.25
321.169	28520.65
321.541	28661.69
321.913	28790.92
322.285	28912.03
322.657	29028.67
323.029	29180.52
323.401	29322.14
323.773	29489.7
324.145	29661.3
324.517	29852.43
324.889	30034.14
325.26	30238.4
325.632	30456.1
326.004	30692.16
326.375	30952.18
326.747	31224.39
327.118	31534.47
327.49	31829.65
327.861	32141.92
328.233	32452.22
328.604	32764.42
328.975	33087.17
329.346	33399.16
329.718	33706.77
330.089	34014.9
330.46	34317.12
330.831	34580.24
331.202	34838.57
331.573	35088.56
331.944	35319.01
332.315	35548.53
332.686	35763.97
333.057	35955.38
333.428	36130.31
333.799	36303.69
334.169	36455.28
334.54	36595.28
334.911	36712.98
335.281	36843.13
335.652	36962.32
336.022	37095.66
336.393	37246.36
336.763	37407.4
337.134	37594.31
337.504	37798.4
337.874	38002.78
338.245	38208.58
338.615	38432.24
338.985	38665.72
339.355	38886.76
339.726	39104.09
340.096	39321.94
340.466	39579.46
340.836	39823.99
341.206	40073.05
341.576	40318.95
341.945	40558.12
342.315	40784.44
342.685	41024.64
343.055	41271.42
343.425	41514.78
343.794	41748.17
344.164	41971.65
344.533	42204.69
344.903	42433.55
345.273	42665.93
345.642	42890.92
346.011	43125.67
346.381	43354.08
346.75	43585.28
347.12	43835.69
347.489	44090.62
347.858	44333.31
348.227	44540.58
348.596	44767.16
348.965	45005.29
349.334	45236.97
349.704	45475.93
350.072	45730.07
350.441	45967.84
350.81	46207.01
351.179	46437.32
351.548	46679.75
351.917	46908.9
352.285	47102.53
352.654	47312.37
353.023	47516.48
353.391	47720.53
353.76	47931.74
354.129	48120.95
354.497	48354.1
354.865	48571.59
355.234	48806.08
355.602	49025.66
355.971	49274.17
356.339	49485.81
356.707	49696.11
357.075	49916.8
357.443	50143.91
357.811	50349.29
358.18	50555.97
358.548	50766.48
358.916	50977.73
359.284	51182.9
359.651	51405.55
360.019	51622.38
360.387	51818.49
360.755	52021.36
361.123	52243.08
361.49	52466.28
361.858	52689.84
362.226	52876.41
362.593	53070.19
362.961	53245.02
363.328	53446.36
363.696	53614.68
364.063	53835.04
364.43	54046.52
364.798	54257.31
365.165	54434.75
365.532	54629.28
365.899	54813.99
366.267	54975.55
366.634	55117.27
367.001	55288.59
367.368	55424.17
367.735	55611.59
368.102	55791.09
368.469	55985.15
368.835	56166.8
369.202	56331.58
369.569	56518.71
369.936	56718.77
370.303	56908.52
370.669	57116.54
371.036	57283.94
371.402	57485.7
371.769	57666.67
372.135	57819.64
372.502	57945.74
372.868	58082.31
373.235	58218.05
373.601	58357.48
373.967	58536.44
374.333	58729.54
374.7	58907.88
375.066	59111.91
375.432	59299.54
375.798	59485.32
376.164	59652.6
376.53	59803.96
376.896	59975.27
377.262	60147.7
377.628	60270.24
377.993	60416.76
378.359	60553.06
378.725	60712.55
379.091	60860.51
379.456	60987.32
379.822	61114.42
380.187	61259.98
380.553	61454.63
380.918	61655.39
381.284	61833.49
381.649	62000.47
382.015	62146.02
382.38	62268.45
382.745	62438.45
383.11	62588.9
383.476	62728.39
383.841	62854.62
384.206	63009.03
384.571	63131.8
384.936	63266.91
385.301	63440.45
385.666	63575.06
386.031	63727.58
386.396	63887.01
386.76	64032.37
387.125	64227.4
387.49	64432.03
387.855	64628.68
388.219	64796.47
388.584	64969.31
388.948	65164.73
389.313	65328.46
389.677	65529.48
390.042	65766.89
390.406	65915.45
390.771	66093.59
391.135	66286.48
391.499	66520.64
391.863	66750.46
392.227	66988.24
392.592	67186.53
392.956	67378.84
393.32	67583.41
393.684	67805.55
394.048	67974.98
394.412	68162.01
394.775	68309.82
395.139	68458.65
395.503	68623.32
395.867	68774.48
396.231	68917.89
396.594	69026.16
396.958	69167.87
397.321	69324.47
397.685	69448.1
398.048	69588.19
398.412	69734.08
398.775	69865.93
399.139	69988.96
399.502	70104.12
399.865	70243.43
400.228	70437.82
400.592	70580.07
400.955	70774.31
401.318	70903.7
401.681	71074.06
402.044	71210.67
402.407	71378.84
402.77	71529.8
403.133	71706.81
403.496	71850.7
403.859	72000.99
404.221	72233.72
404.584	72472.89
404.947	72717.25
405.309	72927.41
405.672	73167.63
406.034	73389.65
406.397	73641.37
406.759	73872.79
407.122	74053.59
407.484	74225.62
407.847	74415.27
408.209	74667.34
408.571	74893.51
408.933	75159.16
409.296	75412.48
409.658	75665.42
410.02	75928.46
410.382	76240.14
410.744	76501.94
411.106	76788.38
411.468	77062.99
411.83	77292.6
412.191	77487.68
412.553	77656.45
412.915	77856.51
413.277	78051.4
413.638	78236.19
414	78392.11
414.361	78548.74
414.723	78763.04
415.084	78961.67
415.446	79110.06
415.807	79225.56
416.169	79316.03
416.53	79386.54
416.891	79470.26
417.252	79568.79
417.614	79628.49
417.975	79658.22
418.336	79690.35
418.697	79729.3
419.058	79761.03
419.419	79785.1
419.78	79809.26
420.141	79827.11
420.501	79845.12
420.862	79858.12
421.223	79868.37
421.584	79893.44
421.944	79908.03
422.305	79915.08
422.666	79921.98
423.026	79924.27
423.387	79931.64
423.747	79938.94
424.107	79946.4
424.468	79954.15
424.828	79959.69
425.188	79963.35
425.549	79969.55
425.909	79973.65
426.269	79971.4
426.629	79975.2
426.989	79979.01
427.349	79983.48
427.709	79986.62
428.069	79987.95
428.429	79992.46
428.789	79997.78
429.149	80002.69
429.508	80006.06
429.868	80009.28
430.228	80014.49
430.587	80019.63
430.947	80023.99
431.306	80028.61
431.666	80031.6
432.025	80032.71
432.385	80036.78
432.744	80038.11
433.103	80038.15
433.463	80040.66
433.822	80047.64
434.181	80051.42
434.54	80054.04
434.899	80054.56
435.258	80056.11
435.618	80058.26
435.976	80061.33
436.335	80060.18
436.694	80060.14
437.053	80061.59
437.412	80063.55
437.771	80063.29
438.129	80063.81
438.488	80064.92
438.847	80066.14
439.205	80068.14
439.564	80070.06
439.922	80069.84
440.281	80070.24
440.639	80072.13
440.997	80073.94
441.356	80076.24
441.714	80077.24
442.072	80077.5
442.431	80079.53
442.789	80081.79
443.147	80082.09
443.505	80081.68
443.863	80084.45
444.221	80085.16
444.579	80085.56
444.937	80085.34
445.294	80086.9
445.652	80087.86
446.01	80089.15
446.368	80089.71
446.725	80089.63
447.083	80088.82
447.441	80088.45
447.798	80089.52
448.156	80090.74
448.513	80090.41
448.87	80089.34
449.228	80089
449.585	80089.3
449.942	80088.34
450.3	80088.89
450.657	80090.74
451.014	80091.89
451.371	80091.97
451.728	80092.11
452.085	80090.97
452.442	80091.19
452.799	80090.63
453.156	80090
453.513	80089.52
453.869	80089.12
454.226	80088.86
454.583	80091.08
454.939	80091.19
455.296	80091.23
455.653	80090.89
456.009	80091.74
456.366	80092.45
456.722	80091.63
457.078	80092.15
457.435	80092.56
457.791	80091.85
458.147	80090
458.503	80090.6
458.86	80089.3
459.216	80088.08
459.572	80089.41
459.928	80089.56
460.284	80088.38
460.64	80089.97
460.996	80089.45
461.351	80088.75
461.707	80087.93
462.063	80088.53
462.419	80088.12
462.774	80089.3
463.13	80089.3
463.486	80090.82
463.841	80090.3
464.197	80091.04
464.552	80093.08
464.908	80093.93
465.263	80094.52
465.618	80095.08
465.974	80094.93
466.329	80097.34
466.684	80098.89
467.039	80098.85
467.394	80099.89
467.749	80101.55
468.104	80101.3
468.459	80103.48
468.814	80104.96
469.169	80105.66
469.524	80104.14
469.879	80106.29
470.233	80106.44
470.588	80106.88
470.943	80106
471.297	80106.59
471.652	80108.22
472.006	80107.77
472.361	80108.44
472.715	80108.55
473.07	80109.73
473.424	80110.1
473.778	80110.81
474.133	80112.47
474.487	80113.03
474.841	80112.33
475.195	80113.55
475.549	80113.07
475.903	80113.36
476.257	80113.03
476.611	80116.4
476.965	80117.51
477.319	80117.44
477.673	80117.58
478.026	80118.44
478.38	80121.44
478.734	80122.1
479.087	80122.32
479.441	80122.99
479.795	80124.25
480.148	80124.92
480.502	80124.88
480.855	80126.07
481.208	80125.77
481.562	80126.81
481.915	80127.95
482.268	80130.58
482.621	80132.07
482.974	80133.55
483.328	80135.47
483.681	80137.29
484.034	80136.55
484.387	80137.14
484.739	80139.07
485.092	80140.14
485.445	80141.07
485.798	80140.44
486.151	80140.4
486.503	80140.77
486.856	80139.47
487.209	80138.32
487.561	80139.66
487.914	80139.14
488.266	80138.73
488.618	80139.1
488.971	80137.99
489.323	80137.51
489.675	80136.14
490.028	80136.18
490.38	80135.36
490.732	80134.66
491.084	80133.81
491.436	80134.21
491.788	80135.55
492.14	80133.69
492.492	80133.43
492.844	80134.21
493.196	80134.47
493.548	80135.69
493.899	80135.84
494.251	80137.81
494.603	80136.99
494.954	80135.29
495.306	80136.25
495.657	80136.36
496.009	80137.32
496.36	80138.58
496.712	80139.7
497.063	80141.18
497.414	80140.55
497.765	80141.1
498.117	80139.66
498.468	80140.4
498.819	80139.81
499.17	80139.18
499.521	80139.21
499.872	80139.32
500.223	80139.84
500.574	80139.88
500.924	80139.99
501.275	80140.21
501.626	80139.58
501.977	80142.25
502.327	80141.7
502.678	80142.36
503.029	80141.96
503.379	80140.44
503.73	80139.4
504.08	80137.18
504.43	80136.25
504.781	80136.99
505.131	80137.25
505.481	80135.14
505.831	80135.03
506.182	80136.18
506.532	80135.4
506.882	80134.81
507.232	80132.7
507.582	80131.55
507.932	80128.77
508.281	80127.44
508.631	80125.66
508.981	80124.99
509.331	80123.29
509.681	80123.77
510.03	80123.96
510.38	80125.1
510.729	80125.96
511.079	80127.29
511.428	80126.85
511.778	80127.03
512.127	80124.66
512.476	80124.07
512.826	80126.03
513.175	80126.99
513.524	80126.59
513.873	80127.4
514.222	80129.25
514.571	80131.07
514.92	80130.62
515.269	80130.84
515.618	80131.18
515.967	80133.51
516.316	80133.92
516.665	80132.92
517.014	80133.95
517.362	80132.07
517.711	80132.77
518.059	80131.84
518.408	80130.21
518.757	80132.03
519.105	80131.99
519.453	80132.36
519.802	80133.92
520.15	80134.58
520.498	80133.99
520.847	80132.81
521.195	80131.88
521.543	80130.66
521.891	80131.77
522.239	80130.58
522.587	80131.99
522.935	80132.81
523.283	80132.95
523.631	80133.36
523.979	80134.66
524.326	80134.14
524.674	80134.77
525.022	80132.84
525.369	80133.21
525.717	80133.92
526.064	80134.62
526.412	80134.03
526.759	80135.73
527.107	80135.14
527.454	80134.88
527.801	80134.77
528.149	80135.51
528.496	80136.18
528.843	80134.88
529.19	80135.43
529.537	80137.66
529.884	80137.55
530.231	80138.18
530.578	80138.92
530.925	80139.07
531.272	80139.25
531.619	80138.4
531.966	80140.84
532.312	80141.29
532.659	80141.77
533.006	80142.36
533.352	80142.44
533.699	80143.14
534.045	80141.66
534.392	80141.7
534.738	80141.81
535.084	80140.81
535.431	80140.92
535.777	80140.47
536.123	80143.92
536.469	80142.81
536.815	80140.92
537.161	80139.29
537.507	80138.7
537.853	80138.18
538.199	80137.29
538.545	80136.07
538.891	80137.99
539.237	80136.47
539.582	80136.99
539.928	80136.73
540.274	80137.03
540.619	80135.55
540.965	80135.84
541.31	80136.36
541.656	80136.58
542.001	80137.81
542.347	80139.58
542.692	80138.73
543.037	80138.81
543.382	80136.25
543.728	80137.51
544.073	80137.92
544.418	80140.69
544.763	80140.07
545.108	80137.92
545.453	80135.51
545.798	80136.33
546.142	80135.47
546.487	80135.1
546.832	80135.36
547.177	80134.44
547.521	80133.66
547.866	80132.73
548.211	80132.88
548.555	80133.66
548.9	80132.47
549.244	80130.55
549.588	80127.77
549.933	80127.62
550.277	80128.47
550.621	80129.47
550.965	80127.95
551.31	80126.81
551.654	80126.1
551.998	80127.29
552.342	80127.55
552.686	80130.69
553.03	80130.47
553.373	80130.95
553.717	80130.32
554.061	80129.84
554.405	80130.77
554.748	80129.21
555.092	80131.32
555.436	80130.44
555.779	80130.55
556.123	80129.81
556.466	80130.95
556.81	80132.06
557.153	80133.47
557.496	80133.18
557.839	80132.1
558.183	80133.14
558.526	80134.58
558.869	80133.32
559.212	80132.66
559.555	80133.06
559.898	80132.55
560.241	80132.55
560.584	80132.77
560.927	80134.03
561.269	80134.03
561.612	80134.36
561.955	80136.88
562.297	80136.1
562.64	80135.66
562.983	80134.95
563.325	80135.51
563.668	80135.03
564.01	80135.06
564.352	80133.69
564.695	80132.73
565.037	80132.4
565.379	80131.62
565.721	80131.4
566.063	80132.17
566.406	80131.99
566.748	80132.66
567.09	80132.29
567.431	80131.84
567.773	80132.88
568.115	80130.62
568.457	80131.29
568.799	80129.66
569.14	80128.29
569.482	80128.29
569.824	80127.73
570.165	80127.92
570.507	80128.99
570.848	80129.66
571.19	80130.36
571.531	80131.1
571.872	80131.1
572.214	80131.29
572.555	80131.06
572.896	80129.81
573.237	80128.25
573.578	80126.4
573.919	80124.55
574.26	80124.92
574.601	80125.32
574.942	80123.88
575.283	80124.32
575.624	80121.99
575.964	80121.55
576.305	80122.14
576.646	80121.55
576.986	80121.99
577.327	80122.32
577.667	80122.18
578.008	80122.81
578.348	80122.03
578.689	80120.33
579.029	80120.73
579.369	80122.07
579.71	80122.44
580.05	80124.21
580.39	80124.88
580.73	80125.07
581.07	80125.81
581.41	80124.25
581.75	80122.62
582.09	80122.36
582.43	80122.62
582.769	80123.36
583.109	80123.07
583.449	80121.25
583.789	80122.21
584.128	80122.33
584.468	80121.44
584.807	80121.25
585.147	80118.58
585.486	80118.62
585.825	80119.73
586.165	80119.07
586.504	80117.07
586.843	80115.33
587.182	80113.47
587.522	80113.07
587.861	80114.84
588.2	80113.84
588.539	80113.99
588.878	80114.07
589.216	80113.14
589.555	80113.18
589.894	80114.25
590.233	80114.92
590.572	80114.22
590.91	80111.18
591.249	80111.4
591.587	80110.92
591.926	80110.37
592.264	80111.36
592.603	80109.85
592.941	80109.51
593.279	80109.48
593.618	80110.74
593.956	80112.03
594.294	80112.66
594.632	80113.03
594.97	80111.81
595.308	80112.44
595.646	80113.14
595.984	80115.33
596.322	80114.59
596.66	80116.14
596.998	80113.66
597.335	80114.29
597.673	80115.07
598.011	80117.21
598.348	80116.66
598.686	80115.03
599.023	80113.7
599.361	80114.55
599.698	80116.14
600.035	80115.62
600.373	80114.66
600.71	80113.85
601.047	80113.07
601.384	80113.66
601.722	80114.33
602.059	80115.66
602.396	80115.81
602.733	80115.07
603.069	80113.92
603.406	80114.44
603.743	80112.85
604.08	80113.55
604.417	80112.29
604.753	80113.51
605.09	80110.74
605.426	80110.55
605.763	80112.62
606.099	80113.18
606.436	80110.81
606.772	80110.29
607.109	80110.25
607.445	80110.11
607.781	80109.85
608.117	80109.22
608.453	80106.96
608.79	80105.55
609.126	80103.85
609.462	80103.66
609.798	80103.07
610.133	80101.52
610.469	80101.7
610.805	80102
611.141	80102.55
611.477	80102.78
611.812	80102.33
612.148	80103.51
612.483	80102.85
612.819	80101.18
613.154	80100.11
613.49	80101.29
613.825	80100.37
614.16	80100.59
614.496	80100.44
614.831	80099.78
615.166	80099.59
615.501	80100.55
615.836	80100.52
616.171	80101.29
616.506	80101.18
616.841	80101.63
617.176	80102.29
617.511	80101.11
617.846	80100.37
618.18	80099.85
618.515	80098.7
618.85	80095.85
619.184	80097.85
619.519	80097.67
619.853	80096.85
620.188	80098.3
620.522	80097.96
620.856	80097.37
621.191	80097.67
621.525	80098.15
621.859	80097.48
622.193	80097.52
622.527	80098.3
622.861	80096.89
623.195	80094.19
623.529	80093.15
623.863	80093.56
624.197	80094.63
624.531	80094.74
624.865	80094.26
625.198	80094.34
625.532	80095.22
625.866	80097.48
626.199	80095.74
626.533	80094.56
626.866	80094.26
627.2	80092.15
627.533	80091.08
627.866	80091.3
628.2	80089.15
628.533	80087.56
628.866	80088.6
629.199	80088.67
629.532	80086.27
629.865	80087.23
630.198	80087.67
630.531	80087.01
630.864	80085.12
631.197	80084.34
631.529	80083.16
631.862	80083.34
632.195	80082.08
632.527	80081.46
632.86	80080.9
633.193	80080.16
633.525	80079.97
633.857	80081.01
634.19	80082.97
634.522	80082.75
634.854	80082.57
635.187	80082.79
635.519	80085.34
635.851	80084.82
636.183	80083.05
636.515	80084.68
636.847	80084.6
637.179	80086.3
637.511	80087.41
637.843	80087.38
638.174	80086.75
638.506	80087.3
638.838	80087.9
639.17	80087.82
639.501	80088.89
639.833	80087.9
640.164	80089.01
640.496	80089.82
640.827	80088.78
641.158	80088.08
641.49	80089.75
641.821	80090.6
642.152	80090.34
642.483	80089.71
642.814	80089.89
643.145	80091.63
643.476	80090.74
643.807	80090.49
644.138	80088.93
644.469	80086.64
644.8	80086.56
645.131	80087.19
645.461	80087.3
645.792	80085.12
646.122	80084.79
646.453	80083.57
646.784	80083.27
647.114	80081.68
647.444	80081.83
647.775	80084.08
648.105	80084.64
648.435	80081.94
648.765	80081.68
649.096	80082.38
649.426	80081.49
649.756	80080.83
650.086	80081.64
650.416	80081.42
650.746	80080.05
651.075	80079.83
651.405	80080.68
651.735	80081.57
652.065	80079.61
652.394	80079.2
652.724	80080.2
653.054	80080.61
653.383	80080.31
653.712	80080.75
654.042	80080.86
654.371	80080.57
654.701	80078.09
655.03	80076.5
655.359	80077.83
655.688	80078.01
656.017	80076.98
656.346	80074.76
656.675	80073.83
657.004	80071.13
657.333	80071.17
657.662	80070.65
657.991	80070.39
658.32	80069.43
658.648	80068.13
658.977	80068.32
659.306	80068.65
659.634	80068.43
659.963	80067.65
660.291	80068.62
660.619	80068.06
660.948	80068.17
661.276	80066.77
661.604	80066.99
661.933	80067.25
662.261	80066.21
662.589	80064.51
662.917	80064.58
663.245	80066.32
663.573	80065.36
663.901	80066.32
664.229	80065.4
664.556	80065.43
664.884	80064.51
665.212	80065.99
665.539	80066.17
665.867	80067.32
666.195	80065.99
666.522	80064.69
666.85	80064.66
667.177	80063.69
667.504	80063.21
667.832	80063.1
668.159	80064.29
668.486	80064.36
668.813	80063.36
669.14	80063.88
669.467	80064.77
669.794	80064.32
670.121	80064.06
670.448	80065.06
670.775	80065.29
671.102	80065.06
671.429	80065.36
671.755	80066.28
672.082	80064.84
672.409	80064.29
672.735	80063.1
673.062	80063.84
673.388	80064.29
673.714	80063.03
674.041	80061.25
674.367	80061.55
674.693	80061.11
675.019	80058.44
675.346	80059.26
675.672	80058.92
675.998	80058.78
676.324	80057.07
676.65	80057.07
676.976	80054.74
677.301	80053.52
677.627	80052.38
677.953	80051.56
678.279	80051.45
678.604	80049.86
678.93	80050.19
679.255	80049.93
679.581	80050.86
679.906	80051.04
680.232	80050.42
680.557	80051.78
680.882	80052.08
681.208	80052.01
681.533	80051.86
681.858	80053.49
682.183	80052.23
682.508	80052.82
682.833	80051.08
683.158	80049.6
683.483	80047.24
683.808	80047.35
684.132	80047.53
684.457	80045.65
684.782	80046.05
685.106	80044.68
685.431	80045.42
685.755	80044.24
686.08	80043.91
686.404	80041.24
686.729	80040.8
687.053	80041.76
687.377	80039.77
687.701	80040.28
688.026	80037.36
688.35	80035.92
688.674	80035.29
688.998	80033.22
689.322	80030.71
689.646	80029.45
689.97	80029.93
690.293	80030.3
690.617	80029.56
690.941	80028.08
691.264	80027.67
691.588	80025.27
691.912	80024.9
692.235	80022.31
692.559	80021.98
692.882	80019.87
693.205	80017.36
693.529	80014.18
693.852	80009.45
694.175	80007.57
694.498	80004.46
694.821	80001.73
695.144	79999.25
695.467	79994.26
695.79	79991.42
696.113	79987.91
696.436	79984.03
696.759	79977.79
697.082	79972.58
697.404	79966.45
697.727	79959.37
698.049	79952.09
698.372	79941.21
698.694	79927.75
699.017	79914.26
699.339	79893.6
699.662	79874.97
699.984	79842.69
700.306	79800.01
700.628	79742.16
700.95	79657.19
701.272	79557.44
701.594	79452.27
701.916	79344.34
702.238	79226.09
702.56	79055.89
702.882	78884.43
703.204	78726.87
703.525	78551.65
703.847	78326.66
704.169	78123.02
704.49	77900.82
704.812	77667.85
705.133	77437.9
705.455	77195.18
705.776	76941.16
706.097	76701.49
706.419	76444.64
706.74	76177.21
707.061	75899.22
707.382	75603.2
707.703	75308.37
708.024	75040.8
708.345	74758.06
708.666	74460.51
708.987	74154.74
709.307	73898.34
709.628	73602.88
709.949	73289.2
710.27	72973.75
710.59	72713.71
710.911	72416.42
711.231	72107.62
711.552	71838.72
711.872	71512.03
712.192	71232.58
712.512	70967.39
712.833	70694.72
713.153	70412.09
713.473	70178
713.793	69946.71
714.113	69729.3
714.433	69531.17
714.753	69326.45
715.073	69129.89
715.393	68919.6
715.712	68750.48
716.032	68529.57
716.352	68361.39
716.671	68200.92
716.991	68029.14
717.31	67836.98
717.63	67669.67
717.949	67495.57
718.268	67276.29
718.588	67103.75
718.907	66881.59
719.226	66616.03
719.545	66364.68
719.864	66090.15
720.183	65813.99
720.502	65532.03
720.821	65259.67
721.14	64969.19
721.459	64653.88
721.778	64379.63
722.096	64067.39
722.415	63763.24
722.734	63503.32
723.052	63213.38
723.371	62915.33
723.689	62639.3
724.008	62358.18
724.326	62066.65
724.644	61805.86
724.963	61542.62
725.281	61313.14
725.599	61085.79
725.917	60901.66
726.235	60703.72
726.553	60551.92
726.871	60361.65
727.189	60158.89
727.507	59963.52
727.824	59812.95
728.142	59672.68
728.46	59464.92
728.777	59356.99
729.095	59215.86
729.413	59068.03
729.73	58923.76
730.047	58795.51
730.365	58686.7
730.682	58572
730.999	58476.68
731.317	58397.5
731.634	58311.9
731.951	58196.67
732.268	58068.56
732.585	57919.68
732.902	57753.07
733.219	57591.35
733.536	57417.76
733.852	57299.23
734.169	57159.39
734.486	57011.03
734.802	56854.19
735.119	56747.07
735.435	56575.57
735.752	56417.1
736.068	56240.29
736.385	56072.86
736.701	55880.15
737.017	55639.35
737.333	55397.34
737.65	55092.3
737.966	54718.54
738.282	54327.35
738.598	53915.16
738.914	53462.73
739.23	52976.18
739.545	52459.54
739.861	51906.29
740.177	51356.37
740.493	50750.57
740.808	50175.27
741.124	49565.33
741.439	48982.02
741.755	48409.51
742.07	47888.51
742.386	47335.52
742.701	46838.34
743.016	46346.76
743.331	45873.49
743.647	45446.56
743.962	45058.15
744.277	44717.23
744.592	44439.55
744.907	44225.89
745.222	44053.15
745.537	43957.51
745.851	43927.77
746.166	43952.26
746.481	44010
746.795	44125.66
747.11	44287.76
747.424	44463.44
747.739	44630.64
748.053	44808.86
748.368	44959.6
748.682	45066.28
748.996	45200.71
749.311	45303.9
749.625	45411.67
749.939	45506.5
750.253	45574.93
750.567	45647.53
750.881	45707.79
751.195	45774
751.509	45838.35
751.822	45885.55
752.136	45934.79
752.45	45990.05
752.763	46050.93
753.077	46102.23
753.39	46138.37
753.704	46157.09
754.017	46168.06
754.331	46204.08
754.644	46215.84
754.957	46227.22
755.27	46244.47
755.584	46253.91
755.897	46253.1
756.21	46228.97
756.523	46203.61
756.836	46183.45
757.149	46100.52
757.461	46035.14
757.774	45947.58
758.087	45823.08
758.4	45685.8
758.712	45535.52
759.025	45377.62
759.337	45224.04
759.65	45068.07
759.962	44905.65
760.275	44753.31
760.587	44613.37
760.899	44472.87
761.211	44369.22
761.523	44290.91
761.836	44283.1
762.148	44286.25
762.46	44318.28
762.772	44395.81
763.083	44535.86
763.395	44675.26
763.707	44889.76
764.019	45109.58
764.33	45342.16
764.642	45598.86
764.954	45872.06
765.265	46147.83
765.577	46405.88
765.888	46649.69
766.199	46895.03
766.511	47109.56
766.822	47325.3
767.133	47506.88
767.444	47677.67
767.755	47774.93
768.066	47836.73
768.377	47827.2
768.688	47762.08
768.999	47672.44
769.31	47543.12
769.621	47354.76
769.931	47142.68
770.242	46885.96
770.553	46590.69
770.863	46259.15
771.174	45899.72
771.484	45512.17
771.794	45114.84
772.105	44713.25
772.415	44283.98
772.725	43833.92
773.035	43399.45
773.345	42937.94
773.656	42470.06
773.966	41996.03
774.276	41568.69
774.585	41140.3
774.895	40704.45
775.205	40320.59
775.515	39931.25
775.824	39541.39
776.134	39152.18
776.444	38787.9
776.753	38425.56
777.063	38083.57
777.372	37756.14
777.681	37438.74
777.991	37140.27
778.3	36828.57
778.609	36524.54
778.918	36239.01
779.228	35980.6
779.537	35719.4
779.846	35470.19
780.154	35223.11
780.463	34987.57
780.772	34739.44
781.081	34512.28
781.39	34317.04
781.698	34104.71
782.007	33902.78
782.316	33691.69
782.624	33482.5
782.932	33281.45
783.241	33093.73
783.549	32904.51
783.858	32731.75
784.166	32558.54
784.474	32382.84
784.782	32227.21
785.09	32077.66
785.398	31931.05
785.706	31789.11
786.014	31648.63
786.322	31506.89
786.63	31379.14
786.937	31250.35
787.245	31122.39
787.553	30995
787.86	30879.78
788.168	30760.02
788.475	30649.09
788.783	30555.04
789.09	30460.44
789.398	30359.2
789.705	30256.99
790.012	30153.68
790.319	30047.14
790.626	29944.67
790.933	29856.52
791.24	29766.94
791.547	29675
791.854	29583.47
792.161	29486.86
792.468	29386.2
792.774	29293.46
793.081	29200.69
793.388	29124.89
793.694	29037.74
794.001	28950.36
794.307	28827.45
794.614	28723.19
794.92	28597.6
795.226	28473.82
795.533	28358.59
795.839	28258.06
796.145	28144.53
796.451	28034.02
796.757	27930.29
797.063	27824.69
797.369	27711.09
797.675	27602.65
797.98	27495.85
798.286	27372.46
798.592	27266.8
798.898	27153.81
799.203	27042.18
799.509	26927.06
799.814	26795.35
800.12	26688.74
800.425	26571.85
800.73	26466.9
801.035	26349.88
801.341	26246.6
801.646	26142.25
801.951	26038.58
802.256	25934.36
802.561	25835.29
802.866	25743.14
803.171	25648.75
803.476	25557.76
803.78	25467.96
804.085	25373.99
804.39	25259.91
804.694	25167.04
804.999	25062.62
805.303	24972.44
805.608	24890.24
805.912	24808.95
806.216	24742.13
806.521	24675.55
806.825	24604.99
807.129	24532.31
807.433	24463.29
807.737	24393.46
808.041	24334.19
808.345	24276.73
808.649	24223.05
808.953	24173.95
809.257	24117.76
809.561	24064.48
809.864	24013.52
810.168	23979.17
810.471	23948.18
810.775	23924.76
811.078	23899.54
811.382	23877.98
811.685	23874.35
811.988	23861.11
812.292	23846.16
812.595	23842.26
812.898	23832.51
813.201	23840.64
813.504	23865.72
813.807	23893.01
814.11	23926.6
814.413	23956.32
814.716	23982.49
815.018	24024.12
815.321	24086.06
815.624	24165.51
815.926	24271.34
816.229	24393.65
816.531	24531.8
816.834	24688.16
817.136	24887.05
817.438	25104.01
817.74	25368.07
818.043	25676.87
818.345	26050.59
818.647	26511.57
818.949	27050.81
819.251	27683.75
819.553	28432.83
819.855	29301.11
820.156	30266.25
820.458	31347.15
820.76	32494.63
821.062	33710.01
821.363	34980.73
821.665	36314.55
821.966	37750.29
822.268	39197.19
822.569	40648.81
822.87	42123.48
823.171	43611.18
823.473	45126.79
823.774	46708.48
824.075	48242.53
824.376	49733.34
824.677	51202.94
824.978	52579.58
825.279	53872.54
825.58	55047.85
825.88	56080.19
826.181	56961.18
826.482	57747.08
826.782	58366.69
827.083	58885.68
827.383	59272.4
827.684	59483.23
827.984	59562.92
828.284	59470.13
828.585	59242.94
828.885	58946.19
829.185	58493.27
829.485	57939.14
829.785	57273.33
830.085	56440.58
830.385	55561.3
830.685	54625.85
830.985	53577.32
831.285	52504.25
831.584	51391.11
831.884	50239.16
832.183	49068.26
832.483	47860
832.782	46581.38
833.082	45312.02
833.381	44030.7
833.681	42793.16
833.98	41628.94
834.279	40496.02
834.578	39393.27
834.877	38354.01
835.176	37334.51
835.475	36404.36
835.774	35518.17
836.073	34654.54
836.372	33837.61
836.671	33032.94
836.969	32234.65
837.268	31494.97
837.567	30783.76
837.865	30091.03
838.164	29415.93
838.462	28764.7
838.761	28150.45
839.059	27571.07
839.357	27019.37
839.655	26493.78
839.953	25950.9
840.252	25424.72
840.55	24901.98
840.848	24393.92
841.146	23907.55
841.443	23415.84
841.741	22913.16
842.039	22409.89
842.337	21907
842.634	21442.3
842.932	21002.43
843.229	20581.4
843.527	20163.45
843.824	19724.26
844.122	19282.27
844.419	18867.26
844.716	18440.51
845.013	18031.21
845.311	17647.28
845.608	17272.77
845.905	16908.33
846.202	16553.6
846.499	16187.59
846.796	15825.28
847.092	15453.83
847.389	15088.1
847.686	14752.83
847.982	14437.29
848.279	14127.34
848.576	13842.51
848.872	13549.52
849.168	13257.59
849.465	12978.01
849.761	12690.95
850.057	12416.92
850.354	12154.06
850.65	11903.1
850.946	11677.54
851.242	11453.63
851.538	11238.76
851.834	11017.43
852.13	10801.96
852.425	10611.31
852.721	10434.04
853.017	10270.78
853.312	10126.22
853.608	9980.77
853.903	9838.78
854.199	9690.37
854.494	9560.16
854.79	9428.62
855.085	9298.94
855.38	9170.42
855.675	9040.32
855.971	8921.34
856.266	8821.42
856.561	8723.03
856.856	8629.29
857.151	8539.02
857.445	8443.92
857.74	8345.41
858.035	8254.08
858.33	8162.48
858.624	8074.24
858.919	7997.29
859.213	7912.21
859.508	7827.19
859.802	7741.87
860.096	7662.87
860.391	7602.42
860.685	7541.88
860.979	7480.26
861.273	7427.75
861.567	7370.17
861.861	7307.7
862.155	7253.54
862.449	7185.49
862.743	7122.39
863.037	7063.43
863.33	7003.95
863.624	6951.69
863.918	6907.16
864.211	6868.7
864.505	6836.87
864.798	6794.52
865.092	6746.28
865.385	6699
865.678	6648.74
865.971	6614.07
866.264	6580.27
866.558	6550.07
866.851	6515.4
867.144	6486.07
867.437	6449.1
867.729	6421.79
868.022	6400.98
868.315	6382.72
868.608	6370.7
868.9	6365.64
869.193	6348.46
869.485	6322.32
869.778	6296.6
870.07	6269.23
870.363	6246.19
870.655	6227.43
870.947	6222.99
871.239	6215.77
871.532	6215.47
871.824	6219.11
872.116	6220.51
872.408	6216.03
872.699	6203.24
872.991	6200.68
873.283	6197.35
873.575	6198.36
873.867	6203.43
874.158	6210.39
874.45	6205.1
874.741	6207.26
875.033	6203.95
875.324	6215.83
875.615	6236.36
875.907	6259.6
876.198	6274.86
876.489	6288.6
876.78	6294.07
877.071	6292.43
877.362	6295.51
877.653	6299.8
877.944	6310.33
878.235	6314.32
878.526	6322.93
878.816	6334.83
