Data from Reference_27052025_FLMS018081_09-56-34-581.txt Node
Date: Tue May 27 09:56:34 BST 2025
User: adleo
Spectrometer: FLMS01808
Trigger mode: 0
Integration Time (sec): 4.000000E-1
Scans to average: 10
Electric dark correction enabled: true
Nonlinearity correction enabled: true
Boxcar width: 10
XAxis mode: Wavelengths
Number of Pixels in Spectrum: 2048
>>>>>Begin Spectral Data<<<<<
178.471	-128.98
178.857	-121.95
179.244	-114.72
179.631	-106.7
180.017	-98.94
180.404	-89.4
180.79	-79.61
181.176	-70.07
181.563	-61.06
181.949	-49.79
182.335	-40.36
182.722	-24.23
183.108	-4.68
183.494	21.14
183.88	75.79
184.266	130.42
184.653	186.76
185.039	242.3
185.425	298.88
185.811	353.84
186.197	407.56
186.582	460.76
186.968	513.07
187.354	565.1
187.74	616.77
188.126	667.73
188.511	717.07
188.897	766.06
189.283	814.57
189.668	861.16
190.054	904.3
190.439	951.14
190.825	994.52
191.21	1034.67
191.596	1069.21
191.981	1077.53
192.366	1081.28
192.752	1081.87
193.137	1085.06
193.522	1087.03
193.908	1088.2
194.293	1091.78
194.678	1092.34
195.063	1094.15
195.448	1096.25
195.833	1096.47
196.218	1097.41
196.603	1096.53
196.988	1096.03
197.373	1096.34
197.757	1097.08
198.142	1098.32
198.527	1095.83
198.912	1096.92
199.296	1096.86
199.681	1096.41
200.066	1095.79
200.45	1095.39
200.835	1096.34
201.219	1097.37
201.604	1097.15
201.988	1098.76
202.372	1099.52
202.757	1100.37
203.141	1102.01
203.525	1104.2
203.91	1105.6
204.294	1107.34
204.678	1109.67
205.062	1110.73
205.446	1112.53
205.83	1116.46
206.214	1117.83
206.598	1121.54
206.982	1124.15
207.366	1128
207.75	1130.85
208.134	1133.79
208.517	1137.68
208.901	1140.37
209.285	1143.34
209.669	1144.92
210.052	1148.51
210.436	1151.86
210.819	1155.92
211.203	1159.24
211.586	1161.28
211.97	1165.39
212.353	1168.33
212.737	1171.7
213.12	1176.15
213.503	1178.54
213.886	1181.01
214.27	1186.02
214.653	1190.17
215.036	1194.64
215.419	1198.92
215.802	1203.41
216.185	1208.95
216.568	1213.59
216.951	1220.77
217.334	1225.49
217.717	1233.26
218.1	1237.73
218.482	1243.19
218.865	1250.11
219.248	1258.6
219.631	1266.88
220.013	1274.63
220.396	1284.43
220.778	1293.86
221.161	1302.56
221.544	1311.43
221.926	1320.65
222.308	1329.74
222.691	1340.54
223.073	1350.69
223.455	1359.23
223.838	1372.27
224.22	1382.23
224.602	1394.87
224.984	1405.45
225.366	1416.49
225.749	1432
226.131	1445.28
226.513	1459.06
226.895	1471.8
227.276	1484.96
227.658	1500.78
228.04	1515.46
228.422	1529.88
228.804	1544.64
229.186	1559.21
229.567	1575.52
229.949	1589.68
230.331	1605.09
230.712	1620.63
231.094	1635.46
231.475	1653.26
231.857	1668.82
232.238	1686.64
232.62	1704.27
233.001	1722.76
233.382	1742.55
233.763	1757.59
234.145	1776.66
234.526	1794.62
234.907	1811.48
235.288	1827.4
235.669	1843.18
236.05	1860.13
236.431	1876.08
236.812	1895.12
237.193	1914.07
237.574	1933.01
237.955	1952.78
238.336	1973.69
238.717	1991.47
239.097	2014.49
239.478	2034.88
239.859	2053.89
240.239	2075.8
240.62	2096.44
241.001	2115.7
241.381	2136.52
241.762	2159.1
242.142	2180.01
242.522	2202.41
242.903	2226.23
243.283	2249.75
243.663	2275.4
244.044	2304.04
244.424	2329.94
244.804	2355.2
245.184	2383.64
245.564	2411.12
245.944	2441.9
246.324	2472.99
246.704	2504.51
247.084	2529.24
247.464	2558.43
247.844	2590.61
248.224	2617.74
248.604	2649.05
248.983	2680.43
249.363	2712.19
249.743	2742.81
250.122	2772.45
250.502	2803.54
250.882	2835.85
251.261	2870.07
251.641	2900.94
252.02	2931.35
252.399	2965.1
252.779	3002.95
253.158	3039.92
253.537	3079.91
253.917	3121.76
254.296	3158.48
254.675	3199.4
255.054	3244.96
255.433	3287.97
255.812	3327.97
256.191	3373.03
256.57	3412.4
256.949	3458.09
257.328	3504.78
257.707	3551.28
258.086	3602.01
258.465	3650.61
258.843	3702.56
259.222	3755.28
259.601	3808.26
259.979	3863.55
260.358	3921.26
260.736	3975.68
261.115	4032.98
261.493	4086.56
261.872	4139.62
262.25	4196.47
262.629	4253.7
263.007	4312.82
263.385	4373.7
263.763	4439.04
264.142	4505.02
264.52	4573.45
264.898	4640.34
265.276	4706.06
265.654	4775.08
266.032	4844.22
266.41	4915.51
266.788	4986.95
267.166	5062.46
267.544	5139.08
267.921	5217.12
268.299	5299.23
268.677	5379.37
269.055	5461.41
269.432	5548.58
269.81	5635.74
270.188	5727.44
270.565	5817.65
270.943	5911.31
271.32	6005.91
271.697	6103.21
272.075	6200.45
272.452	6300.46
272.829	6399.39
273.207	6503.8
273.584	6613.3
273.961	6723.03
274.338	6837.51
274.715	6957.94
275.092	7078.33
275.469	7205.19
275.846	7333.68
276.223	7461.09
276.6	7588.47
276.977	7717
277.354	7848.3
277.731	7977.13
278.108	8109.59
278.484	8243.77
278.861	8378.39
279.238	8520.71
279.614	8664.3
279.991	8807.77
280.367	8955.45
280.744	9111.11
281.12	9263.55
281.497	9413.63
281.873	9571.99
282.249	9730.6
282.625	9877.86
283.002	10029.68
283.378	10182.68
283.754	10336.07
284.13	10488.96
284.506	10655.12
284.882	10816.25
285.258	10976.36
285.634	11142.96
286.01	11310.23
286.386	11478.15
286.762	11649.97
287.138	11818.7
287.513	11985.46
287.889	12154.54
288.265	12321.87
288.641	12486.14
289.016	12653.36
289.392	12820.27
289.767	12985.57
290.143	13152.27
290.518	13322.36
290.894	13492.43
291.269	13656.84
291.644	13819.34
292.02	13984.79
292.395	14136.33
292.77	14298.42
293.145	14455.38
293.52	14614.74
293.895	14769.68
294.27	14926.66
294.646	15082.28
295.02	15237.26
295.395	15393.07
295.77	15553.23
296.145	15716
296.52	15874.92
296.895	16034.41
297.269	16192.86
297.644	16348.48
298.019	16502.81
298.393	16662.7
298.768	16815.61
299.143	16972.06
299.517	17123.37
299.891	17276.48
300.266	17441.57
300.64	17604.92
301.015	17773.63
301.389	17949.98
301.763	18124.27
302.137	18298
302.512	18476.91
302.886	18657.81
303.26	18844.62
303.634	19028.86
304.008	19210.08
304.382	19397.45
304.756	19586.17
305.13	19778.03
305.504	19961.73
305.877	20159.62
306.251	20372.11
306.625	20583.79
306.999	20798.57
307.372	21022.46
307.746	21252.32
308.119	21469.47
308.493	21683.89
308.866	21902.3
309.24	22116.31
309.613	22330.85
309.987	22543.07
310.36	22747.93
310.733	22960.26
311.107	23182.34
311.48	23401.59
311.853	23633.21
312.226	23865.11
312.599	24096.39
312.972	24327.25
313.345	24564.18
313.718	24799.38
314.091	25020.31
314.464	25248.72
314.837	25477.06
315.21	25688.8
315.582	25908.79
315.955	26125.85
316.328	26352.35
316.7	26567.91
317.073	26797.79
317.446	27024.28
317.818	27266.47
318.191	27503.04
318.563	27732.83
318.936	27939.02
319.308	28153.84
319.68	28362.37
320.053	28560.69
320.425	28751.8
320.797	28942.16
321.169	29113.93
321.541	29260.26
321.913	29398.45
322.285	29518.05
322.657	29644.77
323.029	29799.03
323.401	29944.07
323.773	30114.07
324.145	30280.42
324.517	30476.56
324.889	30649.16
325.26	30853.66
325.632	31067.76
326.004	31305.46
326.375	31559.77
326.747	31845.09
327.118	32156.16
327.49	32445.23
327.861	32766.04
328.233	33082.18
328.604	33392.68
328.975	33707.57
329.346	34020.86
329.718	34330.32
330.089	34644.24
330.46	34938.23
330.831	35210.41
331.202	35470.7
331.573	35722.11
331.944	35957.41
332.315	36190.29
332.686	36414.67
333.057	36620.31
333.428	36795.64
333.799	36964.19
334.169	37122.64
334.54	37261.79
334.911	37369.6
335.281	37501.82
335.652	37622.57
336.022	37751.99
336.393	37892.17
336.763	38066.36
337.134	38262.58
337.504	38462.61
337.874	38664.85
338.245	38878.97
338.615	39101.65
338.985	39330.7
339.355	39553.66
339.726	39786.76
340.096	40006.66
340.466	40260
340.836	40506.87
341.206	40765.01
341.576	41019.75
341.945	41269.55
342.315	41509.39
342.685	41760.25
343.055	42013.61
343.425	42261.53
343.794	42500.49
344.164	42736.36
344.533	42966.31
344.903	43190.22
345.273	43422.09
345.642	43655.84
346.011	43889.65
346.381	44123.81
346.75	44357.29
347.12	44608.94
347.489	44857.29
347.858	45108.09
348.227	45322.4
348.596	45545.12
348.965	45777.44
349.334	46003.62
349.704	46241.01
350.072	46485.38
350.441	46718.14
350.81	46955.36
351.179	47180.38
351.548	47422.42
351.917	47650.85
352.285	47846.77
352.654	48051.26
353.023	48266.74
353.391	48471.22
353.76	48689.99
354.129	48881.48
354.497	49116.82
354.865	49334.79
355.234	49567.12
355.602	49783.17
355.971	50028.79
356.339	50245.66
356.707	50464.8
357.075	50685.76
357.443	50908.18
357.811	51119.39
358.18	51327.71
358.548	51534.9
358.916	51745.99
359.284	51959.34
359.651	52174.27
360.019	52398.33
360.387	52613.37
360.755	52818.33
361.123	53043.59
361.49	53260.48
361.858	53479.95
362.226	53676.15
362.593	53874.68
362.961	54052.04
363.328	54253.02
363.696	54419.82
364.063	54633.54
364.43	54840.4
364.798	55057.09
365.165	55232.03
365.532	55419.86
365.899	55613.97
366.267	55781.29
366.634	55927.18
367.001	56095.03
367.368	56234.41
367.735	56415.36
368.102	56585.21
368.469	56776.54
368.835	56958.09
369.202	57120.57
369.569	57314.94
369.936	57504.74
370.303	57700.57
370.669	57904.82
371.036	58078.54
371.402	58288.18
371.769	58477.27
372.135	58633.59
372.502	58762.24
372.868	58913.51
373.235	59055.74
373.601	59195.79
373.967	59379.38
374.333	59578.42
374.7	59763.28
375.066	59976.04
375.432	60167.85
375.798	60354.25
376.164	60521.86
376.53	60674.85
376.896	60848.77
377.262	61025.5
377.628	61158.92
377.993	61307.39
378.359	61455.9
378.725	61603.53
379.091	61753.15
379.456	61888.48
379.822	62021.58
380.187	62174.37
380.553	62370.3
380.918	62573.41
381.284	62756.94
381.649	62925.38
382.015	63074.66
382.38	63200.82
382.745	63373.88
383.11	63530.45
383.476	63679.39
383.841	63813.22
384.206	63971.86
384.571	64091.44
384.936	64226.86
385.301	64410.24
385.666	64539.89
386.031	64698.78
386.396	64876.56
386.76	65037.47
387.125	65225.75
387.49	65432.44
387.855	65634.55
388.219	65807.48
388.584	65985.71
388.948	66182.02
389.313	66352.74
389.677	66554.3
390.042	66790.53
390.406	66947.14
390.771	67143
391.135	67337.18
391.499	67578.47
391.863	67819.54
392.227	68071.11
392.592	68274.58
392.956	68476.01
393.32	68684.83
393.684	68905.57
394.048	69082.16
394.412	69267.47
394.775	69427.63
395.139	69583.5
395.503	69747.18
395.867	69899.77
396.231	70054.63
396.594	70157.36
396.958	70298.52
397.321	70461.87
397.685	70593.46
398.048	70734.48
398.412	70867.66
398.775	70995.09
399.139	71122.07
399.502	71241.68
399.865	71385.99
400.228	71587.42
400.592	71720.9
400.955	71926.1
401.318	72061.09
401.681	72222.43
402.044	72363.73
402.407	72523.48
402.77	72680.23
403.133	72871.15
403.496	73021.32
403.859	73167.52
404.221	73415.73
404.584	73665.57
404.947	73911.51
405.309	74133.48
405.672	74382.76
406.034	74613.21
406.397	74879.72
406.759	75107.11
407.122	75299.5
407.484	75484.51
407.847	75666.33
408.209	75911.19
408.571	76127.29
408.933	76380.08
409.296	76636.03
409.658	76887.48
410.02	77139.58
410.382	77412.72
410.744	77632.79
411.106	77884.67
411.468	78127.53
411.83	78316.01
412.191	78464.96
412.553	78586.13
412.915	78730.12
413.277	78871.32
413.638	79001
414	79109.32
414.361	79220.19
414.723	79366.57
415.084	79506.83
415.446	79607.83
415.807	79680.19
416.169	79727.38
416.53	79759.82
416.891	79796.35
417.252	79840.81
417.614	79864.91
417.975	79874.98
418.336	79885.96
418.697	79900.52
419.058	79911.14
419.419	79919.74
419.78	79930.51
420.141	79937.96
420.501	79942.76
420.862	79948.63
421.223	79953.91
421.584	79967.1
421.944	79974.41
422.305	79976.26
422.666	79978.62
423.026	79979.4
423.387	79986.6
423.747	79990.51
424.107	79995.43
424.468	79999.86
424.828	80001.16
425.188	80002.89
425.549	80005.22
425.909	80009.03
426.269	80006.11
426.629	80007.66
426.989	80009.25
427.349	80011.95
427.709	80012.95
428.069	80014.8
428.429	80016.46
428.789	80019.38
429.149	80022.15
429.508	80023.33
429.868	80025.81
430.228	80029.1
430.587	80030.58
430.947	80033.43
431.306	80036.87
431.666	80037.54
432.025	80037.46
432.385	80040.53
432.744	80041.97
433.103	80043.75
433.463	80044.23
433.822	80049.48
434.181	80051.4
434.54	80053.58
434.899	80055.14
435.258	80057.36
435.618	80058.21
435.976	80060.09
436.335	80061.2
436.694	80062.61
437.053	80064.2
437.412	80065.42
437.771	80063.2
438.129	80064.38
438.488	80064.09
438.847	80064.09
439.205	80066.23
439.564	80068.08
439.922	80067.97
440.281	80069.38
440.639	80071.78
440.997	80075.19
441.356	80076.3
441.714	80077.89
442.072	80076.26
442.431	80075.89
442.789	80078.55
443.147	80080.77
443.505	80082.03
443.863	80081.7
444.221	80081.48
444.579	80081.96
444.937	80082.25
445.294	80084.96
445.652	80087.18
446.01	80086.33
446.368	80087.32
446.725	80087.55
447.083	80086.14
447.441	80084.66
447.798	80085.14
448.156	80083.74
448.513	80082.29
448.87	80081.07
449.228	80080.33
449.585	80081.14
449.942	80081.51
450.3	80080.03
450.657	80078.44
451.014	80079.7
451.371	80079.78
451.728	80079.59
452.085	80079.15
452.442	80080
452.799	80078.33
453.156	80076.67
453.513	80076.93
453.869	80075.7
454.226	80076.22
454.583	80077.26
454.939	80077.52
455.296	80075.85
455.653	80075.81
456.009	80075.74
456.366	80077.18
456.722	80078
457.078	80078
457.435	80078.03
457.791	80078.59
458.147	80079.77
458.503	80079.59
458.86	80080.77
459.216	80080.63
459.572	80080.11
459.928	80080.33
460.284	80081.77
460.64	80083.62
460.996	80084.03
461.351	80083.73
461.707	80083.59
462.063	80083.77
462.419	80085.73
462.774	80086.25
463.13	80086.29
463.486	80085.66
463.841	80085.47
464.197	80084.96
464.552	80085.58
464.908	80085.73
465.263	80085.58
465.618	80087.18
465.974	80086.44
466.329	80085.47
466.684	80087.43
467.039	80089.66
467.394	80088.29
467.749	80088.36
468.104	80087.58
468.459	80088.17
468.814	80090.14
469.169	80089.8
469.524	80091.65
469.879	80091.43
470.233	80092.21
470.588	80093.02
470.943	80095.61
471.297	80097.02
471.652	80098.69
472.006	80100.57
472.361	80101.09
472.715	80101.28
473.07	80100.54
473.424	80102.31
473.778	80104.83
474.133	80105.05
474.487	80104.61
474.841	80107.35
475.195	80107.46
475.549	80109.64
475.903	80111.46
476.257	80110.98
476.611	80112.12
476.965	80111.75
477.319	80113.16
477.673	80114.83
478.026	80116.38
478.38	80115.27
478.734	80114.61
479.087	80113.9
479.441	80112.68
479.795	80113.24
480.148	80112.94
480.502	80112.5
480.855	80111.57
481.208	80111.5
481.562	80111.31
481.915	80113.01
482.268	80112.57
482.621	80112.79
482.974	80112.24
483.328	80111.09
483.681	80112.09
484.034	80111.87
484.387	80114.01
484.739	80114.42
485.092	80112.61
485.445	80112.09
485.798	80113.94
486.151	80115.94
486.503	80118.12
486.856	80120.46
487.209	80120.27
487.561	80120.9
487.914	80122.64
488.266	80123.72
488.618	80122.75
488.971	80123.94
489.323	80123.09
489.675	80123.27
490.028	80122.75
490.38	80121.75
490.732	80122.23
491.084	80122.79
491.436	80123.35
491.788	80121.01
492.14	80120.6
492.492	80123.27
492.844	80123.97
493.196	80123.83
493.548	80124.6
493.899	80123.68
494.251	80123.12
494.603	80123.16
494.954	80123.72
495.306	80123.35
495.657	80123.35
496.009	80123.49
496.36	80122.64
496.712	80122.75
497.063	80122.16
497.414	80123.46
497.765	80125.16
498.117	80123.9
498.468	80124.35
498.819	80124.68
499.17	80124.97
499.521	80122.83
499.872	80121.86
500.223	80120.72
500.574	80119.98
500.924	80118.23
501.275	80118.42
501.626	80118.64
501.977	80118.16
502.327	80117.72
502.678	80118.75
503.029	80119.09
503.379	80119.42
503.73	80120.35
504.08	80118.24
504.43	80117.61
504.781	80117.09
505.131	80116.05
505.481	80118.31
505.831	80117.79
506.182	80118.42
506.532	80119.64
506.882	80121.49
507.232	80120.97
507.582	80122.49
507.932	80124.31
508.281	80125.12
508.631	80124.64
508.981	80123.68
509.331	80125.01
509.681	80124.94
510.03	80124.09
510.38	80123.64
510.729	80124.23
511.079	80124.57
511.428	80127.27
511.778	80127.27
512.127	80127.42
512.476	80127.68
512.826	80126.75
513.175	80126.16
513.524	80124.53
513.873	80123.38
514.222	80122.79
514.571	80125.01
514.92	80122.83
515.269	80121.12
515.618	80121.16
515.967	80121.75
516.316	80123.83
516.665	80121.72
517.014	80122.01
517.362	80121.38
517.711	80122.31
518.059	80122.09
518.408	80122.9
518.757	80122.31
519.105	80122.79
519.453	80121.75
519.802	80120.16
520.15	80121.94
520.498	80122.57
520.847	80122.79
521.195	80123.13
521.543	80123.35
521.891	80120.38
522.239	80122.16
522.587	80122.38
522.935	80122.9
523.283	80123.68
523.631	80122.83
523.979	80123.79
524.326	80124.23
524.674	80125.35
525.022	80125.23
525.369	80125.23
525.717	80125.09
526.064	80124.53
526.412	80126.86
526.759	80128.38
527.107	80129.49
527.454	80127.97
527.801	80128.09
528.149	80128.64
528.496	80130.09
528.843	80131.16
529.19	80132.68
529.537	80131.71
529.884	80131.6
530.231	80130.34
530.578	80129.38
530.925	80129.34
531.272	80130.27
531.619	80129.97
531.966	80130.38
532.312	80129.6
532.659	80129.94
533.006	80129.05
533.352	80129.2
533.699	80128.16
534.045	80127.38
534.392	80128.38
534.738	80128.05
535.084	80128.2
535.431	80127.83
535.777	80126.45
536.123	80126.68
536.469	80125.94
536.815	80125.94
537.161	80125.16
537.507	80124.34
537.853	80123.79
538.199	80123.12
538.545	80122.6
538.891	80124.42
539.237	80124.05
539.582	80123.83
539.928	80123.16
540.274	80122.75
540.619	80123.23
540.965	80122.23
541.31	80121.97
541.656	80122.16
542.001	80123.16
542.347	80123.42
542.692	80122.64
543.037	80122.01
543.382	80121.2
543.728	80121.72
544.073	80122.83
544.418	80123.16
544.763	80125.86
545.108	80126.68
545.453	80125.9
545.798	80126.31
546.142	80124.9
546.487	80124.38
546.832	80126.31
547.177	80126.97
547.521	80126.49
547.866	80125.42
548.211	80124.94
548.555	80127.79
548.9	80127.35
549.244	80126.01
549.588	80124.9
549.933	80125.05
550.277	80126.75
550.621	80126.46
550.965	80126.35
551.31	80124.83
551.654	80125.09
551.998	80123.27
552.342	80123.68
552.686	80125.6
553.03	80125.46
553.373	80126.2
553.717	80124.35
554.061	80122.61
554.405	80120.87
554.748	80121.38
555.092	80121.35
555.436	80122.35
555.779	80120.83
556.123	80120.38
556.466	80122.2
556.81	80122.6
557.153	80124.79
557.496	80124.79
557.839	80125.38
558.183	80124.57
558.526	80124.75
558.869	80124.57
559.212	80123.35
559.555	80122.9
559.898	80121.86
560.241	80120.94
560.584	80119.42
560.927	80122.42
561.269	80122.86
561.612	80124.38
561.955	80124.57
562.297	80126.12
562.64	80126.2
562.983	80125.9
563.325	80125.12
563.668	80123.23
564.01	80122.79
564.352	80119.75
564.695	80118.46
565.037	80118.2
565.379	80118.16
565.721	80118.27
566.063	80117.49
566.406	80118.49
566.748	80117.35
567.09	80117.01
567.431	80116.9
567.773	80117.64
568.115	80115.61
568.457	80115.79
568.799	80115.83
569.14	80115.09
569.482	80112.42
569.824	80111.53
570.165	80112.83
570.507	80113.38
570.848	80112.53
571.19	80111.46
571.531	80113.31
571.872	80111.94
572.214	80111.79
572.555	80111.98
572.896	80112.39
573.237	80111.5
573.578	80110.76
573.919	80109.87
574.26	80109.94
574.601	80110.83
574.942	80110.61
575.283	80110.05
575.624	80108.42
575.964	80108.35
576.305	80109.13
576.646	80110.28
576.986	80110.31
577.327	80109.53
577.667	80108.9
578.008	80111.09
578.348	80113.13
578.689	80110.53
579.029	80111.09
579.369	80111.83
579.71	80111.35
580.05	80110.57
580.39	80111.98
580.73	80111.9
581.07	80112.01
581.41	80111.46
581.75	80112.42
582.09	80111.02
582.43	80111.46
582.769	80110.76
583.109	80108.54
583.449	80107.13
583.789	80107.2
584.128	80106.65
584.468	80104.09
584.807	80102.69
585.147	80100.46
585.486	80098.76
585.825	80101.13
586.165	80102.65
586.504	80102.28
586.843	80101.5
587.182	80101.54
587.522	80101.32
587.861	80101.98
588.2	80101.5
588.539	80100.61
588.878	80099.69
589.216	80099.69
589.555	80099.87
589.894	80101.76
590.233	80102.39
590.572	80102.46
590.91	80102.02
591.249	80102.57
591.587	80102.54
591.926	80103.46
592.264	80106.13
592.603	80107.72
592.941	80105.91
593.279	80103.46
593.618	80102.17
593.956	80102.31
594.294	80102.5
594.632	80102.65
594.97	80101.98
595.308	80102.02
595.646	80103.94
595.984	80103.5
596.322	80103.76
596.66	80104.39
596.998	80102.5
597.335	80102.5
597.673	80102.02
598.011	80101.39
598.348	80102.39
598.686	80103.72
599.023	80104.5
599.361	80102.17
599.698	80101.46
600.035	80101.54
600.373	80103.09
600.71	80102.35
601.047	80101.91
601.384	80101.28
601.722	80100.65
602.059	80100.98
602.396	80102.54
602.733	80099.43
603.069	80098.91
603.406	80099.87
603.743	80098.91
604.08	80099.76
604.417	80101.35
604.753	80102.06
605.09	80103.17
605.426	80102.5
605.763	80100.69
606.099	80099.98
606.436	80100.35
606.772	80100.06
607.109	80099.5
607.445	80098.35
607.781	80096.99
608.117	80095.84
608.453	80094.51
608.79	80092.69
609.126	80092.43
609.462	80090.77
609.798	80092.43
610.133	80092.69
610.469	80092.06
610.805	80091.54
611.141	80090.95
611.477	80090.03
611.812	80089.4
612.148	80086.62
612.483	80086.66
612.819	80087.44
613.154	80087.58
613.49	80086.58
613.825	80084.73
614.16	80086.03
614.496	80085.96
614.831	80087.77
615.166	80088.69
615.501	80089.66
615.836	80092.43
616.171	80091.47
616.506	80091.17
616.841	80090.25
617.176	80089.51
617.511	80087.21
617.846	80086.92
618.18	80086.21
618.515	80083.36
618.85	80084.18
619.184	80087.18
619.519	80086.55
619.853	80084.85
620.188	80085.29
620.522	80086.21
620.856	80088.36
621.191	80087.66
621.525	80087.33
621.859	80086.62
622.193	80086.59
622.527	80086.59
622.861	80086.29
623.195	80085.47
623.529	80086.25
623.863	80085.51
624.197	80085.66
624.531	80086.03
624.865	80086.1
625.198	80086.07
625.532	80088.69
625.866	80086.51
626.199	80084.07
626.533	80081.7
626.866	80082.66
627.2	80081.7
627.533	80080.55
627.866	80079.96
628.2	80079.22
628.533	80079.03
628.866	80079.85
629.199	80080.11
629.532	80079.15
629.865	80078.37
630.198	80079.29
630.531	80079.48
630.864	80079.59
631.197	80078.33
631.529	80079.37
631.862	80077.92
632.195	80079.48
632.527	80078.85
632.86	80079.48
633.193	80080.92
633.525	80081.25
633.857	80080.7
634.19	80080.22
634.522	80080.66
634.854	80079.14
635.187	80080.26
635.519	80081.07
635.851	80081.96
636.183	80080.92
636.515	80081.7
636.847	80081.59
637.179	80081.85
637.511	80080.88
637.843	80080.85
638.174	80081.22
638.506	80080.96
638.838	80081.96
639.17	80079.44
639.501	80080.26
639.833	80080.59
640.164	80080.51
640.496	80082.25
640.827	80082.92
641.158	80083.59
641.49	80084.7
641.821	80084.14
642.152	80082.88
642.483	80082.03
642.814	80079.29
643.145	80080.74
643.476	80080.96
643.807	80079.89
644.138	80078.52
644.469	80077.67
644.8	80077.7
645.131	80078.37
645.461	80078.26
645.792	80078.52
646.122	80078.37
646.453	80076.67
646.784	80074.34
647.114	80073.37
647.444	80070.49
647.775	80070.45
648.105	80068.12
648.435	80067.53
648.765	80067.49
649.096	80069.53
649.426	80070.12
649.756	80069.86
650.086	80067.75
650.416	80067.34
650.746	80067.82
651.075	80069.64
651.405	80070.23
651.735	80070.49
652.065	80071.23
652.394	80070.75
652.724	80070.45
653.054	80071.86
653.383	80072.23
653.712	80073.37
654.042	80073.89
654.371	80075.45
654.701	80075.08
655.03	80076.56
655.359	80075.7
655.688	80075.7
656.017	80073.48
656.346	80072.74
656.675	80073.41
657.004	80073.93
657.333	80073.78
657.662	80074.93
657.991	80072.56
658.32	80073.08
658.648	80072.52
658.977	80071.71
659.306	80071.3
659.634	80071.04
659.963	80069.75
660.291	80068.56
660.619	80070.01
660.948	80069.67
661.276	80068.64
661.604	80068.04
661.933	80067.56
662.261	80067.49
662.589	80068.34
662.917	80067.08
663.245	80066.64
663.573	80066.75
663.901	80067.56
664.229	80066.68
664.556	80064.83
664.884	80065.38
665.212	80064.86
665.539	80064.12
665.867	80064.57
666.195	80064.49
666.522	80063.72
666.85	80063.94
667.177	80065.82
667.504	80062.53
667.832	80061.13
668.159	80060.54
668.486	80060.31
668.813	80060.79
669.14	80060.05
669.467	80058.87
669.794	80058.32
670.121	80057.39
670.448	80056.95
670.775	80057.39
671.102	80056.58
671.429	80056.87
671.755	80054.99
672.082	80052.81
672.409	80053.1
672.735	80050.73
673.062	80049.07
673.388	80049.59
673.714	80049.11
674.041	80046.66
674.367	80048.55
674.693	80048.11
675.019	80048.25
675.346	80047.77
675.672	80046.7
675.998	80045.92
676.324	80044.45
676.65	80045.18
676.976	80044.96
677.301	80044.04
677.627	80041.82
677.953	80041.04
678.279	80039.67
678.604	80039.3
678.93	80038.75
679.255	80039.67
679.581	80039.6
679.906	80040.38
680.232	80039.86
680.557	80039.71
680.882	80040.12
681.208	80040.97
681.533	80041.08
681.858	80041.12
682.183	80040.38
682.508	80038.75
682.833	80038.79
683.158	80039.56
683.483	80038.05
683.808	80037.57
684.132	80037.38
684.457	80036.98
684.782	80036.68
685.106	80036.79
685.431	80038.86
685.755	80039.16
686.08	80036.94
686.404	80036.72
686.729	80036.72
687.053	80035.68
687.377	80035.27
687.701	80033.72
688.026	80029.95
688.35	80029.47
688.674	80028.47
688.998	80028.99
689.322	80029.69
689.646	80029.21
689.97	80028.25
690.293	80027.32
690.617	80027.29
690.941	80028.32
691.264	80027.07
691.588	80027.29
691.912	80026.59
692.235	80024.74
692.559	80024.33
692.882	80024.03
693.205	80024
693.529	80022
693.852	80020.52
694.175	80017.12
694.498	80017.53
694.821	80017.6
695.144	80014.57
695.467	80011.39
695.79	80009.36
696.113	80005.74
696.436	80001.9
696.759	79998.72
697.082	79996.28
697.404	79992.44
697.727	79983.5
698.049	79978.92
698.372	79969.95
698.694	79960.69
699.017	79951.65
699.339	79940.58
699.662	79927.42
699.984	79907.12
700.306	79888.37
700.628	79860.9
700.95	79829.17
701.272	79786.22
701.594	79739.43
701.916	79692.49
702.238	79638.37
702.56	79548.38
702.882	79449.32
703.204	79351.23
703.525	79234.79
703.847	79078.39
704.169	78932.52
704.49	78760.89
704.812	78582.49
705.133	78403.63
705.455	78217.43
705.776	78010.79
706.097	77816.95
706.419	77609.37
706.74	77379.93
707.061	77131.35
707.382	76859.03
707.703	76564.25
708.024	76291.62
708.345	75992.26
708.666	75689.13
708.987	75359.16
709.307	75069.71
709.628	74744.49
709.949	74415.25
710.27	74087.13
710.59	73808.26
710.911	73490.97
711.231	73178.84
711.552	72883.08
711.872	72543.69
712.192	72251.96
712.512	71978.76
712.833	71695.4
713.153	71400.17
713.473	71158.29
713.793	70910.61
714.113	70688.21
714.433	70486.6
714.753	70267.27
715.073	70070.79
715.393	69859.73
715.712	69697.42
716.032	69470.81
716.352	69302.76
716.671	69138.93
716.991	68959.04
717.31	68755.63
717.63	68595.67
717.949	68415.07
718.268	68210.89
718.588	68031.72
718.907	67799.37
719.226	67534.27
719.545	67276.27
719.864	67001.11
720.183	66719.63
720.502	66440.98
720.821	66159.84
721.14	65866.28
721.459	65551.33
721.778	65269.15
722.096	64936.01
722.415	64621.94
722.734	64359.15
723.052	64067.5
723.371	63769.78
723.689	63485.78
724.008	63203.03
724.326	62893.83
724.644	62625.77
724.963	62350.6
725.281	62116.9
725.599	61882.59
725.917	61683.97
726.235	61483.58
726.553	61324.73
726.871	61122.75
727.189	60916.6
727.507	60710.38
727.824	60547.47
728.142	60403.86
728.46	60199.52
728.777	60093.69
729.095	59949.86
729.413	59792.86
729.73	59633.73
730.047	59494.54
730.365	59380.43
730.682	59258.45
730.999	59170.46
731.317	59091.95
731.634	59004.42
731.951	58882.19
732.268	58756.79
732.585	58612.73
732.902	58449.87
733.219	58289.3
733.536	58116.02
733.852	57990.59
734.169	57859.57
734.486	57713.02
734.802	57559.59
735.119	57441.01
735.435	57264.01
735.752	57108.77
736.068	56934.51
736.385	56775.41
736.701	56581.42
737.017	56348.29
737.333	56105.2
737.65	55796.16
737.966	55410.36
738.282	55022.59
738.598	54616.82
738.914	54163.72
739.23	53669.09
739.545	53149.72
739.861	52594.28
740.177	52046.59
740.493	51439.34
740.808	50855.68
741.124	50244.89
741.439	49657.12
741.755	49084.13
742.07	48560.35
742.386	47993.93
742.701	47482.59
743.016	46984.13
743.331	46503.74
743.647	46075.41
743.962	45689.15
744.277	45345.3
744.592	45072.75
744.907	44850.91
745.222	44680.16
745.537	44585.22
745.851	44550.19
746.166	44562.6
746.481	44618.29
746.795	44735.32
747.11	44894.78
747.424	45074.23
747.739	45236.27
748.053	45409.86
748.368	45561.21
748.682	45678.94
748.996	45818.96
749.311	45934.18
749.625	46033.43
749.939	46138.32
750.253	46209.29
750.567	46270.78
750.881	46335.59
751.195	46399.2
751.509	46463.04
751.822	46509.1
752.136	46551.6
752.45	46612.71
752.763	46682.8
753.077	46738.09
753.39	46766.81
753.704	46792.97
754.017	46804.88
754.331	46842.28
754.644	46850.27
754.957	46862.97
755.27	46869.72
755.584	46880.92
755.897	46885.77
756.21	46881.41
756.523	46860.37
756.836	46838.17
757.149	46757.7
757.461	46684.2
757.774	46603.35
758.087	46483.19
758.4	46345.5
758.712	46196.61
759.025	46039.89
759.337	45879.89
759.65	45719.47
759.962	45569.23
760.275	45404.65
760.587	45259.03
760.899	45119.88
761.211	45024.9
761.523	44954.42
761.836	44954.54
762.148	44965.95
762.46	44988.44
762.772	45050.36
763.083	45182.83
763.395	45326.39
763.707	45555.98
764.019	45788.62
764.33	46017.31
764.642	46277.7
764.954	46556.3
765.265	46842.28
765.577	47108.28
765.888	47354.42
766.199	47599.54
766.511	47821.52
766.822	48053.78
767.133	48239.78
767.444	48407.59
767.755	48504.87
768.066	48555.34
768.377	48536.82
768.688	48463.06
768.999	48383.23
769.31	48262.86
769.621	48076.09
769.931	47852.54
770.242	47594.42
770.553	47292.52
770.863	46960.17
771.174	46602.78
771.484	46216.71
771.794	45808.58
772.105	45393.7
772.415	44964.71
772.725	44512.02
773.035	44060.35
773.345	43597.82
773.656	43126.97
773.966	42654.52
774.276	42217.87
774.585	41788.71
774.895	41359.11
775.205	40975.84
775.515	40576.75
775.824	40183.08
776.134	39790.28
776.444	39424.51
776.753	39057.39
777.063	38708.79
777.372	38385.2
777.681	38051.33
777.991	37736.87
778.3	37428
778.609	37122.96
778.918	36837.97
779.228	36576.34
779.537	36311.98
779.846	36044.62
780.154	35789.2
780.463	35549.76
780.772	35295.73
781.081	35061.95
781.39	34860.82
781.698	34641.31
782.007	34429.46
782.316	34209.27
782.624	33990.48
782.932	33783.52
783.241	33591.83
783.549	33401.03
783.858	33226.07
784.166	33061.62
784.474	32887.36
784.782	32720.05
785.09	32562.95
785.398	32413.29
785.706	32269.69
786.014	32124.74
786.322	31984.58
786.63	31852.47
786.937	31724.67
787.245	31600.74
787.553	31474.41
787.86	31355.11
788.168	31226.43
788.475	31115.51
788.783	31023.45
789.09	30926.88
789.398	30822.37
789.705	30708.17
790.012	30598.91
790.319	30487.13
790.626	30377.36
790.933	30283.57
791.24	30193.42
791.547	30102.83
791.854	30009.07
792.161	29910.71
792.468	29807.81
792.774	29713.28
793.081	29620.72
793.388	29535.85
793.694	29439.3
794.001	29351.3
794.307	29227.28
794.614	29127.3
794.92	29000.48
795.226	28870.57
795.533	28758.61
795.839	28663.76
796.145	28552.81
796.451	28442.47
796.757	28335.51
797.063	28228.49
797.369	28117.51
797.675	28010.09
797.98	27908.88
798.286	27780.96
798.592	27670.87
798.898	27562.37
799.203	27444.95
799.509	27331.73
799.814	27199.96
800.12	27101.92
800.425	26986.66
800.73	26879.68
801.035	26764.58
801.341	26662.35
801.646	26563.04
801.951	26456.48
802.256	26347.71
802.561	26244.9
802.866	26152
803.171	26059.25
803.476	25968.66
803.78	25877.15
804.085	25777.74
804.39	25655.78
804.694	25558.33
804.999	25457.16
805.303	25361.59
805.608	25284.72
805.912	25198.59
806.216	25133.92
806.521	25060.25
806.825	24980.91
807.129	24904.27
807.433	24822.56
807.737	24750.16
808.041	24688.53
808.345	24638.05
808.649	24578.02
808.953	24528.28
809.257	24468.66
809.561	24408.29
809.864	24359.35
810.168	24318.24
810.471	24281.53
810.775	24261.62
811.078	24244.55
811.382	24219.35
811.685	24211.56
811.988	24195.15
812.292	24183.21
812.595	24176.61
812.898	24171.56
813.201	24187.09
813.504	24209.55
813.807	24234.14
814.11	24269.44
814.413	24301.15
814.716	24329.04
815.018	24380.92
815.321	24446.99
815.624	24534.48
815.926	24639.68
816.229	24760.53
816.531	24908.55
816.834	25077.29
817.136	25272.38
817.438	25484.48
817.74	25755.11
818.043	26073.47
818.345	26449.6
818.647	26910.99
818.949	27457.81
819.251	28095.99
819.553	28847.77
819.855	29723.88
820.156	30708.82
820.458	31801.37
820.76	32963.84
821.062	34179.71
821.363	35452.8
821.665	36797.01
821.966	38233.69
822.268	39690.27
822.569	41155.32
822.87	42642.65
823.171	44142.91
823.473	45692.64
823.774	47287.54
824.075	48822.45
824.376	50331.77
824.677	51825.71
824.978	53219.74
825.279	54521.31
825.58	55712.25
825.88	56762.45
826.181	57644.59
826.482	58438.19
826.782	59063.73
827.083	59583.37
827.383	59979.94
827.684	60200.42
827.984	60289.33
828.284	60205.71
828.585	59983.07
828.885	59674.88
829.185	59213.34
829.485	58662.02
829.785	57986.18
830.085	57149.86
830.385	56284.6
830.685	55347.33
830.985	54285.06
831.285	53198.43
831.584	52075.05
831.884	50912.45
832.183	49724.7
832.483	48511.97
832.782	47229.04
833.082	45941.71
833.381	44653.26
833.681	43399.7
833.98	42225.89
834.279	41073.57
834.578	39954.49
834.877	38908.46
835.176	37893.8
835.475	36955.95
835.774	36052.2
836.073	35171.41
836.372	34342.73
836.671	33519.19
836.969	32700.88
837.268	31948.71
837.567	31235.65
837.865	30536.13
838.164	29848.13
838.462	29192.05
838.761	28577.01
839.059	27987.19
839.357	27434.51
839.655	26893.08
839.953	26347.66
840.252	25809.37
840.55	25277.8
840.848	24766.98
841.146	24273.84
841.443	23768.76
841.741	23253.13
842.039	22740.87
842.337	22230.64
842.634	21753.97
842.932	21298.25
843.229	20870.91
843.527	20448.16
843.824	19999.18
844.122	19549.82
844.419	19123.78
844.716	18687.37
845.013	18267.57
845.311	17873.8
845.608	17490.33
845.905	17117.32
846.202	16757.84
846.499	16389.17
846.796	16023.29
847.092	15646.42
847.389	15276.98
847.686	14937.87
847.982	14620.88
848.279	14308.31
848.576	14013.61
848.872	13723.69
849.168	13435.71
849.465	13150.01
849.761	12858.92
850.057	12581.74
850.354	12316.82
850.65	12066.35
850.946	11836.71
851.242	11615.46
851.538	11393.9
851.834	11173.57
852.13	10961.35
852.425	10762.58
852.721	10583.52
853.017	10420.22
853.312	10269.67
853.608	10122.35
853.903	9975.32
854.199	9831.62
854.494	9699.43
854.79	9571.43
855.085	9436.01
855.38	9306.36
855.675	9175.09
855.971	9052.9
856.266	8951.76
856.561	8853.32
856.856	8758.54
857.151	8665.65
857.445	8566.38
857.74	8469.16
858.035	8378.38
858.33	8282.5
858.624	8195.41
858.919	8113.47
859.213	8024.11
859.508	7939.47
859.802	7846.85
860.096	7764.67
860.391	7698.14
860.685	7634.75
860.979	7571.52
861.273	7520.17
861.567	7459.08
861.861	7394.52
862.155	7341.84
862.449	7272.09
862.743	7209.09
863.037	7149.01
863.33	7091.68
863.624	7036.33
863.918	6990.18
864.211	6947.15
864.505	6917.2
864.798	6875.34
865.092	6828.15
865.385	6779.87
865.678	6729.22
865.971	6696.43
866.264	6663.49
866.558	6636.58
866.851	6604.26
867.144	6574.42
867.437	6539.42
867.729	6510.75
868.022	6488.63
868.315	6468.39
868.608	6457.08
868.9	6447.39
869.193	6429.33
869.485	6399.58
869.778	6374.68
870.07	6345.85
870.363	6325.76
870.655	6306.64
870.947	6300.57
871.239	6290.93
871.532	6293.88
871.824	6301.88
872.116	6300.75
872.408	6298.11
872.699	6281.3
872.991	6273.71
873.283	6268.77
873.575	6267.01
873.867	6273.97
874.158	6281.23
874.45	6280.36
874.741	6275.94
875.033	6273.86
875.324	6286.07
875.615	6310.88
875.907	6336.38
876.198	6353.98
876.489	6364.78
876.78	6368.21
877.071	6365.65
877.362	6372.46
877.653	6375.46
877.944	6380.66
878.235	6387.86
878.526	6394.25
878.816	6410.45
