Data from 20250626_urea_1M_exp2_MAYP1162681_09-13-58-954.txt Node
Date: Fri Jun 27 09:13:58 BST 2025
User: adleo
Spectrometer: MAYP116268
Trigger mode: 0
Integration Time (sec): 3.000000E0
Scans to average: 1
Electric dark correction enabled: true
Nonlinearity correction enabled: true
Boxcar width: 10
XAxis mode: Wavelengths
Number of Pixels in Spectrum: 2068
>>>>>Begin Spectral Data<<<<<
179.565	3047.43
179.642	3201.59
179.718	3321.52
179.795	3437.96
179.871	3528.75
179.948	3585.52
180.024	3643.83
180.101	3710.23
180.177	3747.32
180.254	3806.74
180.33	3868.49
180.407	4078.36
180.483	4314.03
180.56	4552.22
180.636	4773.96
180.712	4738.32
180.789	4759.72
180.865	4790.77
180.942	4819.78
181.018	4842.9
181.095	4881.94
181.171	4894.39
181.248	4902.44
181.324	4944.45
181.4	4959.69
181.477	4988.04
181.553	5019.35
181.63	5073.34
181.706	5117.47
181.782	5147.96
181.859	5148.83
181.935	5165.12
182.011	5156.21
182.088	5201.92
182.164	5256.91
182.24	5290.87
182.317	5316.3
182.393	5308.06
182.469	5348.59
182.546	5379.98
182.622	5389.8
182.698	5377.58
182.775	5414.96
182.851	5449.04
182.927	5426.18
183.003	5413.72
183.08	5399.35
183.156	5422.78
183.232	5416.65
183.308	5384.2
183.385	5401.69
183.461	5447.03
183.537	5447.32
183.613	5481.78
183.69	5455.13
183.766	5427.55
183.842	5448.16
183.918	5459.71
183.995	5495.8
184.071	5501.65
184.147	5493.02
184.223	5467.06
184.299	5505.47
184.375	5474.89
184.452	5491.44
184.528	5600.68
184.604	5632.79
184.68	5666.29
184.756	5681.59
184.832	5693.1
184.908	5706.8
184.985	5710.64
185.061	5668.07
185.137	5692.24
185.213	5658.59
185.289	5666.36
185.365	5646.9
185.441	5639.51
185.517	5679.91
185.593	5667.06
185.669	5658.66
185.745	5684.08
185.822	5728.92
185.898	5704.85
185.974	5726.94
186.05	5702.33
186.126	5637.11
186.202	5613.62
186.278	5598.18
186.354	5578
186.43	5592.58
186.506	5587.21
186.582	5577.63
186.658	5594.87
186.734	5543.49
186.81	5555.81
186.886	5560.46
186.962	5590.51
187.038	5578.1
187.114	5553.63
187.19	5576.16
187.266	5553.06
187.341	5556.42
187.417	5535.33
187.493	5533.27
187.569	5542.67
187.645	5531.98
187.721	5499.56
187.797	5524.2
187.873	5534.99
187.949	5519.03
188.025	5505.07
188.101	5511.39
188.176	5526.35
188.252	5516.81
188.328	5536.88
188.404	5534.2
188.48	5522.31
188.556	5496.62
188.632	5494.84
188.707	5497.67
188.783	5490.91
188.859	5477.17
188.935	5446.48
189.011	5468.77
189.086	5449.6
189.162	5426.82
189.238	5421.36
189.314	5417.67
189.39	5401.61
189.465	5383.11
189.541	5425.63
189.617	5385.9
189.693	5372.39
189.768	5385.91
189.844	5450.33
189.92	5423.32
189.996	5446.04
190.071	5478.3
190.147	5480.94
190.223	5511.82
190.298	5487.99
190.374	5452.37
190.45	5488.59
190.526	5505.23
190.601	5496.84
190.677	5500.53
190.753	5576.2
190.828	5585.74
190.904	5623.43
190.98	5660.55
191.055	5692.72
191.131	5672.19
191.207	5726.94
191.282	5753.16
191.358	5725.59
191.433	5684.95
191.509	5725.47
191.585	5716.75
191.66	5719.82
191.736	5743.55
191.811	5718.57
191.887	5762.46
191.963	5825.51
192.038	5841.96
192.114	5848.77
192.189	5853.28
192.265	5849.11
192.34	5784.37
192.416	5783.75
192.491	5771.71
192.567	5780.3
192.642	5786.92
192.718	5786.73
192.793	5756.75
192.869	5748.94
192.944	5756.56
193.02	5780.69
193.095	5789.89
193.171	5805.57
193.246	5800.49
193.322	5793.63
193.397	5794.16
193.473	5760.53
193.548	5712.99
193.624	5725.9
193.699	5724.51
193.775	5769.18
193.85	5770.52
193.925	5798.24
194.001	5791.68
194.076	5773.6
194.152	5743.52
194.227	5721.5
194.302	5702.28
194.378	5708.18
194.453	5698.64
194.529	5727.85
194.604	5683.54
194.679	5672.61
194.755	5621.42
194.83	5659.63
194.905	5652.19
194.981	5676.65
195.056	5656.86
195.131	5677.52
195.207	5667.35
195.282	5636.28
195.357	5586.77
195.433	5624.16
195.508	5593.95
195.583	5616.38
195.659	5658.69
195.734	5673.18
195.809	5675.19
195.884	5692.45
195.96	5696.23
196.035	5731.04
196.11	5721.59
196.185	5758.22
196.261	5759.23
196.336	5845.6
196.411	5796.61
196.486	5805.67
196.561	5785.29
196.637	5808.68
196.712	5847.79
196.787	5860.08
196.862	5903.14
196.937	5925.48
197.013	5942.81
197.088	5971.82
197.163	6025.1
197.238	6070.31
197.313	6073.42
197.388	6107.01
197.464	6187.71
197.539	6216.78
197.614	6201.77
197.689	6232.1
197.764	6274.4
197.839	6335.34
197.914	6318.68
197.989	6383.86
198.065	6426.19
198.14	6566.67
198.215	6631.47
198.29	6666.31
198.365	6700.59
198.44	6727.67
198.515	6799.42
198.59	6845.39
198.665	6916.43
198.74	6941.56
198.815	6939.4
198.89	7000.82
198.965	7077.72
199.04	7070.03
199.115	7108.64
199.19	7225.13
199.265	7236.56
199.34	7258.86
199.415	7341.95
199.49	7397.43
199.565	7423.91
199.64	7491.25
199.715	7480.95
199.79	7501.91
199.865	7516.67
199.94	7512.63
200.015	7600.33
200.09	7616.92
200.165	7629.41
200.24	7644.8
200.315	7748.26
200.39	7786.49
200.464	7804.23
200.539	7809.86
200.614	7849.81
200.689	7917.81
200.764	7930.7
200.839	7971.5
200.914	7990.35
200.989	7965.09
201.063	8008.76
201.138	7962.39
201.213	7954.27
201.288	7903.68
201.363	7917.05
201.438	7913.58
201.512	7953.09
201.587	7904.61
201.662	7917.55
201.737	7955.69
201.812	7977.62
201.886	7889.93
201.961	7918.08
202.036	7890.73
202.111	7881.54
202.186	7799.72
202.26	7745.51
202.335	7693.57
202.41	7680.06
202.485	7635.74
202.559	7583.25
202.634	7503.34
202.709	7527.89
202.784	7482.27
202.858	7483.33
202.933	7434.98
203.008	7420.99
203.082	7369.76
203.157	7370.39
203.232	7253.76
203.306	7193.65
203.381	7102.76
203.456	7041.35
203.53	6980.65
203.605	6920.48
203.68	6859.59
203.754	6847.35
203.829	6810.5
203.904	6748.93
203.978	6721.4
204.053	6730.63
204.127	6698.31
204.202	6691.97
204.277	6647.02
204.351	6628.58
204.426	6600.19
204.5	6577.62
204.575	6482.97
204.65	6507.76
204.724	6483.05
204.799	6505.93
204.873	6494.07
204.948	6489.75
205.022	6458.27
205.097	6434.24
205.171	6477.68
205.246	6497.04
205.32	6494.5
205.395	6492.58
205.469	6475.26
205.544	6491.64
205.618	6443.05
205.693	6469.42
205.767	6436.3
205.842	6494.17
205.916	6472.53
205.991	6453.95
206.065	6469.84
206.14	6508.15
206.214	6495.81
206.289	6469.05
206.363	6497.86
206.438	6503.62
206.512	6525.19
206.586	6577.17
206.661	6603.03
206.735	6538.05
206.81	6538.2
206.884	6575.78
206.958	6539.74
207.033	6582.93
207.107	6597.54
207.181	6680.78
207.256	6668.78
207.33	6725.33
207.405	6751.97
207.479	6808.83
207.553	6828.37
207.628	6787.43
207.702	6822.77
207.776	6807.54
207.851	6825.02
207.925	6871.06
207.999	6858.77
208.073	6856.17
208.148	6862.27
208.222	6827.15
208.296	6915.23
208.371	6957.54
208.445	6985.45
208.519	7067.14
208.593	7098.61
208.668	7088.47
208.742	7097.94
208.816	7100.97
208.89	7137.55
208.965	7135.82
209.039	7156.44
209.113	7196.18
209.187	7249.32
209.261	7241.44
209.336	7292.91
209.41	7345.44
209.484	7345.3
209.558	7406.87
209.632	7437.24
209.707	7469.44
209.781	7530.87
209.855	7570.06
209.929	7618.08
210.003	7638.46
210.077	7635.15
210.151	7762.43
210.226	7855.37
210.3	7930.45
210.374	7990.72
210.448	8001.26
210.522	8028.63
210.596	8053.73
210.67	8087.21
210.744	8213.63
210.818	8298.73
210.892	8356.95
210.966	8341.17
211.041	8377.01
211.115	8370.81
211.189	8435.99
211.263	8477.45
211.337	8491.93
211.411	8530.14
211.485	8513.25
211.559	8546.44
211.633	8554.42
211.707	8466.33
211.781	8489.01
211.855	8392.23
211.929	8371.94
212.003	8326.27
212.077	8354.14
212.151	8388.93
212.225	8412.65
212.299	8387.37
212.373	8357.93
212.447	8341.71
212.52	8415.62
212.594	8434.34
212.668	8458.68
212.742	8421.2
212.816	8405.85
212.89	8389.11
212.964	8384.34
213.038	8393.15
213.112	8424.34
213.186	8457.14
213.26	8404.31
213.333	8275.19
213.407	8285.91
213.481	8295.33
213.555	8320.71
213.629	8281.1
213.703	8232.89
213.777	8222.49
213.85	8161.53
213.924	8241.71
213.998	8239.21
214.072	8217.31
214.146	8166.26
214.219	8160.15
214.293	8144.81
214.367	8147.79
214.441	8171.02
214.515	8135.56
214.588	8064.9
214.662	7957.89
214.736	7896.68
214.81	7906.96
214.883	7920.22
214.957	7882.01
215.031	7836.07
215.105	7764.01
215.178	7712.61
215.252	7682.13
215.326	7600.68
215.4	7536.68
215.473	7397
215.547	7330.06
215.621	7278.2
215.694	7280.18
215.768	7201.3
215.842	7152.18
215.915	7096.79
215.989	7007.95
216.063	6957.52
216.136	6943.06
216.21	6925.29
216.284	6935.96
216.357	6916.93
216.431	6889.12
216.504	6888.83
216.578	6931.89
216.652	6940.43
216.725	6930.68
216.799	6935.53
216.873	6925.16
216.946	6929.38
217.02	6895.59
217.093	6872.63
217.167	6797.7
217.24	6731.01
217.314	6705.38
217.387	6664.49
217.461	6630.57
217.535	6645.22
217.608	6598.55
217.682	6581.07
217.755	6592.5
217.829	6548.35
217.902	6531.45
217.976	6514.65
218.049	6475.85
218.123	6414.74
218.196	6411.53
218.27	6378.06
218.343	6321.91
218.417	6314.61
218.49	6295.8
218.563	6331.99
218.637	6335.25
218.71	6389.46
218.784	6412.61
218.857	6434.21
218.931	6454.45
219.004	6451.91
219.077	6463.2
219.151	6480.24
219.224	6469.87
219.298	6466.65
219.371	6498.92
219.444	6475.22
219.518	6481.12
219.591	6489.42
219.665	6572.61
219.738	6588.64
219.811	6572.38
219.885	6609.64
219.958	6637.83
220.031	6640.81
220.105	6656.71
220.178	6664.58
220.251	6646.86
220.325	6662.57
220.398	6676.35
220.471	6686.53
220.544	6718.32
220.618	6702.9
220.691	6724.17
220.764	6739.01
220.838	6761.44
220.911	6754.38
220.984	6817
221.057	6850.38
221.131	6871.98
221.204	6797.92
221.277	6851.69
221.35	6957.86
221.424	6952.29
221.497	6960.94
221.57	6981.77
221.643	7009.94
221.716	7045.4
221.79	7049.15
221.863	7061.65
221.936	7069.62
222.009	7085.27
222.082	7104.16
222.155	7110.21
222.229	7163.81
222.302	7186.68
222.375	7188.99
222.448	7216.91
222.521	7223.83
222.594	7222.19
222.667	7203.23
222.74	7249.21
222.814	7242.62
222.887	7223.77
222.96	7268.76
223.033	7306.02
223.106	7326.43
223.179	7345.24
223.252	7356.06
223.325	7374.02
223.398	7382.82
223.471	7409.4
223.544	7421.03
223.617	7434.68
223.69	7454.86
223.763	7417.65
223.837	7434.04
223.91	7463.75
223.983	7422.67
224.056	7398.45
224.129	7412.77
224.202	7461.14
224.275	7450.33
224.348	7426.68
224.42	7402.59
224.493	7353.95
224.566	7331.5
224.639	7343.46
224.712	7328.03
224.785	7319.18
224.858	7319.8
224.931	7300
225.004	7262.52
225.077	7266.84
225.15	7193.62
225.223	7194.54
225.296	7267.88
225.369	7219.88
225.442	7188.4
225.514	7200.5
225.587	7216.02
225.66	7230.15
225.733	7228.66
225.806	7237.51
225.879	7231.02
225.952	7203.45
226.025	7248.05
226.097	7287.73
226.17	7286.24
226.243	7231.7
226.316	7221.7
226.389	7218.53
226.461	7235.3
226.534	7256.68
226.607	7251.16
226.68	7321.01
226.753	7311.69
226.825	7242.62
226.898	7289.7
226.971	7290.62
227.044	7315.36
227.117	7319.02
227.189	7330.22
227.262	7364.79
227.335	7374.94
227.407	7374.12
227.48	7400.64
227.553	7402.51
227.626	7388.32
227.698	7394.95
227.771	7426.9
227.844	7413.83
227.916	7433.63
227.989	7408.68
228.062	7409.74
228.134	7482.88
228.207	7482.64
228.28	7477.35
228.352	7486
228.425	7496.49
228.498	7534.37
228.57	7516.16
228.643	7569.25
228.716	7572.28
228.788	7555.06
228.861	7555.35
228.934	7604.43
229.006	7612.5
229.079	7613.22
229.151	7598.89
229.224	7573.47
229.296	7591.93
229.369	7675.14
229.442	7715.59
229.514	7700.32
229.587	7732.34
229.659	7660.97
229.732	7668.57
229.804	7699.91
229.877	7771.16
229.949	7797.47
230.022	7839.38
230.094	7847.26
230.167	7830.18
230.239	7790.66
230.312	7783.69
230.384	7838.39
230.457	7833.87
230.529	7845.27
230.602	7841.85
230.674	7853.01
230.747	7886.12
230.819	7906.41
230.892	7814.12
230.964	7816
231.037	7840.36
231.109	7833.48
231.181	7873.43
231.254	7847.08
231.326	7842.37
231.399	7817.1
231.471	7790.74
231.544	7729.21
231.616	7758.01
231.688	7765.08
231.761	7757.97
231.833	7748.89
231.905	7674.95
231.978	7676.16
232.05	7658.08
232.122	7664.77
232.195	7639.09
232.267	7666.21
232.339	7647.36
232.412	7695.63
232.484	7664.45
232.556	7640.38
232.629	7690.13
232.701	7701.86
232.773	7710.28
232.846	7698.64
232.918	7704.46
232.99	7720.48
233.062	7752.75
233.135	7760.64
233.207	7731.93
233.279	7764.32
233.351	7785.96
233.424	7795.38
233.496	7776.34
233.568	7840.15
233.64	7815.35
233.713	7832.41
233.785	7832.94
233.857	7845.25
233.929	7807.61
234.001	7867.08
234.074	7924.52
234.146	7867.37
234.218	7863.86
234.29	7868.53
234.362	7860.93
234.434	7820.86
234.507	7787.97
234.579	7743.87
234.651	7726.85
234.723	7749.89
234.795	7761.96
234.867	7762.87
234.939	7808.13
235.012	7821.11
235.084	7828.09
235.156	7859.15
235.228	7842.13
235.3	7818.37
235.372	7827.85
235.444	7880.5
235.516	7814.63
235.588	7820.02
235.66	7832.47
235.732	7812.95
235.804	7969.03
235.876	8002.25
235.948	8052.52
236.02	8067.95
236.092	8083
236.164	8098.87
236.236	8092.23
236.308	8091.08
236.38	8114.45
236.452	8096.61
236.524	8114.4
236.596	8170.21
236.668	8190.61
236.74	8217.05
236.812	8246.97
236.884	8275.36
236.956	8282.91
237.028	8283.49
237.1	8262.86
237.172	8324.35
237.244	8383
237.316	8287.2
237.388	8277.92
237.46	8257.37
237.532	8303.94
237.604	8300.05
237.675	8358.76
237.747	8399.51
237.819	8390.66
237.891	8392.3
237.963	8388.98
238.035	8379.94
238.107	8288.77
238.178	8342.44
238.25	8344.37
238.322	8410.7
238.394	8380.44
238.466	8371.25
238.538	8407.66
238.609	8451.87
238.681	8406.58
238.753	8396.09
238.825	8413.28
238.897	8438.67
238.968	8508.43
239.04	8492.69
239.112	8583.59
239.184	8553.7
239.255	8549.8
239.327	8581.26
239.399	8591.55
239.471	8625.62
239.542	8657.85
239.614	8709.15
239.686	8642.82
239.758	8687.38
239.829	8659.98
239.901	8707.86
239.973	8723.6
240.044	8742.99
240.116	8748.82
240.188	8761.09
240.259	8770.81
240.331	8755.45
240.403	8781.24
240.474	8737.91
240.546	8731.94
240.618	8683.76
240.689	8679.57
240.761	8699.4
240.833	8746.38
240.904	8750.62
240.976	8747.78
241.048	8765.73
241.119	8797.13
241.191	8834.33
241.262	8892.26
241.334	8897.08
241.405	8900.98
241.477	8907.62
241.549	8916.86
241.62	8933.47
241.692	8972.7
241.763	9021.86
241.835	9039.1
241.906	9052.09
241.978	9028.8
242.049	9079.39
242.121	9127.67
242.192	9182.98
242.264	9155.79
242.335	9118.91
242.407	9158.49
242.478	9166.57
242.55	9179
242.621	9161.71
242.693	9158.58
242.764	9147.31
242.836	9146.58
242.907	9172.25
242.979	9197.52
243.05	9215.15
243.122	9237.73
243.193	9231.33
243.264	9168.49
243.336	9177.31
243.407	9211.3
243.479	9279.52
243.55	9303.89
243.622	9311.45
243.693	9304.76
243.764	9360.89
243.836	9344.92
243.907	9334.85
243.978	9338.13
244.05	9358.74
244.121	9322.39
244.192	9358.94
244.264	9315.6
244.335	9332.21
244.407	9287.53
244.478	9299.14
244.549	9294.32
244.62	9254.84
244.692	9254.26
244.763	9296.43
244.834	9284.49
244.906	9258.06
244.977	9272.8
245.048	9311.48
245.119	9297.47
245.191	9281.39
245.262	9228.42
245.333	9295.29
245.405	9309.3
245.476	9338.96
245.547	9355.48
245.618	9396.4
245.689	9408.92
245.761	9436.32
245.832	9437.86
245.903	9477.92
245.974	9496.51
246.045	9504.36
246.117	9578.86
246.188	9567.35
246.259	9552.67
246.33	9564.56
246.401	9578.62
246.473	9549.24
246.544	9536.13
246.615	9579.62
246.686	9590.55
246.757	9654.59
246.828	9628.54
246.899	9685.15
246.97	9660.11
247.042	9649.37
247.113	9682.84
247.184	9746.11
247.255	9747.26
247.326	9767.2
247.397	9770.38
247.468	9780.54
247.539	9792.39
247.61	9753.81
247.681	9789.49
247.752	9829.89
247.823	9811.55
247.894	9825.03
247.965	9803.27
248.037	9787.85
248.108	9753.99
248.179	9756.26
248.25	9746.43
248.321	9775.18
248.392	9738.71
248.463	9801.56
248.534	9796.59
248.605	9817.6
248.675	9794.47
248.746	9811.37
248.817	9824.53
248.888	9845.38
248.959	9796.45
249.03	9815.77
249.101	9822.85
249.172	9813.02
249.243	9754.95
249.314	9810.96
249.385	9823
249.456	9855.41
249.527	9856.18
249.598	9869.57
249.669	9870.39
249.739	9884.94
249.81	9898.18
249.881	9861.48
249.952	9853.87
250.023	9854.84
250.094	9812.78
250.165	9789.27
250.235	9779.92
250.306	9785.37
250.377	9766.39
250.448	9794.08
250.519	9743.61
250.59	9788.26
250.66	9790.48
250.731	9851.63
250.802	9845.9
250.873	9852.11
250.944	9865.17
251.014	9849.7
251.085	9924.96
251.156	9947.26
251.227	9988.89
251.297	10032.73
251.368	10074.44
251.439	10106.53
251.51	10148.92
251.58	10138.23
251.651	10140.59
251.722	10186.99
251.792	10152.3
251.863	10144.31
251.934	10199.28
252.005	10290.42
252.075	10296.05
252.146	10341.72
252.217	10377.56
252.287	10413.94
252.358	10422.85
252.429	10483.23
252.499	10481.45
252.57	10486.22
252.641	10521.43
252.711	10523.75
252.782	10488.53
252.852	10552.47
252.923	10552.28
252.994	10567.41
253.064	10608.4
253.135	10593.66
253.205	10575.97
253.276	10636.92
253.347	10697.13
253.417	10674.73
253.488	10656.03
253.558	10651.07
253.629	10640.85
253.699	10653
253.77	10675.36
253.841	10670.44
253.911	10675.02
253.982	10694.19
254.052	10714.29
254.123	10722.72
254.193	10723.45
254.264	10826.19
254.334	10793.52
254.405	10762.78
254.475	10732.95
254.546	10739.79
254.616	10783.11
254.687	10806.38
254.757	10814.77
254.827	10807.49
254.898	10828.02
254.968	10835.34
255.039	10813.81
255.109	10847.24
255.18	10828.93
255.25	10774.48
255.321	10802.48
255.391	10770.19
255.461	10845.99
255.532	10787.05
255.602	10782.09
255.673	10738.91
255.743	10711.39
255.813	10655.99
255.884	10700.66
255.954	10732.55
256.024	10782.05
256.095	10788.07
256.165	10756.85
256.235	10779.4
256.306	10769.81
256.376	10805.43
256.446	10833.52
256.517	10866.48
256.587	10902.58
256.657	10911.44
256.728	10929.12
256.798	10934.57
256.868	10935.44
256.938	10910.13
257.009	10948.25
257.079	10975.62
257.149	11057.21
257.219	11010.51
257.29	11040.42
257.36	10992.96
257.43	11019.37
257.5	10969.3
257.571	10959.33
257.641	10997.87
257.711	10964.76
257.781	10988.57
257.852	11000.57
257.922	10956.19
257.992	10959.95
258.062	10943.03
258.132	10979.56
258.202	10985
258.273	10990.16
258.343	11048.28
258.413	11031.75
258.483	11036.14
258.553	11011.56
258.623	10983.22
258.693	11010.21
258.764	11064.27
258.834	11121.37
258.904	11133.9
258.974	11127.11
259.044	11135.74
259.114	11162.34
259.184	11190.58
259.254	11196.61
259.324	11148.89
259.394	11182.38
259.464	11245.33
259.535	11261.76
259.605	11257.96
259.675	11248.37
259.745	11283.79
259.815	11256.22
259.885	11259.21
259.955	11343.52
260.025	11338.12
260.095	11353.49
260.165	11372.53
260.235	11429.31
260.305	11421.36
260.375	11399.24
260.445	11471.62
260.515	11527.96
260.585	11559.25
260.655	11563.78
260.725	11604.89
260.795	11639.25
260.865	11703.98
260.934	11676.65
261.004	11699.11
261.074	11701.38
261.144	11754.53
261.214	11779.55
261.284	11784.46
261.354	11813.76
261.424	11777.08
261.494	11830.48
261.564	11838.43
261.634	11859.06
261.703	11806.47
261.773	11825.8
261.843	11855.05
261.913	11849.99
261.983	11808.64
262.053	11824.35
262.123	11822.47
262.192	11782.37
262.262	11816.11
262.332	11769.6
262.402	11793.65
262.472	11798.28
262.541	11752.64
262.611	11790
262.681	11766.72
262.751	11802.72
262.821	11806
262.89	11781.13
262.96	11801.71
263.03	11860.23
263.1	11881.77
263.169	11904.09
263.239	11931.32
263.309	11985.55
263.379	12010.76
263.448	12025.22
263.518	12047.35
263.588	12067.98
263.657	12136.18
263.727	12169.87
263.797	12186.98
263.867	12187.9
263.936	12157.53
264.006	12207.8
264.076	12204.86
264.145	12206.98
264.215	12191.75
264.285	12222.5
264.354	12190.78
264.424	12185.48
264.494	12152.7
264.563	12139.25
264.633	12192.62
264.702	12211.66
264.772	12165.14
264.842	12158.92
264.911	12186.92
264.981	12148.94
265.05	12152.65
265.12	12145.47
265.19	12149.18
265.259	12182.44
265.329	12209.77
265.398	12236.86
265.468	12317.31
265.537	12311.29
265.607	12336.79
265.676	12381.23
265.746	12399.69
265.815	12454.35
265.885	12458.64
265.955	12441.72
266.024	12449.1
266.094	12401.95
266.163	12455.17
266.232	12507.38
266.302	12517.5
266.371	12534.52
266.441	12557.95
266.51	12597.42
266.58	12605.43
266.649	12600.8
266.719	12637.82
266.788	12664.09
266.858	12719.58
266.927	12662.36
266.996	12683.76
267.066	12711.67
267.135	12684.39
267.205	12722.33
267.274	12734.04
267.343	12779.11
267.413	12804.56
267.482	12855.13
267.552	12903.14
267.621	12854.36
267.69	12820.03
267.76	12840.62
267.829	12862.17
267.898	12879.91
267.968	12868.43
268.037	12902.95
268.106	12943.1
268.176	12924.3
268.245	12931
268.314	12926.38
268.384	12979.93
268.453	13001.29
268.522	13024.28
268.592	13067.09
268.661	13061.64
268.73	13095.34
268.799	13084.1
268.869	13141.57
268.938	13100.59
269.007	13094.76
269.076	13119.25
269.146	13164.51
269.215	13197.63
269.284	13252.34
269.353	13243.91
269.422	13250.22
269.492	13239.09
269.561	13172.66
269.63	13196.52
269.699	13192.47
269.768	13205.49
269.838	13219.18
269.907	13246.66
269.976	13224.48
270.045	13190.35
270.114	13208.77
270.183	13206.69
270.253	13233.64
270.322	13197.97
270.391	13219.47
270.46	13274.42
270.529	13312.46
270.598	13349.58
270.667	13351.84
270.736	13330.63
270.806	13362.11
270.875	13405.64
270.944	13416.78
271.013	13512.37
271.082	13535.8
271.151	13568.48
271.22	13540.19
271.289	13544.52
271.358	13551.42
271.427	13577.69
271.496	13603.77
271.565	13606.37
271.634	13615.82
271.703	13721.15
271.772	13772.78
271.841	13785.79
271.91	13762.22
271.979	13772.78
272.048	13749.4
272.117	13786.47
272.186	13784.88
272.255	13825.42
272.324	13858.2
272.393	13887.31
272.462	13884.37
272.531	13898.55
272.6	13904.43
272.669	13961.26
272.738	13972.01
272.807	14001.13
272.876	13987.97
272.945	14095.85
273.013	14149.26
273.082	14206.87
273.151	14126.56
273.22	14151.2
273.289	14172.99
273.358	14233.87
273.427	14247.51
273.496	14283.47
273.564	14307.87
273.633	14357.57
273.702	14345.51
273.771	14357.37
273.84	14378
273.909	14415.46
273.977	14448.67
274.046	14457.59
274.115	14507.63
274.184	14515
274.253	14529.99
274.322	14592.28
274.39	14554.34
274.459	14549.81
274.528	14510.57
274.597	14536.65
274.665	14559.06
274.734	14619.85
274.803	14631.37
274.872	14649.88
274.94	14655.76
275.009	14838.91
275.078	14835.68
275.147	14870.53
275.215	14895.16
275.284	14956.33
275.353	14971.18
275.421	14942.83
275.49	15018.13
275.559	15016.83
275.627	15030.9
275.696	15044.5
275.765	15080.45
275.833	15089.76
275.902	15108.22
275.971	15184.62
276.039	15259.72
276.108	15307.39
276.177	15338.87
276.245	15345.71
276.314	15368.56
276.383	15416.62
276.451	15288.81
276.52	15333.54
276.588	15391.34
276.657	15441.03
276.725	15448.89
276.794	15477.37
276.863	15554.02
276.931	15532.52
277	15591.8
277.068	15657.02
277.137	15737.76
277.205	15766.39
277.274	15848.67
277.342	15924.53
277.411	15901.59
277.48	15899.32
277.548	15907.66
277.617	15941.06
277.685	15956.83
277.754	16004.78
277.822	16019.48
277.89	16083.78
277.959	16098.38
278.027	16087.54
278.096	16086.96
278.164	16191.5
278.233	16203.74
278.301	16207.74
278.37	16262.97
278.438	16262.59
278.507	16302.5
278.575	16265.91
278.643	16293.72
278.712	16282.35
278.78	16274.93
278.849	16343.9
278.917	16404
278.985	16430.41
279.054	16462.37
279.122	16530.04
279.191	16559
279.259	16575.39
279.327	16553.8
279.396	16630.86
279.464	16661.66
279.532	16718.29
279.601	16739.69
279.669	16764.32
279.737	16834.97
279.806	16873
279.874	16934.49
279.942	16965.05
280.011	16993.68
280.079	17052.57
280.147	17133.54
280.215	17186.02
280.284	17197.06
280.352	17200
280.42	17252.82
280.488	17269.73
280.557	17284.87
280.625	17332.91
280.693	17385.5
280.761	17430.56
280.83	17427.04
280.898	17493.83
280.966	17476.82
281.034	17422.9
281.102	17431.38
281.171	17441.74
281.239	17491.71
281.307	17507.42
281.375	17514.51
281.443	17619.47
281.512	17639.09
281.58	17683.76
281.648	17676.05
281.716	17720.24
281.784	17749.2
281.852	17769.49
281.92	17799.95
281.989	17869.73
282.057	17860.04
282.125	17961.87
282.193	17993.43
282.261	18030.88
282.329	18052.71
282.397	18097.24
282.465	18151.07
282.533	18214.92
282.601	18225.14
282.67	18205.19
282.738	18217.33
282.806	18285.52
282.874	18285.86
282.942	18332.8
283.01	18345.33
283.078	18403.78
283.146	18427.83
283.214	18491.1
283.282	18528.93
283.35	18596.35
283.418	18611.68
283.486	18657.46
283.554	18616.69
283.622	18645.99
283.69	18679.38
283.758	18703.04
283.826	18764.92
283.894	18815.09
283.962	18904.43
284.03	18986.21
284.098	19032.42
284.165	19063.65
284.233	19096.66
284.301	19120.56
284.369	19125.48
284.437	19144.56
284.505	19161.09
284.573	19236.99
284.641	19241.52
284.709	19298.05
284.777	19290.82
284.845	19336.98
284.912	19396.69
284.98	19451.24
285.048	19476.93
285.116	19516.11
285.184	19584.73
285.252	19613.93
285.319	19614.56
285.387	19625.5
285.455	19617.84
285.523	19661.69
285.591	19688.97
285.659	19725.59
285.726	19792.48
285.794	19794.7
285.862	19819.23
285.93	19860.86
285.997	19885.63
286.065	19903.32
286.133	19911.08
286.201	19939.03
286.269	19945.68
286.336	19958.26
286.404	19983.46
286.472	20040.33
286.539	20029.72
286.607	20023.31
286.675	20063.31
286.743	20121.14
286.81	20140.71
286.878	20213.77
286.946	20245.77
287.013	20284.27
287.081	20311.55
287.149	20301.91
287.216	20394.11
287.284	20425.09
287.352	20460.47
287.419	20494.2
287.487	20580.42
287.555	20621.58
287.622	20654.83
287.69	20713.63
287.758	20784.96
287.825	20806.89
287.893	20822.12
287.96	20880.53
288.028	20949.35
288.096	20993.45
288.163	21031
288.231	21044.97
288.298	21083.24
288.366	21136.69
288.433	21166.09
288.501	21188.7
288.569	21233.33
288.636	21257.67
288.704	21326.01
288.771	21382.4
288.839	21385.92
288.906	21390.36
288.974	21469.9
289.041	21497.95
289.109	21493.61
289.176	21546.01
289.244	21592.42
289.311	21654.65
289.379	21716.93
289.446	21754.09
289.514	21790.58
289.581	21835.99
289.649	21874.89
289.716	21910.22
289.783	21927.63
289.851	22021.91
289.918	22066.5
289.986	22129.12
290.053	22175.2
290.121	22211.75
290.188	22246.21
290.255	22371.75
290.323	22405.88
290.39	22412.97
290.458	22475.54
290.525	22568.48
290.592	22583.43
290.66	22621.75
290.727	22649.96
290.794	22717.94
290.862	22751.84
290.929	22791.42
290.996	22832.64
291.064	22889.48
291.131	22953.18
291.198	23029.94
291.266	23049.81
291.333	23090.59
291.4	23147.16
291.468	23220.46
291.535	23244.71
291.602	23290.81
291.669	23297.46
291.737	23337.87
291.804	23373.98
291.871	23447.91
291.938	23482.25
292.006	23591.94
292.073	23661.47
292.14	23729.19
292.207	23742.74
292.275	23784.93
292.342	23850.14
292.409	23940.59
292.476	24051.34
292.543	24060.94
292.611	24105.89
292.678	24189.53
292.745	24288.9
292.812	24345.72
292.879	24373.08
292.946	24416
293.014	24496.37
293.081	24551.89
293.148	24621.69
293.215	24694.92
293.282	24713.54
293.349	24780.02
293.416	24754.01
293.484	24826.29
293.551	24873.52
293.618	24956.84
293.685	25062.81
293.752	25077.67
293.819	25109.04
293.886	25098.62
293.953	25163.51
294.02	25231.07
294.087	25285.9
294.154	25295.41
294.221	25377.37
294.288	25417.86
294.356	25506.7
294.423	25559.07
294.49	25582.91
294.557	25663.22
294.624	25677.75
294.691	25779.25
294.758	25829.55
294.825	25897.46
294.892	25916.81
294.959	25957.41
295.026	26013.7
295.093	26033.88
295.16	26086.39
295.226	26127.57
295.293	26234.51
295.36	26276.17
295.427	26334.65
295.494	26403.67
295.561	26474.87
295.628	26569.96
295.695	26648.48
295.762	26697.73
295.829	26756.99
295.896	26848.54
295.963	26916.55
296.03	26985.01
296.096	27026.21
296.163	27098.38
296.23	27174.07
296.297	27248.96
296.364	27296.58
296.431	27348.12
296.498	27381.84
296.564	27475.34
296.631	27528.09
296.698	27534.12
296.765	27629.63
296.832	27649.53
296.899	27654.99
296.965	27737.28
297.032	27714.31
297.099	27792.8
297.166	27862.38
297.233	27888.77
297.299	27898.72
297.366	27940.91
297.433	27995.84
297.5	28061.72
297.566	28102.47
297.633	28145.58
297.7	28197.43
297.767	28235.22
297.833	28298.83
297.9	28341.01
297.967	28352.03
298.033	28419.94
298.1	28536.94
298.167	28558.93
298.234	28616.93
298.3	28684.56
298.367	28714
298.434	28789.97
298.5	28805.25
298.567	28821.44
298.634	28861.71
298.7	28957.52
298.767	28999.26
298.834	29067.77
298.9	29094.32
298.967	29106.11
299.033	29171.21
299.1	29247.62
299.167	29319.32
299.233	29345.54
299.3	29419.42
299.366	29494.27
299.433	29569.64
299.5	29536.6
299.566	29589.17
299.633	29663.57
299.699	29726.8
299.766	29760.41
299.832	29801.3
299.899	29868.11
299.965	29949.48
300.032	29981.54
300.099	30030.79
300.165	30084.69
300.232	30119.43
300.298	30161.71
300.365	30241.78
300.431	30285.09
300.498	30310.45
300.564	30372.43
300.631	30442.55
300.697	30522.07
300.763	30552.31
300.83	30586.68
300.896	30674.21
300.963	30736.21
301.029	30788.83
301.096	30836.07
301.162	30902.04
301.229	30928.37
301.295	30937.18
301.361	30982.88
301.428	31043.75
301.494	31043.46
301.561	31092.26
301.627	31144.74
301.693	31195.17
301.76	31238.41
301.826	31260.87
301.892	31331.9
301.959	31390.2
302.025	31418.92
302.092	31441.87
302.158	31520.88
302.224	31562.68
302.291	31571.54
302.357	31604.71
302.423	31625.82
302.49	31643.84
302.556	31709.13
302.622	31746.85
302.688	31812.08
302.755	31878.4
302.821	31941.88
302.887	32014.03
302.954	32044.93
303.02	32108.96
303.086	32162.14
303.152	32196.44
303.219	32229.52
303.285	32268.81
303.351	32323.56
303.417	32357.81
303.483	32379.65
303.55	32394.52
303.616	32437.12
303.682	32483.61
303.748	32500.51
303.815	32580.18
303.881	32656.83
303.947	32668.56
304.013	32705.52
304.079	32728.15
304.145	32716.08
304.212	32739.19
304.278	32748.64
304.344	32765.21
304.41	32761.57
304.476	32770.39
304.542	32801.16
304.608	32853.15
304.674	32856.25
304.741	32872.39
304.807	32920.85
304.873	32971.54
304.939	33040.46
305.005	33036.72
305.071	33080.09
305.137	33122.73
305.203	33093.99
305.269	33113.86
305.335	33184.25
305.401	33225.5
305.467	33262.91
305.533	33318.65
305.599	33368.18
305.666	33431.57
305.732	33479.55
305.798	33552.99
305.864	33659.36
305.93	33707.35
305.996	33738.52
306.062	33771.82
306.128	33799.7
306.194	33797.95
306.259	33828.49
306.325	33847.45
306.391	33909.26
306.457	33945.57
306.523	33989.83
306.589	34087.68
306.655	34106.15
306.721	34079.83
306.787	34080.8
306.853	34142.43
306.919	34146.16
306.985	34160.7
307.051	34176.95
307.117	34191.35
307.183	34199.01
307.248	34148.23
307.314	34190.09
307.38	34224.42
307.446	34281.2
307.512	34281.11
307.578	34333.03
307.644	34352
307.709	34388.27
307.775	34403.84
307.841	34430.03
307.907	34469.79
307.973	34434.05
308.039	34458.49
308.104	34500.72
308.17	34530.35
308.236	34515.12
308.302	34552.41
308.368	34561.53
308.433	34587.71
308.499	34611.43
308.565	34625.83
308.631	34666.32
308.696	34636.2
308.762	34633.29
308.828	34641.93
308.894	34637.71
308.959	34617.44
309.025	34624.67
309.091	34639.27
309.156	34648.34
309.222	34688.65
309.288	34676.57
309.354	34657.37
309.419	34686.33
309.485	34688.56
309.551	34736.82
309.616	34743.47
309.682	34756.66
309.748	34783.19
309.813	34806.62
309.879	34797.89
309.945	34787.99
310.01	34813.94
310.076	34856.82
310.141	34880.15
310.207	34883.55
310.273	34929.13
310.338	34976.86
310.404	34966.77
310.469	34964.05
310.535	34963.81
310.601	34925.39
310.666	34977.88
310.732	35045.45
310.797	35042.49
310.863	35054.42
310.928	35059.9
310.994	35093.37
311.059	35119.62
311.125	35141.69
311.191	35190.99
311.256	35212.81
311.322	35275.44
311.387	35248.18
311.453	36167.35
311.518	36154.35
311.584	36169.59
311.649	36206.8
311.715	36198.16
311.78	36229.11
311.846	36243.61
311.911	36292.81
311.976	36335.26
312.042	36314.63
312.107	36300.08
312.173	36314.15
312.238	36321.52
312.304	36338.89
312.369	36355.15
312.434	36353.26
312.5	36346.46
312.565	36293.82
312.631	36331.47
312.696	36318.75
312.761	36347.18
312.827	35456.14
312.892	35562.17
312.958	35584.69
313.023	35606.92
313.088	35644.08
313.154	35641.26
313.219	35635.25
313.284	35635.05
313.35	35660.24
313.415	35677.32
313.48	35696.58
313.546	35735.98
313.611	35796.25
313.676	35802.99
313.741	35805.42
313.807	35840.11
313.872	35879.66
313.937	35943.12
314.003	36006.99
314.068	36030.24
314.133	36077.74
314.198	36084.44
314.264	36054.29
314.329	36049.83
314.394	36062.01
314.459	36078.37
314.525	36152.41
314.59	36176.19
314.655	36167.55
314.72	36196.62
314.785	36213.32
314.851	36226.56
314.916	36195.99
314.981	36173.42
315.046	36172.4
315.111	36173.18
315.176	36162.89
315.242	36201.48
315.307	36202.93
315.372	36173.42
315.437	36180.7
315.502	36193.46
315.567	36232.44
315.632	36225.79
315.698	36253.6
315.763	36262.33
315.828	36266.36
315.893	36275.15
315.958	36292.42
316.023	36298.05
316.088	36260.68
316.153	36226.96
316.218	36228.76
316.283	36195.08
316.348	36160.44
316.413	36164.32
316.479	36128.13
316.544	36054.78
316.609	35966.66
316.674	35872.05
316.739	35779.05
316.804	35688.33
316.869	35586.49
316.934	35475.48
316.999	35369.19
317.064	35225.61
317.129	35090.79
317.194	34971.47
317.259	34832.62
317.324	34668.9
317.389	34524.44
317.454	34416.38
317.518	34305.48
317.583	34199.95
317.648	34101.62
317.713	33976.05
317.778	33781.19
317.843	33664.4
317.908	33545.51
317.973	33415.41
318.038	33306.45
318.103	33163.41
318.168	33037.46
318.233	32911.45
318.297	32738.15
318.362	32607.23
318.427	32463.81
318.492	32350.97
318.557	32180.11
318.622	32043.29
318.687	31932.64
318.751	31785.79
318.816	31645.42
318.881	31500.4
318.946	31305.88
319.011	31137.55
319.075	30981.1
319.14	30843.03
319.205	30663.47
319.27	30507.32
319.335	30323.73
319.399	30156.69
319.464	30018.96
319.529	29832.24
319.594	29661.46
319.658	29533.92
319.723	29354.25
319.788	29217.36
319.853	29013.47
319.917	28864.2
319.982	28662.48
320.047	28484.98
320.112	28337.12
320.176	28125.17
320.241	27953.84
320.306	27794.62
320.37	27618.75
320.435	27461.39
320.5	27303.32
320.564	27128.34
320.629	26941.35
320.694	26785.46
320.758	26596.69
320.823	26411.51
320.888	26250.22
320.952	26044.32
321.017	25844.79
321.082	25651.01
321.146	25474.64
321.211	25299.2
321.275	25113.82
321.34	24914.99
321.405	24723.78
321.469	24522.59
321.534	24336.15
321.598	24118.17
321.663	23962.68
321.727	23787.49
321.792	23574.17
321.857	23380.48
321.921	23192.7
321.986	23000.71
322.05	22761.7
322.115	22576.08
322.179	22374.26
322.244	22145.75
322.308	21971.63
322.373	21767.96
322.437	21584.6
322.502	21427.63
322.566	21225.09
322.631	21048.05
322.695	20856.66
322.76	20650
322.824	20471.53
322.889	20267.38
322.953	20063.72
323.018	19790.06
323.082	19541.77
323.146	19313.05
323.211	19093.48
323.275	18896.09
323.34	18685.73
323.404	18507.18
323.468	18300.58
323.533	18091.76
323.597	17884.96
323.662	17657.83
323.726	17465.39
323.79	17249.39
323.855	16980.8
323.919	16763.97
323.983	16547.82
324.048	16239.77
324.112	16417.12
324.177	15764.99
324.241	14908
324.305	14072.33
324.37	13252.71
324.434	12446.53
324.498	12232.58
324.562	11976.49
324.627	11695.38
324.691	11420.32
324.755	11111.44
324.82	10756.11
324.884	10381.98
324.948	10006.98
325.012	9551
325.077	9000.61
