Data from 20250626_urea_1M_exp2_MAYP1162681_04-54-00-220.txt Node
Date: Fri Jun 27 04:54:00 BST 2025
User: adleo
Spectrometer: MAYP116268
Trigger mode: 0
Integration Time (sec): 3.000000E0
Scans to average: 1
Electric dark correction enabled: true
Nonlinearity correction enabled: true
Boxcar width: 10
XAxis mode: Wavelengths
Number of Pixels in Spectrum: 2068
>>>>>Begin Spectral Data<<<<<
179.565	2723.21
179.642	2862.93
179.718	2971.66
179.795	3074.82
179.871	3154.32
179.948	3200.54
180.024	3254.44
180.101	3313.22
180.177	3345.15
180.254	3399.15
180.33	3454.12
180.407	3638.46
180.483	3853.94
180.56	4066.22
180.636	4267.11
180.712	4239.59
180.789	4260.97
180.865	4289.65
180.942	4311.74
181.018	4338.95
181.095	4372.93
181.171	4385.61
181.248	4390.44
181.324	4429.93
181.4	4443.18
181.477	4471.13
181.553	4502.11
181.63	4549.01
181.706	4583.13
181.782	4608.67
181.859	4614.88
181.935	4630.44
182.011	4623.12
182.088	4665.39
182.164	4711.84
182.24	4736.53
182.317	4756.72
182.393	4753.23
182.469	4785.01
182.546	4823.88
182.622	4831.54
182.698	4821.77
182.775	4855.57
182.851	4890.28
182.927	4868.11
183.003	4854.38
183.08	4838.54
183.156	4858.93
183.232	4853.71
183.308	4829.97
183.385	4848.06
183.461	4885.74
183.537	4885.07
183.613	4916.15
183.69	4893.59
183.766	4872.18
183.842	4898.66
183.918	4916.23
183.995	4948.22
184.071	4959.52
184.147	4941.66
184.223	4918.02
184.299	4946.29
184.375	4916.46
184.452	4926.04
184.528	5029.09
184.604	5059.82
184.68	5091.61
184.756	5111.01
184.832	5125.43
184.908	5135.05
184.985	5132.9
185.061	5094.83
185.137	5116.57
185.213	5088.99
185.289	5086.5
185.365	5066.78
185.441	5057.15
185.517	5088.3
185.593	5078.05
185.669	5069.72
185.745	5098.74
185.822	5140.67
185.898	5116.62
185.974	5138.36
186.05	5122.31
186.126	5062.99
186.202	5044.08
186.278	5035.75
186.354	5013.18
186.43	5027.18
186.506	5024.26
186.582	5027.56
186.658	5043.41
186.734	4993.28
186.81	4998.26
186.886	5009.32
186.962	5033.55
187.038	5024.5
187.114	5001.68
187.19	5020.84
187.266	4994.61
187.341	4993.65
187.417	4974.3
187.493	4977.27
187.569	4987.43
187.645	4971.34
187.721	4937.22
187.797	4957.67
187.873	4966.24
187.949	4951.6
188.025	4935.11
188.101	4941.86
188.176	4949.85
188.252	4939.94
188.328	4965.93
188.404	4962.86
188.48	4950.27
188.556	4936.81
188.632	4938.49
188.707	4943.62
188.783	4932.31
188.859	4923.13
188.935	4894.24
189.011	4914.45
189.086	4899.13
189.162	4879.3
189.238	4877.58
189.314	4874.9
189.39	4862.16
189.465	4845.59
189.541	4884.29
189.617	4843.54
189.693	4832.01
189.768	4846.86
189.844	4903.06
189.92	4880.81
189.996	4906.48
190.071	4931.77
190.147	4933.78
190.223	4952.65
190.298	4932.43
190.374	4902.27
190.45	4931.04
190.526	4952.54
190.601	4942.1
190.677	4945.4
190.753	5015.68
190.828	5024.06
190.904	5061.09
190.98	5096.49
191.055	5122.84
191.131	5103.15
191.207	5157.17
191.282	5175.64
191.358	5146.76
191.433	5113.69
191.509	5143.6
191.585	5135.26
191.66	5139.05
191.736	5154.52
191.811	5133.35
191.887	5171.4
191.963	5232.48
192.038	5245.56
192.114	5245.46
192.189	5254.32
192.265	5245.08
192.34	5183.86
192.416	5180.5
192.491	5166.56
192.567	5173.8
192.642	5178.45
192.718	5180.17
192.793	5151.42
192.869	5145.73
192.944	5151.09
193.02	5168.34
193.095	5179.26
193.171	5195.22
193.246	5189.27
193.322	5181.75
193.397	5185.25
193.473	5151.22
193.548	5103.59
193.624	5116.86
193.699	5114.47
193.775	5149.56
193.85	5153.43
193.925	5177.92
194.001	5172.13
194.076	5159.72
194.152	5129.14
194.227	5107
194.302	5084.84
194.378	5092.12
194.453	5085.8
194.529	5115.07
194.604	5079.38
194.679	5064.58
194.755	5016.36
194.83	5052.18
194.905	5050.83
194.981	5072.83
195.056	5056.4
195.131	5073.5
195.207	5068.95
195.282	5043.28
195.357	4997.65
195.433	5032.95
195.508	5003.91
195.583	5031.45
195.659	5062.55
195.734	5075.92
195.809	5079.23
195.884	5101.68
195.96	5103.5
196.035	5139.47
196.11	5134.82
196.185	5166.77
196.261	5170.12
196.336	5246.92
196.411	5208.66
196.486	5217.53
196.561	5195.82
196.637	5220.05
196.712	5260.18
196.787	5270.54
196.862	5314.8
196.937	5336.88
197.013	5357.69
197.088	5379.34
197.163	5427.64
197.238	5468.76
197.313	5471.2
197.388	5500.92
197.464	5573.53
197.539	5602
197.614	5585.66
197.689	5608.62
197.764	5644.69
197.839	5701.5
197.914	5688.31
197.989	5748.4
198.065	5785.27
198.14	5912.59
198.215	5975.81
198.29	6003.36
198.365	6036.9
198.44	6061.69
198.515	6131.99
198.59	6166.11
198.665	6233.47
198.74	6253.68
198.815	6254.07
198.89	6317.79
198.965	6389.51
199.04	6377.22
199.115	6414.31
199.19	6520.04
199.265	6530.83
199.34	6557.81
199.415	6636.99
199.49	6687.14
199.565	6707.84
199.64	6768.63
199.715	6757.91
199.79	6770.68
199.865	6787.44
199.94	6777.85
200.015	6853.79
200.09	6866
200.165	6880.88
200.24	6895.34
200.315	6986.79
200.39	7024.07
200.464	7034.45
200.539	7039.3
200.614	7083.2
200.689	7140.38
200.764	7155.43
200.839	7195.18
200.914	7210.32
200.989	7187.05
201.063	7221.02
201.138	7177.58
201.213	7170.99
201.288	7127.95
201.363	7136.59
201.438	7137.46
201.512	7181.35
201.587	7136.6
201.662	7148.33
201.737	7186.15
201.812	7205.57
201.886	7132.23
201.961	7157.9
202.036	7127.36
202.111	7119.67
202.186	7043.77
202.26	6997.64
202.335	6944.01
202.41	6935.03
202.485	6889.51
202.559	6834.04
202.634	6766.84
202.709	6785.65
202.784	6744.21
202.858	6746.75
202.933	6705.6
203.008	6683.66
203.082	6629.84
203.157	6624.31
203.232	6519.45
203.306	6456.57
203.381	6376.37
203.456	6315.02
203.53	6255.23
203.605	6206.79
203.68	6148.02
203.754	6134.89
203.829	6100.42
203.904	6051.39
203.978	6017.4
204.053	6029.74
204.127	6004.99
204.202	6000.77
204.277	5961.24
204.351	5942.14
204.426	5920.93
204.5	5901.93
204.575	5815.69
204.65	5844.24
204.724	5821.82
204.799	5841.42
204.873	5835.57
204.948	5836.86
205.022	5806.9
205.097	5786.21
205.171	5822.66
205.246	5840.75
205.32	5838.69
205.395	5835.42
205.469	5816.3
205.544	5831.8
205.618	5784.27
205.693	5809.45
205.767	5780.78
205.842	5828.08
205.916	5812.16
205.991	5787.8
206.065	5803.77
206.14	5847.51
206.214	5835.6
206.289	5821.69
206.363	5848.4
206.438	5851.71
206.512	5870.38
206.586	5919.82
206.661	5946.22
206.735	5889.32
206.81	5895.52
206.884	5929.27
206.958	5897.2
207.033	5934.88
207.107	5947.17
207.181	6028.51
207.256	6017.77
207.33	6061.99
207.405	6094.31
207.479	6141.67
207.553	6158.36
207.628	6119.85
207.702	6145.42
207.776	6126.95
207.851	6136.01
207.925	6174.18
207.999	6168.33
208.073	6156.62
208.148	6164.59
208.222	6130.27
208.296	6213.71
208.371	6258.24
208.445	6287.95
208.519	6362.13
208.593	6396.25
208.668	6391.5
208.742	6395.87
208.816	6395.92
208.89	6432.8
208.965	6425.69
209.039	6449.27
209.113	6486.71
209.187	6533.85
209.261	6525.26
209.336	6575.48
209.41	6625.08
209.484	6630.65
209.558	6689.01
209.632	6723.37
209.707	6744.84
209.781	6801.55
209.855	6835.13
209.929	6870.14
210.003	6883.44
210.077	6879.94
210.151	6996.41
210.226	7085.04
210.3	7152.95
210.374	7209.7
210.448	7217.35
210.522	7249.31
210.596	7272.76
210.67	7302.31
210.744	7423.83
210.818	7507.51
210.892	7561.25
210.966	7542.13
211.041	7577.18
211.115	7561.03
211.189	7618.99
211.263	7663.16
211.337	7679.22
211.411	7723.55
211.485	7706.67
211.559	7738.92
211.633	7744.49
211.707	7666.94
211.781	7683.21
211.855	7596.56
211.929	7580.42
212.003	7537.57
212.077	7560.66
212.151	7584.08
212.225	7601.19
212.299	7572.13
212.373	7539.92
212.447	7528.28
212.52	7601.11
212.594	7608.52
212.668	7639.13
212.742	7608.36
212.816	7594.61
212.89	7578.51
212.964	7563.21
213.038	7578.17
213.112	7607.08
213.186	7646.25
213.26	7591.34
213.333	7466.43
213.407	7471.28
213.481	7478.96
213.555	7511.67
213.629	7483.68
213.703	7446.85
213.777	7449.54
213.85	7397.23
213.924	7476.49
213.998	7465.81
214.072	7450.95
214.146	7413.21
214.219	7402.78
214.293	7386.44
214.367	7385.57
214.441	7400.71
214.515	7372.01
214.588	7301.31
214.662	7202.89
214.736	7144.56
214.81	7156.76
214.883	7180.13
214.957	7151.18
215.031	7112.33
215.105	7037.18
215.178	6981.16
215.252	6951.37
215.326	6873.98
215.4	6811.04
215.473	6679.36
215.547	6618.3
215.621	6566.05
215.694	6562.26
215.768	6497.13
215.842	6448.6
215.915	6401.08
215.989	6319.59
216.063	6272.71
216.136	6257.44
216.21	6249.82
216.284	6254.76
216.357	6239.35
216.431	6212.14
216.504	6209.69
216.578	6248.68
216.652	6262.39
216.725	6252.26
216.799	6259.95
216.873	6249.63
216.946	6262.82
217.02	6239.52
217.093	6226.56
217.167	6158.62
217.24	6093.57
217.314	6061.01
217.387	6028.7
217.461	5991.23
217.535	6008.35
217.608	5970.46
217.682	5958.17
217.755	5963.35
217.829	5929.04
217.902	5918.15
217.976	5900.21
218.049	5866.54
218.123	5809.75
218.196	5806.11
218.27	5778
218.343	5727.13
218.417	5726.74
218.49	5702.96
218.563	5732.93
218.637	5737.06
218.71	5791.17
218.784	5817.99
218.857	5844.26
218.931	5864.87
219.004	5867.8
219.077	5886.81
219.151	5899.18
219.224	5889.49
219.298	5884.79
219.371	5908.87
219.444	5883.84
219.518	5892.66
219.591	5904.27
219.665	5983.02
219.738	5992.85
219.811	5983.69
219.885	6015.41
219.958	6035.8
220.031	6037.67
220.105	6052.4
220.178	6054.52
220.251	6036.37
220.325	6053.46
220.398	6067.62
220.471	6077.88
220.544	6108.2
220.618	6088.23
220.691	6107.57
220.764	6125.42
220.838	6144.52
220.911	6140.2
220.984	6196.81
221.057	6224.16
221.131	6243.01
221.204	6169.25
221.277	6224.61
221.35	6320.18
221.424	6315.57
221.497	6326.28
221.57	6350.16
221.643	6373.17
221.716	6402.55
221.79	6407.97
221.863	6416.57
221.936	6425.06
222.009	6439.55
222.082	6463.71
222.155	6472.68
222.229	6519.56
222.302	6539.53
222.375	6550.19
222.448	6576.83
222.521	6577.84
222.594	6578.03
222.667	6558.94
222.74	6605.07
222.814	6598.78
222.887	6577.59
222.96	6617.68
223.033	6646.46
223.106	6661.48
223.179	6687
223.252	6698.67
223.325	6718.21
223.398	6726.71
223.471	6743.52
223.544	6763.25
223.617	6772.91
223.69	6789.71
223.763	6768
223.837	6782.07
223.91	6802.1
223.983	6770.12
224.056	6747.27
224.129	6763.79
224.202	6801.22
224.275	6794.06
224.348	6771.25
224.42	6751.7
224.493	6710.12
224.566	6693.54
224.639	6711.16
224.712	6684.59
224.785	6678.44
224.858	6675.75
224.931	6662.74
225.004	6632.73
225.077	6629.61
225.15	6562.93
225.223	6564.33
225.296	6618.97
225.369	6577.64
225.442	6555.83
225.514	6568.02
225.587	6585.97
225.66	6595.15
225.733	6598.22
225.806	6593.23
225.879	6589.87
225.952	6564
226.025	6600.16
226.097	6632.45
226.17	6623.52
226.243	6577.48
226.316	6572.73
226.389	6574.79
226.461	6590.64
226.534	6603.12
226.607	6592.75
226.68	6655.78
226.753	6645.74
226.825	6583.51
226.898	6626.04
226.971	6623.5
227.044	6636.94
227.117	6644.72
227.189	6659.14
227.262	6689.83
227.335	6712.7
227.407	6710.97
227.48	6736.79
227.553	6745.06
227.626	6735.11
227.698	6743.22
227.771	6776.15
227.844	6760.44
227.916	6778.12
227.989	6754.78
228.062	6758.14
228.134	6827.08
228.207	6829.87
228.28	6825.17
228.352	6836.5
228.425	6841.98
228.498	6878.77
228.57	6869.46
228.643	6907.56
228.716	6911.65
228.788	6898.63
228.861	6901.03
228.934	6950.5
229.006	6956.46
229.079	6958.33
229.151	6949.83
229.224	6925.63
229.296	6941.38
229.369	7017.65
229.442	7047.31
229.514	7036.27
229.587	7074.7
229.659	7015.45
229.732	7019.97
229.804	7052.91
229.877	7111.41
229.949	7131.94
230.022	7164.78
230.094	7167.03
230.167	7161.5
230.239	7125.43
230.312	7121.2
230.384	7168.65
230.457	7161.49
230.529	7170.67
230.602	7168.07
230.674	7181.1
230.747	7208.75
230.819	7233.45
230.892	7147
230.964	7147.05
231.037	7167.22
231.109	7154.82
231.181	7191.04
231.254	7169.85
231.326	7160.82
231.399	7147.26
231.471	7131.88
231.544	7078.62
231.616	7110.51
231.688	7113.78
231.761	7104.85
231.833	7093.33
231.905	7027.09
231.978	7027.47
232.05	7016.57
232.122	7024.31
232.195	6999.89
232.267	7028.15
232.339	7009.21
232.412	7060.27
232.484	7039.12
232.556	7016.65
232.629	7072.37
232.701	7079.29
232.773	7083.66
232.846	7080.11
232.918	7078.91
232.99	7088.66
233.062	7119.08
233.135	7125.43
233.207	7095.59
233.279	7130.6
233.351	7155.77
233.424	7155.63
233.496	7138.67
233.568	7201.15
233.64	7170.88
233.713	7188.42
233.785	7190.92
233.857	7203.94
233.929	7164.83
234.001	7215.33
234.074	7267.44
234.146	7211.96
234.218	7208.31
234.29	7207.01
234.362	7197.98
234.434	7162.31
234.507	7141.89
234.579	7103.16
234.651	7089.42
234.723	7114.89
234.795	7122.91
234.867	7115.61
234.939	7156.79
235.012	7166.83
235.084	7166.83
235.156	7195.8
235.228	7178.6
235.3	7161.01
235.372	7168.36
235.444	7211.6
235.516	7153.47
235.588	7160.3
235.66	7170.1
235.732	7149.82
235.804	7295.11
235.876	7324.8
235.948	7375.13
236.02	7384.69
236.092	7401.55
236.164	7407.51
236.236	7413.95
236.308	7415.3
236.38	7441.01
236.452	7433.42
236.524	7447.11
236.596	7493.69
236.668	7524.37
236.74	7542.72
236.812	7561.13
236.884	7589.16
236.956	7605.22
237.028	7598.02
237.1	7575.24
237.172	7628.85
237.244	7689
237.316	7601.1
237.388	7586.92
237.46	7563.74
237.532	7612.02
237.604	7599.53
237.675	7657.23
237.747	7687.72
237.819	7678.74
237.891	7677.15
237.963	7667.97
238.035	7672.29
238.107	7589.85
238.178	7628.73
238.25	7632.33
238.322	7697.37
238.394	7661.88
238.466	7653.81
238.538	7687.79
238.609	7722.06
238.681	7681.37
238.753	7669.39
238.825	7685.27
238.897	7708.38
238.968	7776.89
239.04	7759.63
239.112	7848.97
239.184	7820.59
239.255	7815.92
239.327	7845.87
239.399	7866.26
239.471	7895.63
239.542	7916.07
239.614	7963.14
239.686	7904.79
239.758	7944.42
239.829	7922.47
239.901	7972.87
239.973	7988.64
240.044	8012.54
240.116	8020.48
240.188	8033.27
240.259	8038.94
240.331	8034.23
240.403	8067.6
240.474	8031.8
240.546	8023.91
240.618	7972.25
240.689	7975.61
240.761	7988.7
240.833	8030.6
240.904	8029.54
240.976	8032.23
241.048	8048.06
241.119	8074.81
241.191	8108.53
241.262	8161.47
241.334	8163.44
241.405	8163.83
241.477	8161.42
241.549	8171.58
241.62	8195.24
241.692	8231.8
241.763	8275.79
241.835	8288.49
241.906	8297.58
241.978	8268.77
242.049	8319.52
242.121	8359.06
242.192	8406.02
242.264	8380
242.335	8342.91
242.407	8374.61
242.478	8381.73
242.55	8399.58
242.621	8397.46
242.693	8395.25
242.764	8383.41
242.836	8386.39
242.907	8405.83
242.979	8434.55
243.05	8450.29
243.122	8468.43
243.193	8468.24
243.264	8413.77
243.336	8424.31
243.407	8449.91
243.479	8516.51
243.55	8528.25
243.622	8549.19
243.693	8552.7
243.764	8611.93
243.836	8600.01
243.907	8589.32
243.978	8590.29
244.05	8602.13
244.121	8567.43
244.192	8599.82
244.264	8562.28
244.335	8570.27
244.407	8539.52
244.478	8545.87
244.549	8540.43
244.62	8508.44
244.692	8499.87
244.763	8533.06
244.834	8513.48
244.906	8498.85
244.977	8507.32
245.048	8544.98
245.119	8527.26
245.191	8505.51
245.262	8455.94
245.333	8515.07
245.405	8526.81
245.476	8553.18
245.547	8570.36
245.618	8606.69
245.689	8610.21
245.761	8643.7
245.832	8645.72
245.903	8684.22
245.974	8710.07
246.045	8722.92
246.117	8782.51
246.188	8775.19
246.259	8770.82
246.33	8793.34
246.401	8797.19
246.473	8772.68
246.544	8759.44
246.615	8805.46
246.686	8806.52
246.757	8859.31
246.828	8843.14
246.899	8906.41
246.97	8883.02
247.042	8869.3
247.113	8899.78
247.184	8966.33
247.255	8959.4
247.326	8985.45
247.397	8980.73
247.468	8982.9
247.539	8990.93
247.61	8956.66
247.681	8983.56
247.752	9019.71
247.823	8994.25
247.894	9010.86
247.965	8993.48
248.037	8981.69
248.108	8938.99
248.179	8950.92
248.25	8944.47
248.321	8967.14
248.392	8926.69
248.463	8988.06
248.534	8992.53
248.605	9004.38
248.675	8987.37
248.746	9003.74
248.817	9013.23
248.888	9030.75
248.959	8989.07
249.03	9002.31
249.101	9009.19
249.172	9004.14
249.243	8951.58
249.314	9006.89
249.385	9013.49
249.456	9035.09
249.527	9031.82
249.598	9050.3
249.669	9037.79
249.739	9044.72
249.81	9051.61
249.881	9019.84
249.952	9007.99
250.023	8999.57
250.094	8964.08
250.165	8939.62
250.235	8933.45
250.306	8937.26
250.377	8914.87
250.448	8940.67
250.519	8898.21
250.59	8939.53
250.66	8935.53
250.731	8984.19
250.802	8975.57
250.873	8986.98
250.944	9003.54
251.014	8999.06
251.085	9061.67
251.156	9091.17
251.227	9131.82
251.297	9167.17
251.368	9207.98
251.439	9240.92
251.51	9284.21
251.58	9275.6
251.651	9268.9
251.722	9310.12
251.792	9277.72
251.863	9277.09
251.934	9326.36
252.005	9408.78
252.075	9416.01
252.146	9460.83
252.217	9500.22
252.287	9536.34
252.358	9540.29
252.429	9595.82
252.499	9594.81
252.57	9603.63
252.641	9635.89
252.711	9639.31
252.782	9611.76
252.852	9664.17
252.923	9662.53
252.994	9680.21
253.064	9719.79
253.135	9713.81
253.205	9699.41
253.276	9750.65
253.347	9806.84
253.417	9786.76
253.488	9770.09
253.558	9760.51
253.629	9760.22
253.699	9773.22
253.77	9793.65
253.841	9789.36
253.911	9795.24
253.982	9805.01
254.052	9826.75
254.123	9836.72
254.193	9840.96
254.264	9939.23
254.334	9919.68
254.405	9893.62
254.475	9862.51
254.546	9862.31
254.616	9901.71
254.687	9914.95
254.757	9929.31
254.827	9925.65
254.898	9944.24
254.968	9952.38
255.039	9940.97
255.109	9962.49
255.18	9938.12
255.25	9883.89
255.321	9905.9
255.391	9877.14
255.461	9947.65
255.532	9890.66
255.602	9883.48
255.673	9843.8
255.743	9816.67
255.813	9761.96
255.884	9806.85
255.954	9836.96
256.024	9886.91
256.095	9892.93
256.165	9868.85
256.235	9884.27
256.306	9870.4
256.376	9904.99
256.446	9936.01
256.517	9970.02
256.587	10004.8
256.657	10022.33
256.728	10039.04
256.798	10047.81
256.868	10047.57
256.938	10018.85
257.009	10055.85
257.079	10074.83
257.149	10145.54
257.219	10107.34
257.29	10134.59
257.36	10088.83
257.43	10115.28
257.5	10068.8
257.571	10060.75
257.641	10097.26
257.711	10075.58
257.781	10100.1
257.852	10113.2
257.922	10066.72
257.992	10061.27
258.062	10056.17
258.132	10090.71
258.202	10099.81
258.273	10107.86
258.343	10169.92
258.413	10155.71
258.483	10160.96
258.553	10147.28
258.623	10130.6
258.693	10148.86
258.764	10197.8
258.834	10254.98
258.904	10268.9
258.974	10259.99
259.044	10270.88
259.114	10291.07
259.184	10312.99
259.254	10326.28
259.324	10283.21
259.394	10318.13
259.464	10372.82
259.535	10377.01
259.605	10371.76
259.675	10364.25
259.745	10395.52
259.815	10367.62
259.885	10378.31
259.955	10455.23
260.025	10447.86
260.095	10458.31
260.165	10481.73
260.235	10527.94
260.305	10516.53
260.375	10490.22
260.445	10565.42
260.515	10617.22
260.585	10650.47
260.655	10661.31
260.725	10691.71
260.795	10721.49
260.865	10772.37
260.934	10757.24
261.004	10784.47
261.074	10783.99
261.144	10834.76
261.214	10861.75
261.284	10859.97
261.354	10892.78
261.424	10862.94
261.494	10911.21
261.564	10922.59
261.634	10942.34
261.703	10892.9
261.773	10913.19
261.843	10945.81
261.913	10940.27
261.983	10896.03
262.053	10916.95
262.123	10911.79
262.192	10878.74
262.262	10914.01
262.332	10880.23
262.402	10906.01
262.472	10912.28
262.541	10873.35
262.611	10908.05
262.681	10888.63
262.751	10925.78
262.821	10928.24
262.89	10900.77
262.96	10927.56
263.03	10979.9
263.1	11001.16
263.169	11028.09
263.239	11051.51
263.309	11107.61
263.379	11126.51
263.448	11149.87
263.518	11163.23
263.588	11184.91
263.657	11245.15
263.727	11271.9
263.797	11282.16
263.867	11285.87
263.936	11260.28
264.006	11301.62
264.076	11294.44
264.145	11298.68
264.215	11284.56
264.285	11311.11
264.354	11284.75
264.424	11276.27
264.494	11244.36
264.563	11232.17
264.633	11287.3
264.702	11303.74
264.772	11254.38
264.842	11255.44
264.911	11274.09
264.981	11246.28
265.05	11245.95
265.12	11245.99
265.19	11255.39
265.259	11296.5
265.329	11311.78
265.398	11324.17
265.468	11403.64
265.537	11399.79
265.607	11422.39
265.676	11460.99
265.746	11480.47
265.815	11524.66
265.885	11533.19
265.955	11519.69
266.024	11524.85
266.094	11478.92
266.163	11531.6
266.232	11580.62
266.302	11586.06
266.371	11608.96
266.441	11627.03
266.51	11666.36
266.58	11667.66
266.649	11654.6
266.719	11687.43
266.788	11719
266.858	11769.99
266.927	11718.32
266.996	11741.7
267.066	11762.32
267.135	11738.56
267.205	11772.06
267.274	11800.89
267.343	11835.4
267.413	11854.92
267.482	11906.44
267.552	11951.75
267.621	11915.36
267.69	11887.5
267.76	11911.31
267.829	11935.36
267.898	11952.18
267.968	11936.95
268.037	11966.25
268.106	12008.77
268.176	11991.99
268.245	11998.31
268.314	12003.76
268.384	12051.76
268.453	12074.56
268.522	12100.54
268.592	12151.59
268.661	12141.71
268.73	12155.4
268.799	12154.62
268.869	12214.97
268.938	12182.97
269.007	12184.12
269.076	12202.39
269.146	12238.16
269.215	12260.18
269.284	12304.73
269.353	12302.07
269.422	12314.37
269.492	12306.99
269.561	12252.23
269.63	12278.84
269.699	12275.76
269.768	12294.65
269.838	12310.27
269.907	12344.59
269.976	12322.8
270.045	12284.53
270.114	12315.87
270.183	12323.34
270.253	12352.74
270.322	12317.7
270.391	12335.29
270.46	12387.59
270.529	12425.19
270.598	12466.07
270.667	12474.17
270.736	12462.31
270.806	12494.66
270.875	12541.8
270.944	12566.05
271.013	12660.53
271.082	12683.09
271.151	12712.15
271.22	12689.02
271.289	12695.67
271.358	12689.55
271.427	12716.44
271.496	12746.38
271.565	12743.73
271.634	12761.37
271.703	12851.8
271.772	12903.62
271.841	12913.41
271.91	12885.11
271.979	12902.51
272.048	12886.41
272.117	12924.74
272.186	12928.74
272.255	12966.63
272.324	12996.66
272.393	13017.77
272.462	13015.75
272.531	13032.77
272.6	13047.13
272.669	13099.53
272.738	13117.08
272.807	13149.71
272.876	13143.83
272.945	13244.1
273.013	13288.07
273.082	13338.78
273.151	13275.53
273.22	13297.22
273.289	13322.97
273.358	13391.37
273.427	13398.12
273.496	13434.9
273.564	13465.61
273.633	13510.1
273.702	13503.26
273.771	13517.77
273.84	13546.45
273.909	13580
273.977	13608.06
274.046	13615.05
274.115	13661.04
274.184	13654.19
274.253	13676.03
274.322	13740.53
274.39	13694.83
274.459	13698.88
274.528	13663.74
274.597	13675.55
274.665	13700.37
274.734	13752.39
274.803	13761.36
274.872	13783.68
274.94	13781.89
275.009	13941.15
275.078	13941.82
275.147	13973.3
275.215	13993.35
275.284	14044.74
275.353	14059.25
275.421	14033.12
275.49	14107.31
275.559	14108.8
275.627	14139.75
275.696	14149.3
275.765	14186.95
275.833	14215.1
275.902	14248.7
275.971	14322.12
276.039	14392.64
276.108	14434.97
276.177	14464.18
276.245	14472.47
276.314	14485.73
276.383	14539.09
276.451	14422.45
276.52	14456.34
276.588	14515.34
276.657	14567.98
276.725	14576.56
276.794	14605.29
276.863	14674.66
276.931	14654.99
277	14711.58
277.068	14775.84
277.137	14859.28
277.205	14879.23
277.274	14951.93
277.342	15008.9
277.411	14987.4
277.48	14998.3
277.548	15013.43
277.617	15050.84
277.685	15075.13
277.754	15138.38
277.822	15156.16
277.89	15221.57
277.959	15245.67
278.027	15235.69
278.096	15244.03
278.164	15346.17
278.233	15356.53
278.301	15362.17
278.37	15410.18
278.438	15414.57
278.507	15447.44
278.575	15418.62
278.643	15444.84
278.712	15428.84
278.78	15440.26
278.849	15507.79
278.917	15567.27
278.985	15598.26
279.054	15630.51
279.122	15689.75
279.191	15707.77
279.259	15724.55
279.327	15716.21
279.396	15786.73
279.464	15813.09
279.532	15857.29
279.601	15871.51
279.669	15903.8
279.737	15972.63
279.806	16016.64
279.874	16074.18
279.942	16101.71
280.011	16121.76
280.079	16178.82
280.147	16264.18
280.215	16299.27
280.284	16325.11
280.352	16323.56
280.42	16359.13
280.488	16376.44
280.557	16392.39
280.625	16430.9
280.693	16477.6
280.761	16515.97
280.83	16510.28
280.898	16578.24
280.966	16567.69
281.034	16531.01
281.102	16533.61
281.171	16559.25
281.239	16613.04
281.307	16621.04
281.375	16636.31
281.443	16741.96
281.512	16762.1
281.58	16815.84
281.648	16819.84
281.716	16853.67
281.784	16893.82
281.852	16927.03
281.92	16961.68
281.989	17026.93
282.057	17031.85
282.125	17140.38
282.193	17183.12
282.261	17224.33
282.329	17250.98
282.397	17302.21
282.465	17347.56
282.533	17421.83
282.601	17426.36
282.67	17411.71
282.738	17433.93
282.806	17500.2
282.874	17494.75
282.942	17541.06
283.01	17550.12
283.078	17596.87
283.146	17623.71
283.214	17681.5
283.282	17725.4
283.35	17788.77
283.418	17808
283.486	17853.64
283.554	17815.37
283.622	17841.2
283.69	17881.35
283.758	17908.14
283.826	17963.32
283.894	18019.8
283.962	18099.89
284.03	18180.52
284.098	18226.64
284.165	18256.08
284.233	18293.14
284.301	18318.25
284.369	18330.29
284.437	18358.34
284.505	18389.28
284.573	18469.71
284.641	18476.55
284.709	18535.1
284.777	18539.2
284.845	18595.68
284.912	18649.22
284.98	18702.47
285.048	18728.88
285.116	18774.61
285.184	18842.84
285.252	18872.38
285.319	18874.12
285.387	18890.89
285.455	18884.58
285.523	18928.72
285.591	18967.08
285.659	18993.92
285.726	19072.08
285.794	19086.25
285.862	19116.32
285.93	19156.51
285.997	19178.29
286.065	19203.3
286.133	19216.94
286.201	19248.6
286.269	19249.81
286.336	19264.51
286.404	19288.94
286.472	19344.6
286.539	19328.98
286.607	19316.41
286.675	19364.84
286.743	19423
286.81	19443
286.878	19510.66
286.946	19530.27
287.013	19568.83
287.081	19609.11
287.149	19610.51
287.216	19696.48
287.284	19717.35
287.352	19757.59
287.419	19783.66
287.487	19866.36
287.555	19905.15
287.622	19929.78
287.69	19979.65
287.758	20049.29
287.825	20073.87
287.893	20088.57
287.96	20144.18
288.028	20215.84
288.096	20260.23
288.163	20295.74
288.231	20311.94
288.298	20347.31
288.366	20421.82
288.433	20449.33
288.501	20466.25
288.569	20498.1
288.636	20517.29
288.704	20590.88
288.771	20650.21
288.839	20673.19
288.906	20679.56
288.974	20741.25
289.041	20778.69
289.109	20796
289.176	20854.46
289.244	20903.14
289.311	20971.24
289.379	21036.11
289.446	21080.93
289.514	21104.65
289.581	21144.12
289.649	21180.65
289.716	21224.71
289.783	21233.14
289.851	21311.12
289.918	21347.27
289.986	21411.85
290.053	21464.3
290.121	21497.51
290.188	21528.74
290.255	21641.73
290.323	21680.19
290.39	21705.65
290.458	21757.03
290.525	21834.49
290.592	21849.24
290.66	21887.99
290.727	21907.08
290.794	21977.7
290.862	22012.22
290.929	22061.24
290.996	22105.64
291.064	22171.77
291.131	22234.97
291.198	22302.99
291.266	22344.31
291.333	22391.06
291.4	22444.58
291.468	22517.77
291.535	22541.29
291.602	22594.23
291.669	22609.8
291.737	22652.32
291.804	22689.3
291.871	22765.91
291.938	22806.85
292.006	22912.6
292.073	22984.05
292.14	23045.14
292.207	23063.03
292.275	23093.4
292.342	23153.48
292.409	23249.5
292.476	23348.21
292.543	23353.66
292.611	23389.73
292.678	23466.99
292.745	23565.7
292.812	23631.43
292.879	23649.28
292.946	23694.75
293.014	23760.34
293.081	23809.29
293.148	23874.25
293.215	23948.86
293.282	23974.13
293.349	24032.64
293.416	24028.15
293.484	24101.47
293.551	24167.02
293.618	24252.55
293.685	24363.01
293.752	24396.1
293.819	24430.07
293.886	24428.86
293.953	24489.97
294.02	24566.29
294.087	24620.95
294.154	24647.15
294.221	24703.51
294.288	24762.71
294.356	24846.45
294.423	24903.78
294.49	24923.22
294.557	25008.38
294.624	25022.23
294.691	25114.19
294.758	25158.88
294.825	25207.42
294.892	25231.74
294.959	25270.1
295.026	25324.74
295.093	25351.33
295.16	25392.92
295.226	25431.34
295.293	25538.83
295.36	25598.43
295.427	25663.35
295.494	25720.27
295.561	25782
295.628	25887.86
295.695	25955.78
295.762	26008.78
295.829	26070
295.896	26156.59
295.963	26216.51
296.03	26295.48
296.096	26344.83
296.163	26412.47
296.23	26498.7
296.297	26575.61
296.364	26615.19
296.431	26664.64
296.498	26692.74
296.564	26786.46
296.631	26835.85
296.698	26840.34
296.765	26938.72
296.832	26963.16
296.899	26988.46
296.965	27060.28
297.032	27044.72
297.099	27136.09
297.166	27202.21
297.233	27234.82
297.299	27257.85
297.366	27287.08
297.433	27337.07
297.5	27409.3
297.566	27455.68
297.633	27498.44
297.7	27538.88
297.767	27587.03
297.833	27639.46
297.9	27689.21
297.967	27688.58
298.033	27760.62
298.1	27870.18
298.167	27883.56
298.234	27937.73
298.3	28005.67
298.367	28041.23
298.434	28100.97
298.5	28096.52
298.567	28121.94
298.634	28159.06
298.7	28250.34
298.767	28306.41
298.834	28371.76
298.9	28393.08
298.967	28413.91
299.033	28481.21
299.1	28557.4
299.167	28628.88
299.233	28665.38
299.3	28734.5
299.366	28824.59
299.433	28900.85
299.5	28879.28
299.566	28942.81
299.633	29015.39
299.699	29076.56
299.766	29113.26
299.832	29165.92
299.899	29241.99
299.965	29306.35
300.032	29337.63
300.099	29391.66
300.165	29449.74
300.232	29483.99
300.298	29530.75
300.365	29611.22
300.431	29652.1
300.498	29682.63
300.564	29742.8
300.631	29811.44
300.697	29888.41
300.763	29922.75
300.83	29967.08
300.896	30050.47
300.963	30105.04
301.029	30158.13
301.096	30208.5
301.162	30271
301.229	30306.04
301.295	30315.71
301.361	30365.7
301.428	30410.34
301.494	30414.36
301.561	30459.8
301.627	30502.09
301.693	30549.37
301.76	30599.7
301.826	30625.3
301.892	30682.9
301.959	30735.61
302.025	30771.19
302.092	30792.2
302.158	30859.76
302.224	30900.67
302.291	30904.84
302.357	30929.62
302.423	30954.75
302.49	30967.53
302.556	31036.81
302.622	31078.49
302.688	31147.28
302.755	31223.2
302.821	31291.01
302.887	31358.54
302.954	31387.01
303.02	31446.07
303.086	31487.23
303.152	31524.37
303.219	31550.65
303.285	31604.12
303.351	31662.63
303.417	31699.24
303.483	31720.74
303.55	31742.1
303.616	31770.63
303.682	31828.72
303.748	31860.1
303.815	31922.63
303.881	31990.34
303.947	32007.73
304.013	32047.49
304.079	32077.48
304.145	32064.59
304.212	32103.72
304.278	32117.96
304.344	32154.39
304.41	32158.12
304.476	32177.39
304.542	32191.53
304.608	32249.32
304.674	32239.29
304.741	32254.75
304.807	32300.63
304.873	32354.69
304.939	32419.8
305.005	32416.02
305.071	32448.77
305.137	32489.27
305.203	32473.13
305.269	32488.35
305.335	32547.42
305.401	32571.79
305.467	32587.97
305.533	32647.81
305.599	32688.71
305.666	32742.29
305.732	32780.47
305.798	32846.9
305.864	32955.61
305.93	33008.86
305.996	33034.31
306.062	33077.72
306.128	33108.98
306.194	33117.07
306.259	33144.89
306.325	33153.81
306.391	33205.37
306.457	33245.88
306.523	33276.56
306.589	33373.84
306.655	33406.7
306.721	33385.18
306.787	33384.94
306.853	33466.18
306.919	33455.62
306.985	33463.66
307.051	33483.34
307.117	33494.39
307.183	33507.33
307.248	33461.56
307.314	33512.23
307.38	33556.39
307.446	33609.33
307.512	33621.79
307.578	33663.53
307.644	33688.39
307.709	33724.41
307.775	33755.05
307.841	33783.12
307.907	33817.06
307.973	33796.84
308.039	33823.06
308.104	33879.59
308.17	33929.22
308.236	33913.32
308.302	33955.54
308.368	33963.97
308.433	33998.69
308.499	34020.31
308.565	34033.59
308.631	34078.87
308.696	34051.14
308.762	34034.22
308.828	34053.33
308.894	34036.55
308.959	34009.7
309.025	34027.73
309.091	34055.08
309.156	34066.62
309.222	34109.83
309.288	34118.32
309.354	34099.46
309.419	34117.65
309.485	34112.26
309.551	34145.43
309.616	34142.04
309.682	34157.84
309.748	34185.96
309.813	34208.61
309.879	34213.51
309.945	34221.31
310.01	34231.79
310.076	34266.94
310.141	34297.64
310.207	34299.09
310.273	34346.6
310.338	34389.75
310.404	34378.26
310.469	34376.91
310.535	34387.28
310.601	34357.07
310.666	34394.17
310.732	34452.31
310.797	34455.9
310.863	34454.3
310.928	34471.81
310.994	34507.55
311.059	34530.73
311.125	34554.54
311.191	34593.54
311.256	34604.74
311.322	34648.39
311.387	34634.91
311.453	35269.52
311.518	35264.33
311.584	35280.24
311.649	35313.03
311.715	35320.88
311.78	35349.25
311.846	35349.93
311.911	35393.01
311.976	35417.69
312.042	35397.47
312.107	35389.41
312.173	35406.68
312.238	35418.61
312.304	35426.03
312.369	35441.22
312.434	35442.48
312.5	35456.54
312.565	35418.66
312.631	35451.1
312.696	35459.98
312.761	35493.54
312.827	34897.06
312.892	34988.99
312.958	35006.41
313.023	35026.01
313.088	35054.04
313.154	35049.34
313.219	35052.98
313.284	35050.21
313.35	35062.48
313.415	35087.56
313.48	35106.57
313.546	35128.79
313.611	35186.32
313.676	35191.07
313.741	35205.34
313.807	35247.5
313.872	35272.28
313.937	35311.48
314.003	35369.27
314.068	35384.65
314.133	35429.62
314.198	35426.86
314.264	35405.84
314.329	35411.91
314.394	35427.87
314.459	35450.04
314.525	35519.61
314.59	35553.61
314.655	35548.28
314.72	35610.72
314.785	35626.05
314.851	35621.79
314.916	35614.51
314.981	35605.05
315.046	35622.66
315.111	35618.54
315.176	35614.9
315.242	35644.74
315.307	35668.61
315.372	35646.34
315.437	35652.74
315.502	35652.94
315.567	35705.54
315.632	35688.6
315.698	35696.32
315.763	35701.95
315.828	35700.49
315.893	35697.63
315.958	35690.25
316.023	35682.15
316.088	35626.2
316.153	35598.8
316.218	35603.4
316.283	35559.46
316.348	35532.78
316.413	35517.79
316.479	35479.76
316.544	35400.94
316.609	35317.75
316.674	35218.94
316.739	35112.87
316.804	35031.48
316.869	34927.15
316.934	34811.21
316.999	34720.91
317.064	34585.38
317.129	34457.44
317.194	34333.49
317.259	34191.6
317.324	34043.64
317.389	33905.05
317.454	33780.98
317.518	33656.36
317.583	33560.89
317.648	33476.89
317.713	33351.58
317.778	33172.24
317.843	33055.97
317.908	32918.57
317.973	32784.83
318.038	32676.58
318.103	32550.78
318.168	32422.44
318.233	32292.94
318.297	32126.17
318.362	31990.15
318.427	31846.64
318.492	31740.89
318.557	31569.95
318.622	31460.46
318.687	31347.62
318.751	31207.88
318.816	31077.7
318.881	30944.69
318.946	30745.64
319.011	30566.03
319.075	30398.2
319.14	30258.14
319.205	30095.89
319.27	29955.95
319.335	29776.99
319.399	29606.81
319.464	29468.78
319.529	29272.49
319.594	29109.42
319.658	28963.69
319.723	28783.94
319.788	28641.11
319.853	28424.99
319.917	28287.61
319.982	28077.15
320.047	27916.22
320.112	27763.15
320.176	27557.18
320.241	27386.14
320.306	27229.34
320.37	27062.8
320.435	26904.76
320.5	26743.59
320.564	26555.21
320.629	26365.71
320.694	26217.55
320.758	26036.6
320.823	25848.91
320.888	25694.89
320.952	25486.83
321.017	25301.94
321.082	25117.71
321.146	24939.22
321.211	24767.26
321.275	24577.32
321.34	24379.26
321.405	24174
321.469	23978.12
321.534	23791.62
321.598	23578.45
321.663	23420.15
321.727	23247.98
321.792	23039.08
321.857	22847.5
321.921	22669.77
321.986	22483.59
322.05	22252.81
322.115	22072.02
322.179	21865.75
322.244	21635.14
322.308	21464.94
322.373	21263.75
322.437	21075.53
322.502	20920.56
322.566	20717.65
322.631	20533.3
322.695	20348.19
322.76	20146.07
322.824	19968.18
322.889	19772.76
322.953	19575.85
323.018	19322.54
323.082	19064.57
323.146	18841.68
323.211	18613.68
323.275	18398.46
323.34	18191.52
323.404	18015.47
323.468	17798.08
323.533	17590.26
323.597	17386.06
323.662	17160.56
323.726	16968.75
323.79	16761.89
323.855	16507.08
323.919	16287.26
323.983	16075.53
324.048	15769.74
324.112	15860.63
324.177	15211.1
324.241	14376.37
324.305	13555.88
324.37	12747.3
324.434	11968.17
324.498	11749.87
324.562	11503.81
324.627	11229.33
324.691	10950.55
324.755	10630.91
324.82	10278.43
324.884	9918.98
324.948	9540.68
325.012	9089.03
325.077	8527.84
