Data from 20250626_urea_1M_exp2_MAYP1162681_12-13-58-092.txt Node
Date: Fri Jun 27 12:13:58 BST 2025
User: adleo
Spectrometer: MAYP116268
Trigger mode: 0
Integration Time (sec): 3.000000E0
Scans to average: 1
Electric dark correction enabled: true
Nonlinearity correction enabled: true
Boxcar width: 10
XAxis mode: Wavelengths
Number of Pixels in Spectrum: 2068
>>>>>Begin Spectral Data<<<<<
179.565	3154.87
179.642	3316.61
179.718	3437.83
179.795	3554.67
179.871	3645.87
179.948	3702.18
180.024	3765.81
180.101	3837.07
180.177	3875.53
180.254	3942.42
180.33	4005.29
180.407	4222.79
180.483	4466.45
180.56	4711.44
180.636	4946.05
180.712	4915.63
180.789	4939.43
180.865	4967.72
180.942	4992.71
181.018	5020.49
181.095	5056.33
181.171	5071.85
181.248	5075.92
181.324	5120.16
181.4	5139.27
181.477	5170.08
181.553	5199.48
181.63	5256.42
181.706	5296.3
181.782	5325.98
181.859	5323.68
181.935	5341.61
182.011	5338.11
182.088	5383.4
182.164	5437.07
182.24	5469.12
182.317	5491.54
182.393	5483.4
182.469	5522.22
182.546	5561.05
182.622	5575.95
182.698	5567.32
182.775	5604.72
182.851	5643.08
182.927	5622.32
183.003	5606.36
183.08	5594.47
183.156	5623.14
183.232	5618.05
183.308	5583.54
183.385	5600.88
183.461	5645.19
183.537	5640.87
183.613	5668.35
183.69	5643.41
183.766	5612.95
183.842	5634.82
183.918	5652.23
183.995	5688.61
184.071	5699.45
184.147	5679.93
184.223	5647.55
184.299	5678.34
184.375	5642.47
184.452	5656.97
184.528	5764.99
184.604	5798.02
184.68	5825.11
184.756	5846.21
184.832	5859.22
184.908	5877.24
184.985	5881.84
185.061	5840.94
185.137	5871.59
185.213	5842.1
185.289	5845.22
185.365	5831.17
185.441	5819.08
185.517	5853.78
185.593	5841.21
185.669	5833.54
185.745	5860.59
185.822	5908.56
185.898	5889.56
185.974	5914.64
186.05	5891.22
186.126	5824.4
186.202	5806.85
186.278	5798.17
186.354	5771.69
186.43	5779.75
186.506	5770.21
186.582	5764.94
186.658	5778.79
186.734	5722.31
186.81	5729.5
186.886	5740.48
186.962	5773.13
187.038	5765.03
187.114	5744.68
187.19	5771.4
187.266	5744.12
187.341	5752.18
187.417	5732.91
187.493	5729.88
187.569	5743.46
187.645	5726.34
187.721	5698.47
187.797	5714.92
187.873	5726.91
187.949	5709.75
188.025	5695.64
188.101	5709.25
188.176	5723.4
188.252	5714.24
188.328	5741.56
188.404	5738.73
188.48	5723.96
188.556	5704.35
188.632	5709
188.707	5709.96
188.783	5705.16
188.859	5694.72
188.935	5662.67
189.011	5683.82
189.086	5666.08
189.162	5640.42
189.238	5641
189.314	5631.5
189.39	5617.69
189.465	5598.51
189.541	5645.51
189.617	5607.68
189.693	5588.22
189.768	5595.32
189.844	5660.52
189.92	5632.3
189.996	5659.82
190.071	5690.8
190.147	5686.29
190.223	5709.27
190.298	5690.04
190.374	5648.56
190.45	5684.27
190.526	5701.63
190.601	5687.62
190.677	5691.94
190.753	5771.57
190.828	5782.94
190.904	5820.97
190.98	5863.72
191.055	5890
191.131	5871.24
191.207	5925.05
191.282	5949.83
191.358	5922.36
191.433	5888.13
191.509	5928.49
191.585	5919.28
191.66	5926.09
191.736	5948.92
191.811	5920.47
191.887	5965.83
191.963	6034.28
192.038	6047.33
192.114	6054.77
192.189	6065.56
192.265	6057.84
192.34	5989.47
192.416	5984.34
192.491	5975.94
192.567	5984.54
192.642	5993.03
192.718	5987.95
192.793	5960.5
192.869	5952.64
192.944	5960.41
193.02	5975.71
193.095	5978.88
193.171	5995.96
193.246	5988.57
193.322	5980.89
193.397	5983.34
193.473	5943.74
193.548	5891.05
193.624	5908
193.699	5906.03
193.775	5948.99
193.85	5950.28
193.925	5974.89
194.001	5971.92
194.076	5953.45
194.152	5920.58
194.227	5898.22
194.302	5872.48
194.378	5872.38
194.453	5868.21
194.529	5903.47
194.604	5867.78
194.679	5858.09
194.755	5807.56
194.83	5848.56
194.905	5847.12
194.981	5869.13
195.056	5848.61
195.131	5867.08
195.207	5857.24
195.282	5823.67
195.357	5771.02
195.433	5816.34
195.508	5785.4
195.583	5807.99
195.659	5851.65
195.734	5868.4
195.809	5873.05
195.884	5899.9
195.96	5901.86
196.035	5939.23
196.11	5931.98
196.185	5962.87
196.261	5969.88
196.336	6059.26
196.411	6011.06
196.486	6020.94
196.561	6003.1
196.637	6027.89
196.712	6071.86
196.787	6087.47
196.862	6134.52
196.937	6155.67
197.013	6171.47
197.088	6201.16
197.163	6258.59
197.238	6297.85
197.313	6300.97
197.388	6333.56
197.464	6416.44
197.539	6447.59
197.614	6426.09
197.689	6451.73
197.764	6497.01
197.839	6556.31
197.914	6538.53
197.989	6603.16
198.065	6635.28
198.14	6777.66
198.215	6848.93
198.29	6882.72
198.365	6915.48
198.44	6948.14
198.515	7027.83
198.59	7072.9
198.665	7139.34
198.74	7157.56
198.815	7160.54
198.89	7224.83
198.965	7306.93
199.04	7292.51
199.115	7337.57
199.19	7461.25
199.265	7471.96
199.34	7501.62
199.415	7589.3
199.49	7641.54
199.565	7665.33
199.64	7737.92
199.715	7727.28
199.79	7745.51
199.865	7754.88
199.94	7749.98
200.015	7832.94
200.09	7849.54
200.165	7867.09
200.24	7885.61
200.315	7995.53
200.39	8034.68
200.464	8052.43
200.539	8051.9
200.614	8098.06
200.689	8159.87
200.764	8179.46
200.839	8231.38
200.914	8242
200.989	8211.06
201.063	8253.87
201.138	8204.18
201.213	8203.08
201.288	8150.56
201.363	8159.36
201.438	8165.99
201.512	8205.9
201.587	8155.04
201.662	8175.88
201.737	8210.9
201.812	8234.38
201.886	8146.05
201.961	8178.01
202.036	8138.48
202.111	8135.65
202.186	8050.96
202.26	8006.12
202.335	7944.78
202.41	7927.28
202.485	7879.06
202.559	7826.55
202.634	7756.34
202.709	7784.35
202.784	7731.65
202.858	7733.96
202.933	7683.82
203.008	7663.43
203.082	7612.47
203.157	7613.1
203.232	7487.34
203.306	7418.37
203.381	7327.46
203.456	7263.24
203.53	7192.71
203.605	7140.13
203.68	7073.11
203.754	7057.27
203.829	7012.96
203.904	6948.97
203.978	6915.81
204.053	6925.8
204.127	6894.58
204.202	6877.81
204.277	6831.75
204.351	6813.98
204.426	6787.55
204.5	6770.98
204.575	6674.81
204.65	6698.07
204.724	6671.1
204.799	6692.46
204.873	6687.12
204.948	6678.86
205.022	6648.72
205.097	6626.51
205.171	6668.14
205.246	6689.48
205.32	6686.88
205.395	6687.27
205.469	6666.5
205.544	6681.49
205.618	6638.12
205.693	6670.21
205.767	6640.97
205.842	6700.06
205.916	6679.51
205.991	6653.86
206.065	6662.07
206.14	6704.53
206.214	6690.5
206.289	6673.44
206.363	6702.93
206.438	6705.52
206.512	6731.75
206.586	6785.34
206.661	6811.92
206.735	6743.43
206.81	6748.09
206.884	6795.34
206.958	6758.66
207.033	6805.69
207.107	6823.24
207.181	6910.84
207.256	6891.24
207.33	6945.41
207.405	6977.16
207.479	7033.36
207.553	7052.13
207.628	7013.49
207.702	7046.01
207.776	7029.19
207.851	7038.13
207.925	7084.76
207.999	7080.34
208.073	7075.39
208.148	7077.65
208.222	7044.34
208.296	7139.36
208.371	7182.35
208.445	7207.49
208.519	7290.31
208.593	7320.44
208.668	7309.81
208.742	7314.67
208.816	7319.38
208.89	7354
208.965	7348.95
209.039	7372.65
209.113	7420.81
209.187	7477.81
209.261	7469.74
209.336	7529.91
209.41	7585.83
209.484	7589.48
209.558	7653.77
209.632	7688.91
209.707	7721.94
209.781	7783.71
209.855	7826.71
209.929	7870.61
210.003	7887.44
210.077	7880.95
210.151	8017.16
210.226	8111.08
210.3	8187.05
210.374	8256.09
210.448	8265.95
210.522	8288.71
210.596	8311.17
210.67	8339.02
210.744	8471.69
210.818	8560.03
210.892	8614.51
210.966	8594.98
211.041	8630.88
211.115	8619.33
211.189	8684.05
211.263	8731.78
211.337	8753.77
211.411	8793.92
211.485	8782.26
211.559	8815.46
211.633	8817.67
211.707	8730.76
211.781	8750.7
211.855	8647.75
211.929	8619.32
212.003	8575.71
212.077	8609.65
212.151	8644.25
212.225	8662.88
212.299	8632.54
212.373	8600.25
212.447	8584.31
212.52	8668.49
212.594	8675.08
212.668	8703.66
212.742	8663.96
212.816	8647.74
212.89	8630.8
212.964	8623.05
213.038	8629.21
213.112	8659.88
213.186	8709.09
213.26	8647.01
213.333	8517.01
213.407	8529.85
213.481	8537.59
213.555	8562.4
213.629	8521.82
213.703	8473.16
213.777	8468.49
213.85	8401.84
213.924	8486.9
213.998	8481.17
214.072	8454.74
214.146	8414.55
214.219	8405.8
214.293	8389.83
214.367	8381.65
214.441	8396.47
214.515	8352.91
214.588	8278.48
214.662	8175.82
214.736	8106.03
214.81	8121.46
214.883	8141.07
214.957	8101.36
215.031	8054.83
215.105	7982.42
215.178	7934.27
215.252	7904.55
215.326	7829.29
215.4	7764.36
215.473	7619.26
215.547	7552.02
215.621	7497.7
215.694	7497.7
215.768	7413.12
215.842	7360.88
215.915	7307.06
215.989	7212.88
216.063	7166.52
216.136	7153.35
216.21	7136.39
216.284	7148.51
216.357	7125.97
216.431	7096.41
216.504	7094.49
216.578	7140.16
216.652	7146.54
216.725	7126.93
216.799	7132.56
216.873	7112.77
216.946	7121.17
217.02	7090.2
217.093	7063.97
217.167	6986.76
217.24	6916.11
217.314	6888.31
217.387	6854.61
217.461	6820.21
217.535	6836.88
217.608	6790.2
217.682	6768.91
217.755	6781.21
217.829	6737.82
217.902	6722.88
217.976	6700.36
218.049	6665.78
218.123	6601.82
218.196	6604.94
218.27	6575.26
218.343	6517.6
218.417	6520.48
218.49	6497.48
218.563	6534.75
218.637	6545.12
218.71	6598.15
218.784	6620.43
218.857	6650.78
218.931	6664.94
219.004	6672.09
219.077	6692.56
219.151	6703.75
219.224	6696.35
219.298	6690.44
219.371	6721.72
219.444	6696.04
219.518	6705.93
219.591	6717.26
219.665	6805.42
219.738	6812.04
219.811	6798.65
219.885	6833.48
219.958	6857.69
220.031	6860.62
220.105	6871.43
220.178	6869.51
220.251	6854.13
220.325	6872.88
220.398	6880.61
220.471	6900.01
220.544	6926.82
220.618	6905.09
220.691	6932.14
220.764	6947.41
220.838	6964.23
220.911	6952.6
220.984	7020.28
221.057	7050.97
221.131	7074.46
221.204	6992.69
221.277	7052.57
221.35	7155.41
221.424	7148.34
221.497	7155.31
221.57	7179.51
221.643	7208.16
221.716	7247.67
221.79	7251.71
221.863	7264.4
221.936	7267.96
222.009	7278.91
222.082	7304.68
222.155	7315.15
222.229	7367.85
222.302	7390.39
222.375	7398.22
222.448	7432.06
222.521	7434.8
222.594	7432.35
222.667	7408.96
222.74	7455
222.814	7444.75
222.887	7432.25
222.96	7479.41
223.033	7518.84
223.106	7538.59
223.179	7564.95
223.252	7575.05
223.325	7597.68
223.398	7604.13
223.471	7634.22
223.544	7652.43
223.617	7662.92
223.69	7681.76
223.763	7652.95
223.837	7670.26
223.91	7692.96
223.983	7648.93
224.056	7624.71
224.129	7644.27
224.202	7693.33
224.275	7689.53
224.348	7667.71
224.42	7639.82
224.493	7589.87
224.566	7561.88
224.639	7572.55
224.712	7547.39
224.785	7535.51
224.858	7528.49
224.931	7513.54
225.004	7476.91
225.077	7474.41
225.15	7396.13
225.223	7391.13
225.296	7452.32
225.369	7406.42
225.442	7384.06
225.514	7399.68
225.587	7416.55
225.66	7426.41
225.733	7423.57
225.806	7422.22
225.879	7417.95
225.952	7386.43
226.025	7428.73
226.097	7474.42
226.17	7472.69
226.243	7421.13
226.316	7419.44
226.389	7423.96
226.461	7438.48
226.534	7457.18
226.607	7449.29
226.68	7520.51
226.753	7520.46
226.825	7452.25
226.898	7493.63
226.971	7489.16
227.044	7509.2
227.117	7510.74
227.189	7520.31
227.262	7543.73
227.335	7561.09
227.407	7562.34
227.48	7592.56
227.553	7601.89
227.626	7586.11
227.698	7595.92
227.771	7627.53
227.844	7615.47
227.916	7632.2
227.989	7605.42
228.062	7606.24
228.134	7677.7
228.207	7677.66
228.28	7664.58
228.352	7669.73
228.425	7684.01
228.498	7728.97
228.57	7715.7
228.643	7762.98
228.716	7767.26
228.788	7760.39
228.861	7757.16
228.934	7802.94
229.006	7804.62
229.079	7804.24
229.151	7795.38
229.224	7766.11
229.296	7785.78
229.369	7865.59
229.442	7901.29
229.514	7890.29
229.587	7929.38
229.659	7866.56
229.732	7876.66
229.804	7917
229.877	7991.82
229.949	8013.42
230.022	8051.54
230.094	8053.85
230.167	8041.96
230.239	8004.94
230.312	7996.66
230.384	8053.11
230.457	8051.37
230.529	8065.75
230.602	8064.21
230.674	8066.9
230.747	8097.62
230.819	8118.01
230.892	8021.28
230.964	8023.35
231.037	8045.56
231.109	8033.48
231.181	8069.55
231.254	8038.62
231.326	8021.07
231.399	7998.83
231.471	7976.36
231.544	7908.62
231.616	7939.3
231.688	7947.28
231.761	7937.1
231.833	7925.75
231.905	7855.36
231.978	7858.1
232.05	7843.25
232.122	7851.52
232.195	7840.07
232.267	7869.03
232.339	7853.68
232.412	7908.98
232.484	7883.28
232.556	7855.55
232.629	7910.8
232.701	7926.29
232.773	7939.36
232.846	7926.67
232.918	7933.41
232.99	7948.81
233.062	7983.53
233.135	7990.22
233.207	7959.53
233.279	7996.21
233.351	8021.84
233.424	8025.11
233.496	7998.51
233.568	8069.61
233.64	8036.91
233.713	8046.68
233.785	8049.9
233.857	8060.39
233.929	8021.14
234.001	8077.36
234.074	8138.37
234.146	8081.78
234.218	8075.96
234.29	8072.69
234.362	8066.25
234.434	8018.62
234.507	7988.12
234.579	7948.78
234.651	7933.05
234.723	7959.65
234.795	7976.68
234.867	7975.81
234.939	8022.18
235.012	8037.19
235.084	8041.86
235.156	8074.42
235.228	8061
235.3	8045.03
235.372	8053.35
235.444	8102.93
235.516	8041
235.588	8044.94
235.66	8056.39
235.732	8033.73
235.804	8196.47
235.876	8234.55
235.948	8294.27
236.02	8311.77
236.092	8328.7
236.164	8343.56
236.236	8345.68
236.308	8338.22
236.38	8359.44
236.452	8343.22
236.524	8362.08
236.596	8411.97
236.668	8432.61
236.74	8444.92
236.812	8470.42
236.884	8497.04
236.956	8501.56
237.028	8486.6
237.1	8468.28
237.172	8523.87
237.244	8589.07
237.316	8493.16
237.388	8481.67
237.46	8457.74
237.532	8503.8
237.604	8488.03
237.675	8547.8
237.747	8583.08
237.819	8573.61
237.891	8575.87
237.963	8568.85
238.035	8562.16
238.107	8472.9
238.178	8531.26
238.25	8541.89
238.322	8608.09
238.394	8580.04
238.466	8584.46
238.538	8623.09
238.609	8662.74
238.681	8618.02
238.753	8598.04
238.825	8607.72
238.897	8635.09
238.968	8706.35
239.04	8684.55
239.112	8784.02
239.184	8750.66
239.255	8745.07
239.327	8781.16
239.399	8792.23
239.471	8830.82
239.542	8862.92
239.614	8909.07
239.686	8841.77
239.758	8882
239.829	8855.75
239.901	8905.19
239.973	8919.24
240.044	8947.45
240.116	8956.88
240.188	8968
240.259	8978.92
240.331	8974.16
240.403	8998.17
240.474	8951.32
240.546	8942.85
240.618	8889.12
240.689	8885.75
240.761	8906.45
240.833	8953.11
240.904	8957.49
240.976	8961.48
241.048	8976.98
241.119	9013.44
241.191	9046.22
241.262	9100.06
241.334	9105.21
241.405	9104.49
241.477	9101.99
241.549	9115.95
241.62	9132.37
241.692	9178.15
241.763	9232.57
241.835	9242.49
241.906	9262.28
241.978	9245.34
242.049	9308.59
242.121	9352.06
242.192	9407.87
242.264	9377.01
242.335	9338.25
242.407	9381.1
242.478	9382.16
242.55	9400.79
242.621	9383.89
242.693	9386.1
242.764	9378.88
242.836	9373.63
242.907	9403.49
242.979	9428.57
243.05	9441.86
243.122	9461.95
243.193	9451.83
243.264	9389.71
243.336	9397.46
243.407	9425.54
243.479	9490.64
243.55	9501.34
243.622	9517.9
243.693	9517.62
243.764	9569.14
243.836	9553.21
243.907	9538.76
243.978	9545.55
244.05	9564.47
244.121	9526.87
244.192	9558.75
244.264	9517
244.335	9528.89
244.407	9484.49
244.478	9492.82
244.549	9486.42
244.62	9452.57
244.692	9453.82
244.763	9486.8
244.834	9478.95
244.906	9462.53
244.977	9474.86
245.048	9516.24
245.119	9506.23
245.191	9484.12
245.262	9443.14
245.333	9504.29
245.405	9516.23
245.476	9535.01
245.547	9544.74
245.618	9590.58
245.689	9598.48
245.761	9626.65
245.832	9636.43
245.903	9680.15
245.974	9707.08
246.045	9713.43
246.117	9784.67
246.188	9774.89
246.259	9765.36
246.33	9781.44
246.401	9783.66
246.473	9756.01
246.544	9745.84
246.615	9785.34
246.686	9793
246.757	9848.96
246.828	9837.78
246.899	9898.34
246.97	9877.93
247.042	9870.94
247.113	9904.76
247.184	9977.04
247.255	9978.82
247.326	10001.27
247.397	10003.96
247.468	10016.54
247.539	10029.35
247.61	9987.39
247.681	10022.35
247.752	10067.58
247.823	10045.62
247.894	10066.29
247.965	10043.7
248.037	10026.16
248.108	9987.53
248.179	10000
248.25	9997.16
248.321	10017.68
248.392	9981.25
248.463	10046.13
248.534	10039.29
248.605	10053.46
248.675	10033.6
248.746	10043.57
248.817	10058.27
248.888	10074.94
248.959	10028.55
249.03	10048.4
249.101	10057.21
249.172	10042.23
249.243	9979.09
249.314	10037.38
249.385	10045.32
249.456	10078.8
249.527	10078.46
249.598	10093.15
249.669	10085.68
249.739	10089.54
249.81	10096.96
249.881	10065.17
249.952	10059.1
250.023	10056.54
250.094	10013.38
250.165	9985.52
250.235	9981.62
250.306	9981.62
250.377	9955.56
250.448	9979.35
250.519	9925.79
250.59	9974.94
250.66	9975.56
250.731	10034.07
250.802	10028.2
250.873	10037.74
250.944	10050.89
251.014	10047.08
251.085	10117.81
251.156	10143.54
251.227	10189.55
251.297	10238.99
251.368	10279.3
251.439	10317.03
251.51	10364.3
251.58	10352.21
251.651	10349.27
251.722	10397.69
251.792	10353.42
251.863	10355.87
251.934	10401.98
252.005	10500.07
252.075	10504.98
252.146	10556.38
252.217	10598.35
252.287	10638.78
252.358	10642.97
252.429	10700.94
252.499	10696.84
252.57	10708.65
252.641	10746.57
252.711	10755.68
252.782	10713.81
252.852	10776.21
252.923	10766.91
252.994	10781.13
253.064	10829.73
253.135	10807.52
253.205	10788.25
253.276	10853.39
253.347	10911.64
253.417	10897.23
253.488	10878.72
253.558	10871.93
253.629	10858.73
253.699	10864.89
253.77	10885.33
253.841	10880.51
253.911	10892.18
253.982	10899.83
254.052	10927.26
254.123	10933.81
254.193	10927.6
254.264	11037.67
254.334	11001.67
254.405	10981.39
254.475	10954.93
254.546	10956.14
254.616	11014.34
254.687	11039.74
254.757	11053.57
254.827	11047.69
254.898	11063.3
254.968	11068.94
255.039	11050.34
255.109	11079.83
255.18	11059.44
255.25	11000.17
255.321	11027.3
255.391	10982.48
255.461	11060.11
255.532	10988.11
255.602	10983
255.673	10944.98
255.743	10913.41
255.813	10857.81
255.884	10895.69
255.954	10923.3
256.024	10974.58
256.095	10980.55
256.165	10948.85
256.235	10971.79
256.306	10961.14
256.376	10997.28
256.446	11032.08
256.517	11058.78
256.587	11094.34
256.657	11113.38
256.728	11130.82
256.798	11131.01
256.868	11140.02
256.938	11116.7
257.009	11162.62
257.079	11189.61
257.149	11262.24
257.219	11215.58
257.29	11247.28
257.36	11198.85
257.43	11228.59
257.5	11175.68
257.571	11163
257.641	11197.41
257.711	11167.57
257.781	11190.32
257.852	11208.1
257.922	11159.67
257.992	11164.63
258.062	11161.36
258.132	11194.47
258.202	11199.29
258.273	11217.36
258.343	11273.31
258.413	11259.58
258.483	11258.81
258.553	11234.62
258.623	11217.6
258.693	11241.94
258.764	11306.95
258.834	11363.42
258.904	11376.29
258.974	11368.25
259.044	11378.95
259.114	11405.74
259.184	11432.64
259.254	11437.26
259.324	11391.23
259.394	11431.62
259.464	11500.26
259.535	11500.54
259.605	11494.18
259.675	11484.11
259.745	11511.54
259.815	11493.27
259.885	11489.17
259.955	11573.63
260.025	11566.83
260.095	11575.07
260.165	11593.87
260.235	11638.02
260.305	11633.01
260.375	11608.38
260.445	11685.49
260.515	11742.85
260.585	11778.37
260.655	11783.14
260.725	11823.2
260.795	11854.67
260.865	11902.63
260.934	11868.7
261.004	11897.86
261.074	11905.62
261.144	11962.24
261.214	11998.49
261.284	12000.18
261.354	12038.74
261.424	12013.57
261.494	12070.2
261.564	12073.91
261.634	12104.47
261.703	12055.4
261.773	12069.62
261.843	12102.64
261.913	12097.82
261.983	12048.12
262.053	12065.24
262.123	12063.21
262.192	12024.61
262.262	12055.02
262.332	12020.46
262.402	12047.26
262.472	12061.62
262.541	12006.83
262.611	12041.82
262.681	12015.55
262.751	12047.12
262.821	12045.87
262.89	12014.44
262.96	12031.7
263.03	12099.81
263.1	12120.97
263.169	12135.38
263.239	12163.49
263.309	12214.78
263.379	12234.2
263.448	12244.76
263.518	12266.5
263.588	12277.01
263.657	12342.94
263.727	12380.69
263.797	12390.09
263.867	12393.41
263.936	12355.29
264.006	12406.32
264.076	12405.26
264.145	12404.88
264.215	12387.96
264.285	12425.94
264.354	12390.37
264.424	12379.04
264.494	12339.47
264.563	12327.65
264.633	12389.16
264.702	12409.89
264.772	12366.17
264.842	12365.11
264.911	12394.17
264.981	12357.59
265.05	12371.37
265.12	12366.02
265.19	12365.64
265.259	12407.24
265.329	12432.21
265.398	12457.42
265.468	12546.21
265.537	12535.46
265.607	12560.04
265.676	12600.63
265.746	12617.45
265.815	12663.82
265.885	12675.1
265.955	12656.16
266.024	12650.09
266.094	12600
266.163	12653.94
266.232	12699.5
266.302	12710.39
266.371	12734.74
266.441	12752.14
266.51	12786.41
266.58	12787.18
266.649	12775.37
266.719	12807.86
266.788	12835.82
266.858	12893.77
266.927	12838.57
266.996	12865.32
267.066	12897.57
267.135	12881.18
267.205	12910.11
267.274	12930.4
267.343	12973.06
267.413	12999.05
267.482	13057.23
267.552	13109.49
267.621	13059.59
267.69	13031.58
267.76	13057.81
267.829	13084.56
267.898	13102.4
267.968	13088.42
268.037	13123.03
268.106	13165.55
268.176	13145.64
268.245	13150.12
268.314	13142.55
268.384	13185.41
268.453	13199.05
268.522	13211.92
268.592	13261.67
268.661	13251.65
268.73	13276.42
268.799	13265.14
268.869	13319.28
268.938	13275.07
269.007	13272.76
269.076	13301.01
269.146	13344.59
269.215	13365.8
269.284	13418.87
269.353	13413.86
269.422	13419.84
269.492	13409.52
269.561	13352.73
269.63	13382.57
269.699	13379.83
269.768	13393.52
269.838	13404.6
269.907	13441.53
269.976	13421.38
270.045	13373.56
270.114	13404.32
270.183	13416.13
270.253	13448.33
270.322	13418.73
270.391	13446.88
270.46	13492.53
270.529	13532.21
270.598	13571.16
270.667	13575.64
270.736	13544.4
270.806	13575.3
270.875	13620.57
270.944	13633.87
271.013	13734.53
271.082	13750.73
271.151	13778.69
271.22	13751.88
271.289	13766.78
271.358	13773.14
271.427	13807.66
271.496	13832.53
271.565	13836.58
271.634	13849.69
271.703	13949.04
271.772	13998.16
271.841	14008.72
271.91	13985.77
271.979	13991.32
272.048	13965.09
272.117	14003.61
272.186	14008.82
272.255	14046.71
272.324	14087.39
272.393	14120.41
272.462	14108.12
272.531	14125.52
272.6	14134.3
272.669	14194.8
272.738	14202.56
272.807	14226.37
272.876	14210.61
272.945	14329.29
273.013	14378.6
273.082	14426.85
273.151	14341.44
273.22	14365.54
273.289	14382.22
273.358	14453.66
273.427	14471.79
273.496	14514.93
273.564	14545.73
273.633	14596.73
273.702	14585.89
273.771	14597.12
273.84	14622.86
273.909	14662.82
273.977	14697.09
274.046	14710.54
274.115	14766.89
274.184	14765.83
274.253	14784.15
274.322	14853.47
274.39	14800.2
274.459	14789.6
274.528	14756.63
274.597	14787.96
274.665	14814.47
274.734	14879.16
274.803	14886.44
274.872	14897.05
274.94	14895.84
275.009	15069.39
275.078	15059.22
275.147	15101.21
275.215	15118.66
275.284	15172.26
275.353	15169.9
275.421	15136.64
275.49	15212.75
275.559	15203.15
275.627	15225.52
275.696	15240.17
275.765	15264.71
275.833	15282.83
275.902	15320.29
275.971	15383.14
276.039	15454.34
276.108	15505.77
276.177	15529.29
276.245	15534.01
276.314	15557.58
276.383	15606.36
276.451	15480
276.52	15535.34
276.588	15590.67
276.657	15646.44
276.725	15647.45
276.794	15688.42
276.863	15762.31
276.931	15736.53
277	15793.35
277.068	15854.09
277.137	15935.26
277.205	15969.24
277.274	16047.85
277.342	16105.98
277.411	16092.58
277.48	16095.03
277.548	16096.43
277.617	16133.45
277.685	16151.96
277.754	16210.37
277.822	16219.63
277.89	16287.63
277.959	16300.65
278.027	16287.82
278.096	16290.62
278.164	16401.52
278.233	16419.59
278.301	16424.12
278.37	16474.68
278.438	16475.6
278.507	16516.71
278.575	16491.12
278.643	16517.96
278.712	16512.32
278.78	16510.69
278.849	16574.36
278.917	16633.59
278.985	16654.75
279.054	16688.96
279.122	16756.54
279.191	16776.15
279.259	16807.48
279.327	16789.21
279.396	16867.29
279.464	16892.93
279.532	16951.97
279.601	16975.44
279.669	17001.7
279.737	17080.98
279.806	17124.21
279.874	17192.98
279.942	17222.19
280.011	17240.89
280.079	17294.05
280.147	17368.94
280.215	17420.26
280.284	17447.93
280.352	17444.7
280.42	17505.9
280.488	17524.22
280.557	17545.52
280.625	17593.52
280.693	17633.13
280.761	17670.15
280.83	17648.56
280.898	17719.83
280.966	17696.99
281.034	17654.39
281.102	17651.06
281.171	17659.69
281.239	17723.45
281.307	17727.69
281.375	17734.77
281.443	17839.64
281.512	17858.04
281.58	17902.23
281.648	17893.9
281.716	17921.9
281.784	17957.75
281.852	17974.38
281.92	18001.27
281.989	18061.84
282.057	18046.86
282.125	18181.93
282.193	18222.51
282.261	18266.65
282.329	18291.09
282.397	18344.34
282.465	18383.32
282.533	18467.27
282.601	18478.02
282.67	18446.7
282.738	18460.19
282.806	18528.48
282.874	18523.42
282.942	18568.33
283.01	18592.91
283.078	18647.41
283.146	18678.2
283.214	18741.43
283.282	18780.13
283.35	18843.01
283.418	18860.02
283.486	18908.6
283.554	18839.69
283.622	18868.94
283.69	18901.42
283.758	18919.59
283.826	18968.5
283.894	19021.8
283.962	19099.24
284.03	19176.97
284.098	19225.5
284.165	19255.37
284.233	19292.19
284.301	19315.27
284.369	19328.86
284.437	19342.94
284.505	19364.96
284.573	19448.33
284.641	19451.36
284.709	19512.08
284.777	19515.51
284.845	19570.78
284.912	19633.72
284.98	19684.51
285.048	19705.18
285.116	19762.82
285.184	19838.48
285.252	19874.38
285.319	19868.65
285.387	19881.61
285.455	19876.74
285.523	19923.83
285.591	19950.91
285.659	19986.47
285.726	20060.64
285.794	20063.77
285.862	20093.46
285.93	20138.47
285.997	20153.46
286.065	20180.59
286.133	20190.71
286.201	20228.01
286.269	20226.56
286.336	20242.08
286.404	20276.15
286.472	20344.06
286.539	20319.48
286.607	20306.76
286.675	20347
286.743	20412.44
286.81	20433.31
286.878	20507.19
286.946	20527.15
287.013	20572.64
287.081	20610.9
287.149	20599.82
287.216	20693.75
287.284	20708.16
287.352	20736.59
287.419	20774.86
287.487	20855.16
287.555	20898.34
287.622	20920.51
287.69	20966.39
287.758	21031.31
287.825	21042.45
287.893	21039.94
287.96	21105.48
288.028	21173.83
288.096	21210.51
288.163	21252.97
288.231	21263.14
288.298	21290.13
288.366	21361.71
288.433	21387.15
288.501	21396.07
288.569	21453.38
288.636	21473.96
288.704	21558.99
288.771	21622.08
288.839	21630.61
288.906	21641.99
288.974	21699.79
289.041	21730.1
289.109	21742.35
289.176	21791.18
289.244	21838.51
289.311	21908.99
289.379	21969.72
289.446	22017.11
289.514	22051
289.581	22088.5
289.649	22128.22
289.716	22173.83
289.783	22189.59
289.851	22282.48
289.918	22323.02
289.986	22377.45
290.053	22418.86
290.121	22444.61
290.188	22483.37
290.255	22597.15
290.323	22615.38
290.39	22650.48
290.458	22713.53
290.525	22793.85
290.592	22821.63
290.66	22864.87
290.727	22883.63
290.794	22948.62
290.862	22973.6
290.929	23025.05
290.996	23057.35
291.064	23125.43
291.131	23183.15
291.198	23251.63
291.266	23281.82
291.333	23327.52
291.4	23367.84
291.468	23444.66
291.535	23469.59
291.602	23516.37
291.669	23526.93
291.737	23579.15
291.804	23600.32
291.871	23671.22
291.938	23719.16
292.006	23823.99
292.073	23902.31
292.14	23966.06
292.207	23986.8
292.275	24034.5
292.342	24091.95
292.409	24195.81
292.476	24285.3
292.543	24296.49
292.611	24331.51
292.678	24408.5
292.745	24508.31
292.812	24581.74
292.879	24602.72
292.946	24651.78
293.014	24725.3
293.081	24789.67
293.148	24867.67
293.215	24943.22
293.282	24967.1
293.349	25027.37
293.416	25000.06
293.484	25067.85
293.551	25134.83
293.618	25210.97
293.685	25318.16
293.752	25339.39
293.819	25374.19
293.886	25379.31
293.953	25453.72
294.02	25523.31
294.087	25579.88
294.154	25601.21
294.221	25671.7
294.288	25721.26
294.356	25815.33
294.423	25865.44
294.49	25881.37
294.557	25941.36
294.624	25963.86
294.691	26056.97
294.758	26105.78
294.825	26176.3
294.892	26190.35
294.959	26226.65
295.026	26289.23
295.093	26305.89
295.16	26351.65
295.226	26390.71
295.293	26492.6
295.36	26528.18
295.427	26589.66
295.494	26653.56
295.561	26720.68
295.628	26816.11
295.695	26899.37
295.762	26941.83
295.829	27016.46
295.896	27105.32
295.963	27179.7
296.03	27254.03
296.096	27303.2
296.163	27370.84
296.23	27455.62
296.297	27535.7
296.364	27572.35
296.431	27626.27
296.498	27660.47
296.564	27753.6
296.631	27803.89
296.698	27819.35
296.765	27921.54
296.832	27937.68
296.899	27946.33
296.965	28027.56
297.032	28021.52
297.099	28108.48
297.166	28171.99
297.233	28184.7
297.299	28206.97
297.366	28248.88
297.433	28286.52
297.5	28348.06
297.566	28395.82
297.633	28434.01
297.7	28488.39
297.767	28531.25
297.833	28589.99
297.9	28628.89
297.967	28647.88
298.033	28718.13
298.1	28837.67
298.167	28846.57
298.234	28903.12
298.3	28966.21
298.367	28989.13
298.434	29044.46
298.5	29043.15
298.567	29060.85
298.634	29103.25
298.7	29188.39
298.767	29232.64
298.834	29318.34
298.9	29352.19
298.967	29363.12
299.033	29429.2
299.1	29511.82
299.167	29600.41
299.233	29623.24
299.3	29702.65
299.366	29778.97
299.433	29858.03
299.5	29821.31
299.566	29880.61
299.633	29966.67
299.699	30041.57
299.766	30077.22
299.832	30125.27
299.899	30198.73
299.965	30278.79
300.032	30316.09
300.099	30360.94
300.165	30415.29
300.232	30442.48
300.298	30479.21
300.365	30560.2
300.431	30605.9
300.498	30616.31
300.564	30669.59
300.631	30737.25
300.697	30818.58
300.763	30855.6
300.83	30890.61
300.896	30974.72
300.963	31031.69
301.029	31072.6
301.096	31117.58
301.162	31194.11
301.229	31226.21
301.295	31236.33
301.361	31283
301.428	31334.54
301.494	31341.03
301.561	31394.1
301.627	31440.67
301.693	31488.06
301.76	31536
301.826	31552.27
301.892	31628.84
301.959	31691.02
302.025	31725.07
302.092	31743.86
302.158	31804.34
302.224	31847.5
302.291	31856.03
302.357	31891.43
302.423	31918.79
302.49	31934.44
302.556	31998.33
302.622	32028.8
302.688	32104.26
302.755	32178
302.821	32234.71
302.887	32305.8
302.954	32340.44
303.02	32406.04
303.086	32465.13
303.152	32490.33
303.219	32513.82
303.285	32551.71
303.351	32601.38
303.417	32655.36
303.483	32671.01
303.55	32692.61
303.616	32726.73
303.682	32769.21
303.748	32792.32
303.815	32876.31
303.881	32938.14
303.947	32938.62
304.013	32989.26
304.079	33008.64
304.145	32990.42
304.212	33025.07
304.278	33034.85
304.344	33053.9
304.41	33044.64
304.476	33058.55
304.542	33083.26
304.608	33149.99
304.674	33150.09
304.741	33165.65
304.807	33201.38
304.873	33262.93
304.939	33339.8
305.005	33327.88
305.071	33354.97
305.137	33397.32
305.203	33359.85
305.269	33391.85
305.335	33453.42
305.401	33477.75
305.467	33500.39
305.533	33556.47
305.599	33612.37
305.666	33676.83
305.732	33720.02
305.798	33787.21
305.864	33884.96
305.93	33952.06
305.996	33976.4
306.062	34017.8
306.128	34045.2
306.194	34045
306.259	34067.06
306.325	34080.01
306.391	34140.42
306.457	34210.23
306.523	34264.93
306.589	34367.97
306.655	34376.85
306.721	34376.51
306.787	34385.33
306.853	34443.86
306.919	34434.31
306.985	34449.73
307.051	34461.47
307.117	34462.82
307.183	34483.53
307.248	34439.83
307.314	34476.74
307.38	34526.85
307.446	34572.15
307.512	34585.97
307.578	34636.94
307.644	34659.92
307.709	34690.34
307.775	34714.49
307.841	34724.09
307.907	34754.07
307.973	34727.2
308.039	34773.03
308.104	34816.88
308.17	34853.98
308.236	34867.41
308.302	34917.99
308.368	34913.43
308.433	34952.67
308.499	34984.87
308.565	34991.37
308.631	35032.89
308.696	34992
308.762	34984.58
308.828	35009.71
308.894	34989.49
308.959	34959.13
309.025	34967.76
309.091	34978.97
309.156	34986.92
309.222	35037.04
309.288	35023.99
309.354	35016.32
309.419	35036.46
309.485	35023.46
309.551	35057.37
309.616	35042.33
309.682	35061.69
309.748	35082.2
309.813	35097.77
309.879	35109.66
309.945	35117.22
310.01	35140.46
310.076	35196.54
310.141	35219.1
310.207	35210.75
310.273	35244.8
310.338	35301.07
310.404	35286.52
310.469	35290.06
310.535	35318.78
310.601	35276.72
310.666	35319.8
310.732	35378.26
310.797	35384.71
310.863	35394.7
310.928	35410.47
310.994	35452.1
311.059	35470.29
311.125	35491.11
311.191	35541.96
311.256	35545.99
311.322	35594.85
311.387	35565.01
311.453	36746.87
311.518	36734.21
311.584	36764.24
311.649	36814.7
311.715	36806.31
311.78	36849.63
311.846	36846.62
311.911	36881.13
311.976	36916.1
312.042	36906.4
312.107	36881.99
312.173	36886.55
312.238	36900.53
312.304	36909.26
312.369	36916.1
312.434	36914.84
312.5	36930.85
312.565	36871.85
312.631	36910.81
312.696	36908.38
312.761	36950.69
312.827	35802.56
312.892	35901.17
312.958	35919.67
313.023	35934.66
313.088	35969.45
313.154	35969.89
313.219	35980.81
313.284	35973.43
313.35	35998.03
313.415	36000.85
313.48	36024.77
313.546	36059.52
313.611	36120.18
313.676	36121.98
313.741	36129.01
313.807	36186.86
313.872	36235.1
313.937	36290.66
314.003	36350.85
314.068	36379.2
314.133	36426.18
314.198	36423.27
314.264	36400.25
314.329	36398.85
314.394	36415.45
314.459	36419.72
314.525	36484.51
314.59	36503.82
314.655	36503.73
314.72	36544.06
314.785	36583.13
314.851	36599.05
314.916	36571.87
314.981	36553.76
315.046	36562.4
315.111	36552.7
315.176	36541.87
315.242	36562.89
315.307	36581.48
315.372	36548.57
315.437	36568.47
315.502	36553.86
315.567	36601.14
315.632	36573.42
315.698	36602.4
315.763	36621.53
315.828	36625.12
315.893	36627.84
315.958	36642.5
316.023	36641.53
316.088	36604.97
316.153	36552.86
316.218	36545.67
316.283	36507.2
316.348	36460.27
316.413	36459.06
316.479	36431.64
316.544	36337.85
316.609	36257.77
316.674	36160.05
316.739	36060.97
316.804	35954.61
316.869	35866.69
316.934	35762.98
316.999	35670.7
317.064	35518.56
317.129	35379.83
317.194	35260.89
317.259	35111.42
317.324	34944.2
317.389	34791.37
317.454	34663.46
317.518	34551.06
317.583	34451.13
317.648	34363.6
317.713	34254.3
317.778	34068.44
317.843	33952.07
317.908	33819.75
317.973	33676.29
318.038	33559.66
318.103	33426.3
318.168	33301
318.233	33173.13
318.297	32991.39
318.362	32864.38
318.427	32715.41
318.492	32605.45
318.557	32437.34
318.622	32313.21
318.687	32218.24
318.751	32074.8
318.816	31934.09
318.881	31800.92
318.946	31593.59
319.011	31418.44
319.075	31246.28
319.14	31102.18
319.205	30936.81
319.27	30797.73
319.335	30623.11
319.399	30459
319.464	30332.08
319.529	30131.01
319.594	29959.14
319.658	29811.12
319.723	29623.39
319.788	29478.9
319.853	29262.97
319.917	29126.68
319.982	28935.9
320.047	28756.28
320.112	28615.75
320.176	28409.34
320.241	28234.93
320.306	28081.98
320.37	27904.64
320.435	27751.56
320.5	27606.45
320.564	27424.9
320.629	27233.92
320.694	27072.64
320.758	26882.21
320.823	26677.92
320.888	26530.37
320.952	26325.12
321.017	26138.95
321.082	25954.03
321.146	25782.03
321.211	25617.97
321.275	25419.77
321.34	25215.79
321.405	25025.95
321.469	24820.78
321.534	24634.23
321.598	24419.5
321.663	24259.75
321.727	24092.36
321.792	23876.84
321.857	23670.39
321.921	23489.24
321.986	23304.9
322.05	23066.26
322.115	22884.82
322.179	22692.87
322.244	22454.71
322.308	22284.48
322.373	22079.21
322.437	21887.35
322.502	21742.66
322.566	21530.27
322.631	21352.27
322.695	21160.97
322.76	20956.22
322.824	20769.45
322.889	20566.17
322.953	20364.81
323.018	20101.9
323.082	19842.76
323.146	19618.95
323.211	19390.71
323.275	19174.47
323.34	18954.71
323.404	18776.7
323.468	18567.74
323.533	18353.47
323.597	18141.42
323.662	17908.46
323.726	17721.86
323.79	17506.96
323.855	17234.81
323.919	17011.48
323.983	16796.48
324.048	16476.1
324.112	16640.01
324.177	15985.1
324.241	15118.66
324.305	14264.15
324.37	13427.08
324.434	12613.44
324.498	12390.91
324.562	12140.17
324.627	11855.16
324.691	11577.69
324.755	11259.6
324.82	10898.62
324.884	10522.8
324.948	10148.57
325.012	9685.39
325.077	9109.94
