Data from 20250626_urea_1M_exp2_MAYP1162681_02-44-00-850.txt Node
Date: Fri Jun 27 02:44:00 BST 2025
User: adleo
Spectrometer: MAYP116268
Trigger mode: 0
Integration Time (sec): 3.000000E0
Scans to average: 1
Electric dark correction enabled: true
Nonlinearity correction enabled: true
Boxcar width: 10
XAxis mode: Wavelengths
Number of Pixels in Spectrum: 2068
>>>>>Begin Spectral Data<<<<<
179.565	2755.27
179.642	2897.49
179.718	3002.14
179.795	3108.12
179.871	3193.22
179.948	3241.44
180.024	3292.14
180.101	3351.93
180.177	3382.5
180.254	3440.79
180.33	3495.2
180.407	3685.28
180.483	3900.72
180.56	4117.41
180.636	4317.53
180.712	4292.02
180.789	4316.65
180.865	4344.76
180.942	4368.91
181.018	4394.98
181.095	4425.8
181.171	4442.64
181.248	4446.18
181.324	4485.42
181.4	4500.21
181.477	4524.14
181.553	4553.41
181.63	4607.25
181.706	4643.58
181.782	4673.95
181.859	4674.57
181.935	4692.66
182.011	4683.9
182.088	4721.29
182.164	4771.4
182.24	4801.59
182.317	4819.48
182.393	4808.96
182.469	4844.67
182.546	4878.46
182.622	4886.84
182.698	4879.95
182.775	4911.64
182.851	4946.84
182.927	4924.05
183.003	4911.99
183.08	4895.42
183.156	4917.83
183.232	4910.5
183.308	4886.51
183.385	4901.78
183.461	4944.69
183.537	4945.65
183.613	4974.34
183.69	4953.17
183.766	4925.23
183.842	4946.26
183.918	4957.51
183.995	4991.07
184.071	5000.46
184.147	4988.16
184.223	4961.22
184.299	4990.2
184.375	4963.1
184.452	4978.58
184.528	5088.92
184.604	5116.83
184.68	5151.55
184.756	5172.58
184.832	5184.08
184.908	5195.72
184.985	5198.3
185.061	5156.73
185.137	5175.6
185.213	5145.72
185.289	5149.31
185.365	5131.07
185.441	5125.47
185.517	5165.44
185.593	5156.15
185.669	5146.95
185.745	5168.74
185.822	5209.53
185.898	5188.73
185.974	5210.71
186.05	5192.16
186.126	5124.59
186.202	5106.96
186.278	5094.94
186.354	5069.4
186.43	5084.79
186.506	5076.75
186.582	5071.48
186.658	5085.55
186.734	5038.25
186.81	5046.43
186.886	5054.52
186.962	5082.97
187.038	5072.05
187.114	5048.03
187.19	5064.7
187.266	5044.11
187.341	5053.12
187.417	5037.56
187.493	5036.31
187.569	5044.08
187.645	5023.15
187.721	4994.4
187.797	5012.17
187.873	5021.03
187.949	5003.99
188.025	4984.57
188.101	4993.67
188.176	5004.88
188.252	4995.16
188.328	5014.3
188.404	5014.35
188.48	5001.9
188.556	4981.02
188.632	4985.57
188.707	4988.97
188.783	4984.37
188.859	4973.03
188.935	4944.61
189.011	4965.35
189.086	4950.61
189.162	4928.91
189.238	4929.44
189.314	4922.3
189.39	4908.27
189.465	4891.79
189.541	4935.62
189.617	4900.91
189.693	4889.23
189.768	4897.56
189.844	4957.7
189.92	4935.83
189.996	4958.3
190.071	4983.15
190.147	4987.46
190.223	5005.91
190.298	4986.84
190.374	4958.1
190.45	4987.45
190.526	4999.95
190.601	4984.53
190.677	4984.57
190.753	5056.39
190.828	5065.53
190.904	5107.36
190.98	5145.74
191.055	5169.3
191.131	5146.73
191.207	5196.5
191.282	5220.2
191.358	5199.94
191.433	5165.85
191.509	5200.41
191.585	5192.31
191.66	5202.33
191.736	5220.15
191.811	5197.01
191.887	5236.45
191.963	5293.52
192.038	5305.35
192.114	5311.01
192.189	5322.22
192.265	5312.6
192.34	5253.14
192.416	5251.51
192.491	5237.9
192.567	5246.77
192.642	5256.64
192.718	5258.51
192.793	5228.61
192.869	5218.41
192.944	5225.74
193.02	5244.96
193.095	5252.05
193.171	5265.03
193.246	5261.96
193.322	5254.78
193.397	5260.62
193.473	5225.91
193.548	5182.92
193.624	5197.35
193.699	5192.37
193.775	5232.4
193.85	5241.73
193.925	5263.97
194.001	5261
194.076	5242.41
194.152	5213.17
194.227	5195.05
194.302	5174.51
194.378	5182.27
194.453	5170.68
194.529	5196.75
194.604	5161.53
194.679	5151.62
194.755	5104.84
194.83	5132.21
194.905	5124.74
194.981	5145.3
195.056	5125.86
195.131	5140.18
195.207	5131.55
195.282	5106.74
195.357	5056.56
195.433	5097.8
195.508	5068.1
195.583	5088.6
195.659	5125.36
195.734	5139.49
195.809	5138.92
195.884	5152.75
195.96	5155.58
196.035	5197.02
196.11	5189.25
196.185	5215.31
196.261	5217.8
196.336	5291.92
196.411	5255.15
196.486	5269.37
196.561	5249.82
196.637	5276.16
196.712	5313.28
196.787	5325.21
196.862	5365.84
196.937	5388.31
197.013	5398.9
197.088	5426.79
197.163	5475.52
197.238	5514.67
197.313	5517.12
197.388	5551.63
197.464	5633.88
197.539	5662.74
197.614	5648.12
197.689	5675.93
197.764	5713.58
197.839	5768.62
197.914	5759.7
197.989	5819.07
198.065	5855.47
198.14	5977.77
198.215	6040.61
198.29	6068.49
198.365	6100.26
198.44	6128.7
198.515	6192.75
198.59	6234.89
198.665	6302.71
198.74	6325.75
198.815	6329.88
198.89	6386.51
198.965	6457.96
199.04	6447.74
199.115	6484.11
199.19	6586.73
199.265	6600.21
199.34	6630.99
199.415	6707.09
199.49	6761.24
199.565	6783.23
199.64	6841.34
199.715	6843.36
199.79	6858.2
199.865	6877.36
199.94	6873.47
200.015	6951.59
200.09	6969.99
200.165	6979.6
200.24	6991.8
200.315	7086.3
200.39	7128.15
200.464	7141.98
200.539	7142.22
200.614	7181.23
200.689	7241.77
200.764	7257.83
200.839	7296.63
200.914	7306.29
200.989	7289.03
201.063	7323.68
201.138	7278.27
201.213	7278.46
201.288	7224.88
201.363	7238.29
201.438	7238.72
201.512	7274.93
201.587	7231.53
201.662	7244.79
201.737	7278.87
201.812	7301.17
201.886	7219.79
201.961	7244.42
202.036	7211.33
202.111	7206.81
202.186	7132.68
202.26	7089.23
202.335	7037.66
202.41	7022.15
202.485	6978.02
202.559	6923.5
202.634	6851.15
202.709	6874.77
202.784	6822.66
202.858	6828.27
202.933	6783.95
203.008	6761.51
203.082	6719.16
203.157	6714.31
203.232	6601.24
203.306	6543.83
203.381	6460.64
203.456	6400.01
203.53	6335.84
203.605	6294.4
203.68	6235.57
203.754	6218.79
203.829	6176.45
203.904	6122.8
203.978	6096.64
204.053	6111.85
204.127	6078.71
204.202	6075.97
204.277	6034.38
204.351	6020.89
204.426	5996.12
204.5	5969.4
204.575	5883.1
204.65	5898.99
204.724	5874.35
204.799	5901
204.873	5890.68
204.948	5885.26
205.022	5859.61
205.097	5837.62
205.171	5867.26
205.246	5887.42
205.32	5886.51
205.395	5892.41
205.469	5873.24
205.544	5886.39
205.618	5839.04
205.693	5874.11
205.767	5843.9
205.842	5894.91
205.916	5879.42
205.991	5854.47
206.065	5871.31
206.14	5915.96
206.214	5910.01
206.289	5893.79
206.363	5924.3
206.438	5931.07
206.512	5949.73
206.586	5997.21
206.661	6021.65
206.735	5966.23
206.81	5965.8
206.884	6006.42
206.958	5970.45
207.033	6010
207.107	6022.3
207.181	6101.01
207.256	6081.43
207.33	6130.36
207.405	6167.17
207.479	6218.12
207.553	6240.76
207.628	6202.12
207.702	6225.82
207.776	6207.24
207.851	6218.81
207.925	6253.38
207.999	6242.97
208.073	6236.54
208.148	6236.59
208.222	6207.93
208.296	6290.7
208.371	6336.39
208.445	6359.34
208.519	6433.48
208.593	6463.67
208.668	6450.99
208.742	6457.52
208.816	6466.3
208.89	6498.25
208.965	6485.56
209.039	6505.83
209.113	6541.21
209.187	6590.42
209.261	6584.42
209.336	6633.53
209.41	6684.82
209.484	6686.55
209.558	6746.97
209.632	6780.05
209.707	6814.48
209.781	6865.38
209.855	6900.36
209.929	6944.46
210.003	6961.47
210.077	6957.1
210.151	7078.14
210.226	7170.48
210.3	7240.03
210.374	7296.07
210.448	7306.79
210.522	7333.08
210.596	7356.63
210.67	7383.21
210.744	7508.06
210.818	7588.66
210.892	7642.41
210.966	7625.88
211.041	7661.93
211.115	7649.54
211.189	7710.87
211.263	7750.14
211.337	7767.64
211.411	7809
211.485	7788.36
211.559	7819.17
211.633	7831.28
211.707	7751.51
211.781	7765.08
211.855	7676.74
211.929	7655.79
212.003	7613.8
212.077	7638.91
212.151	7670.22
212.225	7690.99
212.299	7658.07
212.373	7628.85
212.447	7618.02
212.52	7686.15
212.594	7695.91
212.668	7728.03
212.742	7692.3
212.816	7680.71
212.89	7665.28
212.964	7653.98
213.038	7660.23
213.112	7689.91
213.186	7718.89
213.26	7665.23
213.333	7550.54
213.407	7564.52
213.481	7573.8
213.555	7598.15
213.629	7567.17
213.703	7522.12
213.777	7517.4
213.85	7464.13
213.924	7547.2
213.998	7541.14
214.072	7521.94
214.146	7478.82
214.219	7465.45
214.293	7455.65
214.367	7456.32
214.441	7477.04
214.515	7446.46
214.588	7380.8
214.662	7286.46
214.736	7227.07
214.81	7241.09
214.883	7259.28
214.957	7221.19
215.031	7178.79
215.105	7112.08
215.178	7064.75
215.252	7032.33
215.326	6963.96
215.4	6905.15
215.473	6769.69
215.547	6704.01
215.621	6655.6
215.694	6657.09
215.768	6584.62
215.842	6535.74
215.915	6480.87
215.989	6393.46
216.063	6349.5
216.136	6337.84
216.21	6323.97
216.284	6333.57
216.357	6313.6
216.431	6284.94
216.504	6277.65
216.578	6318.94
216.652	6329.54
216.725	6314.8
216.799	6325.9
216.873	6308.38
216.946	6313.66
217.02	6286.8
217.093	6270.44
217.167	6197.83
217.24	6137.68
217.314	6111.78
217.387	6080.18
217.461	6050.29
217.535	6074.52
217.608	6029.47
217.682	6007.25
217.755	6011.81
217.829	5973.6
217.902	5964.97
217.976	5949.33
218.049	5918.73
218.123	5860.45
218.196	5861.6
218.27	5831.52
218.343	5776.57
218.417	5776.57
218.49	5756
218.563	5786.93
218.637	5793.79
218.71	5853.33
218.784	5872.33
218.857	5896.31
218.931	5912.46
219.004	5914.96
219.077	5927.2
219.151	5942.93
219.224	5939.95
219.298	5939.86
219.371	5972.49
219.444	5946.21
219.518	5950.24
219.591	5966.73
219.665	6048.75
219.738	6056.57
219.811	6048.71
219.885	6084.84
219.958	6105.86
220.031	6117.46
220.105	6132.01
220.178	6139.06
220.251	6116.98
220.325	6138.1
220.398	6148.13
220.471	6159.07
220.544	6188.2
220.618	6168.75
220.691	6191.31
220.764	6204.45
220.838	6221.68
220.911	6215.39
220.984	6275.33
221.057	6305.94
221.131	6321.25
221.204	6250.26
221.277	6303.65
221.35	6401.44
221.424	6397.32
221.497	6406.05
221.57	6424.33
221.643	6449.5
221.716	6479.42
221.79	6488.15
221.863	6494.73
221.936	6505.58
222.009	6518.2
222.082	6535.44
222.155	6548.83
222.229	6594.65
222.302	6616.93
222.375	6620.53
222.448	6648.14
222.521	6650.02
222.594	6654.96
222.667	6635.58
222.74	6675.43
222.814	6671.44
222.887	6650.34
222.96	6688.38
223.033	6722.53
223.106	6732.18
223.179	6754.57
223.252	6760.87
223.325	6779.31
223.398	6789.68
223.471	6809.61
223.544	6825.07
223.617	6839.15
223.69	6852.78
223.763	6821.6
223.837	6836.11
223.91	6864.98
223.983	6826.23
224.056	6805.73
224.129	6819.61
224.202	6860.5
224.275	6853.49
224.348	6824.28
224.42	6807.14
224.493	6765.26
224.566	6754.4
224.639	6776.58
224.712	6756.2
224.785	6749.91
224.858	6748.52
224.931	6734.63
225.004	6710.82
225.077	6715
225.15	6649.99
225.223	6651.29
225.296	6717.19
225.369	6677.57
225.442	6650.34
225.514	6659.69
225.587	6671.46
225.66	6675.83
225.733	6674.77
225.806	6675.64
225.879	6674.48
225.952	6644.19
226.025	6681.46
226.097	6716.65
226.17	6706.51
226.243	6659.75
226.316	6655.62
226.389	6656.34
226.461	6671.04
226.534	6681.41
226.607	6668.2
226.68	6728.26
226.753	6723.84
226.825	6661.21
226.898	6704.81
226.971	6703.13
227.044	6724.16
227.117	6727.47
227.189	6740.64
227.262	6775.76
227.335	6797.48
227.407	6798.15
227.48	6829.26
227.553	6836.22
227.626	6823.38
227.698	6830.88
227.771	6861.74
227.844	6850.69
227.916	6866.02
227.989	6841.91
228.062	6848
228.134	6915.66
228.207	6918.01
228.28	6913.11
228.352	6922.53
228.425	6928.82
228.498	6964.85
228.57	6952.56
228.643	7005.76
228.716	7008.64
228.788	6992.25
228.861	6986.01
228.934	7032.56
229.006	7033.47
229.079	7034.19
229.151	7020.59
229.224	6996.82
229.296	7013.92
229.369	7087.18
229.442	7121.98
229.514	7113.91
229.587	7146.1
229.659	7088
229.732	7099.73
229.804	7127.3
229.877	7185.96
229.949	7208.26
230.022	7254.76
230.094	7251.45
230.167	7232.99
230.239	7205.17
230.312	7193.69
230.384	7244.99
230.457	7243.5
230.529	7254.74
230.602	7258.3
230.674	7266.23
230.747	7299.26
230.819	7321.13
230.892	7236.11
230.964	7233.47
231.037	7250.22
231.109	7244.31
231.181	7279.14
231.254	7251.27
231.326	7238.01
231.399	7221.56
231.471	7199.02
231.544	7135.31
231.616	7175.18
231.688	7186.43
231.761	7168.72
231.833	7168.24
231.905	7104.64
231.978	7102.67
232.05	7087.2
232.122	7090.18
232.195	7073.31
232.267	7098.3
232.339	7084.41
232.412	7134.28
232.484	7116.01
232.556	7098.72
232.629	7144.4
232.701	7155.6
232.773	7162.9
232.846	7158.58
232.918	7162.24
232.99	7172.18
233.062	7202.32
233.135	7206.98
233.207	7178.58
233.279	7221.7
233.351	7248.71
233.424	7254.14
233.496	7234.15
233.568	7294.32
233.64	7262.08
233.713	7270.83
233.785	7266.74
233.857	7274.29
233.929	7232.39
234.001	7286.84
234.074	7335.88
234.146	7282.03
234.218	7278.24
234.29	7279.82
234.362	7278
234.434	7244.25
234.507	7224.45
234.579	7186.39
234.651	7170
234.723	7194.27
234.795	7202.73
234.867	7196.34
234.939	7238.44
235.012	7251.99
235.084	7251.9
235.156	7280.48
235.228	7267.65
235.3	7254.72
235.372	7259.82
235.444	7307.05
235.516	7243.72
235.588	7244.92
235.66	7259.48
235.732	7241.7
235.804	7388.02
235.876	7416.89
235.948	7463.15
236.02	7471.51
236.092	7485.2
236.164	7493.42
236.236	7489.57
236.308	7486.74
236.38	7506.06
236.452	7494.04
236.524	7507.21
236.596	7563.27
236.668	7589.86
236.74	7607.49
236.812	7629.65
236.884	7657.83
236.956	7667.21
237.028	7661.92
237.1	7646.64
237.172	7700.26
237.244	7760.7
237.316	7672.84
237.388	7660.16
237.46	7644.57
237.532	7692.03
237.604	7684.2
237.675	7746.38
237.747	7777.4
237.819	7769.85
237.891	7771.1
237.963	7761.68
238.035	7763.46
238.107	7682.35
238.178	7729.31
238.25	7733.87
238.322	7799.5
238.394	7762.96
238.466	7760.7
238.538	7789.63
238.609	7825.88
238.681	7785.09
238.753	7762.82
238.825	7775.95
238.897	7796.33
238.968	7856.09
239.04	7841.42
239.112	7924.95
239.184	7890.51
239.255	7893.2
239.327	7918.49
239.399	7931.23
239.471	7968.35
239.542	7989.8
239.614	8036.26
239.686	7976.84
239.758	8020.7
239.829	7993.32
239.901	8045.21
239.973	8054.78
240.044	8085.32
240.116	8096.87
240.188	8105.76
240.259	8121.59
240.331	8115.09
240.403	8143.61
240.474	8105.59
240.546	8093.61
240.618	8044.26
240.689	8050.22
240.761	8060.08
240.833	8108.77
240.904	8113.68
240.976	8108.63
241.048	8125.03
241.119	8154.15
241.191	8186.23
241.262	8232.68
241.334	8238.55
241.405	8238.59
241.477	8242.2
241.549	8244.51
241.62	8264.57
241.692	8300.32
241.763	8337.47
241.835	8355.18
241.906	8367.98
241.978	8346.76
242.049	8402.62
242.121	8448.03
242.192	8494.46
242.264	8474.93
242.335	8442.93
242.407	8472.96
242.478	8482.53
242.55	8498.84
242.621	8481.61
242.693	8484.69
242.764	8477.27
242.836	8480.21
242.907	8502.78
242.979	8530.64
243.05	8547.24
243.122	8561.25
243.193	8558.55
243.264	8499.56
243.336	8499.13
243.407	8531.52
243.479	8591.57
243.55	8606.21
243.622	8619.3
243.693	8613.43
243.764	8669.54
243.836	8655.74
243.907	8646.35
243.978	8646.01
244.05	8661.56
244.121	8634.18
244.192	8662.53
244.264	8623.06
244.335	8631.73
244.407	8598.19
244.478	8609.4
244.549	8607.23
244.62	8576.58
244.692	8575.23
244.763	8619.16
244.834	8611.46
244.906	8584.5
244.977	8600.1
245.048	8637.18
245.119	8626.54
245.191	8617.93
245.262	8565.23
245.333	8617.34
245.405	8635.39
245.476	8662.53
245.547	8676.87
245.618	8715.56
245.689	8722.69
245.761	8755.22
245.832	8759.51
245.903	8797.72
245.974	8820.01
246.045	8831.56
246.117	8894.42
246.188	8885.95
246.259	8875.89
246.33	8892.5
246.401	8907.08
246.473	8874.3
246.544	8862.21
246.615	8900.38
246.686	8902.93
246.757	8957.61
246.828	8945.38
246.899	8996.95
246.97	8970.97
247.042	8958.69
247.113	8989.12
247.184	9062.33
247.255	9052.61
247.326	9075.47
247.397	9075.96
247.468	9081.16
247.539	9086.74
247.61	9049.62
247.681	9078.06
247.752	9114.6
247.823	9095.73
247.894	9110.51
247.965	9093.52
248.037	9080.66
248.108	9041.14
248.179	9046.92
248.25	9035.89
248.321	9055.96
248.392	9019.94
248.463	9079.53
248.534	9088.49
248.605	9099.37
248.675	9076.73
248.746	9101.76
248.817	9111.1
248.888	9122.8
248.959	9080.97
249.03	9102.64
249.101	9107.59
249.172	9096.76
249.243	9046.04
249.314	9093.07
249.385	9094.71
249.456	9124.45
249.527	9116.84
249.598	9140.19
249.669	9133.4
249.739	9145.82
249.81	9154.2
249.881	9126.62
249.952	9121.37
250.023	9109.57
250.094	9073.89
250.165	9050.1
250.235	9043.07
250.306	9050.29
250.377	9030.51
250.448	9055.73
250.519	9006.14
250.59	9051.65
250.66	9051.26
250.731	9101.94
250.802	9103.58
250.873	9121.68
250.944	9132.28
251.014	9133.72
251.085	9195.66
251.156	9220.02
251.227	9256.96
251.297	9303.67
251.368	9338.62
251.439	9370.41
251.51	9411.68
251.58	9407.97
251.651	9408.4
251.722	9447.32
251.792	9411.16
251.863	9415.34
251.934	9455.75
252.005	9536.15
252.075	9544.29
252.146	9590.08
252.217	9624.18
252.287	9653.7
252.358	9658.47
252.429	9714.58
252.499	9705.15
252.57	9716.42
252.641	9748.44
252.711	9755.24
252.782	9718.39
252.852	9781.83
252.923	9783.47
252.994	9792.81
253.064	9828.2
253.135	9807.64
253.205	9790.69
253.276	9845.3
253.347	9898.31
253.417	9879.68
253.488	9868.36
253.558	9869.27
253.629	9865.75
253.699	9881.75
253.77	9901.16
253.841	9892.98
253.911	9900.2
253.982	9917.63
254.052	9939.56
254.123	9952.56
254.193	9957.29
254.264	10054.27
254.334	10027.14
254.405	9994.49
254.475	9973.2
254.546	9976.19
254.616	10023.29
254.687	10044.34
254.757	10056.53
254.827	10047.95
254.898	10069.1
254.968	10076.99
255.039	10055.27
255.109	10078.34
255.18	10054.07
255.25	10003.39
255.321	10029.98
255.391	9998.23
255.461	10061.96
255.532	10002.41
255.602	9990.03
255.673	9947.31
255.743	9917.28
255.813	9860.41
255.884	9904.77
255.954	9932.71
256.024	9978.76
256.095	9977.08
256.165	9957.33
256.235	9976.7
256.306	9971.79
256.376	10007.48
256.446	10032.68
256.517	10055.99
256.587	10095.65
256.657	10118.67
256.728	10129.36
256.798	10136.44
256.868	10139
256.938	10114.47
257.009	10145.55
257.079	10177.29
257.149	10256.35
257.219	10218.38
257.29	10251.8
257.36	10204.98
257.43	10228.73
257.5	10186.38
257.571	10188.26
257.641	10215.43
257.711	10182.38
257.781	10206.08
257.852	10217.11
257.922	10178.77
257.992	10178.82
258.062	10168.36
258.132	10196.79
258.202	10208.35
258.273	10215.67
258.343	10270.64
258.413	10260.48
258.483	10263.56
258.553	10240.97
258.623	10224.54
258.693	10242.51
258.764	10295.74
258.834	10352.29
258.904	10371.32
258.974	10362.89
259.044	10367.95
259.114	10389.15
259.184	10418.44
259.254	10427.5
259.324	10394.54
259.394	10427.74
259.464	10492.35
259.535	10497.75
259.605	10494.42
259.675	10490.52
259.745	10519.67
259.815	10497.89
259.885	10506.42
259.955	10591.96
260.025	10585.27
260.095	10589.32
260.165	10617.5
260.235	10665.17
260.305	10655.1
260.375	10635.82
260.445	10704.62
260.515	10752.18
260.585	10786.97
260.655	10794.78
260.725	10824.94
260.795	10851.01
260.865	10903.78
260.934	10880.26
261.004	10905.99
261.074	10906.09
261.144	10950.8
261.214	10972.24
261.284	10977.3
261.354	11004.24
261.424	10972.71
261.494	11024.6
261.564	11029.71
261.634	11049.57
261.703	10996.75
261.773	11022.72
261.843	11044.88
261.913	11037.66
261.983	11002.33
262.053	11017.27
262.123	11019.06
262.192	10990.72
262.262	11021.9
262.332	10992.27
262.402	11018.67
262.472	11025.28
262.541	10986.88
262.611	11023.99
262.681	11010.49
262.751	11040.23
262.821	11045.43
262.89	11020.9
262.96	11042.25
263.03	11105.53
263.1	11118.3
263.169	11134.54
263.239	11159.07
263.309	11211.27
263.379	11238.06
263.448	11248.86
263.518	11266.64
263.588	11275.75
263.657	11332.52
263.727	11359.85
263.797	11369.2
263.867	11370.02
263.936	11343.61
264.006	11389.09
264.076	11376.61
264.145	11377.47
264.215	11362.58
264.285	11391.79
264.354	11364.85
264.424	11358.82
264.494	11311.45
264.563	11306.82
264.633	11366
264.702	11377.43
264.772	11338.58
264.842	11341.76
264.911	11374.58
264.981	11340.74
265.05	11351.39
265.12	11351.87
265.19	11362.29
265.259	11389.61
265.329	11411.21
265.398	11429.04
265.468	11503.6
265.537	11509.19
265.607	11533.63
265.676	11578.01
265.746	11597.87
265.815	11639.46
265.885	11640.95
265.955	11636.91
266.024	11645.87
266.094	11598.2
266.163	11648.77
266.232	11696.77
266.302	11699.43
266.371	11715.09
266.441	11736.88
266.51	11775
266.58	11779.19
266.649	11769.6
266.719	11817.56
266.788	11842.87
266.858	11893.91
266.927	11843.98
266.996	11864.22
267.066	11893.43
267.135	11871.11
267.205	11901.58
267.274	11920.66
267.343	11966.36
267.413	11992.38
267.482	12033.74
267.552	12088.83
267.621	12059.04
267.69	12021.78
267.76	12039.81
267.829	12061.45
267.898	12080.06
267.968	12071.91
268.037	12104.78
268.106	12145.47
268.176	12116.98
268.245	12125.37
268.314	12123.1
268.384	12172.41
268.453	12193.57
268.522	12212.66
268.592	12261.06
268.661	12250.74
268.73	12280.34
268.799	12269.49
268.869	12322.03
268.938	12287.42
269.007	12281.4
269.076	12299.38
269.146	12347
269.215	12378.48
269.284	12435.6
269.353	12432.13
269.422	12438.15
269.492	12426.54
269.561	12366.43
269.63	12393.18
269.699	12392.7
269.768	12410.34
269.838	12426.54
269.907	12457.68
269.976	12434.11
270.045	12392.99
270.114	12427.36
270.183	12431.8
270.253	12460.57
270.322	12432.62
270.391	12461.1
270.46	12506.03
270.529	12540.16
270.598	12577.09
270.667	12579.06
270.736	12556.45
270.806	12586.39
270.875	12630.5
270.944	12646.31
271.013	12747.2
271.082	12773.95
271.151	12802.39
271.22	12779.16
271.289	12788.22
271.358	12787.16
271.427	12821.92
271.496	12854.6
271.565	12850.4
271.634	12869.2
271.703	12906.52
271.772	12955.11
271.841	12968.02
271.91	12948.69
271.979	12964.84
272.048	12938.96
272.117	12975.55
272.186	12977.67
272.255	13020.91
272.324	13055.86
272.393	13089.41
272.462	13075.52
272.531	13091.96
272.6	13101.99
272.669	13154.29
272.738	13156.7
272.807	13187.89
272.876	13174.35
272.945	13280.69
273.013	13330.49
273.082	13376.91
273.151	13375.66
273.22	13402.8
273.289	13427.33
273.358	13497.62
273.427	13506.73
273.496	13554.21
273.564	13589.6
273.633	13637.9
273.702	13624.59
273.771	13637.03
273.84	13651.49
273.909	13691.79
273.977	13720.48
274.046	13735.61
274.115	13792.79
274.184	13802.14
274.253	13819.16
274.322	13888.67
274.39	13843.5
274.459	13841.72
274.528	13812.98
274.597	13822.29
274.665	13848.08
274.734	13894.98
274.803	13903.08
274.872	13921.79
274.94	13922.7
275.009	14088.12
275.078	14082.05
275.147	14115.84
275.215	14140.33
275.284	14202.66
275.353	14217.17
275.421	14189.11
275.49	14256.89
275.559	14261.81
275.627	14285.48
275.696	14307.46
275.765	14327.13
275.833	14337.92
275.902	14373.93
275.971	14438.77
276.039	14514.21
276.108	14558.99
276.177	14585.75
276.245	14595.29
276.314	14623.49
276.383	14666.73
276.451	14546.29
276.52	14590.11
276.588	14648.38
276.657	14690.23
276.725	14699.91
276.794	14729.56
276.863	14810.64
276.931	14790.39
277	14837.87
277.068	14899.63
277.137	14973.57
277.205	15014.69
277.274	15097.69
277.342	15163.44
277.411	15147.58
277.48	15156.45
277.548	15161.7
277.617	15203.74
277.685	15220.27
277.754	15267.99
277.822	15287.8
277.89	15354.61
277.959	15378.56
278.027	15375.38
278.096	15382.13
278.164	15481.23
278.233	15493.09
278.301	15499.06
278.37	15554.16
278.438	15558.54
278.507	15592.38
278.575	15573.87
278.643	15595.47
278.712	15587.95
278.78	15578.79
278.849	15640.73
278.917	15697.89
278.985	15725.51
279.054	15760.22
279.122	15824.13
279.191	15844.61
279.259	15872.09
279.327	15844.62
279.396	15919.08
279.464	15939.71
279.532	15991.96
279.601	16016.68
279.669	16047.43
279.737	16107.73
279.806	16149.76
279.874	16216.08
279.942	16254.2
280.011	16263.99
280.079	16321.63
280.147	16393.5
280.215	16445.89
280.284	16473.55
280.352	16468.39
280.42	16524.21
280.488	16543.87
280.557	16565.27
280.625	16612.21
280.693	16646.53
280.761	16702.68
280.83	16701.76
280.898	16777.82
280.966	16766.01
281.034	16717.72
281.102	16720.8
281.171	16741.24
281.239	16798.01
281.307	16806.01
281.375	16810.44
281.443	16919.89
281.512	16934.59
281.58	16991.12
281.648	16984.76
281.716	17010.88
281.784	17053.54
281.852	17068.04
281.92	17099.37
281.989	17157.87
282.057	17145.01
282.125	17252.04
282.193	17289.73
282.261	17314.02
282.329	17329.1
282.397	17378.45
282.465	17421.54
282.533	17491.66
282.601	17505.45
282.67	17485.59
282.738	17497.01
282.806	17553.59
282.874	17554.7
282.942	17602.8
283.01	17623.33
283.078	17686.89
283.146	17735.57
283.214	17790.31
283.282	17834.6
283.35	17891.66
283.418	17914.69
283.486	17977.01
283.554	17946.16
283.622	17968.33
283.69	18009.39
283.758	18031.37
283.826	18082.4
283.894	18143.56
283.962	18230.06
284.03	18304.85
284.098	18348.75
284.165	18382.49
284.233	18428.84
284.301	18451.11
284.369	18469.18
284.437	18484.21
284.505	18501.76
284.573	18572.79
284.641	18586.96
284.709	18646.47
284.777	18649.89
284.845	18713.7
284.912	18755.86
284.98	18809.4
285.048	18842.41
285.116	18891.32
285.184	18964.86
285.252	19005.29
285.319	19006.45
285.387	19021.39
285.455	19017.05
285.523	19069.77
285.591	19110.78
285.659	19152.18
285.726	19223.35
285.794	19226.73
285.862	19262.48
285.93	19301.08
285.997	19327.49
286.065	19347.59
286.133	19362.48
286.201	19400.11
286.269	19394.72
286.336	19418.23
286.404	19436.35
286.472	19491.1
286.539	19468.93
286.607	19461.65
286.675	19503.1
286.743	19553.5
286.81	19573.07
286.878	19644.44
286.946	19662.65
287.013	19685.4
287.081	19716.43
287.149	19713.01
287.216	19800
287.284	19817.92
287.352	19844.96
287.419	19862.45
287.487	19943.99
287.555	19982.55
287.622	20009.1
287.69	20061.34
287.758	20123.89
287.825	20151.6
287.893	20163.46
287.96	20225.29
288.028	20298.11
288.096	20336.61
288.163	20385.62
288.231	20395.26
288.298	20428.61
288.366	20494.3
288.433	20536.18
288.501	20553.14
288.569	20594.2
288.636	20619.6
288.704	20696.04
288.771	20765.1
288.839	20781.87
288.906	20790.45
288.974	20845.25
289.041	20881.69
289.109	20887.33
289.176	20941.65
289.244	20992.64
289.311	21054.33
289.379	21118.81
289.446	21159.3
289.514	21195.16
289.581	21231.02
289.649	21280.52
289.716	21317.68
289.783	21330.84
289.851	21415.95
289.918	21448.73
289.986	21513.12
290.053	21561.95
290.121	21592.94
290.188	21635.03
290.255	21749.61
290.323	21778.81
290.39	21811.64
290.458	21863.89
290.525	21936.19
290.592	21962.08
290.66	22003.92
290.727	22022
290.794	22097.54
290.862	22134.85
290.929	22177.61
290.996	22222.82
291.064	22286.6
291.131	22356.94
291.198	22437.16
291.266	22465.41
291.333	22517.52
291.4	22571.09
291.468	22648.47
291.535	22665.44
291.602	22708.45
291.669	22717.75
291.737	22771.27
291.804	22810.66
291.871	22890.36
291.938	22943.59
292.006	23048.33
292.073	23117.38
292.14	23186.95
292.207	23195.97
292.275	23236.13
292.342	23290.38
292.409	23389.68
292.476	23482.47
292.543	23495.35
292.611	23527.51
292.678	23605.35
292.745	23705.46
292.812	23768.36
292.879	23786.88
292.946	23842.23
293.014	23901.89
293.081	23962.28
293.148	24034.95
293.215	24105.28
293.282	24124.57
293.349	24189.16
293.416	24172.37
293.484	24239.95
293.551	24306.81
293.618	24392.86
293.685	24491.18
293.752	24520.41
293.819	24550.08
293.886	24549.46
293.953	24606.13
294.02	24672.71
294.087	24732.93
294.154	24749.48
294.221	24817.23
294.288	24864.17
294.356	24956.71
294.423	25021.37
294.49	25044.29
294.557	25117.92
294.624	25128.11
294.691	25232.48
294.758	25273.79
294.825	25342.7
294.892	25371.26
294.959	25416.73
295.026	25475.37
295.093	25495.45
295.16	25540.03
295.226	25578.59
295.293	25696.48
295.36	25752.8
295.427	25816.81
295.494	25878.51
295.561	25944.15
295.628	26040.6
295.695	26119.24
295.762	26155.01
295.829	26221.84
295.896	26301.34
295.963	26355.17
296.03	26436.17
296.096	26482.48
296.163	26561.68
296.23	26636.86
296.297	26708.27
296.364	26739.55
296.431	26792.58
296.498	26823.91
296.564	26929.56
296.631	26985.53
296.698	26981.57
296.765	27068.45
296.832	27089.94
296.899	27117.04
296.965	27206.02
297.032	27192.24
297.099	27282.36
297.166	27351.53
297.233	27381.14
297.299	27411.76
297.366	27451.76
297.433	27493.98
297.5	27567.14
297.566	27607.73
297.633	27646.77
297.7	27699.92
297.767	27749.38
297.833	27811.62
297.9	27872.24
297.967	27880.7
298.033	27952.99
298.1	28067.93
298.167	28100.26
298.234	28148.52
298.3	28197.96
298.367	28224.88
298.434	28293.38
298.5	28296.62
298.567	28324.45
298.634	28369.16
298.7	28460.17
298.767	28507.49
298.834	28591.64
298.9	28600.3
298.967	28621.37
299.033	28685.77
299.1	28755.2
299.167	28828.24
299.233	28855.6
299.3	28933.34
299.366	29005.65
299.433	29072.49
299.5	29048.9
299.566	29088.83
299.633	29168.9
299.699	29245.65
299.766	29280.56
299.832	29325.79
299.899	29396.16
299.965	29459.9
300.032	29496.79
300.099	29548.4
300.165	29609.39
300.232	29630.92
300.298	29675.02
300.365	29740.7
300.431	29790.05
300.498	29810.46
300.564	29868.27
300.631	29931.84
300.697	29998.56
300.763	30047.56
300.83	30105.5
300.896	30180.68
300.963	30251.51
301.029	30312.43
301.096	30359.04
301.162	30427.02
301.229	30461.38
301.295	30489.11
301.361	30546.7
301.428	30589.85
301.494	30596.77
301.561	30638
301.627	30697.72
301.693	30747.85
301.76	30803.8
301.826	30830.23
301.892	30902.25
301.959	30961.94
302.025	30994.37
302.092	31004.39
302.158	31060.2
302.224	31083.15
302.291	31097.09
302.357	31116.31
302.423	31131.71
302.49	31156.69
302.556	31226.91
302.622	31270.48
302.688	31331.15
302.755	31410.97
302.821	31470.12
302.887	31529.76
302.954	31579.44
303.02	31633.87
303.086	31693.29
303.152	31727.81
303.219	31757.35
303.285	31806.9
303.351	31865.9
303.417	31906.05
303.483	31947.6
303.55	31965.71
303.616	32007.32
303.682	32066.3
303.748	32106.63
303.815	32183.9
303.881	32236.6
303.947	32240.18
304.013	32266.73
304.079	32279.18
304.145	32251.85
304.212	32280.86
304.278	32305.76
304.344	32324.55
304.41	32329.01
304.476	32339.48
304.542	32366.8
304.608	32426.14
304.674	32420.96
304.741	32427.6
304.807	32466.84
304.873	32508.75
304.939	32582
305.005	32562.81
305.071	32588.97
305.137	32625.7
305.203	32607.96
305.269	32634.52
305.335	32699.9
305.401	32732.75
305.467	32760.03
305.533	32825.93
305.599	32881.12
305.666	32933.74
305.732	32983.41
305.798	33050.04
305.864	33152.51
305.93	33190.75
305.996	33220.61
306.062	33261.75
306.128	33297.03
306.194	33300.91
306.259	33324.56
306.325	33343.81
306.391	33421.11
306.457	33476.26
306.523	33515.52
306.589	33600.06
306.655	33611.35
306.721	33584.11
306.787	33595.16
306.853	33673.16
306.919	33668.46
306.985	33688.92
307.051	33713.01
307.117	33719.31
307.183	33720.96
307.248	33671.6
307.314	33715.53
307.38	33747.28
307.446	33792.27
307.512	33807.4
307.578	33853.01
307.644	33871.29
307.709	33903.34
307.775	33911.39
307.841	33923.9
307.907	33953.23
307.973	33945.13
308.039	33982.22
308.104	34036.81
308.17	34070.35
308.236	34047.85
308.302	34086.83
308.368	34090.81
308.433	34119.85
308.499	34141.48
308.565	34157.09
308.631	34198.1
308.696	34172.41
308.762	34180.41
308.828	34196.36
308.894	34171.78
308.959	34162.09
309.025	34188.75
309.091	34203.35
309.156	34218.14
309.222	34262.76
309.288	34257.23
309.354	34225.48
309.419	34257.24
309.485	34254.58
309.551	34292.89
309.616	34308.94
309.682	34317.28
309.748	34326.05
309.813	34333.04
309.879	34342.69
309.945	34357.38
310.01	34385.51
310.076	34431.67
310.141	34441.66
310.207	34442.68
310.273	34486.7
310.338	34522
310.404	34505.52
310.469	34504.98
310.535	34512.84
310.601	34480.83
310.666	34525.74
310.732	34591.45
310.797	34595.23
310.863	34598.58
310.928	34621.57
310.994	34640.97
311.059	34673.03
311.125	34702.81
311.191	34767.52
311.256	34776.69
311.322	34816.51
311.387	34790.46
311.453	35511.04
311.518	35502.35
311.584	35538.69
311.649	35583.22
311.715	35591.65
311.78	35625.89
311.846	35632.97
311.911	35667.02
311.976	35696.46
312.042	35690.88
312.107	35671.73
312.173	35663.29
312.238	35692.43
312.304	35705.68
312.369	35714.85
312.434	35704.85
312.5	35724.26
312.565	35672.06
312.631	35701.64
312.696	35693.69
312.761	35727.3
312.827	35033.74
312.892	35131.6
312.958	35141.55
313.023	35158.1
313.088	35189.53
313.154	35197.14
313.219	35202.43
313.284	35215.39
313.35	35234.06
313.415	35231.05
313.48	35266.17
313.546	35309.74
313.611	35346.66
313.676	35338.75
313.741	35347.29
313.807	35404.1
313.872	35431.47
313.937	35464.45
314.003	35514.19
314.068	35549.94
314.133	35591.91
314.198	35594.87
314.264	35567.89
314.329	35561.82
314.394	35575.6
314.459	35588.27
314.525	35651.88
314.59	35679.48
314.655	35680.3
314.72	35719.32
314.785	35755.8
314.851	35767.98
314.916	35748.91
314.981	35736.78
315.046	35749.63
315.111	35753.52
315.176	35744.54
315.242	35782.59
315.307	35811.65
315.372	35785.98
315.437	35793.21
315.502	35793.45
315.567	35840.72
315.632	35821.45
315.698	35855.47
315.763	35860.08
315.828	35851.78
315.893	35856.49
315.958	35860.76
316.023	35845.53
316.088	35819.42
316.153	35779.78
316.218	35764.4
316.283	35723.13
316.348	35688.29
316.413	35697.08
316.479	35670.2
316.544	35580.13
316.609	35495.17
316.674	35397.23
316.739	35311.82
316.804	35219.75
316.869	35118.72
316.934	35023.73
316.999	34935.46
317.064	34800.09
317.129	34679.36
317.194	34565.36
317.259	34415.49
317.324	34255.16
317.389	34123.87
317.454	33993.91
317.518	33880.09
317.583	33784.32
317.648	33689.84
317.713	33570.6
317.778	33375.18
317.843	33256.18
317.908	33128.95
317.973	32992.9
318.038	32870.7
318.103	32742.12
318.168	32621.18
318.233	32496.23
318.297	32310.98
318.362	32171.42
318.427	32003.72
318.492	31885.71
318.557	31722.89
318.622	31606.17
318.687	31498.84
318.751	31343.41
318.816	31203.24
318.881	31071.42
318.946	30864.52
319.011	30691.77
319.075	30522.78
319.14	30367.72
319.205	30196.46
319.27	30054.82
319.335	29869.48
319.399	29715.99
319.464	29572.09
319.529	29363.6
319.594	29192.83
319.658	29054.64
319.723	28885.74
319.788	28751.9
319.853	28547.9
319.917	28392.3
319.982	28189.84
320.047	28022.09
320.112	27880.51
320.176	27670.13
320.241	27489.61
320.306	27332.61
320.37	27160.27
320.435	27001.89
320.5	26843.83
320.564	26665.72
320.629	26467.86
320.694	26315.15
320.758	26122.02
320.823	25924.47
320.888	25773.89
320.952	25574.22
321.017	25384.92
321.082	25193.67
321.146	25014.35
321.211	24842.03
321.275	24657.17
321.34	24448.87
321.405	24255.66
321.469	24049.49
321.534	23860.87
321.598	23653.1
321.663	23498.41
321.727	23332.7
321.792	23133.63
321.857	22949.86
321.921	22754.34
321.986	22565.22
322.05	22326.23
322.115	22141.69
322.179	21953.49
322.244	21730.5
322.308	21560.29
322.373	21356.25
322.437	21169.67
322.502	21024.67
322.566	20814.09
322.631	20643.23
322.695	20460.72
322.76	20258.6
322.824	20078.35
322.889	19884.81
322.953	19677.49
323.018	19411.89
323.082	19159.31
323.146	18933.87
323.211	18705.82
323.275	18505.83
323.34	18303.23
323.404	18118.07
323.468	17912.1
323.533	17696.91
323.597	17489.24
323.662	17267.31
323.726	17072.56
323.79	16857.94
323.855	16591.81
323.919	16370.35
323.983	16151.54
324.048	15842.76
324.112	15903.05
324.177	15255.06
324.241	14419.51
324.305	13600.42
324.37	12799.84
324.434	12012.03
324.498	11786.98
324.562	11538.58
324.627	11257
324.691	10978.37
324.755	10673.21
324.82	10315.95
324.884	9944.53
324.948	9560.58
325.012	9086.83
325.077	8529.15
