Data from 20250626_urea_1M_exp2_MAYP1162681_03-04-00-744.txt Node
Date: Fri Jun 27 03:04:00 BST 2025
User: adleo
Spectrometer: MAYP116268
Trigger mode: 0
Integration Time (sec): 3.000000E0
Scans to average: 1
Electric dark correction enabled: true
Nonlinearity correction enabled: true
Boxcar width: 10
XAxis mode: Wavelengths
Number of Pixels in Spectrum: 2068
>>>>>Begin Spectral Data<<<<<
179.565	2743.82
179.642	2885.29
179.718	2995.02
179.795	3098.48
179.871	3178.17
179.948	3229.76
180.024	3284.43
180.101	3342.46
180.177	3375.3
180.254	3429.86
180.33	3485.59
180.407	3673.76
180.483	3888.71
180.56	4105.35
180.636	4306.42
180.712	4277.23
180.789	4294.3
180.865	4324.85
180.942	4350.72
181.018	4376.02
181.095	4411.39
181.171	4423.16
181.248	4426.84
181.324	4467.38
181.4	4482.22
181.477	4510.84
181.553	4539.1
181.63	4591.61
181.706	4626.79
181.782	4655.57
181.859	4661.03
181.935	4680.42
182.011	4672.14
182.088	4711.01
182.164	4759.34
182.24	4790.06
182.317	4814.03
182.393	4811.59
182.469	4844.71
182.546	4877.7
182.622	4888.04
182.698	4880.19
182.775	4915.52
182.851	4946.21
182.927	4926.67
183.003	4915.71
183.08	4903.99
183.156	4929.07
183.232	4918.53
183.308	4893.98
183.385	4908.81
183.461	4948.66
183.537	4943.06
183.613	4978.31
183.69	4961.78
183.766	4937.01
183.842	4958.18
183.918	4973.07
183.995	5007.83
184.071	5019.09
184.147	5003.86
184.223	4977.4
184.299	5005.43
184.375	4976.12
184.452	4995.48
184.528	5095.09
184.604	5122.62
184.68	5151.88
184.756	5171.34
184.832	5181.64
184.908	5191.59
184.985	5192.64
185.061	5151.51
185.137	5176.13
185.213	5143.42
185.289	5143.03
185.365	5122.83
185.441	5111.28
185.517	5145.36
185.593	5136.98
185.669	5130.61
185.745	5154.66
185.822	5198.21
185.898	5176.03
185.974	5197.14
186.05	5177.06
186.126	5116.4
186.202	5096.53
186.278	5086.52
186.354	5061.17
186.43	5080.06
186.506	5075.46
186.582	5072.21
186.658	5088.72
186.734	5042.03
186.81	5048.97
186.886	5054
186.962	5084.84
187.038	5078.28
187.114	5059.34
187.19	5073.81
187.266	5047.23
187.341	5049.63
187.417	5031.62
187.493	5032.68
187.569	5043.27
187.645	5028.56
187.721	4996.8
187.797	5021.7
187.873	5031.57
187.949	5015.67
188.025	4996.64
188.101	5007.32
188.176	5017.13
188.252	5007.8
188.328	5028.04
188.404	5024.88
188.48	5015.55
188.556	4990.79
188.632	4992.7
188.707	4991.17
188.783	4987.96
188.859	4978.2
188.935	4951.85
189.011	4971.24
189.086	4957.64
189.162	4933.55
189.238	4928.67
189.314	4922.35
189.39	4900.27
189.465	4880.64
189.541	4922.93
189.617	4885.87
189.693	4874.72
189.768	4887.89
189.844	4946.21
189.92	4923.96
189.996	4949.78
190.071	4975.21
190.147	4981.05
190.223	5000.16
190.298	4981.62
190.374	4949.39
190.45	4977.97
190.526	5001.63
190.601	4986.5
190.677	4988.6
190.753	5062.67
190.828	5075.02
190.904	5114.74
190.98	5161.41
191.055	5190.05
191.131	5167.63
191.207	5221.7
191.282	5244.69
191.358	5216.24
191.433	5180.81
191.509	5210
191.585	5196.59
191.66	5200.52
191.736	5216.04
191.811	5195.73
191.887	5233.26
191.963	5291.66
192.038	5306.08
192.114	5301.77
192.189	5314.27
192.265	5303.93
192.34	5245.67
192.416	5239.11
192.491	5228.03
192.567	5234.75
192.642	5240.64
192.718	5241.27
192.793	5209.74
192.869	5199.58
192.944	5207.77
193.02	5225.79
193.095	5239.97
193.171	5259.61
193.246	5262.11
193.322	5257.79
193.397	5259.52
193.473	5228.27
193.548	5183.36
193.624	5198.27
193.699	5195.92
193.775	5233.5
193.85	5241.88
193.925	5263.54
194.001	5256.6
194.076	5237.05
194.152	5202.73
194.227	5184.71
194.302	5158.38
194.378	5167.81
194.453	5161.02
194.529	5194.75
194.604	5162.69
194.679	5146.17
194.755	5096.8
194.83	5123.17
194.905	5118.24
194.981	5140.13
195.056	5119.21
195.131	5133.91
195.207	5125.23
195.282	5101.43
195.357	5054.51
195.433	5092.69
195.508	5061.78
195.583	5084.91
195.659	5122.49
195.734	5137.34
195.809	5138.11
195.884	5161.28
195.96	5158.74
196.035	5195.82
196.11	5184.89
196.185	5212.82
196.261	5219.33
196.336	5297.52
196.411	5253.57
196.486	5266.65
196.561	5247.34
196.637	5273.44
196.712	5308.77
196.787	5319.51
196.862	5359.42
196.937	5383.95
197.013	5398.81
197.088	5422.29
197.163	5475.85
197.238	5517.37
197.313	5518.9
197.388	5547.47
197.464	5624.5
197.539	5655.22
197.614	5639.02
197.689	5666.54
197.764	5708.28
197.839	5761.02
197.914	5744.37
197.989	5808.1
198.065	5842.86
198.14	5974.48
198.215	6038.04
198.29	6071.07
198.365	6102.59
198.44	6128.3
198.515	6198.6
198.59	6231.62
198.665	6298.85
198.74	6321.41
198.815	6323.34
198.89	6382.69
198.965	6463.08
199.04	6451.41
199.115	6491.63
199.19	6593.95
199.265	6604.03
199.34	6631.21
199.415	6712.5
199.49	6766.45
199.565	6785.94
199.64	6844.91
199.715	6834.48
199.79	6850.38
199.865	6864.74
199.94	6859.75
200.015	6939.59
200.09	6948.77
200.165	6965.82
200.24	6980.95
200.315	7075.01
200.39	7114.94
200.464	7129.06
200.539	7121.85
200.614	7163.11
200.689	7216.6
200.764	7232.89
200.839	7274.91
200.914	7278.85
200.989	7254.62
201.063	7292.53
201.138	7253.41
201.213	7250.05
201.288	7200.46
201.363	7213.44
201.438	7212.62
201.512	7256.66
201.587	7208.12
201.662	7222.68
201.737	7251.13
201.812	7271.08
201.886	7195.81
201.961	7219.75
202.036	7190.03
202.111	7188.25
202.186	7110.76
202.26	7071.64
202.335	7020.85
202.41	7008.21
202.485	6969.8
202.559	6922.53
202.634	6853.69
202.709	6876.82
202.784	6831.15
202.858	6830.28
202.933	6781.83
203.008	6768.47
203.082	6717.04
203.157	6718.19
203.232	6608.19
203.306	6552.85
203.381	6472.69
203.456	6407.54
203.53	6343.67
203.605	6292.1
203.68	6233.18
203.754	6224.31
203.829	6184.99
203.904	6131.68
203.978	6099.85
204.053	6113.63
204.127	6080.47
204.202	6075.72
204.277	6032.02
204.351	6014.07
204.426	5994.25
204.5	5981.49
204.575	5892.73
204.65	5916.3
204.724	5895.65
204.799	5920.23
204.873	5915.87
204.948	5910.83
205.022	5887.05
205.097	5865.35
205.171	5904.19
205.246	5921.71
205.32	5915.2
205.395	5913.56
205.469	5892.24
205.544	5903.71
205.618	5854.97
205.693	5880.87
205.767	5844.81
205.842	5896.15
205.916	5881.81
205.991	5857.69
206.065	5865.32
206.14	5903.69
206.214	5887.56
206.289	5868.08
206.363	5896.24
206.438	5894.89
206.512	5917.49
206.586	5962.38
206.661	5987.35
206.735	5930.11
206.81	5934
206.884	5973.22
206.958	5942.87
207.033	5982.23
207.107	5997.69
207.181	6079.14
207.256	6066.42
207.33	6121.97
207.405	6151.75
207.479	6199.21
207.553	6224.39
207.628	6181.19
207.702	6209.97
207.776	6192.07
207.851	6204.26
207.925	6239.36
207.999	6234.66
208.073	6225.59
208.148	6235
208.222	6205.19
208.296	6284.65
208.371	6324.38
208.445	6349.63
208.519	6418.58
208.593	6452.32
208.668	6444.06
208.742	6446.71
208.816	6451.7
208.89	6478.07
208.965	6479.56
209.039	6501.27
209.113	6540.49
209.187	6601.55
209.261	6593.25
209.336	6651
209.41	6699.46
209.484	6701.29
209.558	6760.84
209.632	6797.52
209.707	6821.29
209.781	6872.29
209.855	6914.62
209.929	6963.53
210.003	6980.49
210.077	6984.77
210.151	7099.6
210.226	7192.23
210.3	7258.65
210.374	7316.18
210.448	7331.66
210.522	7354.01
210.596	7379.15
210.67	7404.62
210.744	7521.31
210.818	7604.51
210.892	7651.34
210.966	7637.31
211.041	7671.05
211.115	7662.5
211.189	7720.23
211.263	7761.86
211.337	7778.39
211.411	7812.29
211.485	7790.26
211.559	7822.32
211.633	7821.07
211.707	7742.32
211.781	7755.65
211.855	7671.02
211.929	7649.3
212.003	7600.98
212.077	7624.98
212.151	7657.3
212.225	7678.22
212.299	7644.29
212.373	7610.64
212.447	7600.59
212.52	7672.28
212.594	7682.62
212.668	7707.86
212.742	7671.65
212.816	7659.01
212.89	7644.34
212.964	7641.36
213.038	7649.25
213.112	7674.84
213.186	7710.07
213.26	7665.63
213.333	7546.13
213.407	7557.28
213.481	7563.86
213.555	7594.74
213.629	7565.88
213.703	7517.32
213.777	7508.8
213.85	7454.14
213.924	7542.4
213.998	7536.91
214.072	7512.43
214.146	7474.01
214.219	7466.47
214.293	7452.77
214.367	7454.93
214.441	7476.57
214.515	7439.01
214.588	7377.19
214.662	7287.51
214.736	7235.28
214.81	7240.51
214.883	7257.6
214.957	7220.43
215.031	7179.81
215.105	7111.32
215.178	7061.83
215.252	7029.84
215.326	6960.08
215.4	6906.59
215.473	6767.68
215.547	6702.52
215.621	6654.22
215.694	6655.7
215.768	6578.86
215.842	6533.34
215.915	6476.26
215.989	6393.75
216.063	6354.11
216.136	6334.23
216.21	6314.75
216.284	6321.33
216.357	6304.14
216.431	6275.06
216.504	6271.8
216.578	6314.77
216.652	6327.48
216.725	6309.76
216.799	6319.08
216.873	6301.04
216.946	6305.21
217.02	6276.63
217.093	6262.09
217.167	6192.32
217.24	6129.23
217.314	6107.27
217.387	6074.8
217.461	6045.58
217.535	6061.08
217.608	6014.3
217.682	5996.98
217.755	6004.56
217.829	5963.42
217.902	5951.91
217.976	5939.1
218.049	5911.52
218.123	5854.97
218.196	5853.77
218.27	5826.38
218.343	5777.43
218.417	5780.06
218.49	5759.78
218.563	5796.95
218.637	5800.07
218.71	5855.14
218.784	5876.73
218.857	5900.38
218.931	5919.22
219.004	5924.11
219.077	5939.14
219.151	5954.67
219.224	5948.63
219.298	5949.4
219.371	5981.98
219.444	5954.07
219.518	5962.71
219.591	5969.47
219.665	6047.5
219.738	6049.71
219.811	6038.83
219.885	6070.59
219.958	6091.03
220.031	6098.08
220.105	6109.07
220.178	6116.7
220.251	6096.73
220.325	6113.39
220.398	6124.38
220.471	6134.55
220.544	6163.39
220.618	6146.25
220.691	6165.88
220.764	6180.42
220.838	6199.62
220.911	6194.14
220.984	6261.8
221.057	6290.64
221.131	6310.98
221.204	6237.5
221.277	6295.4
221.35	6390.69
221.424	6388.67
221.497	6402.21
221.57	6421.06
221.643	6443.83
221.716	6476.63
221.79	6483.15
221.863	6494.87
221.936	6499.72
222.009	6513.97
222.082	6536.26
222.155	6541.78
222.229	6589.76
222.302	6612.76
222.375	6616.45
222.448	6640.7
222.521	6640.99
222.594	6640.18
222.667	6621.56
222.74	6668.65
222.814	6662.36
222.887	6644.68
222.96	6687.71
223.033	6715.24
223.106	6732.47
223.179	6757.36
223.252	6763.32
223.325	6781.85
223.398	6791.99
223.471	6814.66
223.544	6827.42
223.617	6832.33
223.69	6848.07
223.763	6819.39
223.837	6834.04
223.91	6856.95
223.983	6822.53
224.056	6798.81
224.129	6815.14
224.202	6859.53
224.275	6848.63
224.348	6828.32
224.42	6809.25
224.493	6766.11
224.566	6749.97
224.639	6768.17
224.712	6744.05
224.785	6736.17
224.858	6729.73
224.931	6715.22
225.004	6690.16
225.077	6692.9
225.15	6626.8
225.223	6627.61
225.296	6693.85
225.369	6650.64
225.442	6629.74
225.514	6641.79
225.587	6654.08
225.66	6662.58
225.733	6660.27
225.806	6668.15
225.879	6658.89
225.952	6631.67
226.025	6665.38
226.097	6707.54
226.17	6698.41
226.243	6651.75
226.316	6645.84
226.389	6655.68
226.461	6665.72
226.534	6675.37
226.607	6664.62
226.68	6730.38
226.753	6728.89
226.825	6662.42
226.898	6703.56
226.971	6705.73
227.044	6723.4
227.117	6730.84
227.189	6742.8
227.262	6771.54
227.335	6783.88
227.407	6786
227.48	6816.43
227.553	6823.25
227.626	6805.08
227.698	6808.01
227.771	6838.2
227.844	6827.39
227.916	6839.88
227.989	6814.19
228.062	6818.65
228.134	6881.45
228.207	6878.04
228.28	6872.47
228.352	6880.63
228.425	6892.26
228.498	6924.4
228.57	6912.88
228.643	6958.63
228.716	6958.15
228.788	6948.53
228.861	6949.49
228.934	6999.98
229.006	7001.86
229.079	7008.78
229.151	7002
229.224	6984.33
229.296	7007.24
229.369	7084.73
229.442	7122.61
229.514	7116.22
229.587	7149.03
229.659	7098.48
229.732	7108.76
229.804	7139.7
229.877	7202.1
229.949	7219.64
230.022	7255.27
230.094	7252.25
230.167	7241.24
230.239	7207.09
230.312	7198.05
230.384	7250.85
230.457	7246.95
230.529	7256.66
230.602	7247.14
230.674	7250.6
230.747	7274.61
230.819	7295.28
230.892	7210.01
230.964	7208.24
231.037	7233.4
231.109	7226.04
231.181	7255.97
231.254	7228.54
231.326	7216.53
231.399	7195.7
231.471	7181
231.544	7121.48
231.616	7154.29
231.688	7155.44
231.761	7149.97
231.833	7143.68
231.905	7067.63
231.978	7069.51
232.05	7057.5
232.122	7068.17
232.195	7048.7
232.267	7078.07
232.339	7060.14
232.412	7104.86
232.484	7081.26
232.556	7053.7
232.629	7107.21
232.701	7119.66
232.773	7132.39
232.846	7124.94
232.918	7132.49
232.99	7144.03
233.062	7177.96
233.135	7186.47
233.207	7166.28
233.279	7200.57
233.351	7224.84
233.424	7238.77
233.496	7214.69
233.568	7276.17
233.64	7250.65
233.713	7271.65
233.785	7271.41
233.857	7279.97
233.929	7241.24
234.001	7296.17
234.074	7351.5
234.146	7294.19
234.218	7289.29
234.29	7290.87
234.362	7286.65
234.434	7249.63
234.507	7222.96
234.579	7186.72
234.651	7173.46
234.723	7191.34
234.795	7203.02
234.867	7199.27
234.939	7237.09
235.012	7252.76
235.084	7252.42
235.156	7274.47
235.228	7254.63
235.3	7242.32
235.372	7253.48
235.444	7303.64
235.516	7239.2
235.588	7237.52
235.66	7248.91
235.732	7230.65
235.804	7374.22
235.876	7399.88
235.948	7449.69
236.02	7459.44
236.092	7474.38
236.164	7480.63
236.236	7480.58
236.308	7476.83
236.38	7495.44
236.452	7485.05
236.524	7503.17
236.596	7552.64
236.668	7577.45
236.74	7598.16
236.812	7614.02
236.884	7639.56
236.956	7642.88
237.028	7639.61
237.1	7627.11
237.172	7678.86
237.244	7740.64
237.316	7653.99
237.388	7648.41
237.46	7630.67
237.532	7676.05
237.604	7660.44
237.675	7721.56
237.747	7757.77
237.819	7748.21
237.891	7750.23
237.963	7738.84
238.035	7727.78
238.107	7647.06
238.178	7700.28
238.25	7709.75
238.322	7779.41
238.394	7750.22
238.466	7751.67
238.538	7783.92
238.609	7815.6
238.681	7782.41
238.753	7755.62
238.825	7767.5
238.897	7791.58
238.968	7851.97
239.04	7839.08
239.112	7923.94
239.184	7895.66
239.255	7892.29
239.327	7927.14
239.399	7939.21
239.471	7981.19
239.542	8014.22
239.614	8061.26
239.686	7997.27
239.758	8034.26
239.829	8008.46
239.901	8055.26
239.973	8067.04
240.044	8093.16
240.116	8101.52
240.188	8104.51
240.259	8119.66
240.331	8113.83
240.403	8140.53
240.474	8101.16
240.546	8094.96
240.618	8056.28
240.689	8050.7
240.761	8066.77
240.833	8113.53
240.904	8121.81
240.976	8119.59
241.048	8130.85
241.119	8160.54
241.191	8193.87
241.262	8241.91
241.334	8246.15
241.405	8247.26
241.477	8250.57
241.549	8255.63
241.62	8277.47
241.692	8316.05
241.763	8363.88
241.835	8380.05
241.906	8394.34
241.978	8375.34
242.049	8426.58
242.121	8471.08
242.192	8525.69
242.264	8496.25
242.335	8458.96
242.407	8488.7
242.478	8489.37
242.55	8504.77
242.621	8491.82
242.693	8492.88
242.764	8482.05
242.836	8481.8
242.907	8505.1
242.979	8526.51
243.05	8542.44
243.122	8563.18
243.193	8565.97
243.264	8513.62
243.336	8522.62
243.407	8545.14
243.479	8606.16
243.55	8617.95
243.622	8634.56
243.693	8625.65
243.764	8684.69
243.836	8671.37
243.907	8665.31
243.978	8666.17
244.05	8682.83
244.121	8648.19
244.192	8678.22
244.264	8642.07
244.335	8655.11
244.407	8614.98
244.478	8627.68
244.549	8625.61
244.62	8591.74
244.692	8586.78
244.763	8619.79
244.834	8603.37
244.906	8588.69
244.977	8595.68
245.048	8636.03
245.119	8609.46
245.191	8599.11
245.262	8549.02
245.333	8600.16
245.405	8617.78
245.476	8646.26
245.547	8660.9
245.618	8702.9
245.689	8705.17
245.761	8728.75
245.832	8728.32
245.903	8770.47
245.974	8791.89
246.045	8797.24
246.117	8864.14
246.188	8849.9
246.259	8839.8
246.33	8853.56
246.401	8863.09
246.473	8844.27
246.544	8832.18
246.615	8877.72
246.686	8886.81
246.757	8947.26
246.828	8932
246.899	8976.88
246.97	8953.02
247.042	8947.33
247.113	8980.6
247.184	9051.06
247.255	9051.4
247.326	9080.72
247.397	9080.77
247.468	9087.22
247.539	9102.53
247.61	9065.84
247.681	9107.91
247.752	9150.89
247.823	9134.39
247.894	9143.34
247.965	9118.65
248.037	9111.57
248.108	9074.89
248.179	9074.07
248.25	9064.73
248.321	9090.57
248.392	9051.23
248.463	9110.68
248.534	9106.2
248.605	9123.68
248.675	9102.29
248.746	9117.03
248.817	9123.19
248.888	9139.75
248.959	9098.93
249.03	9117.76
249.101	9124.16
249.172	9104.14
249.243	9044.74
249.314	9098.22
249.385	9109.63
249.456	9137.89
249.527	9127.53
249.598	9141.97
249.669	9145.68
249.739	9151.07
249.81	9159.3
249.881	9137.55
249.952	9132.25
250.023	9135.24
250.094	9101.77
250.165	9083.94
250.235	9077.11
250.306	9074.65
250.377	9048.7
250.448	9071.81
250.519	9024.34
250.59	9061.7
250.66	9063.53
250.731	9118.45
250.802	9114.36
250.873	9124.08
250.944	9136.46
251.014	9128.7
251.085	9192.81
251.156	9216.3
251.227	9254.1
251.297	9291
251.368	9326.38
251.439	9359.61
251.51	9393.51
251.58	9375.7
251.651	9368.33
251.722	9414.37
251.792	9384.66
251.863	9393.09
251.934	9442.16
252.005	9521.9
252.075	9533.6
252.146	9572.84
252.217	9609.25
252.287	9641.76
252.358	9649.32
252.429	9707.65
252.499	9704.81
252.57	9718.2
252.641	9749.8
252.711	9757.45
252.782	9727.4
252.852	9784.92
252.923	9778.56
252.994	9787.18
253.064	9821.94
253.135	9808.6
253.205	9792.56
253.276	9845.68
253.347	9890.08
253.417	9869.08
253.488	9855.49
253.558	9846.53
253.629	9849.18
253.699	9861.95
253.77	9885.27
253.841	9876.7
253.911	9883.68
253.982	9899.81
254.052	9918.84
254.123	9926.79
254.193	9929.15
254.264	10035
254.334	10013.61
254.405	9994.35
254.475	9970.94
254.546	9979.17
254.616	10021.94
254.687	10045.69
254.757	10065.49
254.827	10062.79
254.898	10078.49
254.968	10084.9
255.039	10065.3
255.109	10089.19
255.18	10061.25
255.25	10003.3
255.321	10025.98
255.391	9995.73
255.461	10055.41
255.532	9995.48
255.602	9988.64
255.673	9946.49
255.743	9913.1
255.813	9851.79
255.884	9885.03
255.954	9916.92
256.024	9964.56
256.095	9976.6
256.165	9947.46
256.235	9960.33
256.306	9953.83
256.376	9987.89
256.446	10018.53
256.517	10047.23
256.587	10084.86
256.657	10104.56
256.728	10125.46
256.798	10131.87
256.868	10132.02
256.938	10115.73
257.009	10152.87
257.079	10174.36
257.149	10254.81
257.219	10214.24
257.29	10251.41
257.36	10218.37
257.43	10245.4
257.5	10195.54
257.571	10184.21
257.641	10212.78
257.711	10186.95
257.781	10205.02
257.852	10220.39
257.922	10175.1
257.992	10177.03
258.062	10168.36
258.132	10197.84
258.202	10201.74
258.273	10214.17
258.343	10265.73
258.413	10248.82
258.483	10255.13
258.553	10231.91
258.623	10207.62
258.693	10226.46
258.764	10272.23
258.834	10318.32
258.904	10322.61
258.974	10314.14
259.044	10324.11
259.114	10350.56
259.184	10378.02
259.254	10393.25
259.324	10353.45
259.394	10387.07
259.464	10454.58
259.535	10459.16
259.605	10456.65
259.675	10447.45
259.745	10476.27
259.815	10458.73
259.885	10465.08
259.955	10547.98
260.025	10545.48
260.095	10555.21
260.165	10585.76
260.235	10634.82
260.305	10631.35
260.375	10619.21
260.445	10697.49
260.515	10745.05
260.585	10776.52
260.655	10780.04
260.725	10807.36
260.795	10831.31
260.865	10888.7
260.934	10853.95
261.004	10876.31
261.074	10880.51
261.144	10934.66
261.214	10966.56
261.284	10968.73
261.354	11003.27
261.424	10970.3
261.494	11020.75
261.564	11031.69
261.634	11039.11
261.703	10989.23
261.773	11010.87
261.843	11035.49
261.913	11023.68
261.983	10982.96
262.053	11002.97
262.123	10994.34
262.192	10972.61
262.262	11008.9
262.332	10970.73
262.402	11007.88
262.472	11011.45
262.541	10965.63
262.611	10998.07
262.681	10970.35
262.751	10997.97
262.821	11004.04
262.89	10975.55
262.96	10998.88
263.03	11051.65
263.1	11075.61
263.169	11096.95
263.239	11111.8
263.309	11166.45
263.379	11190.45
263.448	11209.82
263.518	11230.6
263.588	11252.91
263.657	11302.4
263.727	11329.01
263.797	11342.6
263.867	11337.92
263.936	11315.56
264.006	11369.38
264.076	11364.27
264.145	11374.24
264.215	11366.19
264.285	11392.65
264.354	11366.58
264.424	11357.81
264.494	11325.86
264.563	11323.16
264.633	11378.1
264.702	11397.48
264.772	11358.53
264.842	11356.31
264.911	11380.65
264.981	11351.54
265.05	11356.93
265.12	11356.69
265.19	11365.56
265.259	11393.32
265.329	11418.77
265.398	11440.75
265.468	11517.58
265.537	11514.64
265.607	11537.63
265.676	11580.86
265.746	11598.88
265.815	11645.77
265.885	11653.34
265.955	11647.99
266.024	11651.41
266.094	11603.31
266.163	11654.36
266.232	11705.31
266.302	11716.01
266.371	11731.91
266.441	11745.12
266.51	11788.5
266.58	11793.03
266.649	11789.27
266.719	11833.85
266.788	11861.67
266.858	11910.78
266.927	11855.25
266.996	11879.06
267.066	11902.73
267.135	11879.02
267.205	11913.58
267.274	11931.41
267.343	11975.08
267.413	11985.2
267.482	12029.02
267.552	12084.5
267.621	12049.79
267.69	12013.06
267.76	12034.31
267.829	12058.46
267.898	12076.83
267.968	12062.22
268.037	12089.26
268.106	12127.3
268.176	12102.28
268.245	12105.27
268.314	12108.11
268.384	12147.92
268.453	12158.87
268.522	12180.12
268.592	12227.84
268.661	12216.56
268.73	12236.33
268.799	12227.51
268.869	12290.7
268.938	12252.52
269.007	12243.46
269.076	12262.21
269.146	12306.56
269.215	12328.73
269.284	12385.08
269.353	12381.61
269.422	12388.75
269.492	12388.22
269.561	12329.99
269.63	12359.01
269.699	12364.5
269.768	12377.76
269.838	12399.11
269.907	12435.65
269.976	12415.98
270.045	12377.9
270.114	12410.01
270.183	12419.12
270.253	12444.91
270.322	12412.47
270.391	12438.98
270.46	12492.2
270.529	12528.54
270.598	12563.59
270.667	12571.69
270.736	12555.3
270.806	12581.04
270.875	12628.95
270.944	12639.51
271.013	12735.15
271.082	12764.17
271.151	12792.22
271.22	12765.28
271.289	12775.74
271.358	12777.23
271.427	12802.59
271.496	12824.61
271.565	12819.84
271.634	12847.22
271.703	12942.62
271.772	12999.22
271.841	13015.56
271.91	12995.94
271.979	13011.75
272.048	12987.93
272.117	13027.66
272.186	13022.06
272.255	13064.44
272.324	13095.34
272.393	13126.38
272.462	13119.25
272.531	13127.44
272.6	13131.97
272.669	13194.01
272.738	13209.54
272.807	13247.04
272.876	13246.13
272.945	13355.99
273.013	13410.17
273.082	13451.92
273.151	13386.98
273.22	13407.47
273.289	13430.08
273.358	13492.46
273.427	13502.82
273.496	13548.28
273.564	13577.11
273.633	13631.2
273.702	13621.8
273.771	13636.31
273.84	13656.6
273.909	13700.71
273.977	13733.06
274.046	13747.52
274.115	13791.73
274.184	13786.04
274.253	13806.57
274.322	13865.48
274.39	13822.34
274.459	13815.4
274.528	13780.06
274.597	13798.19
274.665	13820.94
274.734	13875.32
274.803	13884.67
274.872	13908.63
274.94	13906.07
275.009	14070.58
275.078	14065.56
275.147	14100.13
275.215	14119.89
275.284	14184.54
275.353	14190.18
275.421	14167.61
275.49	14250.43
275.559	14254.38
275.627	14285.57
275.696	14298.54
275.765	14327.08
275.833	14343.81
275.902	14386.27
275.971	14457.57
276.039	14525.4
276.108	14572.83
276.177	14595.34
276.245	14604.36
276.314	14622.87
276.383	14670.4
276.451	14556.6
276.52	14606.78
276.588	14669.98
276.657	14714.18
276.725	14710.47
276.794	14739.54
276.863	14813.82
276.931	14787.21
277	14841.97
277.068	14896.35
277.137	14971.3
277.205	15008.03
277.274	15089.93
277.342	15144.83
277.411	15133.36
277.48	15146.28
277.548	15153.61
277.617	15192.26
277.685	15214.58
277.754	15267.75
277.822	15285.06
277.89	15351.33
277.959	15357.64
278.027	15346.56
278.096	15363.62
278.164	15469.37
278.233	15499.16
278.301	15497.47
278.37	15543.7
278.438	15555.22
278.507	15599.52
278.575	15567.32
278.643	15593.68
278.712	15574.07
278.78	15578.11
278.849	15638.66
278.917	15691.63
278.985	15716.55
279.054	15749.23
279.122	15810.78
279.191	15835.65
279.259	15859.94
279.327	15845.24
279.396	15924.72
279.464	15950.8
279.532	15999.14
279.601	16023.24
279.669	16043.29
279.737	16118.33
279.806	16164.32
279.874	16217.19
279.942	16245.05
280.011	16275.03
280.079	16324.24
280.147	16404.44
280.215	16452.2
280.284	16472.4
280.352	16479.87
280.42	16539.63
280.488	16565.85
280.557	16593.18
280.625	16639.01
280.693	16687.84
280.761	16727.55
280.83	16716.22
280.898	16785.72
280.966	16774.83
281.034	16727.07
281.102	16727.45
281.171	16748.76
281.239	16799.46
281.307	16806.64
281.375	16816.37
281.443	16920.62
281.512	16946.98
281.58	17003.94
281.648	16999.46
281.716	17034.6
281.784	17067.22
281.852	17082.31
281.92	17110.41
281.989	17165.92
282.057	17156.38
282.125	17243.42
282.193	17280.52
282.261	17330.98
282.329	17346.55
282.397	17389.44
282.465	17441.64
282.533	17518.56
282.601	17523.38
282.67	17508.82
282.738	17532.1
282.806	17598.8
282.874	17596.49
282.942	17640.68
283.01	17661.01
283.078	17712.96
283.146	17746.94
283.214	17807.57
283.282	17847.9
283.35	17917.63
283.418	17935.8
283.486	17990.31
283.554	17976.19
283.622	18006.88
283.69	18031.94
283.758	18061.2
283.826	18116.71
283.894	18176.61
283.962	18257.62
284.03	18340.7
284.098	18393.18
284.165	18430.87
284.233	18471.93
284.301	18498.24
284.369	18508.5
284.437	18523.68
284.505	18550.38
284.573	18631.48
284.641	18642.66
284.709	18701.21
284.777	18685.22
284.845	18738.32
284.912	18791.62
284.98	18840.72
285.048	18867.18
285.116	18919.85
285.184	18993.1
285.252	19032.47
285.319	19033.39
285.387	19046.64
285.455	19033.87
285.523	19077.43
285.591	19098.68
285.659	19136.56
285.726	19204.9
285.794	19211.3
285.862	19245.71
285.93	19286.43
285.997	19307.83
286.065	19335.68
286.133	19342.67
286.201	19385.8
286.269	19385.51
286.336	19399
286.404	19415.34
286.472	19476.78
286.539	19465.46
286.607	19455.77
286.675	19493.41
286.743	19546.95
286.81	19576.15
286.878	19650.8
286.946	19658.27
287.013	19699.95
287.081	19719.18
287.149	19716.05
287.216	19809.35
287.284	19832.91
287.352	19864.04
287.419	19888.72
287.487	19962.35
287.555	20007.8
287.622	20036.76
287.69	20094.64
287.758	20159.89
287.825	20180.23
287.893	20183.75
287.96	20239.12
288.028	20309.53
288.096	20355.21
288.163	20398.54
288.231	20406.54
288.298	20442.44
288.366	20522.69
288.433	20554.11
288.501	20574.73
288.569	20622.49
288.636	20639.02
288.704	20708.23
288.771	20765.58
288.839	20774.6
288.906	20788.96
288.974	20844.63
289.041	20872.29
289.109	20886.84
289.176	20941.21
289.244	21007
289.311	21077.8
289.379	21137.51
289.446	21181.09
289.514	21215.5
289.581	21255.79
289.649	21297.34
289.716	21334.5
289.783	21350.65
289.851	21442.76
289.918	21499.53
289.986	21557.66
290.053	21611.02
290.121	21642.98
290.188	21687.47
290.255	21801.61
290.323	21833.14
290.39	21862.54
290.458	21924.52
290.525	21987.33
290.592	22014.47
290.66	22051.59
290.727	22074.44
290.794	22145.16
290.862	22178.47
290.929	22222.05
290.996	22259.07
291.064	22316.34
291.131	22383.35
291.198	22456.53
291.266	22480.06
291.333	22514.77
291.4	22565.2
291.468	22637.86
291.535	22668.72
291.602	22718.76
291.669	22734.91
291.737	22775.79
291.804	22815.57
291.871	22887.46
291.938	22945.22
292.006	23050.16
292.073	23108.5
292.14	23172.39
292.207	23194.14
292.275	23229.62
292.342	23282.38
292.409	23387.27
292.476	23477.74
292.543	23489.03
292.611	23528.14
292.678	23607.28
292.745	23710.72
292.812	23763.77
292.879	23788.85
292.946	23829.12
293.014	23894.52
293.081	23957.12
293.148	24035.68
293.215	24120.09
293.282	24145.8
293.349	24200.93
293.416	24184.05
293.484	24261.76
293.551	24327.36
293.618	24402.32
293.685	24496.34
293.752	24526.58
293.819	24551.24
293.886	24576.23
293.953	24632.66
294.02	24694.95
294.087	24745.95
294.154	24761.49
294.221	24839.27
294.288	24879.46
294.356	24968.57
294.423	25023.2
294.49	25043.07
294.557	25107.93
294.624	25121.87
294.691	25213.89
294.758	25260.5
294.825	25324.39
294.892	25343.07
294.959	25379.99
295.026	25441.52
295.093	25474.1
295.16	25524.53
295.226	25567.48
295.293	25651.72
295.36	25706.78
295.427	25775.48
295.494	25850.26
295.561	25908.32
295.628	26009.61
295.695	26095.15
295.762	26144.68
295.829	26213.24
295.896	26293.27
295.963	26358.51
296.03	26434.74
296.096	26488.43
296.163	26560.37
296.23	26640
296.297	26711.79
296.364	26757.42
296.431	26811.6
296.498	26851.53
296.564	26957.04
296.631	27009.2
296.698	27021.41
296.765	27122.21
296.832	27136.31
296.899	27153.22
296.965	27246.83
297.032	27234.55
297.099	27325.06
297.166	27391.96
297.233	27416.16
297.299	27444.37
297.366	27497.42
297.433	27538.77
297.5	27598.64
297.566	27642.94
297.633	27676.91
297.7	27739.33
297.767	27775.41
297.833	27836.06
297.9	27888.19
297.967	27885
298.033	27958.4
298.1	28076.72
298.167	28102.72
298.234	28164.33
298.3	28223.67
298.367	28236
298.434	28300.48
298.5	28299.42
298.567	28322.08
298.634	28366.06
298.7	28454.6
298.767	28498.74
298.834	28577.1
298.9	28611.47
298.967	28642.99
299.033	28707.14
299.1	28779.33
299.167	28857.01
299.233	28888.19
299.3	28952.73
299.366	29029.73
299.433	29098.07
299.5	29072.01
299.566	29105.27
299.633	29176.35
299.699	29238.64
299.766	29286.41
299.832	29324.04
299.899	29395.19
299.965	29459.36
300.032	29491.9
300.099	29555.55
300.165	29605.09
300.232	29622.55
300.298	29662.69
300.365	29729.44
300.431	29779.41
300.498	29805.15
300.564	29869.98
300.631	29942.6
300.697	30012.41
300.763	30053.48
300.83	30104.2
300.896	30184.31
300.963	30257.7
301.029	30324.01
301.096	30370.85
301.162	30435.15
301.229	30475.85
301.295	30497.53
301.361	30559.62
301.428	30617.43
301.494	30611.77
301.561	30656.92
301.627	30717.02
301.693	30768.37
301.76	30835.65
301.826	30871.86
301.892	30940.11
301.959	30995.45
302.025	31025.9
302.092	31054.56
302.158	31112.93
302.224	31142.27
302.291	31160.96
302.357	31185.79
302.423	31200.9
302.49	31229.07
302.556	31298.22
302.622	31341.31
302.688	31403.38
302.755	31464.74
302.821	31516.34
302.887	31584.11
302.954	31629.83
303.02	31688.62
303.086	31745.37
303.152	31756.75
303.219	31777.86
303.285	31823.54
303.351	31866.12
303.417	31895.42
303.483	31914.01
303.55	31942.92
303.616	31987.93
303.682	32026.18
303.748	32057.22
303.815	32123.59
303.881	32187.14
303.947	32200.22
304.013	32240.81
304.079	32257.33
304.145	32249.44
304.212	32288.91
304.278	32311.48
304.344	32332.8
304.41	32338.51
304.476	32349.75
304.542	32378.86
304.608	32430.21
304.674	32416.26
304.741	32435.54
304.807	32490.83
304.873	32557.3
304.939	32633.71
305.005	32620.82
305.071	32659.53
305.137	32702.79
305.203	32683.74
305.269	32707.59
305.335	32770.54
305.401	32798.26
305.467	32826.22
305.533	32879.57
305.599	32919.45
305.666	32964.56
305.732	32997.9
305.798	33057.07
305.864	33152.65
305.93	33205.28
305.996	33242.89
306.062	33299.98
306.128	33343.07
306.194	33332.36
306.259	33350.54
306.325	33354.7
306.391	33404.67
306.457	33452.02
306.523	33488.9
306.589	33582.32
306.655	33603.64
306.721	33585.22
306.787	33582.17
306.853	33654.01
306.919	33655.9
306.985	33678.06
307.051	33712.62
307.117	33735.35
307.183	33751.4
307.248	33707.62
307.314	33752.86
307.38	33784.81
307.446	33823.35
307.512	33824.37
307.578	33874.15
307.644	33895.53
307.709	33931.56
307.775	33961.23
307.841	33983
307.907	34016.7
307.973	33991.19
308.039	34024.74
308.104	34071.82
308.17	34118.89
308.236	34116.8
308.302	34153.16
308.368	34166.3
308.433	34184.97
308.499	34200.39
308.565	34209.94
308.631	34253.09
308.696	34218.57
308.762	34211.83
308.828	34226.76
308.894	34210.04
308.959	34186.43
309.025	34200.2
309.091	34223.04
309.156	34235.6
309.222	34282.16
309.288	34283.91
309.354	34265.97
309.419	34295.65
309.485	34298.9
309.551	34329.26
309.616	34313.74
309.682	34344.39
309.748	34346.77
309.813	34365
309.879	34380.18
309.945	34380.33
310.01	34399.24
310.076	34436.63
310.141	34463.01
310.207	34468.1
310.273	34511.59
310.338	34564.93
310.404	34551.16
310.469	34533.5
310.535	34546.45
310.601	34508.91
310.666	34546.7
310.732	34602.32
310.797	34598
310.863	34600.86
310.928	34620.6
310.994	34658.38
311.059	34672.5
311.125	34700.14
311.191	34760.68
311.256	34758.69
311.322	34814.37
311.387	34798.47
311.453	35680.22
311.518	35679
311.584	35702.39
311.649	35738.08
311.715	35735.81
311.78	35772.22
311.846	35794.29
311.911	35832.86
311.976	35871.08
312.042	35863.03
312.107	35859.44
312.173	35853.18
312.238	35873.11
312.304	35883.98
312.369	35895.14
312.434	35899.99
312.5	35918.47
312.565	35877.03
312.631	35913.02
312.696	35912.49
312.761	35942.22
312.827	35094.67
312.892	35179.53
312.958	35203.54
313.023	35228
313.088	35261.42
313.154	35265.98
313.219	35263.55
313.284	35268.36
313.35	35282.52
313.415	35289.31
313.48	35303.57
313.546	35348.5
313.611	35391.43
313.676	35394.54
313.741	35405.36
313.807	35441.46
313.872	35474.54
313.937	35503.46
314.003	35558.97
314.068	35582.01
314.133	35626.46
314.198	35635
314.264	35617.14
314.329	35614.86
314.394	35628.54
314.459	35645.33
314.525	35703.5
314.59	35730.28
314.655	35731.64
314.72	35774.34
314.785	35800.49
314.851	35812.91
314.916	35792.09
314.981	35783.99
315.046	35800.29
315.111	35800.58
315.176	35802.48
315.242	35828.2
315.307	35849.55
315.372	35833.77
315.437	35837.66
315.502	35832.03
315.567	35890.21
315.632	35879.49
315.698	35902.78
315.763	35927.29
315.828	35929.38
315.893	35939.52
315.958	35941.32
316.023	35929.58
316.088	35898.32
316.153	35859.12
316.218	35858.78
316.283	35832.98
316.348	35794.94
316.413	35781.6
316.479	35745.17
316.544	35651.26
316.609	35563.79
316.674	35459.26
316.739	35351.38
316.804	35263.64
316.869	35170.26
316.934	35063.57
316.999	34966.9
317.064	34814.42
317.129	34665.51
317.194	34543.1
317.259	34403.56
317.324	34257.82
317.389	34114.94
317.454	33984.88
317.518	33863.4
317.583	33764.77
317.648	33654.29
317.713	33526.42
317.778	33333.99
317.843	33217.37
317.908	33092.26
317.973	32967.86
318.038	32867.7
318.103	32737.63
318.168	32611.21
318.233	32487.51
318.297	32299.11
318.362	32161.23
318.427	32018.1
318.492	31911.72
318.557	31742.54
318.622	31614.24
318.687	31501.92
318.751	31361.97
318.816	31229.29
318.881	31099.08
318.946	30905.87
319.011	30731.53
319.075	30576.13
319.14	30436.41
319.205	30272.85
319.27	30129.7
319.335	29953.17
319.399	29786.35
319.464	29651.55
319.529	29449.98
319.594	29280.36
319.658	29135.01
319.723	28955.48
319.788	28815.72
319.853	28601.43
319.917	28448.58
319.982	28237.05
320.047	28064.31
320.112	27913.21
320.176	27708.6
320.241	27531.42
320.306	27368.85
320.37	27197.96
320.435	27035.51
320.5	26880.82
320.564	26692.38
320.629	26501.22
320.694	26356.07
320.758	26165.01
320.823	25968.24
320.888	25823.15
320.952	25612.8
321.017	25427.42
321.082	25240.66
321.146	25062.25
321.211	24888.41
321.275	24700.31
321.34	24508.9
321.405	24309.47
321.469	24103.06
321.534	23906.03
321.598	23698.02
321.663	23535.56
321.727	23371.68
321.792	23159.31
321.857	22961.02
321.921	22776.45
321.986	22586.11
322.05	22339.54
322.115	22155.23
322.179	21956.48
322.244	21730.2
322.308	21566.26
322.373	21366.32
322.437	21175.11
322.502	21020.28
322.566	20817.99
322.631	20642.66
322.695	20452.43
322.76	20252.62
322.824	20076.91
322.889	19877
322.953	19675.75
323.018	19410.25
323.082	19154.01
323.146	18938.06
323.211	18716.23
323.275	18508.96
323.34	18302.41
323.404	18115.76
323.468	17904.24
323.533	17702.22
323.597	17484.18
323.662	17250.1
323.726	17061.33
323.79	16846.23
323.855	16588.34
323.919	16370.69
323.983	16156.36
324.048	15843.1
324.112	15925.6
324.177	15271.07
324.241	14435.18
324.305	13611.65
324.37	12811.79
324.434	12025.57
324.498	11800.71
324.562	11553.47
324.627	11277.13
324.691	10995.06
324.755	10682.55
324.82	10327.82
324.884	9950.62
324.948	9576.98
325.012	9121.92
325.077	8551.17
