Data from 20250626_urea_1M_exp2_MAYP1162681_14-04-00-557.txt Node
Date: Fri Jun 27 14:04:00 BST 2025
User: adleo
Spectrometer: MAYP116268
Trigger mode: 0
Integration Time (sec): 3.000000E0
Scans to average: 1
Electric dark correction enabled: true
Nonlinearity correction enabled: true
Boxcar width: 10
XAxis mode: Wavelengths
Number of Pixels in Spectrum: 2068
>>>>>Begin Spectral Data<<<<<
179.565	3133.82
179.642	3294.4
179.718	3415.35
179.795	3537.84
179.871	3632.6
179.948	3683.92
180.024	3746.28
180.101	3813.16
180.177	3853.85
180.254	3916.56
180.33	3982.45
180.407	4198.08
180.483	4442.95
180.56	4687.89
180.636	4918.67
180.712	4884.13
180.789	4906.16
180.865	4941.29
180.942	4965.85
181.018	4997.17
181.095	5038.28
181.171	5053.23
181.248	5058.79
181.324	5101.77
181.4	5118.01
181.477	5148.15
181.553	5183.25
181.63	5241.95
181.706	5283.65
181.782	5307.68
181.859	5311.08
181.935	5324.22
182.011	5320.77
182.088	5364.38
182.164	5418.81
182.24	5453.79
182.317	5481.77
182.393	5477.93
182.469	5514.79
182.546	5548.72
182.622	5559.65
182.698	5545.7
182.775	5578.11
182.851	5615.26
182.927	5595.8
183.003	5578.45
183.08	5562.35
183.156	5590.29
183.232	5581.18
183.308	5551.12
183.385	5570.62
183.461	5612.72
183.537	5613.92
183.613	5649.36
183.69	5626.01
183.766	5598.71
183.842	5618.42
183.918	5633.76
183.995	5667.89
184.071	5677.73
184.147	5666.65
184.223	5638.53
184.299	5669.61
184.375	5638.44
184.452	5654.47
184.528	5765.66
184.604	5802.72
184.68	5839.21
184.756	5856.86
184.832	5867.32
184.908	5882.46
184.985	5882.8
185.061	5841.8
185.137	5868.86
185.213	5834.14
185.289	5841.38
185.365	5819.42
185.441	5808.25
185.517	5844.38
185.593	5831.86
185.669	5826.06
185.745	5857.48
185.822	5901.95
185.898	5883
185.974	5909.94
186.05	5892.05
186.126	5824.21
186.202	5800.76
186.278	5784.12
186.354	5758.7
186.43	5777.65
186.506	5772.53
186.582	5770.85
186.658	5789.3
186.734	5735.65
186.81	5744.09
186.886	5741.55
186.962	5774.44
187.038	5769.26
187.114	5746.31
187.19	5768.96
187.266	5742.63
187.341	5741.68
187.417	5719.48
187.493	5715.64
187.569	5724.47
187.645	5701.83
187.721	5669.55
187.797	5691.08
187.873	5703.88
187.949	5684.85
188.025	5667.34
188.101	5674.48
188.176	5689.87
188.252	5679.76
188.328	5701.94
188.404	5697
188.48	5688.14
188.556	5670.3
188.632	5668.81
188.707	5671.98
188.783	5667.04
188.859	5655.25
188.935	5622.11
189.011	5647.37
189.086	5631.32
189.162	5606.47
189.238	5604.03
189.314	5599.86
189.39	5583.89
189.465	5562.36
189.541	5610.31
189.617	5565.25
189.693	5546.27
189.768	5560.62
189.844	5624.14
189.92	5599.56
189.996	5624.4
190.071	5655.61
190.147	5651.92
190.223	5676.81
190.298	5652.16
190.374	5616.87
190.45	5649.51
190.526	5672.48
190.601	5662.74
190.677	5669.64
190.753	5751.72
190.828	5760.93
190.904	5799.54
190.98	5839.55
191.055	5868.95
191.131	5847.36
191.207	5905.72
191.282	5937.16
191.358	5906.52
191.433	5871.81
191.509	5906.89
191.585	5899.31
191.66	5907.14
191.736	5932.03
191.811	5906.84
191.887	5956.17
191.963	6020.51
192.038	6029.04
192.114	6028.37
192.189	6035.23
192.265	6022.34
192.34	5954.5
192.416	5954.59
192.491	5941.73
192.567	5953.16
192.642	5961.85
192.718	5962.85
192.793	5935.98
192.869	5928.7
192.944	5934.45
193.02	5952.83
193.095	5962.42
193.171	5979.74
193.246	5976.14
193.322	5961.85
193.397	5966.45
193.473	5925.85
193.548	5875.56
193.624	5893.55
193.699	5892.07
193.775	5932.91
193.85	5942.35
193.925	5964.66
194.001	5961.5
194.076	5935.89
194.152	5901.76
194.227	5880.7
194.302	5852.23
194.378	5857.79
194.453	5845.81
194.529	5879.82
194.604	5833.77
194.679	5821.73
194.755	5770
194.83	5801.54
194.905	5795.69
194.981	5818.81
195.056	5799.82
195.131	5814.88
195.207	5808.5
195.282	5780.69
195.357	5731.84
195.433	5771.12
195.508	5740.13
195.583	5762.72
195.659	5809.73
195.734	5830.99
195.809	5834.3
195.884	5859.46
195.96	5860.47
196.035	5906.04
196.11	5896.97
196.185	5932.22
196.261	5938.6
196.336	6022.01
196.411	5978
196.486	5992.73
196.561	5971.95
196.637	5998.28
196.712	6041.96
196.787	6054.15
196.862	6103.94
196.937	6123.75
197.013	6145.36
197.088	6172.65
197.163	6229.65
197.238	6270.05
197.313	6273.27
197.388	6308.21
197.464	6393.25
197.539	6431.69
197.614	6408.13
197.689	6433.14
197.764	6485.2
197.839	6540.07
197.914	6528.21
197.989	6594.9
198.065	6633.06
198.14	6772.02
198.215	6842.14
198.29	6874.43
198.365	6908.77
198.44	6934.08
198.515	7013.54
198.59	7040.97
198.665	7109.81
198.74	7130.38
198.815	7139.23
198.89	7199.19
198.965	7280.48
199.04	7261.98
199.115	7296.67
199.19	7416.69
199.265	7435.81
199.34	7459.8
199.415	7548.96
199.49	7606.73
199.565	7629.9
199.64	7701.28
199.715	7692.67
199.79	7713.15
199.865	7727.91
199.94	7727.38
200.015	7814.53
200.09	7828.95
200.165	7855.16
200.24	7876.22
200.315	7982.78
200.39	8022.46
200.464	8036.16
200.539	8035.97
200.614	8089.29
200.689	8153.13
200.764	8170.07
200.839	8210.93
200.914	8222.61
200.989	8195.57
201.063	8233.19
201.138	8186
201.213	8183.16
201.288	8131.31
201.363	8141.94
201.438	8139.97
201.512	8185.89
201.587	8135.18
201.662	8145.95
201.737	8180.16
201.812	8206.43
201.886	8119.64
201.961	8147.74
202.036	8111.49
202.111	8104.57
202.186	8019.68
202.26	7970.23
202.335	7908.13
202.41	7897.4
202.485	7852.84
202.559	7801.87
202.634	7728.48
202.709	7753.56
202.784	7703.08
202.858	7707.79
202.933	7654.04
203.008	7639.76
203.082	7581.06
203.157	7581.64
203.232	7464.75
203.306	7404.87
203.381	7314.76
203.456	7249.25
203.53	7184.73
203.605	7133.93
203.68	7069.6
203.754	7054.96
203.829	7014.88
203.904	6955.08
203.978	6916.1
204.053	6926.96
204.127	6890.12
204.202	6882.2
204.277	6837.24
204.351	6815.48
204.426	6791.83
204.5	6771.13
204.575	6675.07
204.65	6701.93
204.724	6675.25
204.799	6700.01
204.873	6688.43
204.948	6682.76
205.022	6646.91
205.097	6622.06
205.171	6657.06
205.246	6681.9
205.32	6679.12
205.395	6678.06
205.469	6660.26
205.544	6678.95
205.618	6626.89
205.693	6654.85
205.767	6620.61
205.842	6678.59
205.916	6659.87
205.991	6633.55
206.065	6647.05
206.14	6694.35
206.214	6675.7
206.289	6654.08
206.363	6685.25
206.438	6689.43
206.512	6708.11
206.586	6765.78
206.661	6791.73
206.735	6732.32
206.81	6732.7
206.884	6770.82
206.958	6733.81
207.033	6774.94
207.107	6790.75
207.181	6880.61
207.256	6871.15
207.33	6923.97
207.405	6962.26
207.479	7021.15
207.553	7042.52
207.628	7000.81
207.702	7024.77
207.776	7010.98
207.851	7022.7
207.925	7065.25
207.999	7057.13
208.073	7052.47
208.148	7056.79
208.222	7023.82
208.296	7114.81
208.371	7155.35
208.445	7188.75
208.519	7267.82
208.593	7303.66
208.668	7295.4
208.742	7298.23
208.816	7297.9
208.89	7335.26
208.965	7322.89
209.039	7343.09
209.113	7386.78
209.187	7442.86
209.261	7440.94
209.336	7496.93
209.41	7554.09
209.484	7547.94
209.558	7610.83
209.632	7647.55
209.707	7678.94
209.781	7737.98
209.855	7778.57
209.929	7829.35
210.003	7846.52
210.077	7844.5
210.151	7969.39
210.226	8069.62
210.3	8152.8
210.374	8226.17
210.448	8235.98
210.522	8264.42
210.596	8289.72
210.67	8312.81
210.744	8445.76
210.818	8534.73
210.892	8591.56
210.966	8575.54
211.041	8618.27
211.115	8604.99
211.189	8671.39
211.263	8722.54
211.337	8737.79
211.411	8780.82
211.485	8762.48
211.559	8781.77
211.633	8791.96
211.707	8711.41
211.781	8725.38
211.855	8623.73
211.929	8594.77
212.003	8545.91
212.077	8576.43
212.151	8611.04
212.225	8639.48
212.299	8607.41
212.373	8570.27
212.447	8556.3
212.52	8629.74
212.594	8643.8
212.668	8680.56
212.742	8634.79
212.816	8612.12
212.89	8594.85
212.964	8586.09
213.038	8592.63
213.112	8637.11
213.186	8670.36
213.26	8611.16
213.333	8479.71
213.407	8488.18
213.481	8496.26
213.555	8525.73
213.629	8484.62
213.703	8434.28
213.777	8424.17
213.85	8365.12
213.924	8456.68
213.998	8450.08
214.072	8432.7
214.146	8387.18
214.219	8368.75
214.293	8354.9
214.367	8355.38
214.441	8379.2
214.515	8340.07
214.588	8267.8
214.662	8161.54
214.736	8098.29
214.81	8113.24
214.883	8135.68
214.957	8100.83
215.031	8053.91
215.105	7980.11
215.178	7931.78
215.252	7901.24
215.326	7826.21
215.4	7763.64
215.473	7614.88
215.547	7548.31
215.621	7493.74
215.694	7494.85
215.768	7418.36
215.842	7367.99
215.915	7307.2
215.989	7211.29
216.063	7172.09
216.136	7159.21
216.21	7142.21
216.284	7151.72
216.357	7134.52
216.431	7096.8
216.504	7089.35
216.578	7129.82
216.652	7140.14
216.725	7121.06
216.799	7127.79
216.873	7106.99
216.946	7111.32
217.02	7083.04
217.093	7062.04
217.167	6982
217.24	6910.48
217.314	6881.05
217.387	6841.5
217.461	6806.58
217.535	6828.19
217.608	6768.44
217.682	6742.35
217.755	6752.68
217.829	6709.97
217.902	6689.36
217.976	6671.98
218.049	6642.78
218.123	6582.14
218.196	6577.05
218.27	6544.97
218.343	6482.9
218.417	6481.7
218.49	6460.33
218.563	6493.56
218.637	6500.86
218.71	6560.61
218.784	6584.34
218.857	6612.42
218.931	6632.96
219.004	6637.04
219.077	6653.24
219.151	6669.17
219.224	6665.14
219.298	6661.87
219.371	6699.49
219.444	6672.18
219.518	6682.4
219.591	6687.16
219.665	6775.46
219.738	6784.15
219.811	6772.54
219.885	6812.93
219.958	6837.43
220.031	6840.26
220.105	6855.78
220.178	6856.21
220.251	6834.15
220.325	6851.5
220.398	6855.54
220.471	6870.9
220.544	6904.38
220.618	6881.51
220.691	6904.28
220.764	6917.2
220.838	6938.05
220.911	6919.64
220.984	6982.37
221.057	7013.64
221.131	7035.25
221.204	6955.5
221.277	7021
221.35	7127.69
221.424	7120.29
221.497	7132.97
221.57	7157.13
221.643	7177.8
221.716	7211.64
221.79	7217.88
221.863	7226.2
221.936	7243.11
222.009	7257.62
222.082	7276.66
222.155	7286.22
222.229	7342.32
222.302	7369.57
222.375	7373.13
222.448	7407.11
222.521	7418.17
222.594	7419.9
222.667	7399.44
222.74	7444.8
222.814	7436.43
222.887	7413.34
222.96	7461.03
223.033	7489.74
223.106	7506.94
223.179	7534.89
223.252	7547.77
223.325	7567.48
223.398	7580.32
223.471	7603.68
223.544	7616.94
223.617	7631.51
223.69	7652.09
223.763	7616.16
223.837	7632.42
223.91	7654.24
223.983	7614.64
224.056	7580.57
224.129	7593.45
224.202	7637.94
224.275	7628.8
224.348	7602.99
224.42	7580.68
224.493	7533.08
224.566	7512.55
224.639	7527.26
224.712	7498.59
224.785	7488.25
224.858	7476.04
224.931	7462.44
225.004	7424.37
225.077	7424.71
225.15	7348.69
225.223	7342.29
225.296	7410.7
225.369	7360.38
225.442	7338.31
225.514	7348.73
225.587	7364.45
225.66	7378.49
225.733	7377.91
225.806	7382.62
225.879	7372.91
225.952	7343.6
226.025	7378.98
226.097	7419.29
226.17	7410.4
226.243	7358.26
226.316	7348.45
226.389	7356.34
226.461	7373.41
226.534	7390.03
226.607	7384.17
226.68	7452.83
226.753	7448.55
226.825	7378.85
226.898	7425.37
226.971	7424.36
227.044	7447.24
227.117	7452.1
227.189	7457.48
227.262	7482.44
227.335	7496.72
227.407	7498.98
227.48	7526.27
227.553	7542.38
227.626	7532.52
227.698	7541.27
227.771	7583.21
227.844	7575.23
227.916	7595.04
227.989	7561.29
228.062	7564.84
228.134	7637.13
228.207	7638.96
228.28	7635.69
228.352	7646.26
228.425	7654.58
228.498	7693.49
228.57	7678.97
228.643	7730.48
228.716	7734.28
228.788	7725.86
228.861	7725.76
228.934	7776.78
229.006	7780.43
229.079	7773.5
229.151	7762.49
229.224	7733.75
229.296	7749.71
229.369	7828.95
229.442	7870.03
229.514	7857.59
229.587	7896.87
229.659	7831.12
229.732	7838.19
229.804	7870.41
229.877	7932.66
229.949	7959.89
230.022	8001.23
230.094	8000.56
230.167	7989.06
230.239	7954.3
230.312	7946.46
230.384	7997.37
230.457	7990.68
230.529	8001.93
230.602	8010.4
230.674	8020.98
230.747	8057.41
230.819	8081.89
230.892	7987.62
230.964	7982.13
231.037	8008.32
231.109	7996.68
231.181	8030.82
231.254	8005.81
231.326	7999.71
231.399	7984.69
231.471	7953.95
231.544	7884.38
231.616	7922.7
231.688	7930.06
231.761	7918.91
231.833	7912.9
231.905	7847.57
231.978	7848.97
232.05	7834.78
232.122	7834.59
232.195	7809.72
232.267	7836.08
232.339	7815.11
232.412	7865.26
232.484	7846.15
232.556	7819.53
232.629	7872.75
232.701	7889.92
232.773	7895.4
232.846	7882.57
232.918	7883.19
232.99	7902.96
233.062	7940.48
233.135	7945.24
233.207	7918.64
233.279	7958.39
233.351	7985.57
233.424	7987.1
233.496	7968.59
233.568	8039.4
233.64	8008.76
233.713	8025.93
233.785	8022.66
233.857	8035.65
233.929	7996.17
234.001	8049.84
234.074	8106.08
234.146	8048.15
234.218	8041.66
234.29	8043.39
234.362	8036.61
234.434	7999.66
234.507	7972.1
234.579	7928.43
234.651	7912.85
234.723	7934.54
234.795	7949.02
234.867	7938.87
234.939	7986.39
235.012	7999.91
235.084	7999.47
235.156	8025.87
235.228	8006.4
235.3	7996.44
235.372	8006.88
235.444	8055.98
235.516	7989.42
235.588	7992.5
235.66	8001.11
235.732	7977.25
235.804	8133.92
235.876	8170.03
235.948	8222.24
236.02	8232.43
236.092	8247.34
236.164	8256.81
236.236	8260.32
236.308	8257.05
236.38	8282.12
236.452	8270.9
236.524	8282.06
236.596	8333.92
236.668	8363.13
236.74	8385.97
236.812	8404.74
236.884	8431.88
236.956	8437.13
237.028	8429.05
237.1	8416.01
237.172	8483.73
237.244	8549.74
237.316	8453.27
237.388	8436.34
237.46	8417.76
237.532	8465.68
237.604	8455.78
237.675	8520.65
237.747	8554.73
237.819	8543.96
237.891	8547.03
237.963	8535.39
238.035	8538.23
238.107	8450.76
238.178	8502.18
238.25	8508.92
238.322	8585.13
238.394	8548.61
238.466	8548.03
238.538	8585.5
238.609	8618.08
238.681	8564.84
238.753	8545.25
238.825	8562.39
238.897	8588.17
238.968	8654.47
239.04	8639.74
239.112	8735.6
239.184	8698.29
239.255	8697.28
239.327	8724.22
239.399	8736.88
239.471	8776.91
239.542	8805.21
239.614	8858.1
239.686	8791.96
239.758	8828
239.829	8798.58
239.901	8850.75
239.973	8868.65
240.044	8896.52
240.116	8905.71
240.188	8917.89
240.259	8930.5
240.331	8925.78
240.403	8963.9
240.474	8924.6
240.546	8915.27
240.618	8865.01
240.689	8866.31
240.761	8882.73
240.833	8936.4
240.904	8942.03
240.976	8941.51
241.048	8955.95
241.119	8982.38
241.191	9020.26
241.262	9077.67
241.334	9081.14
241.405	9080.42
241.477	9082.15
241.549	9086.34
241.62	9112.43
241.692	9160.52
241.763	9205.5
241.835	9219.95
241.906	9226.59
241.978	9199.01
242.049	9262.61
242.121	9312.48
242.192	9363.95
242.264	9337.37
242.335	9294.57
242.407	9329.58
242.478	9328.18
242.55	9346.14
242.621	9336.27
242.693	9328.61
242.764	9323.65
242.836	9325.14
242.907	9356.83
242.979	9383.17
243.05	9403.06
243.122	9424.92
243.193	9419.57
243.264	9367.19
243.336	9367.76
243.407	9391.7
243.479	9460.36
243.55	9472.83
243.622	9480.88
243.693	9478.47
243.764	9538.32
243.836	9528.84
243.907	9523.79
243.978	9528.94
244.05	9547.62
244.121	9512.14
244.192	9549.75
244.264	9509.72
244.335	9521.38
244.407	9475.01
244.478	9488.35
244.549	9480.01
244.62	9445.58
244.692	9448.52
244.763	9482.9
244.834	9474.09
244.906	9461.95
244.977	9474.38
245.048	9513.02
245.119	9503.77
245.191	9489.8
245.262	9428.99
245.333	9493.17
245.405	9505.59
245.476	9539.44
245.547	9551.34
245.618	9594.72
245.689	9604.36
245.761	9630.41
245.832	9632
245.903	9675.53
245.974	9696.92
246.045	9714.45
246.117	9776.67
246.188	9757.75
246.259	9742.63
246.33	9765.5
246.401	9773.64
246.473	9750.28
246.544	9736.21
246.615	9773.16
246.686	9782.74
246.757	9846.35
246.828	9816.97
246.899	9867.8
246.97	9833.18
247.042	9823.21
247.113	9859.58
247.184	9934.75
247.255	9935.47
247.326	9959.03
247.397	9966.73
247.468	9970.68
247.539	9976.17
247.61	9939.52
247.681	9979.49
247.752	10023.02
247.823	9996.25
247.894	10005.93
247.965	9978.92
248.037	9969.86
248.108	9933.49
248.179	9933.39
248.25	9932.62
248.321	9968.89
248.392	9935.5
248.463	10008.37
248.534	10015.74
248.605	10027.3
248.675	10002.44
248.746	10016.65
248.817	10029.46
248.888	10041.84
248.959	9998.4
249.03	10018.44
249.101	10027.54
249.172	10011.55
249.243	9957.81
249.314	10012.81
249.385	10023.7
249.456	10051.96
249.527	10039.82
249.598	10060.73
249.669	10060.15
249.739	10062.36
249.81	10065.3
249.881	10030.34
249.952	10022.96
250.023	10016.9
250.094	9976.28
250.165	9950.84
250.235	9940.87
250.306	9944.72
250.377	9915.77
250.448	9942.26
250.519	9888.8
250.59	9932.98
250.66	9934.76
250.731	9988.94
250.802	9988.5
250.873	10002.14
250.944	10022.08
251.014	10018.23
251.085	10087.61
251.156	10110.92
251.227	10155.64
251.297	10197.55
251.368	10237.68
251.439	10267.84
251.51	10306.19
251.58	10295.79
251.651	10291.35
251.722	10338.96
251.792	10299.98
251.863	10301.67
251.934	10348.4
252.005	10441.62
252.075	10453.33
252.146	10487.77
252.217	10523.52
252.287	10557.92
252.358	10566.4
252.429	10623.55
252.499	10623.84
252.57	10631.46
252.641	10664.27
252.711	10672.03
252.782	10637.86
252.852	10704.46
252.923	10708.41
252.994	10721.76
253.064	10762.75
253.135	10747.19
253.205	10729.8
253.276	10787.76
253.347	10839.06
253.417	10817.67
253.488	10800.51
253.558	10788.27
253.629	10788.95
253.699	10808.76
253.77	10835.94
253.841	10824.66
253.911	10832.28
253.982	10847.12
254.052	10872.08
254.123	10881.82
254.193	10882.88
254.264	10992.52
254.334	10963.12
254.405	10934.74
254.475	10911.7
254.546	10917.68
254.616	10963.84
254.687	10990.63
254.757	11009.67
254.827	11017.28
254.898	11033.28
254.968	11044.17
255.039	11030
255.109	11059.2
255.18	11036.65
255.25	10976.12
255.321	11004.6
255.391	10969.18
255.461	11039.63
255.532	10978.42
255.602	10971.63
255.673	10919.44
255.743	10891
255.813	10832.37
255.884	10871.31
255.954	10896.8
256.024	10949.91
256.095	10951.06
256.165	10920.51
256.235	10939.31
256.306	10921.58
256.376	10964.18
256.446	10994.73
256.517	11025.38
256.587	11061.38
256.657	11075.07
256.728	11088.56
256.798	11096.17
256.868	11096.75
256.938	11067.88
257.009	11103.06
257.079	11133.57
257.149	11222.14
257.219	11179.68
257.29	11210.9
257.36	11165.99
257.43	11193.6
257.5	11140.73
257.571	11138.18
257.641	11172.3
257.711	11145.02
257.781	11178.94
257.852	11197.69
257.922	11151.52
257.992	11148.83
258.062	11141.07
258.132	11171.19
258.202	11177.31
258.273	11184.01
258.343	11237.02
258.413	11223.05
258.483	11225.36
258.553	11198.56
258.623	11170.27
258.693	11189.11
258.764	11250.32
258.834	11309.73
258.904	11319.61
258.974	11308.58
259.044	11316.44
259.114	11337.06
259.184	11358.8
259.254	11362.37
259.324	11312.97
259.394	11347.18
259.464	11417.55
259.535	11425.17
259.605	11424.11
259.675	11415.67
259.745	11450.71
259.815	11437.7
259.885	11439.05
259.955	11526.83
260.025	11524.03
260.095	11540.42
260.165	11558.69
260.235	11602.6
260.305	11583.08
260.375	11567.61
260.445	11638.45
260.515	11691.18
260.585	11733.5
260.655	11741.31
260.725	11780.54
260.795	11812.11
260.865	11871.98
260.934	11840.5
261.004	11870
261.074	11880.07
261.144	11932.8
261.214	11958.54
261.284	11957.62
261.354	11999.84
261.424	11964.22
261.494	12015.06
261.564	12020.07
261.634	12045.86
261.703	11999.83
261.773	12027.11
261.843	12055.21
261.913	12051.3
261.983	12015.15
262.053	12025.57
262.123	12020.41
262.192	11985.08
262.262	12020.22
262.332	11975.68
262.402	12001.03
262.472	12010.19
262.541	11950.86
262.611	11988.61
262.681	11967.49
262.751	12003.6
262.821	12000.61
262.89	11973.57
262.96	12004.27
263.03	12069.73
263.1	12091.38
263.169	12105.74
263.239	12129.6
263.309	12185.37
263.379	12216.46
263.448	12234.49
263.518	12257.24
263.588	12274.64
263.657	12334.51
263.727	12364.16
263.797	12374.61
263.867	12376.21
263.936	12338.56
264.006	12395.14
264.076	12392.1
264.145	12393.55
264.215	12372.39
264.285	12406.13
264.354	12375.86
264.424	12359.28
264.494	12313.14
264.563	12299.6
264.633	12350.84
264.702	12368.14
264.772	12315.79
264.842	12307.74
264.911	12330.11
264.981	12291.3
265.05	12298.1
265.12	12290.53
265.19	12301.04
265.259	12340.57
265.329	12364
265.398	12389.21
265.468	12464.21
265.537	12458.96
265.607	12485.95
265.676	12530.69
265.746	12546.54
265.815	12593.88
265.885	12601.49
265.955	12589.54
266.024	12594.51
266.094	12547.7
266.163	12597.3
266.232	12653.99
266.302	12660.69
266.371	12680.55
266.441	12700.65
266.51	12740.23
266.58	12744.09
266.649	12731.12
266.719	12770.46
266.788	12798.71
266.858	12853.18
266.927	12793.55
266.996	12816.16
267.066	12842.24
267.135	12813.41
267.205	12852.31
267.274	12868.17
267.343	12911.7
267.413	12927.75
267.482	12982.9
267.552	13041.57
267.621	13002.28
267.69	12969.59
267.76	12989.6
267.829	13007.19
267.898	13022.86
267.968	13008.06
268.037	13035.15
268.106	13080.95
268.176	13060.65
268.245	13066.78
268.314	13066.92
268.384	13124.29
268.453	13147.52
268.522	13165.69
268.592	13221.08
268.661	13195.92
268.73	13221.03
268.799	13201.7
268.869	13260.8
268.938	13213.18
269.007	13206.43
269.076	13229.04
269.146	13268.95
269.215	13299.95
269.284	13363.77
269.353	13366.23
269.422	13369.27
269.492	13364.79
269.561	13294.4
269.63	13311.9
269.699	13309.25
269.768	13317.3
269.838	13331.14
269.907	13360.64
269.976	13341.07
270.045	13296.77
270.114	13341.17
270.183	13348.44
270.253	13376.16
270.322	13347.87
270.391	13377.03
270.46	13432.76
270.529	13469.49
270.598	13510.32
270.667	13512.83
270.736	13485.3
270.806	13505.84
270.875	13558.09
270.944	13568.41
271.013	13676.34
271.082	13707.73
271.151	13736.84
271.22	13707.44
271.289	13723.39
271.358	13731.06
271.427	13760.56
271.496	13784.66
271.565	13778.06
271.634	13795.8
271.703	13911.92
271.772	13963.36
271.841	13976.18
271.91	13947.45
271.979	13957.14
272.048	13927.16
272.117	13967.84
272.186	13964.32
272.255	14006.7
272.324	14037.79
272.393	14072.3
272.462	14061.94
272.531	14072.98
272.6	14074.71
272.669	14136.76
272.738	14142.11
272.807	14168.43
272.876	14158.35
272.945	14268.26
273.013	14316.03
273.082	14361.78
273.151	14273.52
273.22	14302.1
273.289	14319.56
273.358	14387.14
273.427	14396.83
273.496	14442.04
273.564	14469.81
273.633	14519.51
273.702	14508.09
273.771	14521.05
273.84	14546.75
273.909	14580.25
273.977	14616.45
274.046	14635.2
274.115	14684.32
274.184	14677.38
274.253	14683.4
274.322	14738.02
274.39	14695.02
274.459	14686.15
274.528	14655.79
274.597	14682.83
274.665	14708.23
274.734	14764.25
274.803	14775.43
274.872	14796.88
274.94	14799.15
275.009	14972.5
275.078	14966.77
275.147	14997.72
275.215	15024.52
275.284	15075.18
275.353	15078.31
275.421	15039.27
275.49	15114.56
275.559	15119.47
275.627	15146.03
275.696	15162.76
275.765	15192.6
275.833	15200.22
275.902	15246.88
275.971	15313.49
276.039	15379.82
276.108	15413.27
276.177	15440.26
276.245	15439.78
276.314	15465.52
276.383	15505.87
276.451	15375.31
276.52	15419.99
276.588	15484.53
276.657	15526.37
276.725	15530.95
276.794	15568.69
276.863	15646.34
276.931	15618.34
277	15669.48
277.068	15726.02
277.137	15814.18
277.205	15846.28
277.274	15944.51
277.342	16009.53
277.411	15988.03
277.48	15994.2
277.548	16005.38
277.617	16041.29
277.685	16068.77
277.754	16120.29
277.822	16136.2
277.89	16205.6
277.959	16222.95
278.027	16207.72
278.096	16216.92
278.164	16325.85
278.233	16333.9
278.301	16337.99
278.37	16389.23
278.438	16390.43
278.507	16439.45
278.575	16402.58
278.643	16424.41
278.712	16390.87
278.78	16377.71
278.849	16436.61
278.917	16499.65
278.985	16523.03
279.054	16555.27
279.122	16615.85
279.191	16635.95
279.259	16658.22
279.327	16631.61
279.396	16710.94
279.464	16738.08
279.532	16788.15
279.601	16812.58
279.669	16839.38
279.737	16917.6
279.806	16964.49
279.874	17024.74
279.942	17048.16
280.011	17074.04
280.079	17138.09
280.147	17228.7
280.215	17277.85
280.284	17306.53
280.352	17300.17
280.42	17361.04
280.488	17375.83
280.557	17388.17
280.625	17429.9
280.693	17468.7
280.761	17521.95
280.83	17515.69
280.898	17590.53
280.966	17575.01
281.034	17521.28
281.102	17522.15
281.171	17525.09
281.239	17579.21
281.307	17585.57
281.375	17595.25
281.443	17701.42
281.512	17723.78
281.58	17771.49
281.648	17765.95
281.716	17803.49
281.784	17839.44
281.852	17848.45
281.92	17886.72
281.989	17949.9
282.057	17945.12
282.125	18060.2
282.193	18087.91
282.261	18119.96
282.329	18132.83
282.397	18176.34
282.465	18231.57
282.533	18307.09
282.601	18316.97
282.67	18293.31
282.738	18311.33
282.806	18373.64
282.874	18363.38
282.942	18397.88
283.01	18411.57
283.078	18454.65
283.146	18480.87
283.214	18537.73
283.282	18593.34
283.35	18656.95
283.418	18671.5
283.486	18715.45
283.554	18671.65
283.622	18702.49
283.69	18735.36
283.758	18759.36
283.826	18811.35
283.894	18861.86
283.962	18959.15
284.03	19043.68
284.098	19086.23
284.165	19110.56
284.233	19145.31
284.301	19169.69
284.369	19186.66
284.437	19205.4
284.505	19235.81
284.573	19310.94
284.641	19318.6
284.709	19356.86
284.777	19348.19
284.845	19416.28
284.912	19476.09
284.98	19532.42
285.048	19556.71
285.116	19608.9
285.184	19678.77
285.252	19717.71
285.319	19710.82
285.387	19716.99
285.455	19706.48
285.523	19760.65
285.591	19787.68
285.659	19824.98
285.726	19893.22
285.794	19894.09
285.862	19929.13
285.93	19968.3
285.997	19992.45
286.065	20010.33
286.133	20023.82
286.201	20058.57
286.269	20052.78
286.336	20058.71
286.404	20087.43
286.472	20147.87
286.539	20124.69
286.607	20113.94
286.675	20145.41
286.743	20199.24
286.81	20213.75
286.878	20283.48
286.946	20294.52
287.013	20338.03
287.081	20369.7
287.149	20363.62
287.216	20452.35
287.284	20468.01
287.352	20503.09
287.419	20528.25
287.487	20611.19
287.555	20662.86
287.622	20678.23
287.69	20729.13
287.758	20793.8
287.825	20809.8
287.893	20812.65
287.96	20870.62
288.028	20945.86
288.096	20984.51
288.163	21028.13
288.231	21036.61
288.298	21068.66
288.366	21130.74
288.433	21157.3
288.501	21165.06
288.569	21220.87
288.636	21237.45
288.704	21315.72
288.771	21382.48
288.839	21397.52
288.906	21415.88
288.974	21475.56
289.041	21509.44
289.109	21512.14
289.176	21576.4
289.244	21626.53
289.311	21700.66
289.379	21758.5
289.446	21794.03
289.514	21828.16
289.581	21866.53
289.649	21920.37
289.716	21962.79
289.783	21987.47
289.851	22079.2
289.918	22126.97
289.986	22181.92
290.053	22232.35
290.121	22252.59
290.188	22281.76
290.255	22402.67
290.323	22426.78
290.39	22446.06
290.458	22512.68
290.525	22594.88
290.592	22599.31
290.66	22639.33
290.727	22661.12
290.794	22737.97
290.862	22779.15
290.929	22831.46
290.996	22875.09
291.064	22936.9
291.131	23001.71
291.198	23065.36
291.266	23090.96
291.333	23136.62
291.4	23189.57
291.468	23262.82
291.535	23299.9
291.602	23339.39
291.669	23342.33
291.737	23392.28
291.804	23428.45
291.871	23494.51
291.938	23542.65
292.006	23660
292.073	23719.41
292.14	23776.99
292.207	23787.31
292.275	23817.45
292.342	23879.34
292.409	23963.17
292.476	24055.4
292.543	24063.41
292.611	24112.08
292.678	24194.9
292.745	24289.29
292.812	24342.12
292.879	24361.27
292.946	24400.58
293.014	24469.27
293.081	24524.12
293.148	24596.33
293.215	24674.53
293.282	24698.7
293.349	24758.34
293.416	24738.79
293.484	24811.99
293.551	24870.36
293.618	24962.28
293.685	25069.21
293.752	25087.4
293.819	25126.15
293.886	25127.55
293.953	25184.67
294.02	25240.36
294.087	25291.96
294.154	25306.48
294.221	25389.03
294.288	25443.6
294.356	25528.63
294.423	25588.24
294.49	25608.7
294.557	25682.5
294.624	25689.16
294.691	25791
294.758	25832.85
294.825	25906.46
294.892	25926.58
294.959	25970.03
295.026	26016.28
295.093	26045.35
295.16	26087.24
295.226	26127.79
295.293	26233.06
295.36	26285.82
295.427	26360.91
295.494	26431.85
295.561	26499.73
295.628	26590.61
295.695	26662.7
295.762	26713.6
295.829	26786.72
295.896	26883.87
295.963	26943.53
296.03	27023.25
296.096	27066.91
296.163	27145.31
296.23	27216.46
296.297	27298.41
296.364	27350.81
296.431	27414.77
296.498	27441.48
296.564	27544.5
296.631	27595.17
296.698	27598.11
296.765	27695.51
296.832	27704.69
296.899	27712.18
296.965	27805.53
297.032	27792.38
297.099	27886.62
297.166	27944.56
297.233	27979.84
297.299	27988.34
297.366	28021.73
297.433	28061.64
297.5	28130.52
297.566	28171.75
297.633	28205.44
297.7	28251.16
297.767	28278.94
297.833	28331.82
297.9	28381.16
297.967	28383.14
298.033	28462.42
298.1	28577.53
298.167	28592.23
298.234	28657.63
298.3	28729.99
298.367	28745.75
298.434	28801.11
298.5	28807.21
298.567	28829.49
298.634	28846.51
298.7	28937.87
298.767	28986.76
298.834	29056.43
298.9	29073.01
298.967	29076.54
299.033	29141.69
299.1	29220.52
299.167	29303.44
299.233	29321.57
299.3	29396.48
299.366	29477.37
299.433	29543.46
299.5	29511.53
299.566	29556.55
299.633	29625.97
299.699	29683.87
299.766	29716.13
299.832	29769.06
299.899	29835.06
299.965	29920.38
300.032	29950.08
300.099	30010.8
300.165	30063.29
300.232	30101.76
300.298	30154.05
300.365	30238.66
300.431	30287.2
300.498	30298.72
300.564	30353.44
300.631	30424.38
300.697	30494.9
300.763	30527.66
300.83	30560.14
300.896	30639.64
300.963	30720.99
301.029	30772.89
301.096	30821.83
301.162	30893.98
301.229	30925.59
301.295	30931.74
301.361	30964.27
301.428	31014.39
301.494	31013.09
301.561	31061.74
301.627	31104.09
301.693	31140.39
301.76	31191.13
301.826	31211.13
301.892	31286.42
301.959	31340.79
302.025	31371.78
302.092	31392.46
302.158	31461.88
302.224	31510.12
302.291	31531.91
302.357	31554.81
302.423	31580.72
302.49	31606.97
302.556	31676.23
302.622	31703.79
302.688	31773.13
302.755	31864.05
302.821	31931.69
302.887	31995.32
302.954	32039.93
303.02	32096.64
303.086	32150.78
303.152	32173.07
303.219	32204.59
303.285	32248.92
303.351	32303.82
303.417	32346.49
303.483	32373.43
303.55	32390.09
303.616	32420.23
303.682	32452.19
303.748	32471.42
303.815	32548.23
303.881	32599.25
303.947	32595.03
304.013	32645.71
304.079	32672.16
304.145	32642.6
304.212	32682.91
304.278	32694.39
304.344	32712.51
304.41	32733.11
304.476	32753.79
304.542	32791.64
304.608	32846.92
304.674	32841.44
304.741	32860.64
304.807	32916.13
304.873	32961.44
304.939	33040.73
305.005	33033.84
305.071	33067.76
305.137	33112.39
305.203	33083.4
305.269	33112.63
305.335	33179.76
305.401	33195.12
305.467	33211.31
305.533	33271.89
305.599	33322.59
305.666	33382.15
305.732	33419.28
305.798	33477.4
305.864	33584.98
305.93	33620.22
305.996	33648.24
306.062	33696.08
306.128	33716.39
306.194	33712.08
306.259	33737.33
306.325	33739.42
306.391	33808.3
306.457	33854.88
306.523	33885.67
306.589	33982.25
306.655	34007.03
306.721	34001.99
306.787	34000.44
306.853	34078.45
306.919	34072.54
306.985	34090.82
307.051	34100.22
307.117	34109.82
307.183	34110.11
307.248	34053.91
307.314	34103.9
307.38	34144.49
307.446	34191.24
307.512	34207.14
307.578	34244.24
307.644	34265.47
307.709	34303.64
307.775	34309.75
307.841	34340.64
307.907	34373.42
307.973	34344.56
308.039	34364.93
308.104	34403.23
308.17	34474.02
308.236	34458.75
308.302	34504.08
308.368	34496.86
308.433	34539.58
308.499	34569.89
308.565	34591.08
308.631	34637.78
308.696	34600.1
308.762	34599.56
308.828	34617.22
308.894	34597.29
308.959	34573.19
309.025	34584.01
309.091	34617.24
309.156	34635.13
309.222	34673.31
309.288	34679.22
309.354	34654.64
309.419	34676.85
309.485	34675.55
309.551	34697.57
309.616	34698.93
309.682	34720.46
309.748	34739.18
309.813	34759.6
309.879	34767.12
309.945	34768.82
310.01	34781.09
310.076	34831.09
310.141	34848.99
310.207	34819.06
310.273	34858.92
310.338	34910.91
310.404	34895.63
310.469	34866.48
310.535	34878.46
310.601	34836.65
310.666	34874.24
310.732	34940.2
310.797	34943.89
310.863	34951.7
310.928	34971.84
310.994	35008.46
311.059	35029.27
311.125	35048.19
311.191	35103.11
311.256	35111.12
311.322	35158.56
311.387	35131.35
311.453	35966.34
311.518	35955.62
311.584	36010.15
311.649	36056.62
311.715	36061.77
311.78	36100.71
311.846	36107.89
311.911	36154.37
311.976	36202.1
312.042	36198.71
312.107	36185.51
312.173	36195.22
312.238	36214.57
312.304	36233.98
312.369	36234.27
312.434	36232.77
312.5	36250.47
312.565	36184.73
312.631	36223.06
312.696	36219.95
312.761	36275.25
312.827	35469.95
312.892	35566.56
312.958	35575.64
313.023	35593.16
313.088	35606.89
313.154	35601.06
313.219	35615.67
313.284	35609.75
313.35	35628.28
313.415	35630.71
313.48	35650.36
313.546	35685.92
313.611	35724.16
313.676	35717.12
313.741	35717.8
313.807	35768.08
313.872	35804.08
313.937	35855.12
314.003	35900.69
314.068	35933.93
314.133	35959.94
314.198	35958.78
314.264	35934.51
314.329	35940.82
314.394	35951.35
314.459	35970.56
314.525	36045.48
314.59	36061.3
314.655	36062.32
314.72	36097.11
314.785	36119.82
314.851	36127
314.916	36099.78
314.981	36098.28
315.046	36089.49
315.111	36103.85
315.176	36087.35
315.242	36116.91
315.307	36135.16
315.372	36105.94
315.437	36111.81
315.502	36119.53
315.567	36164.81
315.632	36150.59
315.698	36182.77
315.763	36203.59
315.828	36207.23
315.893	36219.32
315.958	36238.34
316.023	36229.07
316.088	36195.54
316.153	36158.56
316.218	36157.93
316.283	36120.19
316.348	36074.15
316.413	36085.45
316.479	36041.31
316.544	35962.23
316.609	35875.18
316.674	35776.69
316.739	35684.52
316.804	35588.76
316.869	35480.28
316.934	35385.76
316.999	35293.5
317.064	35136.71
317.129	34996.61
317.194	34879
317.259	34728.85
317.324	34570.77
317.389	34433.78
317.454	34313.89
317.518	34208.18
317.583	34110.85
317.648	34024.55
317.713	33908.48
317.778	33718.62
317.843	33612.94
317.908	33471.33
317.973	33336.58
318.038	33240.18
318.103	33107.03
318.168	32995.32
318.233	32883.91
318.297	32697.37
318.362	32559.71
318.427	32411.51
318.492	32299.49
318.557	32134.5
318.622	32010.58
318.687	31904.05
318.751	31749.94
318.816	31604.5
318.881	31465.34
318.946	31269.37
319.011	31095.14
319.075	30926.88
319.14	30782.82
319.205	30611.09
319.27	30478.08
319.335	30302.25
319.399	30118.8
319.464	29989.44
319.529	29770.94
319.594	29602.92
319.658	29471.9
319.723	29302.48
319.788	29158.3
319.853	28952.58
319.917	28805.58
319.982	28603.48
320.047	28432.05
320.112	28294.45
320.176	28095.62
320.241	27925.49
320.306	27772.84
320.37	27610.01
320.435	27459.66
320.5	27311.4
320.564	27137.61
320.629	26945.69
320.694	26794.68
320.758	26621.61
320.823	26432.22
320.888	26297.24
320.952	26088.68
321.017	25900.46
321.082	25709.02
321.146	25555.19
321.211	25392.21
321.275	25210.2
321.34	25012.38
321.405	24823.86
321.469	24624.41
321.534	24436.23
321.598	24222.96
321.663	24065.82
321.727	23889.76
321.792	23680.06
321.857	23489.92
321.921	23307.78
321.986	23123.54
322.05	22890.9
322.115	22704.78
322.179	22507.83
322.244	22272.52
322.308	22105.77
322.373	21903.97
322.437	21718.24
322.502	21557.6
322.566	21354.47
322.631	21184.38
322.695	20999.11
322.76	20794.75
322.824	20614.26
322.889	20411.99
322.953	20203.5
323.018	19934.09
323.082	19673.26
323.146	19453.46
323.211	19219.19
323.275	19009.22
323.34	18791.68
323.404	18615.88
323.468	18399.54
323.533	18184.8
323.597	17979.49
323.662	17753.32
323.726	17567.88
323.79	17355.34
323.855	17089.94
323.919	16866.94
323.983	16643.66
324.048	16328.29
324.112	16484.24
324.177	15833.68
324.241	14975.96
324.305	14136.43
324.37	13308.96
324.434	12509.38
324.498	12287.46
324.562	12040.42
324.627	11760.13
324.691	11490.4
324.755	11170.49
324.82	10823.53
324.884	10455.26
324.948	10076.43
325.012	9613.2
325.077	9036.77
