Data from 20250626_urea_1M_exp2_MAYP1162681_22-43-59-006.txt Node
Date: Thu Jun 26 22:43:59 BST 2025
User: adleo
Spectrometer: MAYP116268
Trigger mode: 0
Integration Time (sec): 3.000000E0
Scans to average: 1
Electric dark correction enabled: true
Nonlinearity correction enabled: true
Boxcar width: 10
XAxis mode: Wavelengths
Number of Pixels in Spectrum: 2068
>>>>>Begin Spectral Data<<<<<
179.565	2867.43
179.642	3019.19
179.718	3133
179.795	3243.97
179.871	3330.63
179.948	3383.67
180.024	3445.18
180.101	3507.17
180.177	3541.12
180.254	3601.86
180.33	3659.02
180.407	3854.57
180.483	4076.65
180.56	4303.44
180.636	4514.89
180.712	4485.54
180.789	4507.6
180.865	4542.52
180.942	4564.9
181.018	4595.29
181.095	4632.11
181.171	4649.96
181.248	4656.56
181.324	4698.61
181.4	4711.34
181.477	4739.26
181.553	4769.25
181.63	4816.37
181.706	4852.19
181.782	4879.31
181.859	4880.85
181.935	4898.37
182.011	4894.78
182.088	4940.23
182.164	4989.92
182.24	5015.15
182.317	5037.65
182.393	5031.86
182.469	5064.42
182.546	5100.39
182.622	5108.54
182.698	5095.7
182.775	5133.88
182.851	5162.81
182.927	5144.66
183.003	5134.31
183.08	5119.61
183.156	5148.64
183.232	5144.81
183.308	5120.38
183.385	5139.01
183.461	5178.96
183.537	5175.61
183.613	5206.99
183.69	5185
183.766	5160.12
183.842	5188.29
183.918	5204.53
183.995	5239.88
184.071	5247.36
184.147	5236.1
184.223	5210.78
184.299	5241.88
184.375	5205.75
184.452	5228.05
184.528	5330.1
184.604	5359.8
184.68	5392.66
184.756	5405.03
184.832	5414.28
184.908	5428.07
184.985	5428.5
185.061	5389.45
185.137	5412.79
185.213	5380.74
185.289	5382.61
185.365	5361.15
185.441	5351.75
185.517	5385.94
185.593	5373.68
185.669	5364.62
185.745	5384.94
185.822	5427.03
185.898	5407
185.974	5431.57
186.05	5403.47
186.126	5338.04
186.202	5319.5
186.278	5306.75
186.354	5282.5
186.43	5297.75
186.506	5291.04
186.582	5284.81
186.658	5305.98
186.734	5257.08
186.81	5266.47
186.886	5272.5
186.962	5303.55
187.038	5292.48
187.114	5270.46
187.19	5289.78
187.266	5266.98
187.341	5271.91
187.417	5251.22
187.493	5254
187.569	5267.28
187.645	5253.67
187.721	5228.74
187.797	5251.21
187.873	5260.22
187.949	5247.58
188.025	5231.71
188.101	5242.29
188.176	5257
188.252	5242.39
188.328	5265.37
188.404	5262.97
188.48	5252.05
188.556	5234.47
188.632	5240.93
188.707	5240.74
188.783	5238.1
188.859	5228.53
188.935	5197.47
189.011	5219.13
189.086	5203.75
189.162	5178.02
189.238	5176.72
189.314	5165.56
189.39	5148.36
189.465	5132.84
189.541	5174.43
189.617	5137.07
189.693	5120.98
189.768	5134.11
189.844	5197.2
189.92	5174.75
189.996	5195.54
190.071	5225.35
190.147	5217.49
190.223	5237.05
190.298	5222.53
190.374	5188.65
190.45	5219.35
190.526	5240.77
190.601	5230.76
190.677	5231.76
190.753	5307.26
190.828	5317.08
190.904	5352.11
190.98	5390.27
191.055	5421.32
191.131	5397.93
191.207	5447.09
191.282	5468.79
191.358	5442.29
191.433	5405.21
191.509	5439.74
191.585	5433.65
191.66	5437.1
191.736	5466.48
191.811	5443.66
191.887	5479.58
191.963	5539.44
192.038	5556.41
192.114	5561.88
192.189	5569.69
192.265	5561.5
192.34	5497.55
192.416	5493.24
192.491	5488.25
192.567	5495.78
192.642	5498.18
192.718	5498.9
192.793	5475.27
192.869	5465.16
192.944	5469.52
193.02	5485.44
193.095	5497.28
193.171	5515.83
193.246	5513.19
193.322	5502.26
193.397	5502.36
193.473	5471.47
193.548	5424.35
193.624	5433.31
193.699	5428.42
193.775	5467.46
193.85	5472.58
193.925	5495.31
194.001	5488.56
194.076	5464.54
194.152	5434.48
194.227	5414.44
194.302	5391.97
194.378	5395.9
194.453	5390.15
194.529	5427.4
194.604	5390.78
194.679	5372.67
194.755	5322.84
194.83	5353.68
194.905	5352.29
194.981	5374.1
195.056	5351.39
195.131	5369.22
195.207	5363.7
195.282	5336.11
195.357	5287.68
195.433	5325.29
195.508	5296.48
195.583	5321.88
195.659	5367.76
195.734	5383.3
195.809	5382.1
195.884	5401.83
195.96	5403.89
196.035	5445.59
196.11	5434.27
196.185	5459.91
196.261	5465.8
196.336	5545.33
196.411	5503.89
196.486	5512.76
196.561	5496.84
196.637	5523.82
196.712	5565.84
196.787	5573.8
196.862	5613.58
196.937	5635.48
197.013	5651.84
197.088	5676.62
197.163	5727.38
197.238	5764.01
197.313	5766.22
197.388	5801.8
197.464	5885.82
197.539	5916.94
197.614	5898.53
197.689	5926.64
197.764	5975.44
197.839	6032.14
197.914	6017.36
197.989	6078.81
198.065	6116.08
198.14	6247.33
198.215	6310.52
198.29	6339.34
198.365	6376.87
198.44	6405.66
198.515	6478.68
198.59	6514.3
198.665	6585.16
198.74	6610.42
198.815	6615.56
198.89	6676.68
198.965	6753.73
199.04	6740.81
199.115	6782.29
199.19	6893.83
199.265	6902.38
199.34	6924.95
199.415	7007.67
199.49	7060.64
199.565	7084.8
199.64	7145.91
199.715	7136.58
199.79	7155.08
199.865	7167.95
199.94	7161.33
200.015	7245.19
200.09	7260.19
200.165	7279.55
200.24	7297.28
200.315	7393.49
200.39	7431.42
200.464	7447.27
200.539	7449.01
200.614	7490.62
200.689	7548.26
200.764	7563.46
200.839	7606.55
200.914	7620.44
200.989	7592.88
201.063	7632.02
201.138	7587.55
201.213	7587.64
201.288	7541.16
201.363	7551.35
201.438	7552.7
201.512	7592.57
201.587	7544.35
201.662	7558.39
201.737	7585.45
201.812	7602.14
201.886	7521.79
201.961	7544.98
202.036	7509.52
202.111	7496.39
202.186	7418.2
202.26	7368.72
202.335	7313.97
202.41	7305.17
202.485	7260.54
202.559	7208.75
202.634	7136.37
202.709	7155.96
202.784	7103.68
202.858	7104.93
202.933	7059.39
203.008	7038.97
203.082	6990.55
203.157	6986.37
203.232	6874.49
203.306	6819.42
203.381	6731.93
203.456	6667.28
203.53	6603.87
203.605	6556.55
203.68	6497.66
203.754	6479.77
203.829	6444.04
203.904	6390.56
203.978	6355.74
204.053	6372.21
204.127	6341.78
204.202	6332.62
204.277	6293.69
204.351	6276.03
204.426	6255.62
204.5	6235.94
204.575	6146.77
204.65	6171.36
204.724	6153.82
204.799	6173
204.873	6165.56
204.948	6163.88
205.022	6141.24
205.097	6121.55
205.171	6158.11
205.246	6181.16
205.32	6180.68
205.395	6175.06
205.469	6153.01
205.544	6168.23
205.618	6113.18
205.693	6142.36
205.767	6112.33
205.842	6163.79
205.916	6148.29
205.991	6122.47
206.065	6137.45
206.14	6179.82
206.214	6169.35
206.289	6147.45
206.363	6180.18
206.438	6191.27
206.512	6214.98
206.586	6259.22
206.661	6284.15
206.735	6224.73
206.81	6224.44
206.884	6260.37
206.958	6230.92
207.033	6270.92
207.107	6285.86
207.181	6373.96
207.256	6359.76
207.33	6409.18
207.405	6442.01
207.479	6491.06
207.553	6507.23
207.628	6465.55
207.702	6497.08
207.776	6478.54
207.851	6487.18
207.925	6523.16
207.999	6508.61
208.073	6499.06
208.148	6508.14
208.222	6474.66
208.296	6556.75
208.371	6598.51
208.445	6625.07
208.519	6697.45
208.593	6731.64
208.668	6723.72
208.742	6726.98
208.816	6730.97
208.89	6766.91
208.965	6761.57
209.039	6784.73
209.113	6828.77
209.187	6884.53
209.261	6879.1
209.336	6931.27
209.41	6984.59
209.484	6987.57
209.558	7054.7
209.632	7093.17
209.707	7119.12
209.781	7174.51
209.855	7217.04
209.929	7264.33
210.003	7287.92
210.077	7287.06
210.151	7410.07
210.226	7498.21
210.3	7571.54
210.374	7631.4
210.448	7642.26
210.522	7666.64
210.596	7691.11
210.67	7717.31
210.744	7840.14
210.818	7921.46
210.892	7972.25
210.966	7958.69
211.041	7994.85
211.115	7978.55
211.189	8039.48
211.263	8082.61
211.337	8102.42
211.411	8141.54
211.485	8117.05
211.559	8143.64
211.633	8153.58
211.707	8071.38
211.781	8093.1
211.855	7999.87
211.929	7981.46
212.003	7935.28
212.077	7962.18
212.151	7994.94
212.225	8015.67
212.299	7985.92
212.373	7952.93
212.447	7941.14
212.52	8010.26
212.594	8023.63
212.668	8053.59
212.742	8016.31
212.816	8004.38
212.89	7988.08
212.964	7978.22
213.038	7995.68
213.112	8023.39
213.186	8053.16
213.26	8000.24
213.333	7872.42
213.407	7883.57
213.481	7887.85
213.555	7922.64
213.629	7890.98
213.703	7838.22
213.777	7834.18
213.85	7772.42
213.924	7858.78
213.998	7856.04
214.072	7837.56
214.146	7792.31
214.219	7779.27
214.293	7763.17
214.367	7760.47
214.441	7782.07
214.515	7746.33
214.588	7671.94
214.662	7574.31
214.736	7518.36
214.81	7527.73
214.883	7550.64
214.957	7521.14
215.031	7478.96
215.105	7400.26
215.178	7354.5
215.252	7331.39
215.326	7258.95
215.4	7199.4
215.473	7060.35
215.547	6991.85
215.621	6944.91
215.694	6945.1
215.768	6873.85
215.842	6825.19
215.915	6774.63
215.989	6684.49
216.063	6642.3
216.136	6630.72
216.21	6617.81
216.284	6628.81
216.357	6608.16
216.431	6576.08
216.504	6567
216.578	6612.4
216.652	6623.86
216.725	6604.31
216.799	6612.29
216.873	6586.42
216.946	6594.86
217.02	6565.65
217.093	6543.56
217.167	6465.59
217.24	6401.91
217.314	6370.67
217.387	6331.39
217.461	6295.53
217.535	6314.15
217.608	6267.12
217.682	6252.42
217.755	6261.4
217.829	6218.33
217.902	6206.86
217.976	6186.08
218.049	6150.95
218.123	6092.74
218.196	6095.29
218.27	6065.82
218.343	6010.61
218.417	6015.31
218.49	5996.02
218.563	6032.01
218.637	6040.79
218.71	6097.33
218.784	6118.78
218.857	6156.83
218.931	6182.39
219.004	6187.58
219.077	6205.59
219.151	6219.83
219.224	6205.48
219.298	6202.65
219.371	6233.04
219.444	6204.74
219.518	6216.35
219.591	6229.69
219.665	6309.72
219.738	6318.65
219.811	6305.03
219.885	6343.09
219.958	6373.29
220.031	6381.69
220.105	6390.33
220.178	6398.3
220.251	6378.66
220.325	6403.78
220.398	6404.64
220.471	6414.67
220.544	6447.22
220.618	6432.72
220.691	6454.8
220.764	6474.67
220.838	6493.59
220.911	6482.88
220.984	6547.14
221.057	6575.8
221.131	6594.81
221.204	6519.81
221.277	6572.26
221.35	6676.67
221.424	6668.6
221.497	6674.08
221.57	6688.52
221.643	6716.67
221.716	6742.9
221.79	6751.3
221.863	6752.94
221.936	6759.23
222.009	6770.22
222.082	6786.22
222.155	6792.65
222.229	6843.3
222.302	6867.02
222.375	6874.18
222.448	6905.88
222.521	6912.99
222.594	6912.9
222.667	6892.83
222.74	6942.64
222.814	6937.93
222.887	6920.96
222.96	6964.1
223.033	6997.02
223.106	7016.47
223.179	7045.12
223.252	7054.2
223.325	7072.6
223.398	7085.1
223.471	7108.97
223.544	7126.88
223.617	7141.88
223.69	7154.18
223.763	7123.66
223.837	7140.67
223.91	7164.74
223.983	7128.81
224.056	7098.12
224.129	7117.53
224.202	7165.12
224.275	7148.88
224.348	7123.94
224.42	7096.31
224.493	7053.55
224.566	7031.82
224.639	7046.28
224.712	7017.24
224.785	7008.4
224.858	7005.52
224.931	6991.15
225.004	6964.01
225.077	6963.67
225.15	6892.69
225.223	6891.44
225.296	6953.94
225.369	6907.97
225.442	6882.17
225.514	6900.23
225.587	6920.11
225.66	6928.42
225.733	6923.71
225.806	6925.15
225.879	6921.6
225.952	6893.8
226.025	6929.64
226.097	6969.4
226.17	6964.11
226.243	6917.96
226.316	6912.77
226.389	6916.37
226.461	6932.33
226.534	6945.29
226.607	6942.22
226.68	7004.46
226.753	6999.46
226.825	6938.49
226.898	6985.86
226.971	6989.46
227.044	6999.69
227.117	7004.64
227.189	7015.41
227.262	7044.68
227.335	7067.17
227.407	7066.16
227.48	7102.22
227.553	7110.2
227.626	7096.45
227.698	7103.7
227.771	7136.65
227.844	7126.75
227.916	7141.36
227.989	7115.46
228.062	7122.14
228.134	7188.95
228.207	7190.01
228.28	7184.68
228.352	7194.19
228.425	7201.02
228.498	7234.13
228.57	7225.44
228.643	7273.32
228.716	7273.27
228.788	7265
228.861	7263.85
228.934	7317.77
229.006	7316.42
229.079	7312.62
229.151	7305.94
229.224	7280.43
229.296	7300.47
229.369	7385.92
229.442	7422.9
229.514	7414.78
229.587	7445.59
229.659	7390.06
229.732	7398.23
229.804	7433.07
229.877	7496.02
229.949	7516.41
230.022	7560.52
230.094	7559.7
230.167	7552.2
230.239	7515.53
230.312	7500.97
230.384	7552.92
230.457	7543.01
230.529	7555.22
230.602	7559.11
230.674	7562.09
230.747	7591.87
230.819	7616.25
230.892	7520.48
230.964	7518.7
231.037	7536.57
231.109	7526.95
231.181	7551.42
231.254	7529.31
231.326	7518.4
231.399	7495.4
231.471	7473.71
231.544	7406.05
231.616	7447.57
231.688	7446.42
231.761	7442.1
231.833	7438.78
231.905	7371.12
231.978	7372.8
232.05	7357.33
232.122	7360.94
232.195	7343.44
232.267	7376.03
232.339	7352.67
232.412	7403.84
232.484	7383.07
232.556	7357.8
232.629	7411.19
232.701	7423.31
232.773	7432.29
232.846	7428.45
232.918	7431.86
232.99	7447.73
233.062	7485.18
233.135	7482.73
233.207	7455.23
233.279	7488.09
233.351	7519.1
233.424	7523.57
233.496	7508.23
233.568	7572.03
233.64	7541.8
233.713	7558.29
233.785	7555.6
233.857	7569.88
233.929	7531.28
234.001	7583.91
234.074	7641.53
234.146	7584.44
234.218	7582.51
234.29	7579.97
234.362	7567.81
234.434	7531.7
234.507	7505.02
234.579	7465.6
234.651	7455.55
234.723	7481.32
234.795	7499.01
234.867	7493.05
234.939	7537.14
235.012	7545.93
235.084	7549.3
235.156	7584.1
235.228	7565.98
235.3	7554.05
235.372	7563.52
235.444	7613.23
235.516	7549.78
235.588	7548.77
235.66	7564.35
235.732	7548.05
235.804	7698.11
235.876	7729.35
235.948	7782.25
236.02	7795.08
236.092	7806.47
236.164	7810.66
236.236	7809.17
236.308	7802.1
236.38	7822.78
236.452	7806.28
236.524	7821.09
236.596	7873.17
236.668	7897.17
236.74	7918.18
236.812	7936.79
236.884	7965.36
236.956	7972.53
237.028	7967.96
237.1	7958.16
237.172	8005.73
237.244	8067.78
237.316	7982.16
237.388	7974.67
237.46	7954.79
237.532	7997.07
237.604	7994.43
237.675	8053.02
237.747	8095.74
237.819	8090.07
237.891	8093.24
237.963	8086.7
238.035	8089.44
238.107	8000.32
238.178	8050.04
238.25	8054.51
238.322	8122.13
238.394	8087.54
238.466	8081.34
238.538	8118.41
238.609	8149.62
238.681	8115.66
238.753	8090.39
238.825	8103.05
238.897	8127.43
238.968	8187.35
239.04	8171.57
239.112	8254.36
239.184	8228.13
239.255	8218.17
239.327	8247.84
239.399	8260.73
239.471	8289.74
239.542	8309.22
239.614	8364.25
239.686	8300.73
239.758	8345.08
239.829	8316.15
239.901	8365.75
239.973	8381.24
240.044	8402.22
240.116	8415.5
240.188	8427.29
240.259	8446.58
240.331	8438.25
240.403	8471.11
240.474	8437.51
240.546	8431.98
240.618	8383.96
240.689	8382.03
240.761	8402.49
240.833	8449.65
240.904	8449.94
240.976	8460.76
241.048	8482.56
241.119	8511.83
241.191	8549.17
241.262	8596.69
241.334	8605.45
241.405	8604.29
241.477	8609.01
241.549	8621.91
241.62	8637.35
241.692	8669.84
241.763	8711.19
241.835	8724.38
241.906	8732.03
241.978	8705.66
242.049	8762.16
242.121	8809.56
242.192	8860.86
242.264	8829.2
242.335	8796.71
242.407	8832.86
242.478	8833.96
242.55	8845.61
242.621	8829.15
242.693	8829.82
242.764	8827.56
242.836	8825.2
242.907	8850.91
242.979	8876.32
243.05	8888.54
243.122	8907.9
243.193	8907.75
243.264	8857.4
243.336	8866.84
243.407	8891.24
243.479	8957.23
243.55	8964.31
243.622	8972.49
243.693	8973.99
243.764	9027.08
243.836	9009.61
243.907	9001.91
243.978	9007.83
244.05	9031.08
244.121	8998.55
244.192	9028.59
244.264	8984.05
244.335	8996.76
244.407	8958.49
244.478	8963.98
244.549	8959.36
244.62	8926.24
244.692	8919.46
244.763	8955.17
244.834	8940.73
244.906	8927.54
244.977	8941.74
245.048	8987.55
245.119	8977.82
245.191	8955.72
245.262	8910.38
245.333	8972.32
245.405	8985.71
245.476	9011.22
245.547	9025.76
245.618	9065.47
245.689	9067.49
245.761	9098.4
245.832	9100.04
245.903	9142.64
245.974	9170.62
246.045	9182.8
246.117	9254.39
246.188	9250.35
246.259	9234.46
246.33	9250.88
246.401	9256.7
246.473	9227.14
246.544	9215.48
246.615	9259.64
246.686	9268.78
246.757	9328.19
246.828	9307.1
246.899	9362.35
246.97	9335.44
247.042	9318.97
247.113	9354.51
247.184	9423.1
247.255	9418.43
247.326	9445.45
247.397	9446.32
247.468	9457.59
247.539	9469.67
247.61	9432.16
247.681	9466.63
247.752	9508.42
247.823	9490.17
247.894	9500.91
247.965	9485.07
248.037	9469.37
248.108	9426.85
248.179	9435.61
248.25	9425.84
248.321	9449.62
248.392	9418.74
248.463	9481.04
248.534	9478.78
248.605	9488.42
248.675	9470.01
248.746	9485.85
248.817	9496.21
248.888	9512.58
248.959	9471.31
249.03	9488.27
249.101	9490.19
249.172	9474.79
249.243	9422.36
249.314	9470.6
249.385	9479.42
249.456	9503.49
249.527	9501.7
249.598	9516.68
249.669	9507.15
249.739	9519.91
249.81	9530.21
249.881	9496.7
249.952	9485.48
250.023	9483.89
250.094	9450.7
250.165	9429.02
250.235	9423.39
250.306	9422.91
250.377	9395.79
250.448	9410.24
250.519	9359.05
250.59	9406.4
250.66	9410.92
250.731	9461.33
250.802	9458.97
250.873	9473.95
250.944	9492.78
251.014	9480.79
251.085	9553.29
251.156	9578.56
251.227	9612.33
251.297	9652.26
251.368	9683.52
251.439	9729.47
251.51	9770.8
251.58	9753.7
251.651	9752.31
251.722	9797.73
251.792	9771.1
251.863	9770.42
251.934	9824.22
252.005	9911.78
252.075	9917.61
252.146	9953.49
252.217	9991.54
252.287	10029.31
252.358	10035.48
252.429	10091.41
252.499	10089.39
252.57	10091.55
252.641	10126.52
252.711	10130.96
252.782	10097.81
252.852	10155.43
252.923	10145.99
252.994	10161.98
253.064	10204.65
253.135	10186.98
253.205	10166.12
253.276	10211.87
253.347	10270.78
253.417	10242.21
253.488	10224.53
253.558	10209.65
253.629	10207.77
253.699	10216.49
253.77	10239.14
253.841	10231.33
253.911	10233.89
253.982	10253.73
254.052	10284.09
254.123	10297.87
254.193	10303.65
254.264	10404.07
254.334	10381.23
254.405	10350.06
254.475	10325.2
254.546	10327.03
254.616	10375.16
254.687	10401.27
254.757	10415.67
254.827	10414.66
254.898	10445.59
254.968	10452.24
255.039	10447.66
255.109	10472.04
255.18	10452.19
255.25	10395.91
255.321	10427.71
255.391	10395.76
255.461	10458.54
255.532	10390.7
255.602	10383.03
255.673	10341.08
255.743	10318.9
255.813	10257.21
255.884	10304.42
255.954	10328.31
256.024	10380.98
256.095	10387.87
256.165	10362.67
256.235	10385.9
256.306	10372.5
256.376	10405.08
256.446	10442.66
256.517	10467.14
256.587	10508.09
256.657	10530.16
256.728	10547.12
256.798	10544.56
256.868	10546.73
256.938	10531.07
257.009	10572.12
257.079	10592.5
257.149	10673.01
257.219	10625.4
257.29	10659.84
257.36	10615.42
257.43	10640.52
257.5	10589.5
257.571	10579.91
257.641	10614.6
257.711	10590.21
257.781	10610.64
257.852	10622.11
257.922	10571.37
257.992	10577.97
258.062	10567.47
258.132	10594.98
258.202	10601.59
258.273	10618.98
258.343	10680.37
258.413	10662.54
258.483	10664.23
258.553	10644.19
258.623	10629.82
258.693	10651.89
258.764	10710.05
258.834	10768.78
258.904	10785.64
258.974	10777.6
259.044	10784.78
259.114	10801.6
259.184	10825.16
259.254	10842.51
259.324	10804.2
259.394	10846.5
259.464	10900.96
259.535	10911.85
259.605	10914.5
259.675	10908.14
259.745	10935.9
259.815	10915.9
259.885	10920.28
259.955	11009.31
260.025	11003.58
260.095	11013.12
260.165	11037.41
260.235	11078.76
260.305	11063.77
260.375	11043.68
260.445	11122.12
260.515	11173.54
260.585	11212.48
260.655	11217.25
260.725	11244.29
260.795	11273.88
260.865	11329.5
260.934	11309.64
261.004	11327.91
261.074	11331.18
261.144	11380.04
261.214	11407.27
261.284	11409.25
261.354	11440.81
261.424	11408.66
261.494	11465.33
261.564	11463.59
261.634	11480.8
261.703	11431.3
261.773	11451.54
261.843	11481.04
261.913	11468.89
261.983	11426.48
262.053	11444.8
262.123	11444.89
262.192	11414.73
262.262	11447.93
262.332	11400.41
262.402	11421.67
262.472	11430
262.541	11376.42
262.611	11404.28
262.681	11385
262.751	11416.57
262.821	11426.45
262.89	11401.24
262.96	11421.48
263.03	11481.83
263.1	11509.26
263.169	11531.62
263.239	11559.18
263.309	11610.95
263.379	11636.06
263.448	11657.27
263.518	11672.6
263.588	11689.03
263.657	11745.32
263.727	11777.19
263.797	11786.78
263.867	11789.38
263.936	11759.83
264.006	11814.53
264.076	11817.9
264.145	11823.3
264.215	11801.9
264.285	11829.95
264.354	11789.56
264.424	11776.21
264.494	11743.39
264.563	11730.76
264.633	11786.04
264.702	11803.54
264.772	11760.01
264.842	11762.33
264.911	11793.61
264.981	11760.01
265.05	11765.84
265.12	11763.72
265.19	11767.63
265.259	11809.41
265.329	11835.11
265.398	11861.28
265.468	11938.74
265.537	11928.9
265.607	11953.2
265.676	12006.17
265.746	12024.54
265.815	12078.56
265.885	12090.42
265.955	12078.56
266.024	12080.54
266.094	12039.33
266.163	12090.47
266.232	12142.29
266.302	12154.39
266.371	12164.9
266.441	12186.54
266.51	12225.34
266.58	12229.49
266.649	12218.83
266.719	12265.01
266.788	12290.42
266.858	12343.15
266.927	12294.03
266.996	12321.36
267.066	12339.25
267.135	12312.64
267.205	12339.15
267.274	12353.9
267.343	12392.27
267.413	12403.45
267.482	12447.17
267.552	12491.28
267.621	12451.22
267.69	12416.17
267.76	12438.35
267.829	12461.68
267.898	12477.68
267.968	12470.69
268.037	12502.36
268.106	12546.95
268.176	12518.13
268.245	12528.25
268.314	12528.44
268.384	12577.9
268.453	12600.65
268.522	12622.2
268.592	12668.72
268.661	12659.37
268.73	12689.78
268.799	12680.96
268.869	12752.3
268.938	12725.41
269.007	12723.28
269.076	12741.65
269.146	12792.55
269.215	12814.3
269.284	12868.62
269.353	12867.03
269.422	12870.36
269.492	12865.73
269.561	12799.64
269.63	12827.26
269.699	12824.71
269.768	12837.68
269.838	12848.62
269.907	12889.4
269.976	12875.76
270.045	12838.98
270.114	12876.24
270.183	12886.56
270.253	12915.87
270.322	12881.35
270.391	12909.12
270.46	12968.51
270.529	13007.94
270.598	13045.21
270.667	13049.21
270.736	13023.95
270.806	13054.46
270.875	13097.7
270.944	13109.27
271.013	13209.83
271.082	13232.05
271.151	13259.48
271.22	13237.59
271.289	13253.45
271.358	13248.63
271.427	13275.63
271.496	13307.11
271.565	13303.2
271.634	13320.94
271.703	13426.66
271.772	13475.44
271.841	13485.32
271.91	13456.06
271.979	13478
272.048	13451.96
272.117	13496.31
272.186	13506.87
272.255	13548.62
272.324	13588.05
272.393	13625.89
272.462	13621.46
272.531	13641.99
272.6	13656.07
272.669	13716.28
272.738	13723.37
272.807	13755.09
272.876	13745.06
272.945	13850.05
273.013	13903.95
273.082	13947.96
273.151	13872.95
273.22	13899.37
273.289	13919.13
273.358	13985.51
273.427	13992.99
273.496	14029.91
273.564	14050.88
273.633	14094.6
273.702	14075.23
273.771	14082.75
273.84	14100.05
273.909	14136.4
273.977	14165.51
274.046	14178.53
274.115	14223.6
274.184	14222.11
274.253	14231.12
274.322	14292.2
274.39	14245.73
274.459	14238.07
274.528	14211.89
274.597	14234.26
274.665	14259.61
274.734	14315.1
274.803	14322.96
274.872	14341.51
274.94	14344.84
275.009	14457.73
275.078	14456.91
275.147	14494.17
275.215	14524.88
275.284	14589.95
275.353	14600.32
275.421	14576.26
275.49	14643.51
275.559	14648.33
275.627	14680.58
275.696	14705.06
275.765	14738.85
275.833	14755.78
275.902	14794.82
275.971	14853.39
276.039	14925.98
276.108	14970.57
276.177	14999.44
276.245	15013.57
276.314	15033.53
276.383	15078.55
276.451	15024.76
276.52	15070.89
276.588	15135.48
276.657	15173.8
276.725	15173.13
276.794	15204.27
276.863	15280.43
276.931	15262.06
277	15311.23
277.068	15357.02
277.137	15432.02
277.205	15469.52
277.274	15550.36
277.342	15610.41
277.411	15599.04
277.48	15604.39
277.548	15612.77
277.617	15646.56
277.685	15668.93
277.754	15723.73
277.822	15743.4
277.89	15814.49
277.959	15840.52
278.027	15831.22
278.096	15842.01
278.164	15943.32
278.233	15955.47
278.301	15956.05
278.37	16009.45
278.438	16014.18
278.507	16061.32
278.575	16039.43
278.643	16061.36
278.712	16042.52
278.78	16041.99
278.849	16108.7
278.917	16168.17
278.985	16198.1
279.054	16236.03
279.122	16294.79
279.191	16324
279.259	16349.88
279.327	16317.35
279.396	16383.09
279.464	16413.84
279.532	16467.14
279.601	16483.58
279.669	16518.13
279.737	16592.74
279.806	16635.54
279.874	16693.47
279.942	16719.45
280.011	16744.75
280.079	16801.28
280.147	16880.09
280.215	16928.67
280.284	16951.56
280.352	16955.94
280.42	17010.31
280.488	17022.74
280.557	17044.57
280.625	17088.38
280.693	17131.81
280.761	17183.13
280.83	17179.76
280.898	17244.97
280.966	17224.44
281.034	17191.95
281.102	17194.51
281.171	17210.32
281.239	17258.22
281.307	17276.63
281.375	17294.46
281.443	17399.86
281.512	17422.51
281.58	17481.45
281.648	17483.13
281.716	17516.77
281.784	17547.66
281.852	17561.2
281.92	17604.87
281.989	17667.56
282.057	17666.17
282.125	17770.64
282.193	17799.8
282.261	17835.22
282.329	17863.94
282.397	17921.2
282.465	17960.14
282.533	18033.1
282.601	18044.81
282.67	18030.21
282.738	18052.28
282.806	18114.83
282.874	18112.81
282.942	18157.67
283.01	18165.05
283.078	18211.65
283.146	18249.58
283.214	18317.96
283.282	18362.77
283.35	18426.43
283.418	18445.95
283.486	18497.13
283.554	18467.68
283.622	18507.44
283.69	18540.07
283.758	18561.27
283.826	18616.93
283.894	18681.07
283.962	18768.73
284.03	18847.42
284.098	18892.05
284.165	18918.45
284.233	18946.74
284.301	18966.79
284.369	18978.98
284.437	19003.08
284.505	19036.47
284.573	19111.12
284.641	19109.72
284.709	19169.48
284.777	19164.51
284.845	19224.75
284.912	19276.51
284.98	19323.49
285.048	19333.95
285.116	19391.54
285.184	19462.09
285.252	19494.33
285.319	19487.67
285.387	19505.65
285.455	19500.88
285.523	19558.52
285.591	19592.49
285.659	19644.15
285.726	19712.53
285.794	19717.06
285.862	19761.01
285.93	19789.93
285.997	19814.12
286.065	19842.69
286.133	19850.21
286.201	19875.42
286.269	19877.97
286.336	19885.05
286.404	19911.85
286.472	19979.8
286.539	19965.34
286.607	19951.56
286.675	19984.67
286.743	20043.51
286.81	20062.88
286.878	20131.07
286.946	20144.23
287.013	20174.78
287.081	20204.18
287.149	20202.97
287.216	20302.88
287.284	20319.79
287.352	20366.73
287.419	20388.56
287.487	20480.33
287.555	20531.56
287.622	20563.03
287.69	20602.74
287.758	20677.83
287.825	20708
287.893	20720.96
287.96	20769.39
288.028	20849.69
288.096	20889.88
288.163	20941.55
288.231	20949.93
288.298	20982.51
288.366	21055.73
288.433	21090.81
288.501	21105.08
288.569	21153.8
288.636	21173.42
288.704	21259.84
288.771	21309.92
288.839	21338.84
288.906	21342.89
288.974	21405.7
289.041	21438.85
289.109	21448.69
289.176	21494.72
289.244	21542.39
289.311	21612.04
289.379	21683.86
289.446	21724.93
289.514	21768.02
289.581	21803.88
289.649	21849.34
289.716	21889.88
289.783	21907.86
289.851	21996.36
289.918	22045.04
289.986	22113.73
290.053	22151.48
290.121	22171.53
290.188	22209.62
290.255	22316.98
290.323	22346.05
290.39	22371.07
290.458	22427.18
290.525	22518.97
290.592	22547.13
290.66	22584
290.727	22604.16
290.794	22676.67
290.862	22712.69
290.929	22756.99
290.996	22795.71
291.064	22868.9
291.131	22941.32
291.198	23009.6
291.266	23042.82
291.333	23081.53
291.4	23120.3
291.468	23204.89
291.535	23232.42
291.602	23290.47
291.669	23310.78
291.737	23359.62
291.804	23389.42
291.871	23482.59
291.938	23527.54
292.006	23633.61
292.073	23706.13
292.14	23783.92
292.207	23795.4
292.275	23833.16
292.342	23906.42
292.409	24015.15
292.476	24096.43
292.543	24101.93
292.611	24137.58
292.678	24209.25
292.745	24314.98
292.812	24369.01
292.879	24392.41
292.946	24440.35
293.014	24517.92
293.081	24571.09
293.148	24640.45
293.215	24722.32
293.282	24731.15
293.349	24790.73
293.416	24782.05
293.484	24849.74
293.551	24897.51
293.618	24980.59
293.685	25081.48
293.752	25094.99
293.819	25114.64
293.886	25120.14
293.953	25182.18
294.02	25261.66
294.087	25321.75
294.154	25326.96
294.221	25409.64
294.288	25445.35
294.356	25526.95
294.423	25571.07
294.49	25587.14
294.557	25660.8
294.624	25676.97
294.691	25782.86
294.758	25830.65
294.825	25893.21
294.892	25921.68
294.959	25968.32
295.026	26034.36
295.093	26062.85
295.16	26109.18
295.226	26152.73
295.293	26257.02
295.36	26312.73
295.427	26378.99
295.494	26447.66
295.561	26534.27
295.628	26638.68
295.695	26733.66
295.762	26792.72
295.829	26855.27
295.896	26943.73
295.963	27003.81
296.03	27077.26
296.096	27123.15
296.163	27197.19
296.23	27282.6
296.297	27361.95
296.364	27406.24
296.431	27457.16
296.498	27488.89
296.564	27604.04
296.631	27658.04
296.698	27665.73
296.765	27759.6
296.832	27766.7
296.899	27783.75
296.965	27857.69
297.032	27839.75
297.099	27920.33
297.166	27983
297.233	28026.4
297.299	28053.17
297.366	28099.08
297.433	28140.05
297.5	28214.3
297.566	28261.52
297.633	28297.63
297.7	28337.41
297.767	28375.97
297.833	28434.61
297.9	28489.79
297.967	28492.6
298.033	28557.8
298.1	28681.53
298.167	28700.1
298.234	28772.99
298.3	28839.65
298.367	28875.19
298.434	28938.29
298.5	28946.46
298.567	28977.26
298.634	29012.12
298.7	29102.53
298.767	29141.51
298.834	29224.19
298.9	29238.41
298.967	29261.77
299.033	29321.99
299.1	29409.29
299.167	29487.71
299.233	29515.91
299.3	29582.74
299.366	29659.92
299.433	29743.91
299.5	29706.13
299.566	29765.67
299.633	29834.22
299.699	29906.36
299.766	29939.35
299.832	29997.37
299.899	30060.26
299.965	30124.56
300.032	30158.71
300.099	30217.5
300.165	30277.74
300.232	30306.29
300.298	30350.56
300.365	30412.1
300.431	30454.98
300.498	30467.27
300.564	30527.33
300.631	30594.65
300.697	30678.14
300.763	30713.47
300.83	30774.29
300.896	30855.68
300.963	30914.29
301.029	30967.83
301.096	31009.62
301.162	31080.72
301.229	31107.3
301.295	31122.21
301.361	31178.51
301.428	31230.25
301.494	31231.99
301.561	31278.32
301.627	31329.01
301.693	31381.68
301.76	31430.24
301.826	31462.78
301.892	31538.99
301.959	31605.14
302.025	31636.18
302.092	31645.14
302.158	31709.44
302.224	31728.72
302.291	31753.03
302.357	31785.43
302.423	31807.37
302.49	31825.48
302.556	31889.62
302.622	31935.44
302.688	32013.56
302.755	32086.72
302.821	32141.83
302.887	32198.58
302.954	32239.9
303.02	32297.3
303.086	32345.35
303.152	32384.1
303.219	32408.52
303.285	32464.82
303.351	32510.71
303.417	32558.38
303.483	32582.7
303.55	32615.26
303.616	32653.2
303.682	32703.92
303.748	32731.77
303.815	32816.59
303.881	32874.73
303.947	32883.11
304.013	32923.72
304.079	32940.54
304.145	32923.77
304.212	32964.18
304.278	32996.2
304.344	33022.76
304.41	33027.89
304.476	33047.86
304.542	33079.84
304.608	33145.55
304.674	33136.44
304.741	33163.78
304.807	33199.11
304.873	33253.73
304.939	33316.31
305.005	33319.84
305.071	33353.14
305.137	33404.66
305.203	33375.09
305.269	33413.87
305.335	33490.67
305.401	33514.95
305.467	33544.47
305.533	33596.24
305.599	33643.45
305.666	33693.58
305.732	33737.4
305.798	33815.25
305.864	33917.03
305.93	33964.44
305.996	33993
306.062	34030.47
306.128	34048.75
306.194	34065.62
306.259	34106.3
306.325	34117.65
306.391	34179.76
306.457	34227.86
306.523	34265.68
306.589	34363.3
306.655	34376.49
306.721	34352.87
306.787	34354.27
306.853	34426.97
306.919	34430.94
306.985	34452.86
307.051	34471.48
307.117	34482.3
307.183	34493.98
307.248	34454.36
307.314	34501.45
307.38	34532.83
307.446	34582.25
307.512	34587.73
307.578	34621.1
307.644	34634.68
307.709	34672.89
307.775	34684.39
307.841	34698.26
307.907	34726.05
307.973	34704.32
308.039	34732.26
308.104	34773.14
308.17	34808.15
308.236	34796.03
308.302	34835.65
308.368	34837.01
308.433	34864.65
308.499	34888.22
308.565	34889.77
308.631	34921.93
308.696	34890.74
308.762	34894.91
308.828	34923.15
308.894	34921.26
308.959	34904.52
309.025	34918.4
309.091	34938.34
309.156	34949.4
309.222	34998.88
309.288	34990.88
309.354	34967.35
309.419	35004.18
309.485	35003.01
309.551	35042.11
309.616	35036.09
309.682	35050.7
309.748	35076.35
309.813	35096.05
309.879	35106.09
309.945	35106.19
310.01	35133.36
310.076	35170.8
310.141	35194.72
310.207	35190.64
310.273	35228.62
310.338	35282.37
310.404	35267.96
310.469	35255.69
310.535	35265.78
310.601	35237.1
310.666	35283
310.732	35346.84
310.797	35341.89
310.863	35347.61
310.928	35368.14
310.994	35407.39
311.059	35427.71
311.125	35444.99
311.191	35501.47
311.256	35501.13
311.322	35547.22
311.387	35521.75
311.453	36373.94
311.518	36350.94
311.584	36375.54
311.649	36414.02
311.715	36413.83
311.78	36456.08
311.846	36466.7
311.911	36515.09
311.976	36553.76
312.042	36544.1
312.107	36533.72
312.173	36543.52
312.238	36573.5
312.304	36586.36
312.369	36608.2
312.434	36609.07
312.5	36619.6
312.565	36564.86
312.631	36609.25
312.696	36619.98
312.761	36666.46
312.827	35849.6
312.892	35971.85
312.958	35990.93
313.023	36011.41
313.088	36032.85
313.154	36027.57
313.219	36042.75
313.284	36046.93
313.35	36055.91
313.415	36063.33
313.48	36076.53
313.546	36109.09
313.611	36138.55
313.676	36146.75
313.741	36142.43
313.807	36194.85
313.872	36225.47
313.937	36276.96
314.003	36333.41
314.068	36351.31
314.133	36389.66
314.198	36394.36
314.264	36354.31
314.329	36343.97
314.394	36363.24
314.459	36393.72
314.525	36468.46
314.59	36483.21
314.655	36462.97
314.72	36506.27
314.785	36544.66
314.851	36560.19
314.916	36541.55
314.981	36527.77
315.046	36537.91
315.111	36539.71
315.176	36534.76
315.242	36573.15
315.307	36588.93
315.372	36567.76
315.437	36584.36
315.502	36587.47
315.567	36630.77
315.632	36619.6
315.698	36657.03
315.763	36662.13
315.828	36644.95
315.893	36644.31
315.958	36651.74
316.023	36655.28
316.088	36620.09
316.153	36570.93
316.218	36559.23
316.283	36529.15
316.348	36504.84
316.413	36497.27
316.479	36463.98
316.544	36382.36
316.609	36296.36
316.674	36199.31
316.739	36100.24
316.804	35999.55
316.869	35895.33
316.934	35799.82
316.999	35695.7
317.064	35539
317.129	35403.58
317.194	35295.84
317.259	35148.26
317.324	34986.32
317.389	34838.45
317.454	34702.2
317.518	34584.5
317.583	34496.36
317.648	34394.91
317.713	34265.68
317.778	34066.63
317.843	33946.82
317.908	33807.75
317.973	33665.85
318.038	33550.62
318.103	33407.95
318.168	33284.64
318.233	33160.51
318.297	32970.98
318.362	32830.5
318.427	32676.51
318.492	32569.17
318.557	32397.16
318.622	32264.03
318.687	32158.79
318.751	32004.67
318.816	31864.35
318.881	31725.32
318.946	31518.8
319.011	31343.56
319.075	31175.43
319.14	31032.51
319.205	30848.04
319.27	30700.2
319.335	30523.61
319.399	30346.92
319.464	30212.17
319.529	30015.89
319.594	29832.95
319.658	29691.91
319.723	29515.12
319.788	29368.8
319.853	29149.4
319.917	28989.2
319.982	28785.25
320.047	28611.39
320.112	28470.49
320.176	28266.46
320.241	28090.28
320.306	27925.54
320.37	27743.71
320.435	27583.25
320.5	27433.18
320.564	27257.85
320.629	27070.97
320.694	26899.43
320.758	26725.37
320.823	26526.22
320.888	26360.77
320.952	26154.96
321.017	25967.93
321.082	25784.55
321.146	25623.61
321.211	25451.75
321.275	25266.84
321.34	25063.52
321.405	24870.26
321.469	24667.42
321.534	24472.73
321.598	24254.25
321.663	24090.56
321.727	23918.74
321.792	23711.83
321.857	23505.2
321.921	23328.69
321.986	23119.04
322.05	22892.57
322.115	22697.87
322.179	22497.25
322.244	22271.88
322.308	22103.34
322.373	21890.22
322.437	21689.25
322.502	21530.2
322.566	21329
322.631	21145.22
322.695	20965.25
322.76	20752.61
322.824	20569.17
322.889	20367.91
322.953	20164.49
323.018	19898.06
323.082	19637.91
323.146	19409.67
323.211	19178.3
323.275	18960.42
323.34	18758.16
323.404	18568.24
323.468	18344.43
323.533	18128.39
323.597	17918.45
323.662	17684.33
323.726	17499.18
323.79	17281.29
323.855	17001.52
323.919	16770.14
323.983	16554.75
324.048	16234.76
324.112	16334.41
324.177	15668.95
324.241	14812.92
324.305	13970.74
324.37	13147.12
324.434	12345.48
324.498	12118.15
324.562	11869.45
324.627	11583.22
324.691	11297.67
324.755	10983
324.82	10632.99
324.884	10259.8
324.948	9869.22
325.012	9401.57
325.077	8813.18
