Data from 20250626_urea_1M_exp2_MAYP1162681_07-13-59-559.txt Node
Date: Fri Jun 27 07:13:59 BST 2025
User: adleo
Spectrometer: MAYP116268
Trigger mode: 0
Integration Time (sec): 3.000000E0
Scans to average: 1
Electric dark correction enabled: true
Nonlinearity correction enabled: true
Boxcar width: 10
XAxis mode: Wavelengths
Number of Pixels in Spectrum: 2068
>>>>>Begin Spectral Data<<<<<
179.565	2915.85
179.642	3072.7
179.718	3185.16
179.795	3297.85
179.871	3386.47
179.948	3438.71
180.024	3496.26
180.101	3558.2
180.177	3597.11
180.254	3656.46
180.33	3714.12
180.407	3910
180.483	4134.57
180.56	4363.85
180.636	4579.46
180.712	4548.91
180.789	4572.37
180.865	4602.54
180.942	4631.68
181.018	4657.52
181.095	4688.89
181.171	4697.93
181.248	4701.33
181.324	4743.43
181.4	4757.75
181.477	4787.77
181.553	4818.06
181.63	4869.68
181.706	4907.37
181.782	4931.39
181.859	4936.18
181.935	4955.87
182.011	4955.91
182.088	5001.61
182.164	5056.53
182.24	5086.74
182.317	5115.57
182.393	5110.44
182.469	5147.22
182.546	5178.17
182.622	5193.88
182.698	5183
182.775	5221.04
182.851	5250.12
182.927	5231.92
183.003	5219.61
183.08	5203.18
183.156	5232.59
183.232	5225.98
183.308	5202.99
183.385	5215.77
183.461	5254.06
183.537	5251.52
183.613	5284.2
183.69	5262.97
183.766	5228.11
183.842	5249.73
183.918	5260.37
183.995	5291.65
184.071	5302.91
184.147	5289.26
184.223	5256.32
184.299	5292.07
184.375	5261.84
184.452	5282.26
184.528	5388.26
184.604	5418.92
184.68	5449.92
184.756	5464.25
184.832	5479.36
184.908	5491.62
184.985	5498.71
185.061	5456.54
185.137	5482.72
185.213	5446.78
185.289	5451.38
185.365	5441.84
185.441	5433.69
185.517	5472.64
185.593	5465.59
185.669	5457.15
185.745	5485.63
185.822	5531.89
185.898	5512.33
185.974	5533.03
186.05	5508.67
186.126	5442.31
186.202	5416.15
186.278	5405.22
186.354	5378.33
186.43	5390.51
186.506	5382.42
186.582	5380.02
186.658	5403.25
186.734	5348.92
186.81	5358.6
186.886	5366.5
186.962	5388.64
187.038	5376.61
187.114	5349.94
187.19	5371.9
187.266	5348.71
187.341	5349.91
187.417	5330.79
187.493	5330.12
187.569	5346.85
187.645	5336.02
187.721	5306.01
187.797	5330.49
187.873	5342.33
187.949	5332.08
188.025	5316.73
188.101	5328.13
188.176	5334.94
188.252	5321.76
188.328	5346.66
188.404	5347.28
188.48	5331.52
188.556	5313.5
188.632	5318.58
188.707	5320.07
188.783	5313.98
188.859	5298.04
188.935	5271.34
189.011	5296.64
189.086	5280.16
189.162	5252.17
189.238	5247.86
189.314	5241.54
189.39	5229.27
189.465	5209.19
189.541	5247.48
189.617	5208.43
189.693	5193.78
189.768	5210.65
189.844	5270.82
189.92	5245.64
189.996	5268.59
190.071	5295.57
190.147	5294.57
190.223	5318.92
190.298	5303.63
190.374	5268.02
190.45	5302.02
190.526	5320.29
190.601	5298.05
190.677	5298.91
190.753	5372.06
190.828	5383.08
190.904	5422.34
190.98	5462.99
191.055	5494.01
191.131	5473.92
191.207	5525.87
191.282	5549.96
191.358	5520.35
191.433	5486.34
191.509	5517.51
191.585	5507.54
191.66	5516.99
191.736	5536.73
191.811	5511.8
191.887	5550.79
191.963	5612.73
192.038	5627.59
192.114	5631.91
192.189	5644.56
192.265	5641.88
192.34	5579.6
192.416	5573.9
192.491	5563.35
192.567	5569.44
192.642	5569.97
192.718	5574.67
192.793	5547.77
192.869	5533.11
192.944	5541.83
193.02	5561.25
193.095	5574.29
193.171	5591.55
193.246	5587.57
193.322	5579.23
193.397	5577.74
193.473	5542.01
193.548	5488.69
193.624	5503.51
193.699	5499.05
193.775	5538.24
193.85	5540.01
193.925	5566.53
194.001	5560.59
194.076	5541.17
194.152	5504.77
194.227	5487.03
194.302	5460.39
194.378	5468.3
194.453	5464.13
194.529	5498.13
194.604	5457.47
194.679	5446.5
194.755	5392.31
194.83	5420.71
194.905	5416.88
194.981	5438.69
195.056	5417.9
195.131	5441.14
195.207	5429.87
195.282	5402.65
195.357	5354.98
195.433	5396.49
195.508	5362.6
195.583	5386.65
195.659	5426.93
195.734	5453.45
195.809	5458.77
195.884	5478.07
195.96	5476.01
196.035	5518.48
196.11	5507.07
196.185	5541.2
196.261	5542.97
196.336	5625.9
196.411	5585.65
196.486	5597.01
196.561	5581.14
196.637	5609.37
196.712	5646.02
196.787	5659.64
196.862	5702.16
196.937	5726.27
197.013	5738.46
197.088	5768.47
197.163	5822.84
197.238	5864.13
197.313	5864.71
197.388	5896.85
197.464	5976.98
197.539	6015.07
197.614	5994.3
197.689	6024.77
197.764	6065.61
197.839	6121.07
197.914	6109.21
197.989	6168.9
198.065	6207.42
198.14	6342.23
198.215	6411.35
198.29	6440.21
198.365	6478.13
198.44	6507.99
198.515	6579.91
198.59	6619.04
198.665	6682.46
198.74	6704.95
198.815	6705.33
198.89	6765.35
198.965	6838.24
199.04	6827.43
199.115	6862.43
199.19	6974.28
199.265	6981.04
199.34	7004.34
199.415	7092.17
199.49	7142.25
199.565	7168.77
199.64	7234.36
199.715	7222.14
199.79	7238.04
199.865	7257.22
199.94	7247.71
200.015	7330.1
200.09	7348.41
200.165	7361.24
200.24	7377.63
200.315	7475.1
200.39	7515.86
200.464	7525.57
200.539	7534.85
200.614	7575.7
200.689	7632.72
200.764	7648.74
200.839	7689.48
200.914	7703.46
200.989	7680.71
201.063	7722.1
201.138	7677.58
201.213	7677.68
201.288	7629.27
201.363	7639.03
201.438	7637.63
201.512	7683.86
201.587	7633.37
201.662	7635.53
201.737	7672.27
201.812	7696.65
201.886	7617.98
201.961	7639.14
202.036	7608.1
202.111	7594.35
202.186	7517.73
202.26	7473.59
202.335	7415.9
202.41	7407.68
202.485	7362.04
202.559	7301.92
202.634	7231.84
202.709	7256.14
202.784	7204.24
202.858	7204.86
202.933	7153.65
203.008	7134.52
203.082	7082.92
203.157	7083.25
203.232	6973.64
203.306	6918.17
203.381	6834.7
203.456	6770.04
203.53	6712.49
203.605	6659.31
203.68	6598.68
203.754	6577.67
203.829	6537.66
203.904	6485.04
203.978	6454.01
204.053	6467.41
204.127	6439.76
204.202	6433.18
204.277	6387.49
204.351	6370.49
204.426	6352.48
204.5	6336.4
204.575	6247.12
204.65	6265.66
204.724	6243.32
204.799	6267.77
204.873	6253.84
204.948	6248.04
205.022	6216.43
205.097	6191.06
205.171	6229.45
205.246	6248.8
205.32	6252.3
205.395	6252.06
205.469	6229.57
205.544	6242.73
205.618	6195.69
205.693	6222.28
205.767	6192.44
205.842	6247.17
205.916	6227.16
205.991	6205.65
206.065	6214.58
206.14	6256.24
206.214	6246.25
206.289	6225.46
206.363	6254.88
206.438	6262.9
206.512	6282.53
206.586	6333.82
206.661	6359.19
206.735	6301.49
206.81	6307.2
206.884	6345.15
206.958	6310.32
207.033	6352.15
207.107	6361.42
207.181	6446.08
207.256	6429.28
207.33	6479.63
207.405	6513.52
207.479	6565.8
207.553	6579.72
207.628	6540.57
207.702	6574.65
207.776	6556.89
207.851	6573.35
207.925	6615.3
207.999	6606.8
208.073	6595.13
208.148	6601.33
208.222	6568.81
208.296	6654.65
208.371	6698.59
208.445	6727.5
208.519	6802.63
208.593	6838.36
208.668	6830.34
208.742	6835.92
208.816	6846
208.89	6875.5
208.965	6868.34
209.039	6890.59
209.113	6930.7
209.187	6993.95
209.261	6982.9
209.336	7033.58
209.41	7077.16
209.484	7075.62
209.558	7131.46
209.632	7172.53
209.707	7198.57
209.781	7261.22
209.855	7297.52
209.929	7335.91
210.003	7354.65
210.077	7353.88
210.151	7477.53
210.226	7575.54
210.3	7643.91
210.374	7704.79
210.448	7719.6
210.522	7744.9
210.596	7769.9
210.67	7797.88
210.744	7916.83
210.818	7998.44
210.892	8055.73
210.966	8043.03
211.041	8084.92
211.115	8084.73
211.189	8150.04
211.263	8198.9
211.337	8207.31
211.411	8244.98
211.485	8230.88
211.559	8262.33
211.633	8268.34
211.707	8186.52
211.781	8199.37
211.855	8103.74
211.929	8077.97
212.003	8033.08
212.077	8061.57
212.151	8091.35
212.225	8120.6
212.299	8086.08
212.373	8052.08
212.447	8039.04
212.52	8109.65
212.594	8114.9
212.668	8142.03
212.742	8099.36
212.816	8084.59
212.89	8072.09
212.964	8072.9
213.038	8080.89
213.112	8106.3
213.186	8141.83
213.26	8084.35
213.333	7964.03
213.407	7979.75
213.481	7990.51
213.555	8012.52
213.629	7979.22
213.703	7928.38
213.777	7918.13
213.85	7864.26
213.924	7953.32
213.998	7951.92
214.072	7932.86
214.146	7894.1
214.219	7877.65
214.293	7870.34
214.367	7868.27
214.441	7888.66
214.515	7848.44
214.588	7771.84
214.662	7673.38
214.736	7613
214.81	7623.57
214.883	7639.28
214.957	7601.13
215.031	7556.11
215.105	7486.05
215.178	7434.14
215.252	7413.04
215.326	7339.3
215.4	7276.95
215.473	7135.91
215.547	7066.54
215.621	7016.57
215.694	7014.07
215.768	6939.59
215.842	6886.17
215.915	6831.95
215.989	6742.57
216.063	6697.78
216.136	6690.04
216.21	6679.48
216.284	6683.42
216.357	6662.34
216.431	6635.83
216.504	6633.43
216.578	6678.06
216.652	6690.63
216.725	6674.11
216.799	6679.1
216.873	6661.1
216.946	6666.81
217.02	6638.55
217.093	6614.01
217.167	6539.54
217.24	6481.51
217.314	6449.99
217.387	6410.46
217.461	6374.6
217.535	6393.66
217.608	6352.33
217.682	6331.97
217.755	6333.07
217.829	6298.02
217.902	6287.94
217.976	6268.07
218.049	6233.32
218.123	6172.85
218.196	6171.75
218.27	6143.62
218.343	6089.51
218.417	6091.52
218.49	6074.2
218.563	6105.77
218.637	6115.42
218.71	6170.05
218.784	6188.63
218.857	6216.64
218.931	6236.69
219.004	6237.84
219.077	6250.43
219.151	6261.46
219.224	6256.66
219.298	6257.67
219.371	6290.61
219.444	6264.41
219.518	6274.44
219.591	6288.31
219.665	6369.79
219.738	6381.16
219.811	6370.9
219.885	6402.2
219.958	6423.61
220.031	6427.88
220.105	6441.9
220.178	6446.13
220.251	6429.46
220.325	6443.97
220.398	6455.01
220.471	6470.99
220.544	6500.61
220.618	6484.71
220.691	6508.04
220.764	6520.96
220.838	6542.47
220.911	6535.7
220.984	6600.94
221.057	6630.13
221.131	6649.09
221.204	6574.28
221.277	6633.42
221.35	6732.4
221.424	6729.81
221.497	6738.6
221.57	6755.06
221.643	6789.27
221.716	6824.92
221.79	6829.53
221.863	6839.33
221.936	6848.07
222.009	6857.43
222.082	6880.11
222.155	6889.33
222.229	6934.31
222.302	6956.74
222.375	6960.05
222.448	6986.05
222.521	6989.46
222.594	6989.55
222.667	6972.51
222.74	7019.29
222.814	7006.56
222.887	6986.31
222.96	7022.83
223.033	7052.92
223.106	7072.03
223.179	7094.72
223.252	7101.88
223.325	7122.97
223.398	7135.95
223.471	7160.07
223.544	7179.13
223.617	7196.44
223.69	7209.02
223.763	7179.42
223.837	7196.14
223.91	7223.34
223.983	7185.39
224.056	7158.25
224.129	7176.7
224.202	7213.67
224.275	7206.66
224.348	7189.31
224.42	7167.25
224.493	7129.68
224.566	7114.4
224.639	7131.16
224.712	7104.86
224.785	7096.55
224.858	7088.71
224.931	7073.38
225.004	7036.83
225.077	7038.94
225.15	6965.12
225.223	6964.06
225.296	7030.13
225.369	6985.02
225.442	6959.12
225.514	6970.6
225.587	6986.64
225.66	6994.28
225.733	6994.47
225.806	6995.43
225.879	6979.25
225.952	6950.72
226.025	6985.55
226.097	7027.1
226.17	7022.82
226.243	6968.74
226.316	6968.07
226.389	6971.29
226.461	6980.85
226.534	6998.57
226.607	6987.52
226.68	7050.82
226.753	7049.33
226.825	6988.02
226.898	7031.49
226.971	7030.14
227.044	7050.66
227.117	7055.32
227.189	7065.46
227.262	7096.37
227.335	7110.98
227.407	7120.97
227.48	7149.49
227.553	7160.6
227.626	7140.06
227.698	7145.3
227.771	7182.99
227.844	7167.52
227.916	7184
227.989	7158.63
228.062	7164.06
228.134	7235.3
228.207	7240.69
228.28	7238.96
228.352	7249.53
228.425	7257.75
228.498	7300.48
228.57	7285.25
228.643	7333.52
228.716	7339.09
228.788	7328.57
228.861	7322.56
228.934	7364.18
229.006	7373.59
229.079	7373.64
229.151	7363.54
229.224	7337.75
229.296	7358.85
229.369	7433.57
229.442	7472.14
229.514	7468.06
229.587	7503.05
229.659	7441.08
229.732	7450.79
229.804	7477.79
229.877	7533.68
229.949	7552.38
230.022	7587.65
230.094	7593.08
230.167	7582.5
230.239	7548.9
230.312	7543.8
230.384	7605.42
230.457	7607
230.529	7612.67
230.602	7609.84
230.674	7618.78
230.747	7653.13
230.819	7671.21
230.892	7582.75
230.964	7579.52
231.037	7595.81
231.109	7588.84
231.181	7619.83
231.254	7592.34
231.326	7581.04
231.399	7561.46
231.471	7546.51
231.544	7483.31
231.616	7513.83
231.688	7518.59
231.761	7502.41
231.833	7493.95
231.905	7416.57
231.978	7414.84
232.05	7403.26
232.122	7407.63
232.195	7390.52
232.267	7412.39
232.339	7396.82
232.412	7448
232.484	7427.12
232.556	7410.12
232.629	7464.96
232.701	7480.3
232.773	7488.42
232.846	7491.59
232.918	7502.32
232.99	7520.93
233.062	7555.11
233.135	7558.72
233.207	7533.43
233.279	7571.14
233.351	7595.18
233.424	7605.41
233.496	7584.31
233.568	7651.44
233.64	7627.21
233.713	7642.45
233.785	7648.41
233.857	7656.25
233.929	7617.99
234.001	7671.92
234.074	7717.96
234.146	7659.8
234.218	7656.25
234.29	7653.75
234.362	7639.47
234.434	7602.49
234.507	7571.77
234.579	7532.63
234.651	7521.81
234.723	7545.52
234.795	7559.61
234.867	7558.31
234.939	7598.79
235.012	7611.34
235.084	7608.5
235.156	7635.61
235.228	7616.47
235.3	7599.4
235.372	7613.3
235.444	7661.95
235.516	7601.19
235.588	7610.76
235.66	7624.22
235.732	7605.81
235.804	7765.22
235.876	7799.4
235.948	7846.73
236.02	7855.09
236.092	7866.39
236.164	7878.79
236.236	7880.52
236.308	7881.24
236.38	7905.05
236.452	7893.94
236.524	7912.31
236.596	7964.68
236.668	7992.48
236.74	8011.9
236.812	8034.65
236.884	8060.53
236.956	8067.6
237.028	8059.19
237.1	8037.17
237.172	8089.75
237.244	8149.98
237.316	8048.71
237.388	8036.54
237.46	8016.67
237.532	8067.13
237.604	8064.34
237.675	8119.86
237.747	8150.56
237.819	8141.61
237.891	8140.27
237.963	8136.61
238.035	8130.31
238.107	8044.03
238.178	8098.47
238.25	8105.15
238.322	8172.53
238.394	8138.67
238.466	8141.26
238.538	8176.99
238.609	8218.21
238.681	8174.95
238.753	8154.35
238.825	8173.7
238.897	8199.57
238.968	8264.79
239.04	8250.98
239.112	8338.39
239.184	8310.19
239.255	8310.15
239.327	8336.31
239.399	8348.14
239.471	8389.23
239.542	8421.79
239.614	8470.24
239.686	8398.38
239.758	8441.64
239.829	8419.2
239.901	8469.72
239.973	8482.28
240.044	8508.35
240.116	8517.06
240.188	8527.45
240.259	8539.92
240.331	8527.93
240.403	8555.16
240.474	8518.57
240.546	8505.78
240.618	8456.11
240.689	8458.71
240.761	8475.22
240.833	8526.52
240.904	8529.65
240.976	8525.46
241.048	8538.94
241.119	8573.12
241.191	8613.44
241.262	8666.6
241.334	8671.51
241.405	8671.55
241.477	8669.39
241.549	8675.93
241.62	8693.6
241.692	8740.33
241.763	8787.7
241.835	8809.07
241.906	8825.44
241.978	8804.41
242.049	8865
242.121	8912.98
242.192	8961.88
242.264	8931.76
242.335	8889.3
242.407	8927.81
242.478	8930.99
242.55	8950.72
242.621	8936.18
242.693	8934.98
242.764	8926.41
242.836	8925.35
242.907	8952.6
242.979	8980.27
243.05	8996.11
243.122	9013.97
243.193	9007.71
243.264	8953.7
243.336	8960.78
243.407	8987.45
243.479	9050.71
243.55	9057.93
243.622	9068.95
243.693	9068.86
243.764	9128.21
243.836	9122.77
243.907	9109.73
243.978	9117.86
244.05	9131.92
244.121	9097.65
244.192	9124.47
244.264	9084.6
244.335	9095.14
244.407	9055.23
244.478	9064.43
244.549	9062.5
244.62	9033.33
244.692	9033.86
244.763	9077.38
244.834	9065.53
244.906	9040.78
244.977	9051.91
245.048	9098.05
245.119	9085.97
245.191	9066.66
245.262	9012.75
245.333	9070.02
245.405	9089.38
245.476	9111.71
245.547	9123.66
245.618	9167.17
245.689	9182.97
245.761	9212.62
245.832	9213.01
245.903	9248.54
245.974	9276.8
246.045	9287.59
246.117	9358.03
246.188	9343.21
246.259	9323.81
246.33	9336.13
246.401	9350.33
246.473	9325.15
246.544	9319.27
246.615	9358.42
246.686	9363.72
246.757	9424.04
246.828	9400.16
246.899	9457.43
246.97	9435.81
247.042	9428.45
247.113	9463.03
247.184	9531.05
247.255	9531.39
247.326	9554.55
247.397	9561.44
247.468	9566.26
247.539	9577.38
247.61	9536.06
247.681	9569.66
247.752	9609.96
247.823	9595.66
247.894	9610.74
247.965	9590.9
248.037	9568.5
248.108	9530.75
248.179	9542.83
248.25	9545.1
248.321	9576.05
248.392	9539.25
248.463	9601.61
248.534	9600.16
248.605	9612.69
248.675	9589.9
248.746	9603.14
248.817	9614.56
248.888	9630.55
248.959	9585.04
249.03	9604.36
249.101	9608.06
249.172	9594.24
249.243	9540.27
249.314	9595.07
249.385	9601.05
249.456	9624.93
249.527	9622.28
249.598	9642.31
249.669	9638.55
249.739	9641.97
249.81	9649.34
249.881	9617.61
249.952	9607.88
250.023	9610.48
250.094	9567.51
250.165	9544.63
250.235	9537.21
250.306	9545.35
250.377	9525.17
250.448	9552.67
250.519	9504.94
250.59	9552.96
250.66	9550.7
250.731	9607.95
250.802	9608.38
250.873	9621.63
250.944	9638.63
251.014	9637.23
251.085	9706.7
251.156	9726.69
251.227	9771.49
251.297	9811.09
251.368	9847.4
251.439	9881.07
251.51	9915.8
251.58	9907.33
251.651	9902.41
251.722	9951.16
251.792	9915.62
251.863	9918.65
251.934	9960.22
252.005	10046.77
252.075	10058.63
252.146	10101.29
252.217	10135.45
252.287	10160.41
252.358	10168.93
252.429	10229.54
252.499	10223.95
252.57	10231.95
252.641	10266.01
252.711	10267.26
252.782	10237.2
252.852	10302.2
252.923	10300.08
252.994	10317.86
253.064	10363.47
253.135	10354.8
253.205	10332.39
253.276	10385.19
253.347	10435.04
253.417	10430.42
253.488	10412.93
253.558	10403.34
253.629	10406.9
253.699	10420.88
253.77	10445.7
253.841	10436.93
253.911	10444.73
253.982	10458.17
254.052	10480.05
254.123	10489.45
254.193	10487.47
254.264	10592.47
254.334	10563.13
254.405	10536.49
254.475	10510.13
254.546	10510.28
254.616	10559.71
254.687	10586.64
254.757	10605.19
254.827	10605.86
254.898	10619.55
254.968	10624.22
255.039	10607.07
255.109	10632.75
255.18	10612.95
255.25	10556.43
255.321	10585.53
255.391	10553.63
255.461	10622.38
255.532	10560.27
255.602	10556.17
255.673	10515.27
255.743	10485.15
255.813	10424.36
255.884	10464.2
255.954	10494.12
256.024	10545.97
256.095	10543.37
256.165	10511.28
256.235	10529.35
256.306	10517.98
256.376	10556.15
256.446	10595.37
256.517	10625.58
256.587	10659.7
256.657	10676.99
256.728	10698.77
256.798	10702.05
256.868	10696.65
256.938	10673.66
257.009	10718.33
257.079	10738.81
257.149	10816.72
257.219	10774.89
257.29	10812.61
257.36	10772.09
257.43	10805
257.5	10757.3
257.571	10753.15
257.641	10786.69
257.711	10760.33
257.781	10782.59
257.852	10793.72
257.922	10745.15
257.992	10747.36
258.062	10746.35
258.132	10772.08
258.202	10770.16
258.273	10781.82
258.343	10847.36
258.413	10840.08
258.483	10838.64
258.553	10826.4
258.623	10815.07
258.693	10834.54
258.764	10886.1
258.834	10945.17
258.904	10955.14
258.974	10947.92
259.044	10959.58
259.114	10988.35
259.184	11015.34
259.254	11022.95
259.324	10979.24
259.394	11018.46
259.464	11080.05
259.535	11084.92
259.605	11088.59
259.675	11092.68
259.745	11121.36
259.815	11101.59
259.885	11096.82
259.955	11183.54
260.025	11170.63
260.095	11172.26
260.165	11195.93
260.235	11242.1
260.305	11231.6
260.375	11207.02
260.445	11281.47
260.515	11330.82
260.585	11361.18
260.655	11367.55
260.725	11405.33
260.795	11437.42
260.865	11490.73
260.934	11468.41
261.004	11487.6
261.074	11486.78
261.144	11535.35
261.214	11568.23
261.284	11566.39
261.354	11604.95
261.424	11566.48
261.494	11619.97
261.564	11628.26
261.634	11649.46
261.703	11600.4
261.773	11617.17
261.843	11653.99
261.913	11644.64
261.983	11607.24
262.053	11625.22
262.123	11624.21
262.192	11591.97
262.262	11624.74
262.332	11589.12
262.402	11611.68
262.472	11623.29
262.541	11581.42
262.611	11612.31
262.681	11587.92
262.751	11616.6
262.821	11618.19
262.89	11594.53
262.96	11622.72
263.03	11687.7
263.1	11703.94
263.169	11720.96
263.239	11753.15
263.309	11795.23
263.379	11820.83
263.448	11833.45
263.518	11857.03
263.588	11870.91
263.657	11922.82
263.727	11949.62
263.797	11958.58
263.867	11957.38
263.936	11926.48
264.006	11977.27
264.076	11973.71
264.145	11972.6
264.215	11963.29
264.285	11995.49
264.354	11969.9
264.424	11959.92
264.494	11920.3
264.563	11917.16
264.633	11972.6
264.702	11981.9
264.772	11942.28
264.842	11937.55
264.911	11967.87
264.981	11938.08
265.05	11943.77
265.12	11946.32
265.19	11957.89
265.259	11987.73
265.329	12018.19
265.398	12037.23
265.468	12118.45
265.537	12114.5
265.607	12144.67
265.676	12185.69
265.746	12201.51
265.815	12241.61
265.885	12251.15
265.955	12234.47
266.024	12235.24
266.094	12194.61
266.163	12241.56
266.232	12287.64
266.302	12298.97
266.371	12316.37
266.441	12330.83
266.51	12368.53
266.58	12368.96
266.649	12358.55
266.719	12403.19
266.788	12430.33
266.858	12489.62
266.927	12427.68
266.996	12456.55
267.066	12483.4
267.135	12458.04
267.205	12492.41
267.274	12517.19
267.343	12555.13
267.413	12580.14
267.482	12629.6
267.552	12678.09
267.621	12652.88
267.69	12624.3
267.76	12641.84
267.829	12662.86
267.898	12675.39
267.968	12661.51
268.037	12693.95
268.106	12732.57
268.176	12708.99
268.245	12713.38
268.314	12712.85
268.384	12758.93
268.453	12770.5
268.522	12788.68
268.592	12839.19
268.661	12824.83
268.73	12849.8
268.799	12839.29
268.869	12898.87
268.938	12865.03
269.007	12863.2
269.076	12876.6
269.146	12921.77
269.215	12955.9
269.284	13011.87
269.353	13014.81
269.422	13024.93
269.492	13020.01
269.561	12954.84
269.63	12974.99
269.699	12981.06
269.768	12998.23
269.838	13019.29
269.907	13060.99
269.976	13040.02
270.045	12998.47
270.114	13035.35
270.183	13040.07
270.253	13065.04
270.322	13031.49
270.391	13049.86
270.46	13108.57
270.529	13143.71
270.598	13179.63
270.667	13179.05
270.736	13152.78
270.806	13188.11
270.875	13236.32
270.944	13255.94
271.013	13359.44
271.082	13387.83
271.151	13409.67
271.22	13377.51
271.289	13394.77
271.358	13383.97
271.427	13410.25
271.496	13437
271.565	13433.38
271.634	13456.67
271.703	13554.91
271.772	13601.19
271.841	13613.19
271.91	13579.45
271.979	13587.59
272.048	13562.62
272.117	13601.81
272.186	13604.85
272.255	13636.76
272.324	13669.3
272.393	13691.77
272.462	13688.15
272.531	13709.89
272.6	13715.92
272.669	13771.89
272.738	13773.53
272.807	13806.93
272.876	13803.17
272.945	13908.02
273.013	13955.89
273.082	13996.53
273.151	13924.8
273.22	13960.76
273.289	13985.83
273.358	14063.1
273.427	14082.62
273.496	14123.36
273.564	14152.09
273.633	14202.42
273.702	14188
273.771	14202.13
273.84	14231.39
273.909	14263.2
273.977	14286
274.046	14300.76
274.115	14354.5
274.184	14350.26
274.253	14372.34
274.322	14429.42
274.39	14382.56
274.459	14384.1
274.528	14346.12
274.597	14369.93
274.665	14386.66
274.734	14440.89
274.803	14439.3
274.872	14452.41
274.94	14449.04
275.009	14622.79
275.078	14621.39
275.147	14659.28
275.215	14674.27
275.284	14725.65
275.353	14734.52
275.421	14710.08
275.49	14776.94
275.559	14780.36
275.627	14798.63
275.696	14806.25
275.765	14840.14
275.833	14861.25
275.902	14887.43
275.971	14959.4
276.039	15026.98
276.108	15068.87
276.177	15101.4
276.245	15106.56
276.314	15131.43
276.383	15179.06
276.451	15051.92
276.52	15089.09
276.588	15145.82
276.657	15194.6
276.725	15194.46
276.794	15226.22
276.863	15303.59
276.931	15282.14
277	15332.65
277.068	15397.58
277.137	15484.68
277.205	15509.17
277.274	15588.41
277.342	15646.15
277.411	15626.58
277.48	15632.85
277.548	15637.53
277.617	15668.04
277.685	15684.33
277.754	15732.34
277.822	15760.87
277.89	15821.36
277.959	15843.92
278.027	15834.61
278.096	15839.72
278.164	15949.13
278.233	15966.48
278.301	15963.49
278.37	16017.33
278.438	16016.95
278.507	16062.64
278.575	16025.58
278.643	16051.6
278.712	16038.93
278.78	16034.06
278.849	16101.16
278.917	16159.91
278.985	16190.51
279.054	16221.31
279.122	16288.07
279.191	16318.48
279.259	16328.36
279.327	16312.26
279.396	16377.18
279.464	16395.88
279.532	16455.26
279.601	16471.31
279.669	16492.56
279.737	16564.28
279.806	16601.2
279.874	16659.47
279.942	16687.71
280.011	16717.83
280.079	16767.33
280.147	16850.03
280.215	16907.29
280.284	16928.69
280.352	16924.93
280.42	16976.5
280.488	16996.45
280.557	17014.14
280.625	17055.68
280.693	17102.34
280.761	17147.59
280.83	17143.4
280.898	17222.77
280.966	17209.13
281.034	17174
281.102	17170.29
281.171	17187.54
281.239	17243.59
281.307	17255.74
281.375	17263.54
281.443	17356.6
281.512	17381.52
281.58	17430.87
281.648	17418.48
281.716	17450.58
281.784	17487.16
281.852	17500.46
281.92	17528.17
281.989	17588.89
282.057	17583.25
282.125	17696.69
282.193	17729.46
282.261	17770.67
282.329	17786.62
282.397	17832.55
282.465	17865.27
282.533	17944.64
282.601	17958.96
282.67	17935.78
282.738	17951.34
282.806	18010.72
282.874	18018.47
282.942	18064.79
283.01	18075.82
283.078	18136.06
283.146	18163.87
283.214	18225.26
283.282	18272.15
283.35	18342.56
283.418	18364.19
283.486	18409.01
283.554	18358.08
283.622	18383.28
283.69	18420.43
283.758	18442.41
283.826	18486.94
283.894	18550.84
283.962	18636.08
284.03	18702.83
284.098	18746.63
284.165	18778.01
284.233	18812.08
284.301	18836.75
284.369	18847.74
284.437	18865.18
284.505	18887.59
284.573	18966.96
284.641	18964.21
284.709	19014.38
284.777	19004.26
284.845	19060.21
284.912	19113.65
284.98	19171.76
285.048	19201.93
285.116	19245.21
285.184	19316.05
285.252	19353.06
285.319	19346.84
285.387	19365.2
285.455	19363.13
285.523	19416.86
285.591	19443.65
285.659	19491.36
285.726	19549.43
285.794	19557.29
285.862	19588.22
285.93	19622.39
285.997	19646.2
286.065	19679.54
286.133	19689.71
286.201	19722.1
286.269	19721.76
286.336	19732.46
286.404	19755.49
286.472	19808.94
286.539	19790.24
286.607	19782.38
286.675	19825.32
286.743	19880.64
286.81	19892.89
286.878	19965.56
286.946	19983.39
287.013	20026.13
287.081	20045.07
287.149	20043.87
287.216	20125.17
287.284	20140.54
287.352	20178.03
287.419	20206.47
287.487	20282.61
287.555	20335.38
287.622	20367.72
287.69	20414.18
287.758	20480.3
287.825	20499.91
287.893	20509.22
287.96	20564.01
288.028	20635.43
288.096	20659.77
288.163	20707.34
288.231	20717.07
288.298	20740.59
288.366	20815.35
288.433	20840.7
288.501	20854.24
288.569	20896.99
288.636	20925.47
288.704	21008.95
288.771	21076.86
288.839	21084.33
288.906	21102.11
288.974	21159.96
289.041	21189.45
289.109	21198.13
289.176	21257.51
289.244	21307.59
289.311	21383.41
289.379	21452.33
289.446	21486.12
289.514	21527.71
289.581	21563.19
289.649	21607.43
289.716	21661.86
289.783	21675.88
289.851	21766.11
289.918	21816
289.986	21884.11
290.053	21926.82
290.121	21948.03
290.188	21985
290.255	22101.28
290.323	22118.39
290.39	22138.54
290.458	22187.85
290.525	22263.05
290.592	22289.76
290.66	22328.32
290.727	22340.28
290.794	22397.46
290.862	22433.66
290.929	22492.57
290.996	22522.32
291.064	22588.8
291.131	22642.13
291.198	22700.75
291.266	22726.11
291.333	22771.14
291.4	22811.06
291.468	22887.88
291.535	22912.75
291.602	22947.28
291.669	22958.61
291.737	23006.53
291.804	23040.62
291.871	23118.34
291.938	23174.14
292.006	23271.81
292.073	23329.91
292.14	23395.15
292.207	23424.51
292.275	23453.3
292.342	23502.25
292.409	23599.48
292.476	23697.59
292.543	23715.62
292.611	23753.1
292.678	23838.17
292.745	23938.59
292.812	23990.97
292.879	24016.97
292.946	24063.7
293.014	24135.28
293.081	24195.28
293.148	24260.82
293.215	24334.58
293.282	24354.16
293.349	24405.29
293.416	24385.32
293.484	24472.2
293.551	24532.5
293.618	24600.13
293.685	24702.17
293.752	24723.25
293.819	24761.9
293.886	24751.67
293.953	24809.95
294.02	24877.78
294.087	24919.33
294.154	24925.36
294.221	25005.67
294.288	25033.31
294.356	25120.45
294.423	25167.21
294.49	25176.81
294.557	25254.02
294.624	25267.68
294.691	25362.35
294.758	25409.8
294.825	25471.32
294.892	25489.08
294.959	25518.47
295.026	25581.8
295.093	25612.02
295.16	25657.43
295.226	25679.77
295.293	25792.69
295.36	25832.99
295.427	25908.45
295.494	25979.77
295.561	26043.91
295.628	26140.57
295.695	26228.09
295.762	26280.57
295.829	26349.67
295.896	26439.26
295.963	26500.69
296.03	26575.56
296.096	26625.45
296.163	26695.28
296.23	26781.53
296.297	26852.07
296.364	26909.86
296.431	26969.71
296.498	26993.66
296.564	27086.56
296.631	27155.08
296.698	27149.53
296.765	27256.86
296.832	27257.68
296.899	27276.42
296.965	27368.01
297.032	27360.23
297.099	27443.53
297.166	27508.7
297.233	27535.22
297.299	27558.6
297.366	27606.58
297.433	27654.94
297.5	27729.89
297.566	27770.82
297.633	27802.27
297.7	27851.75
297.767	27887.11
297.833	27933.12
297.9	27989.59
297.967	28001.04
298.033	28070.59
298.1	28190.22
298.167	28193.74
298.234	28263.04
298.3	28323.25
298.367	28340.07
298.434	28398.33
298.5	28415.44
298.567	28442.66
298.634	28481.56
298.7	28579.2
298.767	28627.74
298.834	28699.82
298.9	28713.35
298.967	28733.85
299.033	28789.31
299.1	28868.41
299.167	28945.76
299.233	28981.25
299.3	29055.31
299.366	29131.69
299.433	29208.93
299.5	29183.64
299.566	29237.89
299.633	29309.37
299.699	29367.93
299.766	29402.89
299.832	29444.35
299.899	29506.5
299.965	29571.41
300.032	29610.14
300.099	29652.23
300.165	29693.49
300.232	29727.2
300.298	29776.73
300.365	29861.77
300.431	29921.18
300.498	29941.6
300.564	29998.34
300.631	30063.61
300.697	30139.58
300.763	30189.7
300.83	30213.51
300.896	30288.45
300.963	30354.11
301.029	30404.15
301.096	30457.38
301.162	30529.23
301.229	30568.92
301.295	30580.63
301.361	30630.57
301.428	30682.34
301.494	30691.29
301.561	30735.53
301.627	30780.63
301.693	30824.28
301.76	30865.28
301.826	30882.37
301.892	30949.32
301.959	31007.17
302.025	31027.55
302.092	31041.4
302.158	31097.84
302.224	31147.18
302.291	31159.28
302.357	31183.58
302.423	31217.14
302.49	31233.84
302.556	31296.94
302.622	31321.29
302.688	31393.67
302.755	31470.73
302.821	31528.25
302.887	31589.44
302.954	31635.88
303.02	31687.45
303.086	31737.76
303.152	31770.59
303.219	31800.61
303.285	31852.69
303.351	31911.4
303.417	31957.5
303.483	31981.38
303.55	31992.61
303.616	32031.56
303.682	32082.98
303.748	32114.8
303.815	32184.42
303.881	32246.13
303.947	32259.16
304.013	32310.65
304.079	32322.81
304.145	32301.93
304.212	32325.37
304.278	32339.37
304.344	32362.62
304.41	32371.39
304.476	32386.94
304.542	32403.41
304.608	32461.39
304.674	32448.17
304.741	32460.86
304.807	32505.15
304.873	32552.19
304.939	32635.67
305.005	32619.3
305.071	32643.66
305.137	32689.88
305.203	32667.06
305.269	32694.05
305.335	32767.43
305.401	32797.81
305.467	32829.45
305.533	32894.58
305.599	32955.79
305.666	33029.15
305.732	33062.88
305.798	33133.73
305.864	33240.17
305.93	33293.09
305.996	33320.86
306.062	33369.86
306.128	33396.86
306.194	33406.07
306.259	33453.76
306.325	33463.36
306.391	33529.47
306.457	33583.45
306.523	33611.08
306.589	33699.36
306.655	33717.39
306.721	33690.54
306.787	33695.58
306.853	33766.84
306.919	33750.22
306.985	33758.31
307.051	33771.93
307.117	33790.11
307.183	33801.41
307.248	33752.97
307.314	33798.45
307.38	33831.51
307.446	33869.23
307.512	33874.18
307.578	33906.08
307.644	33913.93
307.709	33939
307.775	33946.76
307.841	33972.26
307.907	34008.33
307.973	33982.05
308.039	34016.67
308.104	34077.9
308.17	34115.52
308.236	34102.48
308.302	34148.34
308.368	34158.47
308.433	34182.33
308.499	34208.8
308.565	34220
308.631	34260.44
308.696	34226.84
308.762	34230.04
308.828	34237.94
308.894	34227.13
308.959	34205.9
309.025	34218.94
309.091	34236.25
309.156	34260.45
309.222	34292.56
309.288	34289.26
309.354	34270.25
309.419	34284.95
309.485	34260.51
309.551	34297.07
309.616	34298.04
309.682	34304.11
309.748	34323.16
309.813	34331.79
309.879	34338.53
309.945	34332.09
310.01	34343.43
310.076	34380.53
310.141	34398.42
310.207	34405.84
310.273	34442.94
310.338	34492.1
310.404	34472.9
310.469	34481.44
310.535	34488.37
310.601	34453.7
310.666	34498.37
310.732	34562.81
310.797	34569.6
310.863	34591.33
310.928	34599.87
310.994	34637.5
311.059	34672.04
311.125	34690.81
311.191	34739.22
311.256	34741.5
311.322	34786.26
311.387	34776.71
311.453	35813.62
311.518	35806.15
311.584	35831.13
311.649	35864.02
311.715	35865.71
311.78	35905.77
311.846	35899.85
311.911	35941.18
311.976	35990.8
312.042	35976.15
312.107	35963.97
312.173	35970.96
312.238	35976.15
312.304	36001.38
312.369	36002.35
312.434	35999.63
312.5	36022.57
312.565	35976.58
312.631	36020.72
312.696	36035.18
312.761	36058.02
312.827	35051.77
312.892	35151.91
312.958	35176.46
313.023	35204.84
313.088	35228.71
313.154	35232.3
313.219	35247.09
313.284	35241.41
313.35	35253.83
313.415	35264.5
313.48	35276.39
313.546	35307.92
313.611	35351.58
313.676	35351
313.741	35353.57
313.807	35416.27
313.872	35445.67
313.937	35490.34
314.003	35547.8
314.068	35566.82
314.133	35614.51
314.198	35626.54
314.264	35596.84
314.329	35590.82
314.394	35604.41
314.459	35624.35
314.525	35686.89
314.59	35710.47
314.655	35720.65
314.72	35758.31
314.785	35782.13
314.851	35797.27
314.916	35783.58
314.981	35782.81
315.046	35789.55
315.111	35791.88
315.176	35759.71
315.242	35780.33
315.307	35799.84
315.372	35765.14
315.437	35766.59
315.502	35770.67
315.567	35808.03
315.632	35787.7
315.698	35815.36
315.763	35827.54
315.828	35832.49
315.893	35840.4
315.958	35848.65
316.023	35838.9
316.088	35800.81
316.153	35778.59
316.218	35771.5
316.283	35726.97
316.348	35695.25
316.413	35699.47
316.479	35677.45
316.544	35586.31
316.609	35506.45
316.674	35411.82
316.739	35316.56
316.804	35227.41
316.869	35119.68
316.934	35014.99
316.999	34922.31
317.064	34782.05
317.129	34641.78
317.194	34523.31
317.259	34366.27
317.324	34201.62
317.389	34064.89
317.454	33937.52
317.518	33810.6
317.583	33719
317.648	33633.87
317.713	33500.13
317.778	33301.28
317.843	33179.47
317.908	33063.62
317.973	32934.46
318.038	32833.43
318.103	32707.13
318.168	32592.82
318.233	32482.74
318.297	32312.38
318.362	32180.62
318.427	32030.79
318.492	31924.41
318.557	31764.48
318.622	31646.27
318.687	31536.28
318.751	31380.32
318.816	31250.46
318.881	31109.98
318.946	30913.33
319.011	30741.44
319.075	30570.09
319.14	30423.15
319.205	30261.62
319.27	30119.38
319.335	29946.91
319.399	29765.01
319.464	29618.45
319.529	29413.97
319.594	29236.8
319.658	29093
319.723	28921.63
319.788	28782.02
319.853	28575.66
319.917	28411.69
319.982	28221.67
320.047	28052.71
320.112	27906.11
320.176	27704.17
320.241	27544.13
320.306	27384.36
320.37	27219.58
320.435	27069.18
320.5	26922.83
320.564	26742.16
320.629	26550.51
320.694	26378.62
320.758	26203.7
320.823	26014.31
320.888	25872.74
320.952	25677.4
321.017	25492.11
321.082	25315.28
321.146	25138.99
321.211	24980.61
321.275	24810.41
321.34	24607.74
321.405	24415.16
321.469	24228.96
321.534	24034.06
321.598	23818.65
321.663	23654.31
321.727	23474.65
321.792	23277.56
321.857	23078.78
321.921	22891.15
321.986	22700.53
322.05	22475
322.115	22292.66
322.179	22099.11
322.244	21860.87
322.308	21688.59
322.373	21487.97
322.437	21289.86
322.502	21147.75
322.566	20937.45
322.631	20756.33
322.695	20575.31
322.76	20371.44
322.824	20187.53
322.889	19987.05
322.953	19789.9
323.018	19533.65
323.082	19282.71
323.146	19056.59
323.211	18834.18
323.275	18631.15
323.34	18423.35
323.404	18245.47
323.468	18033.95
323.533	17829.38
323.597	17629.22
323.662	17403.39
323.726	17218.04
323.79	17007.14
323.855	16731.42
323.919	16509.42
323.983	16294.08
324.048	15975.82
324.112	16103.18
324.177	15456.08
324.241	14621.45
324.305	13787.66
324.37	12977.57
324.434	12185.96
324.498	11967.06
324.562	11720.32
324.627	11437.9
324.691	11165.72
324.755	10854.9
324.82	10503.38
324.884	10129.91
324.948	9748.19
325.012	9286.66
325.077	8723.45
