Data from 20250626_urea_1M_exp2_MAYP1162681_19-33-59-954.txt Node
Date: Thu Jun 26 19:33:59 BST 2025
User: adleo
Spectrometer: MAYP116268
Trigger mode: 0
Integration Time (sec): 3.000000E0
Scans to average: 1
Electric dark correction enabled: true
Nonlinearity correction enabled: true
Boxcar width: 10
XAxis mode: Wavelengths
Number of Pixels in Spectrum: 2068
>>>>>Begin Spectral Data<<<<<
179.565	3056.43
179.642	3207.85
179.718	3324.37
179.795	3439.47
179.871	3536.27
179.948	3589.88
180.024	3649.77
180.101	3712.45
180.177	3750.75
180.254	3812.02
180.33	3873.38
180.407	4085.03
180.483	4329.66
180.56	4571.34
180.636	4795.62
180.712	4765.25
180.789	4787.08
180.865	4820.39
180.942	4849.68
181.018	4882.96
181.095	4919.28
181.171	4934.17
181.248	4942.55
181.324	4986.82
181.4	5006.36
181.477	5035.68
181.553	5071.39
181.63	5125.67
181.706	5168.22
181.782	5194.16
181.859	5198.52
181.935	5215.82
182.011	5206.14
182.088	5246.02
182.164	5299.58
182.24	5331.28
182.317	5360.93
182.393	5359.83
182.469	5399.6
182.546	5433.25
182.622	5440.34
182.698	5432.14
182.775	5462.91
182.851	5497.23
182.927	5479.93
183.003	5465.36
183.08	5444.8
183.156	5467.09
183.232	5461.14
183.308	5429.18
183.385	5449.64
183.461	5491.73
183.537	5495.23
183.613	5533.81
183.69	5504.38
183.766	5473.73
183.842	5496.21
183.918	5508.77
183.995	5536.43
184.071	5544.39
184.147	5531.97
184.223	5503.04
184.299	5531.53
184.375	5504.35
184.452	5525.12
184.528	5633.85
184.604	5662.27
184.68	5697.4
184.756	5719.66
184.832	5729.44
184.908	5746.02
184.985	5747.26
185.061	5705.41
185.137	5726.23
185.213	5691.9
185.289	5700
185.365	5675.85
185.441	5669.18
185.517	5701.81
185.593	5694.42
185.669	5687.66
185.745	5710.58
185.822	5754.09
185.898	5730.25
185.974	5752.59
186.05	5727.64
186.126	5655.02
186.202	5635.99
186.278	5621.03
186.354	5594.12
186.43	5614.9
186.506	5611.73
186.582	5605.79
186.658	5627.64
186.734	5575.06
186.81	5580.62
186.886	5588
186.962	5626.5
187.038	5621.85
187.114	5600.97
187.19	5622.12
187.266	5594.51
187.341	5596.33
187.417	5576.44
187.493	5581.28
187.569	5593.08
187.645	5581
187.721	5557.5
187.797	5583.82
187.873	5598.01
187.949	5579.85
188.025	5559.07
188.101	5565.45
188.176	5579.4
188.252	5564.63
188.328	5585.23
188.404	5580.68
188.48	5565.06
188.556	5543.43
188.632	5541.13
188.707	5539.02
188.783	5534.89
188.859	5526.08
188.935	5498.7
189.011	5522.81
189.086	5504.69
189.162	5481.77
189.238	5476.41
189.314	5467.73
189.39	5449.85
189.465	5431.39
189.541	5481.45
189.617	5444.49
189.693	5429.35
189.768	5443.64
189.844	5503.36
189.92	5482.42
189.996	5511.43
190.071	5542.73
190.147	5542.54
190.223	5565.27
190.298	5544.99
190.374	5511.19
190.45	5539.42
190.526	5562.77
190.601	5550.54
190.677	5554.9
190.753	5630.34
190.828	5637.19
190.904	5679.16
190.98	5719.02
191.055	5747.17
191.131	5717.67
191.207	5769.06
191.282	5794.37
191.358	5766.61
191.433	5734.41
191.509	5769.67
191.585	5758.74
191.66	5760.51
191.736	5781.27
191.811	5755.33
191.887	5804.12
191.963	5859.46
192.038	5876.05
192.114	5875.33
192.189	5883.29
192.265	5873.42
192.34	5807.09
192.416	5803.54
192.491	5789.1
192.567	5793.04
192.642	5804.41
192.718	5812.03
192.793	5782.87
192.869	5773.33
192.944	5780.09
193.02	5798.08
193.095	5806.04
193.171	5830.12
193.246	5828.39
193.322	5819.33
193.397	5823.83
193.473	5788.61
193.548	5746.93
193.624	5759.59
193.699	5755.04
193.775	5801.97
193.85	5808.01
193.925	5834.25
194.001	5834.82
194.076	5814.82
194.152	5783.11
194.227	5757.59
194.302	5730.7
194.378	5741.58
194.453	5732.91
194.529	5763.51
194.604	5725.33
194.679	5715.55
194.755	5656.69
194.83	5691.29
194.905	5685.39
194.981	5707.89
195.056	5689.58
195.131	5707.32
195.207	5699.59
195.282	5677.73
195.357	5623.75
195.433	5662.44
195.508	5632.8
195.583	5654.57
195.659	5690.16
195.734	5717.31
195.809	5719.52
195.884	5740.13
195.96	5733.7
196.035	5780.03
196.11	5776.62
196.185	5805.25
196.261	5806.78
196.336	5890.85
196.411	5847.61
196.486	5858.69
196.561	5835.09
196.637	5856.66
196.712	5897.41
196.787	5908.45
196.862	5948.11
196.937	5968.64
197.013	5988.12
197.088	6014.21
197.163	6070
197.238	6113.9
197.313	6109.39
197.388	6143.65
197.464	6226.6
197.539	6264.46
197.614	6240.28
197.689	6267.69
197.764	6313.06
197.839	6372.47
197.914	6356.91
197.989	6424.21
198.065	6466.02
198.14	6611.88
198.215	6687.07
198.29	6716.29
198.365	6753.84
198.44	6778.23
198.515	6852.43
198.59	6889.66
198.665	6960.56
198.74	6981.99
198.815	6986.03
198.89	7048.71
198.965	7127
199.04	7115.13
199.115	7152.45
199.19	7267.31
199.265	7278.88
199.34	7302.91
199.415	7393.56
199.49	7450.72
199.565	7468.41
199.64	7530.51
199.715	7517.95
199.79	7529.05
199.865	7545.54
199.94	7538.86
200.015	7631.08
200.09	7647.77
200.165	7664.01
200.24	7679.35
200.315	7782.82
200.39	7826.29
200.464	7837.87
200.539	7843.36
200.614	7890.04
200.689	7954.72
200.764	7976.95
200.839	8022.9
200.914	8038.53
200.989	8007.49
201.063	8052.47
201.138	8008.26
201.213	8012.3
201.288	7957.82
201.363	7971.48
201.438	7977.3
201.512	8019.93
201.587	7968.03
201.662	7986.11
201.737	8026.47
201.812	8045.71
201.886	7960.47
201.961	7993.78
202.036	7963.2
202.111	7953.78
202.186	7870.4
202.26	7822.78
202.335	7768.09
202.41	7748.09
202.485	7704.74
202.559	7651.23
202.634	7572.33
202.709	7600.96
202.784	7547.31
202.858	7547.55
202.933	7499.68
203.008	7477.94
203.082	7428.87
203.157	7428.73
203.232	7307.66
203.306	7242.41
203.381	7157.86
203.456	7092.51
203.53	7018.95
203.605	6968.11
203.68	6901.54
203.754	6884.02
203.829	6843.28
203.904	6781.22
203.978	6754.89
204.053	6768.2
204.127	6735.59
204.202	6728.63
204.277	6682.57
204.351	6661.73
204.426	6639.48
204.5	6618.5
204.575	6520.2
204.65	6542.64
204.724	6517.69
204.799	6543.89
204.873	6533.9
204.948	6528.42
205.022	6497.47
205.097	6475.03
205.171	6514.35
205.246	6540.24
205.32	6538.95
205.395	6536.78
205.469	6513.9
205.544	6526.35
205.618	6474.63
205.693	6505.8
205.767	6476.66
205.842	6530.5
205.916	6517.63
205.991	6495.31
206.065	6508.08
206.14	6546.2
206.214	6532.46
206.289	6508.68
206.363	6536.29
206.438	6541
206.512	6564.15
206.586	6616.71
206.661	6647.57
206.735	6580.49
206.81	6582.12
206.884	6628.88
206.958	6593.5
207.033	6641.3
207.107	6652.74
207.181	6740.7
207.256	6724.03
207.33	6772
207.405	6809.79
207.479	6861.14
207.553	6879.86
207.628	6838.35
207.702	6878.82
207.776	6858.5
207.851	6877.28
207.925	6916.16
207.999	6910.64
208.073	6903.63
208.148	6913.96
208.222	6873.3
208.296	6964.31
208.371	7006.63
208.445	7032.72
208.519	7116.24
208.593	7146.18
208.668	7142.52
208.742	7151.08
208.816	7162.71
208.89	7204.53
208.965	7195.25
209.039	7215.44
209.113	7259.5
209.187	7318.94
209.261	7303.95
209.336	7366.18
209.41	7417.38
209.484	7421.23
209.558	7487.28
209.632	7519.96
209.707	7548.75
209.781	7608.25
209.855	7651.72
209.929	7695.76
210.003	7706.04
210.077	7698.64
210.151	7827.52
210.226	7919.45
210.3	7990.59
210.374	8050.73
210.448	8057.8
210.522	8086.14
210.596	8113.36
210.67	8139.43
210.744	8266.6
210.818	8354.04
210.892	8406.49
210.966	8391.39
211.041	8429.01
211.115	8415.01
211.189	8485.2
211.263	8530.52
211.337	8552.17
211.411	8590.67
211.485	8573.15
211.559	8608.07
211.633	8616.1
211.707	8534.35
211.781	8550.72
211.855	8456.26
211.929	8430.29
212.003	8383.36
212.077	8410.22
212.151	8440.83
212.225	8468.59
212.299	8432.19
212.373	8404.24
212.447	8387.78
212.52	8464.91
212.594	8475.98
212.668	8504.37
212.742	8462.41
212.816	8452.3
212.89	8438.16
212.964	8426.7
213.038	8435.51
213.112	8465.69
213.186	8506.86
213.26	8445.32
213.333	8315.63
213.407	8325.49
213.481	8334.43
213.555	8362.07
213.629	8325.68
213.703	8274.63
213.777	8263.23
213.85	8206.78
213.924	8288.84
213.998	8285.43
214.072	8265.98
214.146	8219.16
214.219	8208.53
214.293	8196.94
214.367	8191.98
214.441	8208.63
214.515	8169.99
214.588	8101.44
214.662	8000.01
214.736	7931.15
214.81	7950.56
214.883	7973.34
214.957	7931.09
215.031	7883.03
215.105	7810.2
215.178	7763.65
215.252	7734.56
215.326	7660.52
215.4	7594.97
215.473	7453.9
215.547	7382.34
215.621	7329.32
215.694	7330.28
215.768	7251.54
215.842	7193.01
215.915	7136.07
215.989	7045.6
216.063	7003.92
216.136	6988.69
216.21	6971.16
216.284	6982.74
216.357	6963.08
216.431	6933.44
216.504	6937.38
216.578	6984.43
216.652	6990.09
216.725	6968.76
216.799	6976.78
216.873	6959.64
216.946	6965.69
217.02	6939.96
217.093	6925.69
217.167	6850.27
217.24	6780.64
217.314	6749.39
217.387	6716.52
217.461	6682.46
217.535	6699.95
217.608	6648.28
217.682	6621.86
217.755	6632.67
217.829	6588.52
217.902	6567.34
217.976	6547.51
218.049	6507.13
218.123	6445.53
218.196	6449.42
218.27	6417.78
218.343	6363.07
218.417	6362.15
218.49	6344.44
218.563	6377.81
218.637	6377.52
218.71	6430.73
218.784	6457.81
218.857	6485.08
218.931	6505.71
219.004	6510.94
219.077	6523.63
219.151	6541.63
219.224	6538.22
219.298	6534.04
219.371	6569.2
219.444	6541.79
219.518	6551.78
219.591	6566.94
219.665	6650.04
219.738	6663.68
219.811	6653.22
219.885	6690.77
219.958	6719.59
220.031	6723.77
220.105	6739.38
220.178	6747.26
220.251	6718.24
220.325	6739.72
220.398	6752.59
220.471	6764.79
220.544	6789.57
220.618	6774.2
220.691	6797.34
220.764	6814.68
220.838	6835.82
220.911	6824.48
220.984	6891.13
221.057	6921.87
221.131	6942.28
221.204	6868.31
221.277	6927.18
221.35	7030.67
221.424	7022.36
221.497	7023.8
221.57	7044.54
221.643	7065.12
221.716	7101.64
221.79	7114.66
221.863	7125.19
221.936	7135.71
222.009	7151.41
222.082	7175.78
222.155	7185.06
222.229	7236.88
222.302	7260.66
222.375	7266.43
222.448	7299.4
222.521	7306.7
222.594	7303.05
222.667	7282.88
222.74	7324.83
222.814	7317.37
222.887	7298.47
222.96	7342.59
223.033	7384.33
223.106	7402.68
223.179	7431.01
223.252	7435.24
223.325	7458.88
223.398	7468.5
223.471	7488.59
223.544	7505.26
223.617	7515.21
223.69	7534.92
223.763	7505.54
223.837	7522.7
223.91	7548.33
223.983	7504.6
224.056	7478.93
224.129	7496.76
224.202	7541.83
224.275	7531.97
224.348	7507.7
224.42	7483.66
224.493	7438.72
224.566	7416.45
224.639	7437.36
224.712	7410.43
224.785	7403.94
224.858	7393.99
224.931	7375.91
225.004	7344.82
225.077	7344.96
225.15	7273.7
225.223	7269.09
225.296	7335.18
225.369	7292.12
225.442	7264.57
225.514	7283.5
225.587	7296.76
225.66	7313.06
225.733	7311.14
225.806	7314.36
225.879	7307.63
225.952	7280.92
226.025	7321.58
226.097	7367.62
226.17	7358.05
226.243	7306.69
226.316	7302.07
226.389	7309.14
226.461	7327.79
226.534	7346.29
226.607	7338.51
226.68	7400.77
226.753	7396.49
226.825	7330.93
226.898	7376.06
226.971	7380.72
227.044	7397.01
227.117	7400.76
227.189	7405.86
227.262	7436.83
227.335	7455.1
227.407	7457.02
227.48	7488.39
227.553	7496.62
227.626	7476.21
227.698	7482.66
227.771	7524.98
227.844	7515.13
227.916	7531.62
227.989	7502.1
228.062	7497.24
228.134	7569.81
228.207	7576.88
228.28	7570.06
228.352	7581.11
228.425	7585.83
228.498	7622.66
228.57	7610.84
228.643	7657.05
228.716	7660.47
228.788	7647.38
228.861	7646.13
228.934	7696.47
229.006	7701.38
229.079	7706.04
229.151	7692.19
229.224	7664.65
229.296	7680.18
229.369	7762.73
229.442	7804.2
229.514	7790.22
229.587	7828.1
229.659	7763.08
229.732	7771.49
229.804	7805
229.877	7863.45
229.949	7886.93
230.022	7924.65
230.094	7926.82
230.167	7918.25
230.239	7887.05
230.312	7880.89
230.384	7940.07
230.457	7932.91
230.529	7942.62
230.602	7944.74
230.674	7954.31
230.747	7988.48
230.819	8008.97
230.892	7908.93
230.964	7899.69
231.037	7925.06
231.109	7921.16
231.181	7955.25
231.254	7927.31
231.326	7917.22
231.399	7901.24
231.471	7879.98
231.544	7814.89
231.616	7845.99
231.688	7853.06
231.761	7837.98
231.833	7833.22
231.905	7759.42
231.978	7761.87
232.05	7746.63
232.122	7741.82
232.195	7725.33
232.267	7754.95
232.339	7733.89
232.412	7787.92
232.484	7768.25
232.556	7745.32
232.629	7803.5
232.701	7812.88
232.773	7820.52
232.846	7811.29
232.918	7818.27
232.99	7830.82
233.062	7867.04
233.135	7877.48
233.207	7850.54
233.279	7889.96
233.351	7912.51
233.424	7922.65
233.496	7900.19
233.568	7967.3
233.64	7936.19
233.713	7947.25
233.785	7947.06
233.857	7966.97
233.929	7922.97
234.001	7980.77
234.074	8032.26
234.146	7973.07
234.218	7973.75
234.29	7970.86
234.362	7964.42
234.434	7919.01
234.507	7894.58
234.579	7855.14
234.651	7844.51
234.723	7869.09
234.795	7881.02
234.867	7869.86
234.939	7909.69
235.012	7920.94
235.084	7917.86
235.156	7954.26
235.228	7936.51
235.3	7917.61
235.372	7921.22
235.444	7977.67
235.516	7913.81
235.588	7916.84
235.66	7921.8
235.732	7898.85
235.804	8065.48
235.876	8101.25
235.948	8160.77
236.02	8172.45
236.092	8186.97
236.164	8192.5
236.236	8191.64
236.308	8192.84
236.38	8222.62
236.452	8206.64
236.524	8226.46
236.596	8285.3
236.668	8311.04
236.74	8333.93
236.812	8357.79
236.884	8389.02
236.956	8390.56
237.028	8378.11
237.1	8369.21
237.172	8431.72
237.244	8495.19
237.316	8398.42
237.388	8385.48
237.46	8358.53
237.532	8408.71
237.604	8400.54
237.675	8458.24
237.747	8484.95
237.819	8474.99
237.891	8476.87
237.963	8469.46
238.035	8471.67
238.107	8382.52
238.178	8434.13
238.25	8448.28
238.322	8525.64
238.394	8495.28
238.466	8497.25
238.538	8537.56
238.609	8569.75
238.681	8526.96
238.753	8507.65
238.825	8518.63
238.897	8547.11
238.968	8621.2
239.04	8604.79
239.112	8697.95
239.184	8673.93
239.255	8677.54
239.327	8708.62
239.399	8726.19
239.471	8767.09
239.542	8790.57
239.614	8841.25
239.686	8775.49
239.758	8813.65
239.829	8775.61
239.901	8819.26
239.973	8836.44
240.044	8863.35
240.116	8874.27
240.188	8878.46
240.259	8899.01
240.331	8896.03
240.403	8924.52
240.474	8881.9
240.546	8874.15
240.618	8821.59
240.689	8816.39
240.761	8843.11
240.833	8893.03
240.904	8892.5
240.976	8898.04
241.048	8912.43
241.119	8946.91
241.191	8983.44
241.262	9040.22
241.334	9047.88
241.405	9055.68
241.477	9056.98
241.549	9066.13
241.62	9087.94
241.692	9135.98
241.763	9183.12
241.835	9198.53
241.906	9214.66
241.978	9190.55
242.049	9248.99
242.121	9305.6
242.192	9360.39
242.264	9325.63
242.335	9286.83
242.407	9326.36
242.478	9322.07
242.55	9336.13
242.621	9318.26
242.693	9320.34
242.764	9302.32
242.836	9305.45
242.907	9329.38
242.979	9358.51
243.05	9374.64
243.122	9393.81
243.193	9388.37
243.264	9335.88
243.336	9337.71
243.407	9356.29
243.479	9421.63
243.55	9431.46
243.622	9439.64
243.693	9437.86
243.764	9496.22
243.836	9479.23
243.907	9469.7
243.978	9481.73
244.05	9502.39
244.121	9475.19
244.192	9505.19
244.264	9470.37
244.335	9486.74
244.407	9446.78
244.478	9458.34
244.549	9457.56
244.62	9421.16
244.692	9421.26
244.763	9453.66
244.834	9447.89
244.906	9437.15
244.977	9450.78
245.048	9495.78
245.119	9480.46
245.191	9460.86
245.262	9409.05
245.333	9472.69
245.405	9489.02
245.476	9513.67
245.547	9522.25
245.618	9560.77
245.689	9570.06
245.761	9599.34
245.832	9599.44
245.903	9634.98
245.974	9655.88
246.045	9662.48
246.117	9735.06
246.188	9726.15
246.259	9710.4
246.33	9725.72
246.401	9735.35
246.473	9716.52
246.544	9706.59
246.615	9751.34
246.686	9760.68
246.757	9822.08
246.828	9804.5
246.899	9861.78
246.97	9838.04
247.042	9841.66
247.113	9875.91
247.184	9951.07
247.255	9953.77
247.326	9977.38
247.397	9985.23
247.468	9993.61
247.539	10009.21
247.61	9968.94
247.681	10006.03
247.752	10052.21
247.823	10026.6
247.894	10038.49
247.965	10013.21
248.037	10002.95
248.108	9962.24
248.179	9967.69
248.25	9963.11
248.321	9995.14
248.392	9955.48
248.463	10019.93
248.534	10014.92
248.605	10033.13
248.675	10011.64
248.746	10022.96
248.817	10033.17
248.888	10042.71
248.959	9998.16
249.03	10017.81
249.101	10027.49
249.172	10009.24
249.243	9950.48
249.314	10014.06
249.385	10023.94
249.456	10048.74
249.527	10038.14
249.598	10058.13
249.669	10055.77
249.739	10060.3
249.81	10066.08
249.881	10033.61
249.952	10026
250.023	10020.41
250.094	9971.03
250.165	9946.02
250.235	9942.51
250.306	9947.71
250.377	9932.83
250.448	9957.82
250.519	9906.38
250.59	9956.19
250.66	9957.88
250.731	10005.7
250.802	10001.46
250.873	10012.73
250.944	10035.76
251.014	10029.21
251.085	10097.77
251.156	10124.17
251.227	10168.26
251.297	10208.01
251.368	10248.9
251.439	10283.35
251.51	10328.64
251.58	10328.45
251.651	10328.16
251.722	10372.97
251.792	10334.48
251.863	10332.02
251.934	10376.78
252.005	10464.84
252.075	10472.41
252.146	10517.64
252.217	10565.34
252.287	10598.88
252.358	10610.25
252.429	10666.92
252.499	10662.44
252.57	10675.64
252.641	10714.28
252.711	10720.02
252.782	10683.01
252.852	10750.09
252.923	10754
252.994	10767.87
253.064	10800.01
253.135	10777.12
253.205	10759.1
253.276	10822.65
253.347	10877.81
253.417	10864.13
253.488	10853.91
253.558	10844.99
253.629	10839.45
253.699	10853.57
253.77	10875.07
253.841	10864.61
253.911	10870.88
253.982	10888.8
254.052	10914.15
254.123	10920.61
254.193	10923.16
254.264	11038.59
254.334	11002.44
254.405	10976.52
254.475	10950.3
254.546	10962.21
254.616	11011.69
254.687	11033.95
254.757	11053.66
254.827	11059.35
254.898	11084.31
254.968	11088.84
255.039	11070.19
255.109	11100.45
255.18	11078
255.25	11012.94
255.321	11044.79
255.391	11009.42
255.461	11080.55
255.532	11014.81
255.602	11002.23
255.673	10956.7
255.743	10924.69
255.813	10875.74
255.884	10906.34
255.954	10936.12
256.024	10984.6
256.095	10994.05
256.165	10964.94
256.235	10982.34
256.306	10966.87
256.376	11003.26
256.446	11036.32
256.517	11060.94
256.587	11100.61
256.657	11115.21
256.728	11136.41
256.798	11138.43
256.868	11140.27
256.938	11116.7
257.009	11151.44
257.079	11179.68
257.149	11258.14
257.219	11210.14
257.29	11235.57
257.36	11194.28
257.43	11226.57
257.5	11179.43
257.571	11172.21
257.641	11209.98
257.711	11177.4
257.781	11203.57
257.852	11214.37
257.922	11165.21
257.992	11170.22
258.062	11158.17
258.132	11193.21
258.202	11201.64
258.273	11213.5
258.343	11278.37
258.413	11261.41
258.483	11264.59
258.553	11249.17
258.623	11234.95
258.693	11263.96
258.764	11319.62
258.834	11378.99
258.904	11389.21
258.974	11380.68
259.044	11387.91
259.114	11409.89
259.184	11433.36
259.254	11443.48
259.324	11397.02
259.394	11437.26
259.464	11509.94
259.535	11521.22
259.605	11518.57
259.675	11516.59
259.745	11552.6
259.815	11527.39
259.885	11531.78
259.955	11626.5
260.025	11619.51
260.095	11633
260.165	11652.33
260.235	11702.9
260.305	11693.93
260.375	11674.99
260.445	11752.77
260.515	11807.19
260.585	11845.61
260.655	11859.25
260.725	11895.01
260.795	11930.49
260.865	11987.61
260.934	11953.57
261.004	11981.34
261.074	11983.75
261.144	12033.39
261.214	12056.48
261.284	12062.31
261.354	12095.66
261.424	12059.65
261.494	12113.53
261.564	12113.82
261.634	12135.37
261.703	12079.94
261.773	12097.77
261.843	12121.92
261.913	12112.52
261.983	12067.6
262.053	12081.24
262.123	12067.6
262.192	12030.77
262.262	12064.32
262.332	12021.62
262.402	12057.04
262.472	12054.3
262.541	12007.11
262.611	12049.44
262.681	12034.06
262.751	12068.76
262.821	12076.14
262.89	12047.22
262.96	12066.69
263.03	12126.32
263.1	12149.84
263.169	12176.59
263.239	12205.95
263.309	12262.11
263.379	12286.84
263.448	12306.84
263.518	12327.28
263.588	12351.09
263.657	12405.12
263.727	12438.19
263.797	12447.35
263.867	12438.87
263.936	12412.16
264.006	12467.35
264.076	12457.61
264.145	12451.39
264.215	12428.93
264.285	12457.51
264.354	12422.13
264.424	12420.88
264.494	12381.01
264.563	12374.12
264.633	12429.27
264.702	12442.33
264.772	12398.8
264.842	12392.44
264.911	12423.24
264.981	12385.74
265.05	12395.91
265.12	12398.65
265.19	12403.86
265.259	12446.28
265.329	12470.82
265.398	12502.92
265.468	12571.42
265.537	12571.56
265.607	12607.04
265.676	12651.82
265.746	12677.9
265.815	12729.53
265.885	12729.38
265.955	12718.44
266.024	12713.91
266.094	12670.28
266.163	12720.13
266.232	12772.67
266.302	12786.46
266.371	12798.8
266.441	12822.9
266.51	12857.66
266.58	12857.27
266.649	12842.76
266.719	12880.22
266.788	12910.16
266.858	12967.52
266.927	12921
266.996	12939.75
267.066	12964.97
267.135	12941.59
267.205	12967.81
267.274	12992.44
267.343	13034.82
267.413	13056.12
267.482	13115.66
267.552	13160.34
267.621	13119.61
267.69	13083.79
267.76	13107.51
267.829	13132.62
267.898	13155.81
267.968	13148.77
268.037	13190.42
268.106	13232.7
268.176	13210.53
268.245	13218
268.314	13201.9
268.384	13249.09
268.453	13266.59
268.522	13279.32
268.592	13328.05
268.661	13313.49
268.73	13334.56
268.799	13328.92
268.869	13400.31
268.938	13353.22
269.007	13352.69
269.076	13381.85
269.146	13428.18
269.215	13452.42
269.284	13504.63
269.353	13498.32
269.422	13498.27
269.492	13486.46
269.561	13424.8
269.63	13450.64
269.699	13447.75
269.768	13467.42
269.838	13485.16
269.907	13523.14
269.976	13504.73
270.045	13461.44
270.114	13495.18
270.183	13499.38
270.253	13521.7
270.322	13475.23
270.391	13506.46
270.46	13563.3
270.529	13598.73
270.598	13636.09
270.667	13638.94
270.736	13617.05
270.806	13644.67
270.875	13691.43
270.944	13709.22
271.013	13810.84
271.082	13835.95
271.151	13864.93
271.22	13837.74
271.289	13842.94
271.358	13846.95
271.427	13881.12
271.496	13906.48
271.565	13905.18
271.634	13920.75
271.703	14025.3
271.772	14078.72
271.841	14077.32
271.91	14053.22
271.979	14064.35
272.048	14038.18
272.117	14075.2
272.186	14079.25
272.255	14116.56
272.324	14149.34
272.393	14173.78
272.462	14168.96
272.531	14181.92
272.6	14191.32
272.669	14253.56
272.738	14266.53
272.807	14293.09
272.876	14274.87
272.945	14390.7
273.013	14442.91
273.082	14500.27
273.151	14420.64
273.22	14451.49
273.289	14479.84
273.358	14548.96
273.427	14561.45
273.496	14602.95
273.564	14639.15
273.633	14686.49
273.702	14672.75
273.771	14692.51
273.84	14723.08
273.909	14751.66
273.977	14778.99
274.046	14795.62
274.115	14840.79
274.184	14838.81
274.253	14854.14
274.322	14920.28
274.39	14871.69
274.459	14863.98
274.528	14828.93
274.597	14854.1
274.665	14882.73
274.734	14942.46
274.803	14945.35
274.872	14966.94
274.94	14961.78
275.009	15061.12
275.078	15059.87
275.147	15101.18
275.215	15116.6
275.284	15167.12
275.353	15182.93
275.421	15164.23
275.49	15238.07
275.559	15235.95
275.627	15256.44
275.696	15275.57
275.765	15309.12
275.833	15318.66
275.902	15359.06
275.971	15420.37
276.039	15490.46
276.108	15536.78
276.177	15564.11
276.245	15562.95
276.314	15578.76
276.383	15631.93
276.451	15580.65
276.52	15620.61
276.588	15682.16
276.657	15734.55
276.725	15736.96
276.794	15770.75
276.863	15840.54
276.931	15810.46
277	15871.73
277.068	15938.05
277.137	16014.97
277.205	16040.91
277.274	16131.71
277.342	16196.68
277.411	16183.91
277.48	16189.98
277.548	16190.08
277.617	16223.34
277.685	16249.75
277.754	16300.84
277.822	16318.39
277.89	16385.62
277.959	16407.11
278.027	16384.99
278.096	16388.61
278.164	16502.34
278.233	16519.31
278.301	16523.45
278.37	16575.03
278.438	16580.71
278.507	16620.28
278.575	16589.05
278.643	16613.63
278.712	16591.65
278.78	16579.8
278.849	16649.88
278.917	16707.66
278.985	16730.65
279.054	16762.41
279.122	16822.42
279.191	16853.07
279.259	16884.3
279.327	16858.33
279.396	16932.98
279.464	16963.63
279.532	17017.7
279.601	17031.97
279.669	17054.14
279.737	17129.9
279.806	17173.71
279.874	17232.17
279.942	17261.08
280.011	17287.11
280.079	17351.69
280.147	17432.7
280.215	17486.53
280.284	17501.66
280.352	17508.8
280.42	17563.64
280.488	17588.46
280.557	17614.63
280.625	17653.76
280.693	17682.34
280.761	17729.66
280.83	17720.55
280.898	17801.57
280.966	17782.53
281.034	17737.38
281.102	17734.1
281.171	17739.59
281.239	17801.08
281.307	17810.19
281.375	17818.72
281.443	17919.1
281.512	17940.36
281.58	17995.73
281.648	17990.09
281.716	18024.11
281.784	18049.17
281.852	18069.56
281.92	18101.55
281.989	18164.3
282.057	18163.82
282.125	18275.18
282.193	18310.22
282.261	18336.05
282.329	18347.95
282.397	18400.43
282.465	18449.39
282.533	18527.37
282.601	18542.16
282.67	18508.19
282.738	18524.43
282.806	18592.28
282.874	18597.87
282.942	18644.08
283.01	18663.84
283.078	18710.88
283.146	18740.47
283.214	18805.18
283.282	18851.69
283.35	18911.39
283.418	18924.31
283.486	18977.37
283.554	18945.03
283.622	18974.23
283.69	19026.91
283.758	19052.64
283.826	19109.7
283.894	19168.15
283.962	19257.78
284.03	19334.74
284.098	19386.26
284.165	19409.2
284.233	19437.2
284.301	19458.45
284.369	19468.37
284.437	19478.88
284.505	19504.76
284.573	19584.32
284.641	19594.97
284.709	19654.39
284.777	19651.64
284.845	19713.91
284.912	19762.15
284.98	19810.34
285.048	19833.32
285.116	19873.13
285.184	19935.49
285.252	19974.52
285.319	19973.46
285.387	19985.94
285.455	19980.4
285.523	20031.24
285.591	20066.28
285.659	20110.08
285.726	20176.2
285.794	20175
285.862	20211.87
285.93	20262.85
285.997	20281.65
286.065	20310.37
286.133	20307.09
286.201	20336.3
286.269	20338.85
286.336	20349.16
286.404	20375.04
286.472	20434.61
286.539	20416.54
286.607	20409.07
286.675	20438.13
286.743	20486.23
286.81	20506.81
286.878	20579.67
286.946	20597.02
287.013	20634.57
287.081	20660.98
287.149	20657.89
287.216	20751.78
287.284	20770.96
287.352	20802.28
287.419	20827.01
287.487	20899.69
287.555	20949.04
287.622	20981.86
287.69	21030.16
287.758	21099.51
287.825	21120.14
287.893	21122.5
287.96	21188.43
288.028	21266.56
288.096	21304.68
288.163	21358.47
288.231	21365.22
288.298	21404.51
288.366	21475.27
288.433	21505.48
288.501	21528.76
288.569	21574.75
288.636	21589.11
288.704	21673.13
288.771	21730.49
288.839	21753.67
288.906	21766.59
288.974	21836.64
289.041	21864.98
289.109	21877.95
289.176	21935.17
289.244	21991.37
289.311	22066.67
289.379	22130.2
289.446	22168.09
289.514	22212.64
289.581	22248.65
289.649	22292.56
289.716	22315.36
289.783	22329.54
289.851	22416.16
289.918	22458.44
289.986	22519.62
290.053	22568.5
290.121	22584.95
290.188	22617.59
290.255	22736.1
290.323	22767.29
290.39	22777.85
290.458	22843.66
290.525	22915.74
290.592	22942.64
290.66	22976.68
290.727	22991.53
290.794	23067.82
290.862	23109.24
290.929	23154.18
290.996	23190.87
291.064	23262.43
291.131	23340.46
291.198	23421.37
291.266	23457.59
291.333	23495.39
291.4	23546.56
291.468	23632.65
291.535	23661.78
291.602	23713.23
291.669	23718.11
291.737	23755.14
291.804	23798.21
291.871	23861.43
291.938	23909.62
292.006	24011.51
292.073	24083.9
292.14	24163.15
292.207	24173.86
292.275	24204
292.342	24256.82
292.409	24362.76
292.476	24459.5
292.543	24468.43
292.611	24503.6
292.678	24576.11
292.745	24680.35
292.812	24741.77
292.879	24753.06
292.946	24794.01
293.014	24862.57
293.081	24922.5
293.148	25006.92
293.215	25082.92
293.282	25121.95
293.349	25190.62
293.416	25172.42
293.484	25237.91
293.551	25291.57
293.618	25370.08
293.685	25481.09
293.752	25507.1
293.819	25522.98
293.886	25524.13
293.953	25583.83
294.02	25645.22
294.087	25709.38
294.154	25717.19
294.221	25793.58
294.288	25841.31
294.356	25930.06
294.423	25976.21
294.49	25993.92
294.557	26067.06
294.624	26084.92
294.691	26170.85
294.758	26203.44
294.825	26260.94
294.892	26289.08
294.959	26330.7
295.026	26381.4
295.093	26405.98
295.16	26444.16
295.226	26498.58
295.293	26604.74
295.36	26662.73
295.427	26732.91
295.494	26798.8
295.561	26870.21
295.628	26967.49
295.695	27048.39
295.762	27114.56
295.829	27190.3
295.896	27273.03
295.963	27336.36
296.03	27411.85
296.096	27468.28
296.163	27556.99
296.23	27644.62
296.297	27713.45
296.364	27756.78
296.431	27823.27
296.498	27846.02
296.564	27956.88
296.631	27998.82
296.698	27998.24
296.765	28093.44
296.832	28106
296.899	28117.02
296.965	28219.82
297.032	28195.74
297.099	28282.32
297.166	28338.92
297.233	28379.48
297.299	28414.37
297.366	28457.78
297.433	28501.13
297.5	28562.24
297.566	28594.25
297.633	28639.89
297.7	28689.53
297.767	28726.65
297.833	28781.28
297.9	28838.41
297.967	28836.09
298.033	28925.25
298.1	29053.51
298.167	29063.52
298.234	29117.23
298.3	29182.64
298.367	29201.02
298.434	29269.02
298.5	29272.55
298.567	29298.57
298.634	29327.1
298.7	29409.93
298.767	29455.3
298.834	29536.46
298.9	29569.89
298.967	29596.1
299.033	29653.87
299.1	29740.56
299.167	29822.14
299.233	29853.4
299.3	29935.34
299.366	30028.58
299.433	30096.34
299.5	30062.51
299.566	30126.42
299.633	30216.41
299.699	30284.06
299.766	30308.25
299.832	30358.43
299.899	30432.76
299.965	30505.97
300.032	30547.29
300.099	30605.75
300.165	30660.06
300.232	30680.87
300.298	30719.78
300.365	30793.48
300.431	30839.08
300.498	30855.93
300.564	30907.96
300.631	30974.76
300.697	31042.39
300.763	31075.79
300.83	31123.2
300.896	31207.24
300.963	31272.88
301.029	31325.62
301.096	31368.67
301.162	31439.77
301.229	31472.65
301.295	31489.84
301.361	31538.55
301.428	31591.22
301.494	31590.44
301.561	31630.78
301.627	31679.15
301.693	31720.06
301.76	31764.47
301.826	31794.21
301.892	31873.93
301.959	31934.76
302.025	31963.19
302.092	31986.45
302.158	32043.1
302.224	32078.38
302.291	32087.19
302.357	32110.59
302.423	32136.26
302.49	32147.65
302.556	32222.11
302.622	32275.06
302.688	32334.16
302.755	32405.14
302.821	32453
302.887	32525.65
302.954	32557.24
303.02	32624.34
303.086	32681.8
303.152	32717.46
303.219	32736.16
303.285	32777.69
303.351	32836.43
303.417	32881.74
303.483	32909.89
303.55	32944.77
303.616	32967.94
303.682	33010.28
303.748	33032.91
303.815	33106.01
303.881	33190.09
303.947	33192.22
304.013	33215.82
304.079	33242.91
304.145	33226.97
304.212	33271.6
304.278	33286.62
304.344	33318.12
304.41	33321.81
304.476	33346.43
304.542	33375.36
304.608	33437.45
304.674	33430.08
304.741	33452.14
304.807	33490.58
304.873	33537.26
304.939	33610.56
305.005	33607.51
305.071	33632.22
305.137	33679.63
305.203	33647.34
305.269	33661.93
305.335	33724.62
305.401	33756.13
305.467	33792.79
305.533	33854.5
305.599	33902.94
305.666	33961.5
305.732	34008.72
305.798	34072.24
305.864	34160.59
305.93	34210.1
305.996	34245.84
306.062	34297.86
306.128	34320.17
306.194	34331.76
306.259	34358.72
306.325	34357.8
306.391	34424.72
306.457	34489.69
306.523	34522.37
306.589	34623.73
306.655	34649.78
306.721	34647.06
306.787	34653.12
306.853	34719.09
306.919	34710.55
306.985	34724.13
307.051	34750.81
307.117	34762.45
307.183	34782.24
307.248	34738.58
307.314	34785.34
307.38	34818.43
307.446	34863.69
307.512	34867.91
307.578	34898.41
307.644	34923.88
307.709	34962.19
307.775	34979.95
307.841	35006.24
307.907	35039.9
307.973	35002.35
308.039	35028.89
308.104	35066.77
308.17	35117.26
308.236	35105.96
308.302	35147.62
308.368	35151.6
308.433	35167.56
308.499	35183.81
308.565	35181.67
308.631	35233.38
308.696	35201.85
308.762	35196.03
308.828	35208.11
308.894	35204.03
308.959	35183.28
309.025	35188.66
309.091	35214.18
309.156	35233.35
309.222	35267.26
309.288	35272.65
309.354	35250.29
309.419	35280.28
309.485	35274.11
309.551	35308.27
309.616	35307.64
309.682	35333.4
309.748	35350.09
309.813	35367.99
309.879	35375.03
309.945	35392.15
310.01	35403.89
310.076	35443
310.141	35464
310.207	35458.33
310.273	35502.28
310.338	35554.96
310.404	35542.15
310.469	35538.95
310.535	35545.16
310.601	35509.21
310.666	35555.11
310.732	35629.28
310.797	35626.86
310.863	35644.95
310.928	35653.64
310.994	35689.3
311.059	35713.81
311.125	35739.57
311.191	35791.6
311.256	35809.16
311.322	35854.63
311.387	35841.82
311.453	36882.71
311.518	36882.41
311.584	36905.22
311.649	36940.21
311.715	36947.54
311.78	36983.05
311.846	36990.43
311.911	37029.35
311.976	37070.98
312.042	37064.38
312.107	37060.64
312.173	37065.64
312.238	37083.3
312.304	37094.08
312.369	37104.22
312.434	37103.69
312.5	37117.27
312.565	37072.82
312.631	37108.29
312.696	37114.31
312.761	37156.67
312.827	36141.12
312.892	36243.34
312.958	36278.63
313.023	36291.93
313.088	36314.83
313.154	36317.55
313.219	36328.57
313.284	36328.08
313.35	36348.03
313.415	36348.85
313.48	36362.59
313.546	36404.48
313.611	36459.13
313.676	36456.27
313.741	36463.25
313.807	36516.75
313.872	36555.82
313.937	36601.34
314.003	36654.25
314.068	36663.77
314.133	36691.53
314.198	36700.27
314.264	36680.56
314.329	36663.47
314.394	36681.48
314.459	36704.73
314.525	36776.37
314.59	36795.25
314.655	36789.76
314.72	36835.79
314.785	36860.73
314.851	36871.46
314.916	36847.14
314.981	36823.45
315.046	36827.77
315.111	36816.95
315.176	36800.83
315.242	36831.27
315.307	36853.21
315.372	36813.94
315.437	36843.12
315.502	36850.01
315.567	36898.21
315.632	36869.23
315.698	36904.62
315.763	36920.16
315.828	36918.02
315.893	36915.64
315.958	36914.58
316.023	36907.29
316.088	36860.64
316.153	36819.29
316.218	36817.79
316.283	36786.44
316.348	36759.65
316.413	36777.27
316.479	36745
316.544	36648.52
316.609	36558
316.674	36443.19
316.739	36363.81
316.804	36261.94
316.869	36156.39
316.934	36044.23
316.999	35952.38
317.064	35796.14
317.129	35660.12
317.194	35538.35
317.259	35398.61
317.324	35240.92
317.389	35101.96
317.454	34979.61
317.518	34869.8
317.583	34771.75
317.648	34669.66
317.713	34535.66
317.778	34332.35
317.843	34224.02
317.908	34103.94
317.973	33973.89
318.038	33880.37
318.103	33747.65
318.168	33611.29
318.233	33490
318.297	33308.25
318.362	33158.88
318.427	33013.44
318.492	32902.16
318.557	32742.1
318.622	32610.73
318.687	32497.53
318.751	32349.28
318.816	32203.07
318.881	32060.14
318.946	31854.08
319.011	31677.51
319.075	31507.17
319.14	31363.01
319.205	31181.41
319.27	31024.29
319.335	30830.59
319.399	30658.98
319.464	30518.39
319.529	30316.19
319.594	30131.34
319.658	29997.57
319.723	29827.19
319.788	29679.78
319.853	29454.5
319.917	29306.91
319.982	29104.56
320.047	28934.79
320.112	28783.18
320.176	28572.93
320.241	28386.29
320.306	28228.09
320.37	28043.68
320.435	27884.5
320.5	27732.67
320.564	27564.44
320.629	27368.52
320.694	27217.43
320.758	27020.11
320.823	26820.68
320.888	26669.5
320.952	26471.19
321.017	26285.14
321.082	26097.48
321.146	25917.9
321.211	25748.09
321.275	25546.49
321.34	25349.99
321.405	25159.46
321.469	24958.77
321.534	24770.66
321.598	24564.66
321.663	24394.1
321.727	24232.35
321.792	24018.95
321.857	23812.34
321.921	23613.1
321.986	23424.51
322.05	23180.85
322.115	22994.87
322.179	22793.03
322.244	22557.8
322.308	22382.07
322.373	22164.83
322.437	21960.72
322.502	21815.84
322.566	21606.15
322.631	21416.14
322.695	21217.37
322.76	21007.12
322.824	20827.73
322.889	20623.72
322.953	20416.24
323.018	20156.65
323.082	19890.04
323.146	19666.86
323.211	19436.44
323.275	19225.75
323.34	19017.99
323.404	18840.79
323.468	18629.81
323.533	18417.18
323.597	18204.46
323.662	17970.72
323.726	17779.98
323.79	17566.15
323.855	17289.42
323.919	17069.89
323.983	16862.46
324.048	16536.92
324.112	16700.84
324.177	16032.21
324.241	15161
324.305	14304.8
324.37	13462.58
324.434	12649.9
324.498	12423.48
324.562	12173.76
324.627	11890.45
324.691	11604.46
324.755	11281.65
324.82	10917.01
324.884	10535.71
324.948	10156.01
325.012	9689.58
325.077	9111.28
