Data from 20250626_urea_1M_exp2_MAYP1162681_13-34-00-686.txt Node
Date: Fri Jun 27 13:34:00 BST 2025
User: adleo
Spectrometer: MAYP116268
Trigger mode: 0
Integration Time (sec): 3.000000E0
Scans to average: 1
Electric dark correction enabled: true
Nonlinearity correction enabled: true
Boxcar width: 10
XAxis mode: Wavelengths
Number of Pixels in Spectrum: 2068
>>>>>Begin Spectral Data<<<<<
179.565	3144.45
179.642	3307.54
179.718	3424.19
179.795	3545.3
179.871	3639.53
179.948	3699.3
180.024	3759.36
180.101	3824.37
180.177	3863.65
180.254	3927.31
180.33	3986.24
180.407	4206.71
180.483	4448.66
180.56	4692.16
180.636	4923.24
180.712	4889.79
180.789	4916.23
180.865	4945.95
180.942	4976.64
181.018	5001.35
181.095	5045.25
181.171	5053.06
181.248	5056.75
181.324	5102.46
181.4	5116.31
181.477	5142.81
181.553	5172.88
181.63	5227.55
181.706	5271.74
181.782	5301.28
181.859	5299.65
181.935	5324.39
182.011	5312.5
182.088	5358.32
182.164	5411.93
182.24	5447.19
182.317	5469.66
182.393	5461.42
182.469	5503.26
182.546	5533.99
182.622	5548.18
182.698	5531.97
182.775	5571.85
182.851	5605.89
182.927	5585.8
183.003	5575.02
183.08	5562.51
183.156	5588.78
183.232	5583.84
183.308	5553.02
183.385	5567.63
183.461	5616.68
183.537	5611.6
183.613	5647.32
183.69	5619.94
183.766	5591.11
183.842	5611.25
183.918	5629.38
183.995	5664.85
184.071	5675.3
184.147	5660.01
184.223	5630.49
184.299	5665.12
184.375	5627.49
184.452	5647.6
184.528	5757.97
184.604	5787.69
184.68	5818.04
184.756	5834.78
184.832	5846.87
184.908	5859.04
184.985	5860.1
185.061	5816.51
185.137	5843.18
185.213	5813.26
185.289	5822.12
185.365	5804.39
185.441	5795.99
185.517	5834.77
185.593	5825.51
185.669	5815.58
185.745	5844.31
185.822	5888.88
185.898	5862.93
185.974	5891.02
186.05	5868.32
186.126	5799.29
186.202	5776.09
186.278	5771.29
186.354	5751.43
186.43	5767.65
186.506	5762.28
186.582	5759.98
186.658	5777.95
186.734	5725.41
186.81	5727.04
186.886	5733.22
186.962	5766.45
187.038	5755.9
187.114	5734.4
187.19	5757.37
187.266	5732.01
187.341	5735.37
187.417	5713.6
187.493	5717.82
187.569	5728.76
187.645	5717.01
187.721	5686.07
187.797	5712.63
187.873	5718.53
187.949	5698.54
188.025	5679.78
188.101	5694.35
188.176	5707.82
188.252	5698.57
188.328	5717.07
188.404	5716.25
188.48	5701.58
188.556	5678.76
188.632	5679.14
188.707	5679.14
188.783	5667.72
188.859	5656.51
188.935	5626.29
189.011	5650.46
189.086	5628.65
189.162	5603.42
189.238	5594.99
189.314	5589.09
189.39	5572.16
189.465	5557.34
189.541	5604.15
189.617	5566.85
189.693	5543.37
189.768	5557.33
189.844	5621.62
189.92	5600.59
189.996	5629.84
190.071	5662.92
190.147	5660.91
190.223	5687.73
190.298	5666.43
190.374	5635.02
190.45	5670.59
190.526	5689.87
190.601	5672.12
190.677	5677.97
190.753	5756.4
190.828	5771.26
190.904	5815.77
190.98	5857.56
191.055	5883.65
191.131	5860.62
191.207	5913.85
191.282	5944.63
191.358	5915.71
191.433	5873.42
191.509	5912.15
191.585	5903.56
191.66	5904.23
191.736	5932.29
191.811	5903.84
191.887	5951.45
191.963	6013.66
192.038	6021.96
192.114	6030.02
192.189	6045.37
192.265	6037.46
192.34	5975.87
192.416	5970.21
192.491	5955.86
192.567	5966.9
192.642	5969.54
192.718	5966.95
192.793	5934.71
192.869	5923.11
192.944	5930.15
193.02	5954.34
193.095	5963.21
193.171	5979.28
193.246	5978.56
193.322	5963.84
193.397	5970.46
193.473	5926.16
193.548	5880.05
193.624	5897.37
193.699	5887.1
193.775	5924.83
193.85	5934.27
193.925	5956.87
194.001	5952.94
194.076	5935.43
194.152	5902.41
194.227	5882.5
194.302	5858.34
194.378	5868.22
194.453	5860.88
194.529	5899.89
194.604	5858.54
194.679	5845.39
194.755	5795.15
194.83	5830.14
194.905	5829.33
194.981	5850.87
195.056	5831.98
195.131	5850.87
195.207	5846.12
195.282	5821.33
195.357	5775.21
195.433	5812.48
195.508	5780.77
195.583	5802.54
195.659	5844.97
195.734	5863.01
195.809	5867.42
195.884	5892.49
195.96	5893.64
196.035	5939.45
196.11	5923.28
196.185	5954.45
196.261	5960.07
196.336	6044.35
196.411	6002.16
196.486	6018.28
196.561	5996.31
196.637	6026.47
196.712	6063.19
196.787	6068.47
196.862	6114.95
196.937	6136.44
197.013	6153.58
197.088	6183.04
197.163	6239.22
197.238	6279.19
197.313	6275.88
197.388	6311.59
197.464	6391.82
197.539	6429.02
197.614	6405.8
197.689	6438.3
197.764	6485.16
197.839	6541.57
197.914	6523.51
197.989	6587.76
198.065	6622.23
198.14	6764.51
198.215	6836.31
198.29	6872.78
198.365	6911.88
198.44	6936.71
198.515	7016.07
198.59	7055.95
198.665	7124.56
198.74	7149.79
198.815	7150.71
198.89	7211.14
198.965	7292.33
199.04	7281.99
199.115	7321.54
199.19	7440.94
199.265	7448.77
199.34	7474.78
199.415	7565.53
199.49	7623.44
199.565	7648.82
199.64	7714.97
199.715	7704.28
199.79	7717.79
199.865	7737.41
199.94	7729.72
200.015	7822.44
200.09	7836.83
200.165	7854.18
200.24	7871.98
200.315	7975.36
200.39	8018.55
200.464	8032.88
200.539	8039.91
200.614	8088.66
200.689	8150.19
200.764	8161.69
200.839	8208.17
200.914	8222.17
200.989	8194.78
201.063	8237.17
201.138	8187.67
201.213	8189.83
201.288	8139.67
201.363	8151.06
201.438	8151.88
201.512	8200.63
201.587	8144.73
201.662	8153.72
201.737	8188.94
201.812	8213.57
201.886	8128.51
201.961	8156.67
202.036	8132.77
202.111	8120.16
202.186	8036.68
202.26	7985.01
202.335	7930.36
202.41	7916.95
202.485	7871.18
202.559	7816.36
202.634	7739.42
202.709	7766.85
202.784	7710.69
202.858	7709.78
202.933	7661.99
203.008	7642.33
203.082	7588.82
203.157	7590.94
203.232	7476.54
203.306	7412
203.381	7321.56
203.456	7256.33
203.53	7187.34
203.605	7128.08
203.68	7060.63
203.754	7041.82
203.829	7004.19
203.904	6947.02
203.978	6914.53
204.053	6925.01
204.127	6889.46
204.202	6880.29
204.277	6830.82
204.351	6812.47
204.426	6791.32
204.5	6770.62
204.575	6671.91
204.65	6693.39
204.724	6663.73
204.799	6682.64
204.873	6669.91
204.948	6662.51
205.022	6630.83
205.097	6607.86
205.171	6648.52
205.246	6678.75
205.32	6671.55
205.395	6668.91
205.469	6646.55
205.544	6658.18
205.618	6610.29
205.693	6640.12
205.767	6606.37
205.842	6661.8
205.916	6643.03
205.991	6614.79
206.065	6624.88
206.14	6668.48
206.214	6657.43
206.289	6642.1
206.363	6675.19
206.438	6687.73
206.512	6713.52
206.586	6764.37
206.661	6789.7
206.735	6724.91
206.81	6726.78
206.884	6771.29
206.958	6736.24
207.033	6780.2
207.107	6806.12
207.181	6894.68
207.256	6879.35
207.33	6934.05
207.405	6970.31
207.479	7026.27
207.553	7052.11
207.628	7012.46
207.702	7042.38
207.776	7020.81
207.851	7029.93
207.925	7074.59
207.999	7063.68
208.073	7054.7
208.148	7061.72
208.222	7026.68
208.296	7117.66
208.371	7158.16
208.445	7187.04
208.519	7266.07
208.593	7301.77
208.668	7287.01
208.742	7292.44
208.816	7295.76
208.89	7337.06
208.965	7333.89
209.039	7354.37
209.113	7392.48
209.187	7448.76
209.261	7438.72
209.336	7499.57
209.41	7553.75
209.484	7555
209.558	7619.86
209.632	7657.44
209.707	7687.49
209.781	7752.92
209.855	7798.42
209.929	7841.55
210.003	7859.24
210.077	7856.6
210.151	7983.04
210.226	8080.23
210.3	8159.86
210.374	8226.97
210.448	8236.16
210.522	8260.55
210.596	8286.43
210.67	8317.22
210.744	8452.2
210.818	8545.77
210.892	8601.16
210.966	8583.8
211.041	8617.34
211.115	8605.69
211.189	8673.49
211.263	8719.15
211.337	8731.76
211.411	8768.29
211.485	8751.73
211.559	8780.31
211.633	8787.57
211.707	8704.61
211.781	8719.97
211.855	8616.87
211.929	8596.81
212.003	8544.88
212.077	8575.06
212.151	8608.71
212.225	8629.06
212.299	8592.56
212.373	8556.38
212.447	8538.47
212.52	8622.78
212.594	8641.8
212.668	8672.74
212.742	8629.81
212.816	8615.22
212.89	8606.71
212.964	8598.91
213.038	8611.47
213.112	8649.89
213.186	8691.12
213.26	8628.85
213.333	8495.81
213.407	8504.13
213.481	8508.56
213.555	8538.22
213.629	8503.66
213.703	8453.56
213.777	8448.6
213.85	8387.77
213.924	8477.36
213.998	8478.9
214.072	8453.19
214.146	8400.64
214.219	8388.85
214.293	8375.43
214.367	8376.24
214.441	8393.86
214.515	8355.69
214.588	8276.98
214.662	8178.5
214.736	8112.22
214.81	8129.76
214.883	8151.87
214.957	8118.31
215.031	8068.66
215.105	7994.24
215.178	7939.17
215.252	7910.99
215.326	7836.15
215.4	7771.42
215.473	7621.94
215.547	7549.98
215.621	7495.32
215.694	7501.14
215.768	7416.14
215.842	7362.84
215.915	7304.26
215.989	7209.68
216.063	7166.6
216.136	7151.79
216.21	7125.03
216.284	7129.98
216.357	7106.72
216.431	7071.36
216.504	7065.45
216.578	7119.09
216.652	7122.93
216.725	7108.37
216.799	7115.78
216.873	7091.9
216.946	7100.98
217.02	7069.58
217.093	7045.94
217.167	6964.32
217.24	6892.85
217.314	6866.06
217.387	6827.76
217.461	6786.01
217.535	6803.74
217.608	6747.16
217.682	6724.68
217.755	6739.42
217.829	6693.64
217.902	6681.58
217.976	6665.59
218.049	6630.58
218.123	6557.44
218.196	6563.25
218.27	6535.97
218.343	6475.63
218.417	6480.33
218.49	6459.25
218.563	6501.27
218.637	6509.19
218.71	6569.9
218.784	6591.56
218.857	6619.45
218.931	6641
219.004	6645.75
219.077	6661.61
219.151	6681.68
219.224	6677.4
219.298	6672.79
219.371	6713.58
219.444	6684.44
219.518	6692.17
219.591	6700.38
219.665	6789.59
219.738	6797.08
219.811	6778.45
219.885	6814.95
219.958	6836.14
220.031	6843.25
220.105	6852.76
220.178	6856.99
220.251	6835.65
220.325	6854.44
220.398	6865.59
220.471	6877.49
220.544	6914.44
220.618	6894.01
220.691	6917.31
220.764	6930.18
220.838	6950.7
220.911	6935.56
220.984	7001.32
221.057	7033.31
221.131	7056.27
221.204	6974.36
221.277	7032.84
221.35	7134.14
221.424	7127.89
221.497	7138.08
221.57	7151.72
221.643	7178.78
221.716	7211.56
221.79	7220.31
221.863	7229.11
221.936	7239.44
222.009	7254.23
222.082	7273.89
222.155	7285.86
222.229	7334.03
222.302	7359.69
222.375	7360.12
222.448	7392.28
222.521	7399.11
222.594	7399.11
222.667	7380.28
222.74	7432.71
222.814	7428.23
222.887	7410.96
222.96	7459.28
223.033	7491.45
223.106	7516.29
223.179	7544.96
223.252	7559.43
223.325	7577.7
223.398	7589.57
223.471	7609.86
223.544	7616.87
223.617	7627.65
223.69	7642.84
223.763	7612.64
223.837	7626.53
223.91	7654.27
223.983	7615.1
224.056	7583.05
224.129	7600.11
224.202	7639.36
224.275	7623.11
224.348	7596.72
224.42	7572.25
224.493	7525.23
224.566	7508.88
224.639	7523.49
224.712	7495.35
224.785	7478.86
224.858	7466.26
224.931	7448.62
225.004	7414.3
225.077	7422.81
225.15	7346.12
225.223	7340.68
225.296	7409.04
225.369	7360.79
225.442	7336.22
225.514	7346.89
225.587	7359.43
225.66	7366.4
225.733	7370.58
225.806	7378.51
225.879	7376.4
225.952	7347.43
226.025	7386.65
226.097	7428.46
226.17	7419.23
226.243	7368.19
226.316	7367.71
226.389	7381.31
226.461	7399.39
226.534	7416.02
226.607	7410.54
226.68	7485.02
226.753	7485.16
226.825	7417.19
226.898	7465.97
226.971	7469.62
227.044	7488.94
227.117	7501.39
227.189	7518.66
227.262	7543.18
227.335	7558.66
227.407	7553.96
227.48	7586.39
227.553	7590.67
227.626	7572.39
227.698	7575.27
227.771	7605.78
227.844	7587.51
227.916	7601.45
227.989	7571.17
228.062	7571.74
228.134	7646
228.207	7640.62
228.28	7633.22
228.352	7645.43
228.425	7651.34
228.498	7682.12
228.57	7668.32
228.643	7714.11
228.716	7717.53
228.788	7708.92
228.861	7707.81
228.934	7758.78
229.006	7760.89
229.079	7766.71
229.151	7759.26
229.224	7731.48
229.296	7750.37
229.369	7834.46
229.442	7872.23
229.514	7861.03
229.587	7895.17
229.659	7828.84
229.732	7837.93
229.804	7869.23
229.877	7932.4
229.949	7961.07
230.022	8003.13
230.094	8005.34
230.167	7997.21
230.239	7961.67
230.312	7950.33
230.384	8003.93
230.457	7998.44
230.529	8005.7
230.602	7996.76
230.674	8005.27
230.747	8042.71
230.819	8064.98
230.892	7968.97
230.964	7973.45
231.037	7996.76
231.109	7989.54
231.181	8019.6
231.254	7991.51
231.326	7985.31
231.399	7961
231.471	7929.88
231.544	7864.16
231.616	7903.35
231.688	7910.37
231.761	7895.18
231.833	7887.11
231.905	7821
231.978	7824.08
232.05	7807.69
232.122	7817.21
232.195	7791.43
232.267	7820.05
232.339	7804.85
232.412	7861.3
232.484	7834.11
232.556	7812.63
232.629	7871.38
232.701	7885.57
232.773	7899.32
232.846	7888.84
232.918	7894.37
232.99	7917.61
233.062	7952.72
233.135	7956.71
233.207	7919.53
233.279	7959.09
233.351	7990.73
233.424	7991.45
233.496	7971.74
233.568	8041.53
233.64	8008.44
233.713	8029.61
233.785	8033.46
233.857	8042.02
233.929	7996.67
234.001	8048.65
234.074	8102.21
234.146	8039.13
234.218	8034.27
234.29	8030.57
234.362	8021.15
234.434	7978.47
234.507	7949.23
234.579	7904.41
234.651	7887.33
234.723	7913.26
234.795	7924.85
234.867	7918.36
234.939	7963.19
235.012	7974.78
235.084	7982.38
235.156	8015.61
235.228	7995.75
235.3	7977.56
235.372	7995.46
235.444	8045.42
235.516	7984.98
235.588	7985.46
235.66	8008.45
235.732	7991.28
235.804	8152.38
235.876	8186.37
235.948	8245.17
236.02	8253.25
236.092	8269.83
236.164	8284.74
236.236	8287.92
236.308	8291.05
236.38	8314.67
236.452	8297.59
236.524	8310.72
236.596	8359.59
236.668	8391.98
236.74	8415.69
236.812	8437.24
236.884	8457.46
236.956	8472.47
237.028	8464.68
237.1	8452.12
237.172	8507.81
237.244	8567.48
237.316	8467.29
237.388	8454.98
237.46	8432.7
237.532	8485.87
237.604	8478.7
237.675	8538.19
237.747	8577.61
237.819	8568.18
237.891	8571.6
237.963	8565.34
238.035	8565.39
238.107	8473.21
238.178	8518.85
238.25	8520.53
238.322	8591.36
238.394	8561.71
238.466	8553.24
238.538	8589.23
238.609	8623.43
238.681	8576.55
238.753	8555.76
238.825	8578.1
238.897	8604.26
238.968	8669.36
239.04	8653.43
239.112	8743.65
239.184	8709.86
239.255	8700.86
239.327	8729.48
239.399	8743.1
239.471	8781.12
239.542	8811.15
239.614	8867.6
239.686	8802.75
239.758	8847.75
239.829	8818.9
239.901	8864.24
239.973	8878.2
240.044	8904.29
240.116	8916.17
240.188	8924.93
240.259	8940.86
240.331	8922.04
240.403	8947.88
240.474	8909.07
240.546	8898.44
240.618	8848.37
240.689	8845.92
240.761	8868.16
240.833	8916.35
240.904	8919.77
240.976	8919.29
241.048	8931.8
241.119	8965.47
241.191	8999.06
241.262	9056.86
241.334	9066.83
241.405	9073.57
241.477	9084.25
241.549	9092.1
241.62	9114.44
241.692	9157.72
241.763	9206.55
241.835	9228.03
241.906	9247.28
241.978	9231.83
242.049	9289.41
242.121	9345.83
242.192	9402.93
242.264	9370.24
242.335	9330.09
242.407	9365.62
242.478	9369.57
242.55	9384.16
242.621	9370.43
242.693	9372.65
242.764	9357.66
242.836	9352.94
242.907	9375.72
242.979	9393.39
243.05	9409.04
243.122	9426
243.193	9426.28
243.264	9367.01
243.336	9367.39
243.407	9391.57
243.479	9452.29
243.55	9471.22
243.622	9475.26
243.693	9467.37
243.764	9526.11
243.836	9512.92
243.907	9503.39
243.978	9513.21
244.05	9528.33
244.121	9489.91
244.192	9523.57
244.264	9482.78
244.335	9494.96
244.407	9452.2
244.478	9461.49
244.549	9448.11
244.62	9412.28
244.692	9404.29
244.763	9438.86
244.834	9434.81
244.906	9418.87
244.977	9433.03
245.048	9467.92
245.119	9457.95
245.191	9444.41
245.262	9393.85
245.333	9450.81
245.405	9462.17
245.476	9489.91
245.547	9512.45
245.618	9555.26
245.689	9565.08
245.761	9589.26
245.832	9589.45
245.903	9630.09
245.974	9659.71
246.045	9674.11
246.117	9744.57
246.188	9732.34
246.259	9726.03
246.33	9739.42
246.401	9748.57
246.473	9725.79
246.544	9716.39
246.615	9761.77
246.686	9771.35
246.757	9832.27
246.828	9813.1
246.899	9877.95
246.97	9847.71
247.042	9835.95
247.113	9869.96
247.184	9941.47
247.255	9946.38
247.326	9973.94
247.397	9979.86
247.468	9988.2
247.539	10002.6
247.61	9964.54
247.681	10003.79
247.752	10042.95
247.823	10022.87
247.894	10034.76
247.965	10007.17
248.037	9989.44
248.108	9946.9
248.179	9954.03
248.25	9945.12
248.321	9973.68
248.392	9926.12
248.463	9999.62
248.534	10001.6
248.605	10020.78
248.675	9993.93
248.746	10004.96
248.817	10023.22
248.888	10039.79
248.959	9989.89
249.03	10014.03
249.101	10020.05
249.172	10002.9
249.243	9943.77
249.314	10002.43
249.385	10017.03
249.456	10041.68
249.527	10041.59
249.598	10064.42
249.669	10058.59
249.739	10070.2
249.81	10075.07
249.881	10050.79
249.952	10032.96
250.023	10034.51
250.094	9986.33
250.165	9963.83
250.235	9957.08
250.306	9958.29
250.377	9937.81
250.448	9963.15
250.519	9906.89
250.59	9949.67
250.66	9949.62
250.731	10006.06
250.802	9999.99
250.873	10007.12
250.944	10026.24
251.014	10017.19
251.085	10087.3
251.156	10110.32
251.227	10153.69
251.297	10203.12
251.368	10244.11
251.439	10281.5
251.51	10315.85
251.58	10309.59
251.651	10307.71
251.722	10351.94
251.792	10310.65
251.863	10312.53
251.934	10363.36
252.005	10457.93
252.075	10470.02
252.146	10515.83
252.217	10555.73
252.287	10590.52
252.358	10593.74
252.429	10649.11
252.499	10646.85
252.57	10651.42
252.641	10685.82
252.711	10690.45
252.782	10649.69
252.852	10705.01
252.923	10703.13
252.994	10718.79
253.064	10763.54
253.135	10741.53
253.205	10725.14
253.276	10780.21
253.347	10827.67
253.417	10807.14
253.488	10791.62
253.558	10783.96
253.629	10782.56
253.699	10796.59
253.77	10827.67
253.841	10824.06
253.911	10834.9
253.982	10853.02
254.052	10880.4
254.123	10887.48
254.193	10884.39
254.264	11002.95
254.334	10982.37
254.405	10955.49
254.475	10923.68
254.546	10924.5
254.616	10979.24
254.687	11011.76
254.757	11029.6
254.827	11031.23
254.898	11047.71
254.968	11053.5
255.039	11038.37
255.109	11062.02
255.18	11035.57
255.25	10969.26
255.321	11001.01
255.391	10969.11
255.461	11041.06
255.532	10973.58
255.602	10971.32
255.673	10933.11
255.743	10902.45
255.813	10833.51
255.884	10877.02
255.954	10911.81
256.024	10957.45
256.095	10962.51
256.165	10930.32
256.235	10947.96
256.306	10937.74
256.376	10974.66
256.446	11006.13
256.517	11031.77
256.587	11075.82
256.657	11098.22
256.728	11112.15
256.798	11112.82
256.868	11111.38
256.938	11083.81
257.009	11124.24
257.079	11149.01
257.149	11229.69
257.219	11181.3
257.29	11223.45
257.36	11176.13
257.43	11211.94
257.5	11162.25
257.571	11154.21
257.641	11183.12
257.711	11157.53
257.781	11182.68
257.852	11197.04
257.922	11146.39
257.992	11150.63
258.062	11136.71
258.132	11168.13
258.202	11178.2
258.273	11191.12
258.343	11246.06
258.413	11231.46
258.483	11231.6
258.553	11203.55
258.623	11177.04
258.693	11197.72
258.764	11250.1
258.834	11304.6
258.904	11315.35
258.974	11310.78
259.044	11323.4
259.114	11352.27
259.184	11372.37
259.254	11380.61
259.324	11340.61
259.394	11379.59
259.464	11442.06
259.535	11451.12
259.605	11448.03
259.675	11436.71
259.745	11465.68
259.815	11449.39
259.885	11449.15
259.955	11545.46
260.025	11546.28
260.095	11561.07
260.165	11581.89
260.235	11630.72
260.305	11624.22
260.375	11593.32
260.445	11672.98
260.515	11716.89
260.585	11752.71
260.655	11765.43
260.725	11798.84
260.795	11828.14
260.865	11887.71
260.934	11867.32
261.004	11890.56
261.074	11894.41
261.144	11950.61
261.214	11977.21
261.284	11974.23
261.354	12009.21
261.424	11968.05
261.494	12025.11
261.564	12027.95
261.634	12049.36
261.703	11995.56
261.773	12010.5
261.843	12040.87
261.913	12033.45
261.983	11990.36
262.053	12003.18
262.123	11998.89
262.192	11967.7
262.262	12011.42
262.332	11970.84
262.402	11995.18
262.472	11997.11
262.541	11940.14
262.611	11979.76
262.681	11959.47
262.751	11994.51
262.821	11999.86
262.89	11975.42
262.96	11992.68
263.03	12056.41
263.1	12076.8
263.169	12092.41
263.239	12122.25
263.309	12178.65
263.379	12200.77
263.448	12220.44
263.518	12241.31
263.588	12253.7
263.657	12317.47
263.727	12338.87
263.797	12355.07
263.867	12358.11
263.936	12335.4
264.006	12396.8
264.076	12387.88
264.145	12385.57
264.215	12366.1
264.285	12394.34
264.354	12355.25
264.424	12341.76
264.494	12295.24
264.563	12286.03
264.633	12350
264.702	12371.79
264.772	12327.05
264.842	12321.22
264.911	12348.84
264.981	12311.62
265.05	12317.46
265.12	12305.84
265.19	12317.26
265.259	12353.32
265.329	12377.71
265.398	12397.91
265.468	12478.56
265.537	12476.58
265.607	12507.82
265.676	12550.52
265.746	12577.9
265.815	12633.24
265.885	12646.93
265.955	12637.1
266.024	12641.43
266.094	12590.19
266.163	12635.55
266.232	12688.92
266.302	12696.39
266.371	12712.92
266.441	12734.76
266.51	12781.76
266.58	12786.63
266.649	12771.35
266.719	12804.22
266.788	12827.07
266.858	12884.82
266.927	12826.16
266.996	12854.02
267.066	12881.55
267.135	12864.72
267.205	12893.12
267.274	12912.4
267.343	12951.64
267.413	12970.15
267.482	13018.21
267.552	13073.98
267.621	13030.89
267.69	12991.6
267.76	13017.34
267.829	13045.97
267.898	13059.81
267.968	13043.08
268.037	13071.62
268.106	13122.62
268.176	13096.98
268.245	13099.53
268.314	13099.19
268.384	13143.54
268.453	13152.17
268.522	13171.55
268.592	13222.84
268.661	13208.67
268.73	13232.44
268.799	13224.77
268.869	13299.49
268.938	13257.5
269.007	13254.13
269.076	13285.17
269.146	13333.76
269.215	13362.21
269.284	13410.08
269.353	13414.27
269.422	13420.97
269.492	13417.55
269.561	13341.82
269.63	13372.91
269.699	13373.63
269.768	13382.69
269.838	13405.01
269.907	13438.18
269.976	13416.05
270.045	13365.44
270.114	13399.37
270.183	13400.19
270.253	13425.55
270.322	13376.96
270.391	13405.64
270.46	13453.66
270.529	13485.66
270.598	13521.14
270.667	13520.08
270.736	13500.46
270.806	13521.63
270.875	13571.62
270.944	13587.38
271.013	13693.34
271.082	13722.55
271.151	13749.79
271.22	13715.85
271.289	13714.16
271.358	13721.54
271.427	13753.11
271.496	13783.19
271.565	13778.52
271.634	13798.23
271.703	13898.59
271.772	13950.85
271.841	13964.69
271.91	13938.12
271.979	13954.66
272.048	13926.94
272.117	13961.21
272.186	13957.26
272.255	13998.19
272.324	14028.99
272.393	14053.29
272.462	14046.83
272.531	14053.24
272.6	14065
272.669	14137.99
272.738	14161.08
272.807	14184.84
272.876	14168.36
272.945	14278.89
273.013	14326.42
273.082	14375.45
273.151	14299.86
273.22	14324.59
273.289	14341.9
273.358	14412.08
273.427	14412.86
273.496	14447.18
273.564	14483.24
273.633	14535.3
273.702	14517.27
273.771	14522.91
273.84	14549.57
273.909	14582.1
273.977	14609.58
274.046	14613.58
274.115	14649.73
274.184	14633.83
274.253	14653.64
274.322	14719.39
274.39	14668.1
274.459	14671.14
274.528	14633.1
274.597	14650.07
274.665	14677.69
274.734	14734
274.803	14739.3
274.872	14759.45
274.94	14764.27
275.009	14946.06
275.078	14951.07
275.147	14990.12
275.215	15020.01
275.284	15078.14
275.353	15084.36
275.421	15056.49
275.49	15142.25
275.559	15144.27
275.627	15170.4
275.696	15181.87
275.765	15210.16
275.833	15233.25
275.902	15268.92
275.971	15339.01
276.039	15408.13
276.108	15451.13
276.177	15474.75
276.245	15475.33
276.314	15498.51
276.383	15555.63
276.451	15424.02
276.52	15460.84
276.588	15527.6
276.657	15576.52
276.725	15576.91
276.794	15613.25
276.863	15690.76
276.931	15657.74
277	15716.31
277.068	15772.22
277.137	15855.65
277.205	15887.75
277.274	15966.56
277.342	16020.5
277.411	16005.02
277.48	16018.57
277.548	16027.1
277.617	16074.52
277.685	16097.61
277.754	16146.68
277.822	16158.73
277.89	16213.05
277.959	16230.64
278.027	16210.88
278.096	16212.18
278.164	16320.14
278.233	16334.64
278.301	16328.04
278.37	16376.72
278.438	16379.42
278.507	16430.8
278.575	16397.21
278.643	16415.33
278.712	16400.1
278.78	16399.23
278.849	16460.06
278.917	16518.62
278.985	16540.01
279.054	16567.53
279.122	16632.98
279.191	16654.96
279.259	16671.93
279.327	16656.7
279.396	16733.91
279.464	16759.4
279.532	16808.03
279.601	16821.72
279.669	16847.84
279.737	16928.52
279.806	16977.24
279.874	17040.42
279.942	17067.46
280.011	17089.44
280.079	17145.1
280.147	17225.15
280.215	17267.85
280.284	17288.05
280.352	17283.37
280.42	17342.27
280.488	17351.28
280.557	17366.94
280.625	17417.06
280.693	17465.98
280.761	17512.44
280.83	17501.83
280.898	17579.28
280.966	17560.44
281.034	17515.67
281.102	17510.85
281.171	17521.88
281.239	17580.72
281.307	17581.74
281.375	17589.35
281.443	17696.48
281.512	17726.07
281.58	17777.73
281.648	17772.62
281.716	17808.77
281.784	17846.5
281.852	17857.15
281.92	17892.23
281.989	17950.35
282.057	17938.4
282.125	18046.3
282.193	18077.77
282.261	18115.79
282.329	18129.53
282.397	18188.85
282.465	18236.99
282.533	18311.98
282.601	18316.03
282.67	18282.44
282.738	18295.69
282.806	18362.39
282.874	18364.65
282.942	18396.6
283.01	18407.54
283.078	18454.05
283.146	18480.55
283.214	18539.58
283.282	18589.41
283.35	18654.66
283.418	18683.48
283.486	18741.36
283.554	18700.01
283.622	18734.13
283.69	18766.03
283.758	18785.06
283.826	18832.29
283.894	18883.9
283.962	18973.34
284.03	19064.61
284.098	19111.21
284.165	19150.59
284.233	19184.99
284.301	19200.46
284.369	19222.87
284.437	19241.71
284.505	19273.08
284.573	19359.54
284.641	19369.66
284.709	19422.18
284.777	19414.04
284.845	19464.4
284.912	19513.55
284.98	19558.61
285.048	19575.72
285.116	19623.91
285.184	19704.34
285.252	19734.89
285.319	19729.35
285.387	19742.75
285.455	19730.12
285.523	19777.59
285.591	19802.17
285.659	19836.82
285.726	19910.69
285.794	19908.57
285.862	19936.72
285.93	19977.92
285.997	19991.94
286.065	20007.65
286.133	20013.77
286.201	20045.63
286.269	20044.9
286.336	20050.4
286.404	20078.78
286.472	20139.99
286.539	20123.17
286.607	20101.14
286.675	20146.54
286.743	20211.75
286.81	20233
286.878	20307.41
286.946	20324.37
287.013	20364.37
287.081	20392.03
287.149	20380.81
287.216	20483.46
287.284	20512.9
287.352	20551.27
287.419	20575.46
287.487	20659.32
287.555	20710.6
287.622	20737.63
287.69	20788.91
287.758	20862.7
287.825	20881.88
287.893	20885.74
287.96	20933.64
288.028	21007.67
288.096	21049.89
288.163	21105.66
288.231	21109.08
288.298	21130.43
288.366	21207.6
288.433	21237.62
288.501	21252.22
288.569	21299.07
288.636	21306.06
288.704	21382.26
288.771	21433.98
288.839	21447.86
288.906	21452.83
288.974	21517.57
289.041	21553.04
289.109	21557.76
289.176	21605.2
289.244	21659.09
289.311	21725.89
289.379	21794.87
289.446	21829.62
289.514	21851.36
289.581	21881.39
289.649	21916.68
289.716	21957.55
289.783	21966.28
289.851	22050.97
289.918	22098.31
289.986	22165.75
290.053	22214.97
290.121	22234.35
290.188	22273.35
290.255	22397.98
290.323	22423.81
290.39	22424.01
290.458	22477.42
290.525	22551.56
290.592	22578.51
290.66	22616.16
290.727	22639.64
290.794	22708.4
290.862	22754.78
290.929	22800.82
290.996	22826.57
291.064	22891.56
291.131	22961.52
291.198	23033.13
291.266	23055.93
291.333	23091.99
291.4	23140.22
291.468	23219.74
291.535	23251.57
291.602	23307.7
291.669	23315.03
291.737	23363.68
291.804	23414.84
291.871	23491.13
291.938	23545.67
292.006	23654.83
292.073	23721.67
292.14	23779.54
292.207	23792.32
292.275	23823.09
292.342	23883.76
292.409	23983.46
292.476	24086.21
292.543	24090.88
292.611	24125.9
292.678	24219.24
292.745	24328.3
292.812	24380.16
292.879	24394.2
292.946	24431.14
293.014	24490.43
293.081	24549.68
293.148	24633.03
293.215	24705.59
293.282	24736.08
293.349	24797.06
293.416	24779.4
293.484	24849.12
293.551	24917.29
293.618	24995.26
293.685	25107.16
293.752	25124.96
293.819	25157.92
293.886	25156.96
293.953	25215.82
294.02	25284.25
294.087	25325.8
294.154	25337.82
294.221	25416.21
294.288	25464.03
294.356	25558.86
294.423	25603.74
294.49	25612.82
294.557	25684.55
294.624	25703.27
294.691	25781.12
294.758	25818.92
294.825	25876.26
294.892	25888.66
294.959	25915.94
295.026	25967.11
295.093	25981.45
295.16	26024.54
295.226	26061.52
295.293	26171.08
295.36	26229.3
295.427	26292.89
295.494	26354.95
295.561	26421.23
295.628	26523.86
295.695	26598.22
295.762	26641.2
295.829	26725.43
295.896	26811.42
295.963	26862.23
296.03	26930.9
296.096	26988.08
296.163	27059.71
296.23	27145.83
296.297	27230.05
296.364	27280.13
296.431	27352.58
296.498	27389.48
296.564	27498.97
296.631	27555.1
296.698	27563.5
296.765	27662.74
296.832	27676.36
296.899	27700.03
296.965	27796.39
297.032	27773.42
297.099	27876.43
297.166	27940.11
297.233	27958.62
297.299	27984.8
297.366	28022.21
297.433	28079.8
297.5	28144.33
297.566	28182.75
297.633	28214.55
297.7	28255.63
297.767	28297.08
297.833	28341.94
297.9	28383.64
297.967	28386.93
298.033	28459.58
298.1	28559.81
298.167	28568.22
298.234	28628.34
298.3	28692.58
298.367	28714.34
298.434	28777.39
298.5	28779.52
298.567	28809.88
298.634	28846.43
298.7	28932.19
298.767	28984.6
298.834	29038.47
298.9	29071.01
298.967	29088.66
299.033	29151.53
299.1	29235
299.167	29317.1
299.233	29346.41
299.3	29430.88
299.366	29514
299.433	29582.07
299.5	29561.17
299.566	29613.21
299.633	29696.7
299.699	29764.57
299.766	29778.45
299.832	29830.08
299.899	29893.22
299.965	29961.43
300.032	29990.54
300.099	30053.35
300.165	30105.36
300.232	30143
300.298	30171.69
300.365	30265.06
300.431	30311.9
300.498	30323.95
300.564	30371.51
300.631	30436.65
300.697	30505.86
300.763	30543.79
300.83	30587.41
300.896	30660.43
300.963	30721.21
301.029	30774.27
301.096	30815.81
301.162	30896.04
301.229	30923.29
301.295	30931.33
301.361	30988.02
301.428	31043.91
301.494	31034.56
301.561	31082.35
301.627	31128.77
301.693	31183.8
301.76	31214.06
301.826	31242.28
301.892	31316.99
301.959	31381.53
302.025	31412.61
302.092	31427.14
302.158	31483.59
302.224	31511.97
302.291	31529.69
302.357	31567.03
302.423	31575.99
302.49	31581.55
302.556	31647.04
302.622	31682.87
302.688	31749.94
302.755	31815.1
302.821	31858.53
302.887	31930.39
302.954	31961.48
303.02	32027.21
303.086	32078.01
303.152	32113.32
303.219	32132.31
303.285	32184
303.351	32243.55
303.417	32289.76
303.483	32316.5
303.55	32343.87
303.616	32382.73
303.682	32433.19
303.748	32455.86
303.815	32542.94
303.881	32615.75
303.947	32616.57
304.013	32653.1
304.079	32668.41
304.145	32644.77
304.212	32694.47
304.278	32706.67
304.344	32738.65
304.41	32728.53
304.476	32746.11
304.542	32777.27
304.608	32842.15
304.674	32838.51
304.741	32845.73
304.807	32890.85
304.873	32939.46
304.939	33005.61
305.005	33001.92
305.071	33031.53
305.137	33079.02
305.203	33045.33
305.269	33067.19
305.335	33140.92
305.401	33176.2
305.467	33207.7
305.533	33267.36
305.599	33316.36
305.666	33372.34
305.732	33410
305.798	33486.34
305.864	33584.8
305.93	33633.37
305.996	33661.49
306.062	33697.79
306.128	33733.57
306.194	33733.43
306.259	33766.78
306.325	33776.82
306.391	33837.85
306.457	33884.82
306.523	33921.61
306.589	34014.46
306.655	34040.98
306.721	34027.45
306.787	34023.58
306.853	34093.3
306.919	34084.92
306.985	34103.53
307.051	34126.13
307.117	34130.1
307.183	34148.19
307.248	34102.8
307.314	34150.86
307.38	34184.61
307.446	34234.85
307.512	34229.32
307.578	34276.01
307.644	34298.8
307.709	34337.11
307.775	34348.17
307.841	34373.87
307.907	34396.81
307.973	34379.98
308.039	34405.92
308.104	34454.52
308.17	34507.66
308.236	34489.08
308.302	34531.85
308.368	34522
308.433	34554.3
308.499	34585.97
308.565	34588.29
308.631	34635.43
308.696	34604.34
308.762	34597.26
308.828	34619.04
308.894	34606.68
308.959	34574.34
309.025	34580.88
309.091	34595.68
309.156	34617.6
309.222	34658.25
309.288	34652.28
309.354	34618.05
309.419	34651.33
309.485	34624.17
309.551	34643.28
309.616	34645.99
309.682	34675
309.748	34699.58
309.813	34710.11
309.879	34721.8
309.945	34717.09
310.01	34730
310.076	34761.96
310.141	34791.59
310.207	34770.44
310.273	34814.62
310.338	34862.87
310.404	34852.69
310.469	34856.47
310.535	34858.99
310.601	34816.16
310.666	34867.63
310.732	34933.05
310.797	34933.88
310.863	34952.6
310.928	34975.2
310.994	35016.58
311.059	35033.56
311.125	35057.28
311.191	35116.96
311.256	35116.67
311.322	35178.13
311.387	35154.26
311.453	36252.15
311.518	36236.77
311.584	36278.16
311.649	36317.89
311.715	36331.47
311.78	36359.99
311.846	36369.01
311.911	36412.58
311.976	36467.11
312.042	36454.78
312.107	36448.57
312.173	36438.34
312.238	36452.21
312.304	36468.51
312.369	36477.34
312.434	36469.97
312.5	36485.15
312.565	36421.54
312.631	36463.02
312.696	36453.85
312.761	36494.79
312.827	35438.14
312.892	35548.54
312.958	35567.71
313.023	35589.84
313.088	35605.46
313.154	35600.66
313.219	35604.98
313.284	35608.71
313.35	35635.98
313.415	35639.82
313.48	35664.08
313.546	35703.47
313.611	35757.43
313.676	35751.7
313.741	35753.98
313.807	35804.74
313.872	35845.79
313.937	35893.77
314.003	35953.18
314.068	35995.15
314.133	36026.79
314.198	36025.24
314.264	35988.54
314.329	35976.7
314.394	35992.33
314.459	36013.19
314.525	36091.02
314.59	36104.08
314.655	36097.52
314.72	36122.04
314.785	36144.99
314.851	36159.64
314.916	36143.43
314.981	36131.54
315.046	36140.37
315.111	36134.89
315.176	36132.17
315.242	36153.38
315.307	36173.18
315.372	36136.2
315.437	36128.34
315.502	36143.58
315.567	36191.43
315.632	36177.75
315.698	36210.65
315.763	36229.68
315.828	36228.08
315.893	36227.45
315.958	36245.55
316.023	36244.48
316.088	36198.66
316.153	36173.38
316.218	36157.37
316.283	36123.51
316.348	36089.16
316.413	36090.95
316.479	36064.66
316.544	35967.39
316.609	35885.29
316.674	35789.52
316.739	35697.11
316.804	35607.45
316.869	35504.7
316.934	35398.77
316.999	35302.05
317.064	35154.29
317.129	35013.65
317.194	34900.69
317.259	34754.64
317.324	34586.66
317.389	34437.84
317.454	34316.84
317.518	34186.27
317.583	34092.77
317.648	33999.77
317.713	33878.42
317.778	33692.34
317.843	33580.25
317.908	33459.05
317.973	33321.97
318.038	33210.89
318.103	33076.72
318.168	32957.84
318.233	32822.15
318.297	32647.96
318.362	32511.43
318.427	32361.34
318.492	32260.35
318.557	32087.28
318.622	31979.34
318.687	31874.17
318.751	31732.71
318.816	31593.48
318.881	31460.34
318.946	31259.19
319.011	31085.78
319.075	30921
319.14	30777.9
319.205	30596.89
319.27	30446.84
319.335	30273.43
319.399	30108.13
319.464	29972.87
319.529	29770.43
319.594	29612.87
319.658	29479.52
319.723	29312.13
319.788	29177.19
319.853	28956.21
319.917	28826.23
319.982	28619.18
320.047	28452.54
320.112	28326.24
320.176	28121.47
320.241	27954.01
320.306	27804.12
320.37	27629.76
320.435	27479.01
320.5	27322.88
320.564	27159.91
320.629	26979.63
320.694	26822.2
320.758	26645.02
320.823	26462.1
320.888	26312.16
320.952	26113.3
321.017	25909.28
321.082	25711.78
321.146	25542.35
321.211	25372.38
321.275	25169.57
321.34	24972.52
321.405	24776.43
321.469	24557.52
321.534	24374.61
321.598	24165.4
321.663	24004.17
321.727	23836.51
321.792	23613.82
321.857	23419.21
321.921	23234.22
321.986	23047.52
322.05	22818.26
322.115	22628.48
322.179	22407.24
322.244	22174.2
322.308	21997.37
322.373	21800.74
322.437	21621.23
322.502	21474.28
322.566	21270.87
322.631	21099.19
322.695	20911.46
322.76	20712.6
322.824	20535.91
322.889	20334.03
322.953	20138.94
323.018	19876.08
323.082	19619.6
323.146	19398.54
323.211	19174.64
323.275	18964.95
323.34	18754.74
323.404	18574.84
323.468	18370.22
323.533	18179.23
323.597	17973.4
323.662	17747.95
323.726	17565.59
323.79	17347.95
323.855	17075.84
323.919	16859.01
323.983	16643.53
324.048	16325.8
324.112	16435.63
324.177	15790.49
324.241	14932.97
324.305	14083.46
324.37	13255.03
324.434	12452.76
324.498	12236.38
324.562	11985.24
324.627	11701.13
324.691	11417.23
324.755	11097.28
324.82	10733.86
324.884	10358.64
324.948	9979.2
325.012	9509.77
325.077	8926.55
