Data from 20250626_urea_1M_exp2_MAYP1162681_20-23-59-706.txt Node
Date: Thu Jun 26 20:23:59 BST 2025
User: adleo
Spectrometer: MAYP116268
Trigger mode: 0
Integration Time (sec): 3.000000E0
Scans to average: 1
Electric dark correction enabled: true
Nonlinearity correction enabled: true
Boxcar width: 10
XAxis mode: Wavelengths
Number of Pixels in Spectrum: 2068
>>>>>Begin Spectral Data<<<<<
179.565	3024.75
179.642	3188.76
179.718	3303.1
179.795	3418.06
179.871	3505.49
179.948	3556.05
180.024	3617.04
180.101	3684.65
180.177	3720.65
180.254	3783.26
180.33	3843.12
180.407	4052.08
180.483	4283.83
180.56	4519.48
180.636	4740.59
180.712	4709.84
180.789	4740.82
180.865	4772.49
180.942	4802.45
181.018	4830.22
181.095	4864.85
181.171	4872.61
181.248	4874.05
181.324	4918.17
181.4	4931.67
181.477	4958.93
181.553	4990.27
181.63	5047.86
181.706	5084.8
181.782	5109.45
181.859	5111.22
181.935	5131.97
182.011	5124.2
182.088	5172.35
182.164	5227.97
182.24	5261.63
182.317	5286.78
182.393	5281.75
182.469	5317.2
182.546	5348.64
182.622	5359.18
182.698	5354.19
182.775	5389.61
182.851	5423.45
182.927	5408.3
183.003	5400.68
183.08	5390.96
183.156	5420.57
183.232	5412.85
183.308	5381.99
183.385	5403.93
183.461	5451.2
183.537	5445.54
183.613	5482.45
183.69	5462.36
183.766	5433.44
183.842	5453.77
183.918	5469.92
183.995	5500.59
184.071	5511.72
184.147	5498.97
184.223	5472.15
184.299	5500.34
184.375	5472.16
184.452	5486.07
184.528	5585.52
184.604	5615.85
184.68	5646.72
184.756	5664.37
184.832	5671.32
184.908	5689.86
184.985	5688.38
185.061	5640.87
185.137	5666.81
185.213	5631.91
185.289	5633.35
185.365	5612.55
185.441	5605.31
185.517	5643.6
185.593	5635.59
185.669	5621.83
185.745	5644.94
185.822	5683.84
185.898	5667.34
185.974	5687.9
186.05	5667.33
186.126	5601.96
186.202	5579.25
186.278	5569.22
186.354	5547.26
186.43	5562.9
186.506	5560.26
186.582	5558.2
186.658	5579.29
186.734	5527.82
186.81	5532.65
186.886	5539.03
186.962	5572.58
187.038	5562.23
187.114	5536.6
187.19	5553.62
187.266	5530.67
187.341	5535.66
187.417	5520.47
187.493	5515.24
187.569	5525.07
187.645	5511.94
187.721	5484.6
187.797	5511.73
187.873	5523.39
187.949	5505.18
188.025	5493.13
188.101	5496.82
188.176	5512.5
188.252	5500.9
188.328	5528.97
188.404	5527.53
188.48	5515.84
188.556	5494.12
188.632	5497.24
188.707	5496.04
188.783	5494.89
188.859	5484.59
188.935	5458.75
189.011	5477.97
189.086	5465.51
189.162	5443.12
189.238	5436.27
189.314	5433.1
189.39	5413.4
189.465	5392.4
189.541	5437.85
189.617	5394.14
189.693	5376.03
189.768	5390.52
189.844	5452.92
189.92	5423.94
189.996	5451.26
190.071	5476.62
190.147	5475.18
190.223	5501.12
190.298	5484.1
190.374	5447.43
190.45	5477.66
190.526	5494.25
190.601	5485.67
190.677	5483.18
190.753	5560.43
190.828	5573.66
190.904	5605.88
190.98	5649.1
191.055	5679.4
191.131	5655.61
191.207	5715.1
191.282	5746.49
191.358	5717.73
191.433	5681.4
191.509	5711.15
191.585	5700.12
191.66	5708.8
191.736	5734.93
191.811	5705.82
191.887	5751.64
191.963	5814.17
192.038	5832.82
192.114	5834.74
192.189	5840.02
192.265	5829.91
192.34	5765.5
192.416	5763.3
192.491	5757.2
192.567	5763.11
192.642	5771.89
192.718	5773.57
192.793	5740.57
192.869	5725.66
192.944	5726.66
193.02	5743.36
193.095	5759.18
193.171	5778.55
193.246	5774.57
193.322	5763.93
193.397	5765.27
193.473	5726.02
193.548	5680.93
193.624	5691.34
193.699	5684.82
193.775	5730.21
193.85	5739.26
193.925	5764.39
194.001	5755.87
194.076	5735.63
194.152	5701.85
194.227	5679.59
194.302	5655.73
194.378	5664.79
194.453	5661.29
194.529	5697.21
194.604	5659.56
194.679	5646.52
194.755	5594.57
194.83	5629.12
194.905	5625.05
194.981	5650.99
195.056	5630.67
195.131	5648.26
195.207	5642.7
195.282	5620.41
195.357	5565.53
195.433	5610.31
195.508	5573.48
195.583	5598.7
195.659	5637.41
195.734	5653.91
195.809	5651.89
195.884	5673.94
195.96	5671.3
196.035	5712.88
196.11	5707.93
196.185	5739.58
196.261	5742.89
196.336	5830.6
196.411	5785.07
196.486	5797.58
196.561	5778.45
196.637	5805.91
196.712	5841.57
196.787	5854.53
196.862	5897.06
196.937	5919.69
197.013	5931.68
197.088	5967.51
197.163	6026.55
197.238	6067.18
197.313	6070.01
197.388	6107
197.464	6184.24
197.539	6216.43
197.614	6194.27
197.689	6220.71
197.764	6269.06
197.839	6327.89
197.914	6307.82
197.989	6375.31
198.065	6412.27
198.14	6550.34
198.215	6617.93
198.29	6654.21
198.365	6692.05
198.44	6722
198.515	6798.5
198.59	6839.91
198.665	6906.33
198.74	6926.33
198.815	6936.23
198.89	6995.87
198.965	7073.73
199.04	7064.17
199.115	7102.78
199.19	7218.16
199.265	7227.28
199.34	7249.44
199.415	7335.99
199.49	7388.92
199.565	7411.41
199.64	7477.93
199.715	7470.14
199.79	7486.33
199.865	7501.19
199.94	7492.06
200.015	7575.23
200.09	7594.8
200.165	7614.47
200.24	7631.44
200.315	7732.39
200.39	7771.97
200.464	7782.21
200.539	7788.36
200.614	7831.34
200.689	7893.9
200.764	7911.9
200.839	7958.08
200.914	7969.67
200.989	7938.35
201.063	7983.89
201.138	7939.97
201.213	7938.15
201.288	7885.06
201.363	7901.41
201.438	7896.84
201.512	7937.89
201.587	7887
201.662	7894.65
201.737	7924.23
201.812	7945.44
201.886	7856.7
201.961	7885.09
202.036	7856.06
202.111	7842.64
202.186	7764.04
202.26	7722.62
202.335	7664.91
202.41	7649.38
202.485	7606.27
202.559	7558.64
202.634	7483.68
202.709	7502.46
202.784	7447.52
202.858	7447.28
202.933	7399.74
203.008	7384.07
203.082	7326.94
203.157	7330.21
203.232	7213.83
203.306	7154.4
203.381	7068.17
203.456	7008.74
203.53	6940.05
203.605	6891.61
203.68	6828.75
203.754	6811.96
203.829	6770.87
203.904	6715.12
203.978	6683.5
204.053	6696.95
204.127	6659.64
204.202	6651.43
204.277	6607.4
204.351	6591.8
204.426	6567.44
204.5	6541.56
204.575	6448.36
204.65	6478.48
204.724	6453.63
204.799	6482.03
204.873	6469.54
204.948	6467.62
205.022	6435.09
205.097	6409.86
205.171	6444.9
205.246	6468.1
205.32	6464.12
205.395	6461.76
205.469	6438.6
205.544	6453.44
205.618	6406.81
205.693	6438.7
205.767	6405.34
205.842	6462.63
205.916	6445.78
205.991	6425.04
206.065	6437.81
206.14	6485.15
206.214	6472.03
206.289	6449.74
206.363	6474.18
206.438	6488.35
206.512	6510.44
206.586	6565.74
206.661	6592.98
206.735	6532.15
206.81	6530.23
206.884	6574
206.958	6534.79
207.033	6579.55
207.107	6598.39
207.181	6682.03
207.256	6668.54
207.33	6719.38
207.405	6755.58
207.479	6802.45
207.553	6820.89
207.628	6781.77
207.702	6810.54
207.776	6795.55
207.851	6807.7
207.925	6859.27
207.999	6844.23
208.073	6830.11
208.148	6835.3
208.222	6801.76
208.296	6894.31
208.371	6942.43
208.445	6970.83
208.519	7050.06
208.593	7082.1
208.668	7069.27
208.742	7066.24
208.816	7069.99
208.89	7108.54
208.965	7097.48
209.039	7128.53
209.113	7173.5
209.187	7231.97
209.261	7217.04
209.336	7272.64
209.41	7325.26
209.484	7319.01
209.558	7378.37
209.632	7414.84
209.707	7443.05
209.781	7502.07
209.855	7545.69
209.929	7590.97
210.003	7602.12
210.077	7602.84
210.151	7730.85
210.226	7825.08
210.3	7904.73
210.374	7967.59
210.448	7981.06
210.522	8006.94
210.596	8028.29
210.67	8051.43
210.744	8181.43
210.818	8274.5
210.892	8324.63
210.966	8314.43
211.041	8347.67
211.115	8335.99
211.189	8401.55
211.263	8449.8
211.337	8466.01
211.411	8493.58
211.485	8478.03
211.559	8515.84
211.633	8519.35
211.707	8434.43
211.781	8455.28
211.855	8360.92
211.929	8335.43
212.003	8286.83
212.077	8315.85
212.151	8345.49
212.225	8373.01
212.299	8335.7
212.373	8300.72
212.447	8287.25
212.52	8357.25
212.594	8377.66
212.668	8408.73
212.742	8372.94
212.816	8355.08
212.89	8338.97
212.964	8337.72
213.038	8345.08
213.112	8371.94
213.186	8408.06
213.26	8345.9
213.333	8215.97
213.407	8231.93
213.481	8240.4
213.555	8268.08
213.629	8231.8
213.703	8183.1
213.777	8174.87
213.85	8111.13
213.924	8196.55
213.998	8195.97
214.072	8171.28
214.146	8124.32
214.219	8116.62
214.293	8102.97
214.367	8100.27
214.441	8122.21
214.515	8087.85
214.588	8016.85
214.662	7920.62
214.736	7860.56
214.81	7876.46
214.883	7896.5
214.957	7857.32
215.031	7812.3
215.105	7737.56
215.178	7688.18
215.252	7664.48
215.326	7586.59
215.4	7530.18
215.473	7387.57
215.547	7321.93
215.621	7273.01
215.694	7269.02
215.768	7186.73
215.842	7134.78
215.915	7081.85
215.989	6988.07
216.063	6936.73
216.136	6920.82
216.21	6903.58
216.284	6917.42
216.357	6904.06
216.431	6872.12
216.504	6868.08
216.578	6914.5
216.652	6926.16
216.725	6907.66
216.799	6914.3
216.873	6896.91
216.946	6900.51
217.02	6877.04
217.093	6851.06
217.167	6778.19
217.24	6716.31
217.314	6690.05
217.387	6651.37
217.461	6620.01
217.535	6640.18
217.608	6593.42
217.682	6573.77
217.755	6584.91
217.829	6539.42
217.902	6522.85
217.976	6508.59
218.049	6472.68
218.123	6411.62
218.196	6414.21
218.27	6387.27
218.343	6328.58
218.417	6327.81
218.49	6307.27
218.563	6341.59
218.637	6354.61
218.71	6411.99
218.784	6430.91
218.857	6457.98
218.931	6479.95
219.004	6483.79
219.077	6501.33
219.151	6517.5
219.224	6509.24
219.298	6498.25
219.371	6531.72
219.444	6500.43
219.518	6506.43
219.591	6514.69
219.665	6596.67
219.738	6604.98
219.811	6595.53
219.885	6635.09
219.958	6662.71
220.031	6673.12
220.105	6684.37
220.178	6683.74
220.251	6658.81
220.325	6681.2
220.398	6696.18
220.471	6709.62
220.544	6736.62
220.618	6721.48
220.691	6744.39
220.764	6758.12
220.838	6782.09
220.911	6769.45
220.984	6839.75
221.057	6870.39
221.131	6892.05
221.204	6822.35
221.277	6879.49
221.35	6976.2
221.424	6965.82
221.497	6978.03
221.57	6999.11
221.643	7025.88
221.716	7062.59
221.79	7073.31
221.863	7081.67
221.936	7089.6
222.009	7105.01
222.082	7134
222.155	7140.91
222.229	7192.63
222.302	7222.13
222.375	7229.01
222.448	7259.71
222.521	7262.69
222.594	7264.95
222.667	7248.77
222.74	7290.62
222.814	7283.02
222.887	7273.55
222.96	7318.72
223.033	7348.87
223.106	7362.61
223.179	7383.82
223.252	7389.44
223.325	7409.77
223.398	7421.12
223.471	7442.69
223.544	7452.5
223.617	7463.8
223.69	7480.42
223.763	7450.04
223.837	7466.53
223.91	7487.15
223.983	7450.77
224.056	7424.87
224.129	7439.15
224.202	7483.68
224.275	7476.18
224.348	7452.15
224.42	7424.89
224.493	7382.64
224.566	7362.69
224.639	7382.58
224.712	7361.76
224.785	7352.86
224.858	7348.2
224.931	7334.07
225.004	7300.86
225.077	7307.06
225.15	7229.8
225.223	7219.03
225.296	7286.03
225.369	7238.41
225.442	7216.73
225.514	7228.55
225.587	7244.16
225.66	7251.52
225.733	7247.58
225.806	7251.76
225.879	7246.48
225.952	7221.97
226.025	7256.96
226.097	7300.73
226.17	7283.67
226.243	7229.81
226.316	7225.1
226.389	7228.89
226.461	7242.79
226.534	7258.78
226.607	7248.12
226.68	7311.34
226.753	7317.54
226.825	7251.6
226.898	7294.27
226.971	7300.03
227.044	7315.7
227.117	7319.01
227.189	7336.81
227.262	7366.66
227.335	7384.16
227.407	7384.64
227.48	7405.54
227.553	7412.85
227.626	7397.02
227.698	7416.44
227.771	7456.41
227.844	7446.99
227.916	7464.63
227.989	7439.87
228.062	7438.67
228.134	7509.79
228.207	7512.68
228.28	7502.44
228.352	7518.16
228.425	7528.35
228.498	7561.77
228.57	7552.69
228.643	7596.16
228.716	7594.71
228.788	7585.58
228.861	7578.17
228.934	7630.52
229.006	7639.37
229.079	7640.43
229.151	7629.56
229.224	7593.95
229.296	7605.44
229.369	7688.46
229.442	7728.82
229.514	7715.27
229.587	7755.8
229.659	7697.8
229.732	7705.25
229.804	7741.26
229.877	7797.31
229.949	7818.61
230.022	7864.47
230.094	7865.24
230.167	7865.05
230.239	7829.95
230.312	7824.38
230.384	7880.62
230.457	7876.58
230.529	7888.02
230.602	7893.02
230.674	7899.08
230.747	7934.83
230.819	7965.9
230.892	7873.55
230.964	7860.12
231.037	7882.42
231.109	7880.83
231.181	7914.68
231.254	7886.56
231.326	7877.42
231.399	7860.62
231.471	7839.99
231.544	7770.81
231.616	7804.56
231.688	7804.22
231.761	7792.06
231.833	7784.66
231.905	7719.62
231.978	7718.13
232.05	7704.82
232.122	7708.9
232.195	7689.81
232.267	7718.62
232.339	7698.08
232.412	7750.73
232.484	7736.82
232.556	7715.73
232.629	7768.37
232.701	7775.59
232.773	7786.3
232.846	7776.74
232.918	7780.35
232.99	7796.41
233.062	7828.78
233.135	7840.85
233.207	7814.45
233.279	7855.01
233.351	7883
233.424	7884.49
233.496	7866.79
233.568	7931.34
233.64	7901.48
233.713	7919.03
233.785	7917.59
233.857	7930
233.929	7885.19
234.001	7937.74
234.074	7989.03
234.146	7925.57
234.218	7926.86
234.29	7930.47
234.362	7922.54
234.434	7879.82
234.507	7852.84
234.579	7816.68
234.651	7799.22
234.723	7824.18
234.795	7839.04
234.867	7826.15
234.939	7872.71
235.012	7883.68
235.084	7883.68
235.156	7910.7
235.228	7891.37
235.3	7875.69
235.372	7886.61
235.444	7938.45
235.516	7878.44
235.588	7879.16
235.66	7897.24
235.732	7873.1
235.804	8030.09
235.876	8063.17
235.948	8124.08
236.02	8135.81
236.092	8147.59
236.164	8155.86
236.236	8154.66
236.308	8152.02
236.38	8176.69
236.452	8164.86
236.524	8186.02
236.596	8239.66
236.668	8267.9
236.74	8286.32
236.812	8314.5
236.884	8341.69
236.956	8350.69
237.028	8340.21
237.1	8325.4
237.172	8384.35
237.244	8444.83
237.316	8346.19
237.388	8332.58
237.46	8308.9
237.532	8359.13
237.604	8351.2
237.675	8414
237.747	8448.6
237.819	8437.2
237.891	8437.78
237.963	8428.16
238.035	8416.8
238.107	8328.96
238.178	8379.02
238.25	8384.75
238.322	8454.89
238.394	8415.77
238.466	8411.3
238.538	8448.29
238.609	8490.47
238.681	8446.1
238.753	8429.88
238.825	8449.81
238.897	8479.05
238.968	8546.21
239.04	8530.09
239.112	8616.31
239.184	8588.92
239.255	8584.73
239.327	8622.83
239.399	8641.7
239.471	8674.94
239.542	8708.87
239.614	8764.11
239.686	8701.87
239.758	8746.86
239.829	8716.57
239.901	8773.65
239.973	8784.62
240.044	8815.91
240.116	8822.79
240.188	8829.72
240.259	8843.92
240.331	8833.28
240.403	8862.59
240.474	8823.24
240.546	8813.48
240.618	8767.65
240.689	8762.12
240.761	8781.95
240.833	8825.57
240.904	8827.35
240.976	8835.39
241.048	8851.99
241.119	8884.93
241.191	8914.91
241.262	8976.66
241.334	8986.53
241.405	8989.7
241.477	8997.12
241.549	8995.58
241.62	9018.2
241.692	9059.5
241.763	9106.89
241.835	9129.32
241.906	9145.45
241.978	9128.75
242.049	9185.07
242.121	9237.78
242.192	9289.53
242.264	9258.53
242.335	9228.3
242.407	9267.15
242.478	9269.37
242.55	9282.7
242.621	9263.97
242.693	9269.94
242.764	9258.76
242.836	9254.52
242.907	9279.47
242.979	9304.02
243.05	9330.36
243.122	9348.71
243.193	9343.36
243.264	9288.52
243.336	9291.41
243.407	9315.44
243.479	9375.24
243.55	9387.38
243.622	9405.73
243.693	9406.59
243.764	9465.52
243.836	9443.1
243.907	9430.87
243.978	9438.66
244.05	9461.54
244.121	9422.06
244.192	9459.43
244.264	9411.56
244.335	9423.26
244.407	9375.45
244.478	9393.27
244.549	9386.72
244.62	9355.37
244.692	9355.04
244.763	9390.37
244.834	9377.13
244.906	9361.87
244.977	9375.16
245.048	9426.23
245.119	9395.65
245.191	9380.96
245.262	9331.22
245.333	9389.81
245.405	9402.38
245.476	9428.57
245.547	9436.14
245.618	9489.05
245.689	9497.38
245.761	9531.23
245.832	9540.29
245.903	9580.06
245.974	9604.05
246.045	9617.82
246.117	9684.14
246.188	9676.43
246.259	9666.75
246.33	9681.73
246.401	9688.62
246.473	9660.97
246.544	9649.07
246.615	9701.08
246.686	9708.74
246.757	9772.78
246.828	9756.12
246.899	9818.65
246.97	9792.46
247.042	9788.31
247.113	9816.98
247.184	9884.67
247.255	9880.29
247.326	9904.23
247.397	9914.54
247.468	9913.24
247.539	9922.97
247.61	9887.18
247.681	9921.37
247.752	9960.09
247.823	9947.23
247.894	9961.3
247.965	9938.71
248.037	9920.5
248.108	9878.26
248.179	9882.69
248.25	9872.91
248.321	9901.08
248.392	9869.28
248.463	9936.71
248.534	9935.27
248.605	9951.7
248.675	9923.65
248.746	9939.93
248.817	9952.75
248.888	9970.52
248.959	9933.1
249.03	9952.08
249.101	9956.27
249.172	9944.23
249.243	9888.37
249.314	9936.82
249.385	9948.43
249.456	9976.55
249.527	9971.88
249.598	9994.27
249.669	9988.83
249.739	9997.84
249.81	10002.71
249.881	9962.54
249.952	9951.5
250.023	9948.76
250.094	9909.93
250.165	9891.04
250.235	9888.25
250.306	9887.81
250.377	9863.05
250.448	9882.08
250.519	9828.61
250.59	9877.8
250.66	9880.74
250.731	9939.44
250.802	9937.27
250.873	9949.51
250.944	9964.68
251.014	9955.43
251.085	10030.6
251.156	10056.7
251.227	10100.31
251.297	10143.67
251.368	10187.65
251.439	10215.93
251.51	10257.07
251.58	10245.46
251.651	10244.6
251.722	10294.56
251.792	10259.54
251.863	10254.67
251.934	10301.5
252.005	10389.75
252.075	10397.85
252.146	10446.12
252.217	10486.64
252.287	10522.34
252.358	10523.5
252.429	10585.56
252.499	10585.94
252.57	10594.33
252.641	10630.42
252.711	10635.43
252.782	10606.04
252.852	10667.33
252.923	10669.84
252.994	10679.53
253.064	10726.97
253.135	10699.23
253.205	10680.87
253.276	10737
253.347	10792.59
253.417	10775.44
253.488	10758.71
253.558	10755.05
253.629	10741.85
253.699	10750.96
253.77	10773.56
253.841	10767.88
253.911	10778.62
253.982	10791.82
254.052	10810.62
254.123	10818.23
254.193	10827.49
254.264	10934.04
254.334	10909.13
254.405	10886.09
254.475	10861.47
254.546	10860.41
254.616	10921.26
254.687	10946.95
254.757	10961.98
254.827	10970.32
254.898	10994.12
254.968	11013.21
255.039	10989.12
255.109	11022.65
255.18	11000.53
255.25	10946.13
255.321	10980.97
255.391	10943.66
255.461	11014.94
255.532	10945.59
255.602	10940.04
255.673	10887.04
255.743	10863.28
255.813	10799.68
255.884	10837.07
255.954	10866.42
256.024	10918.37
256.095	10921.89
256.165	10894.8
256.235	10916.35
256.306	10896.11
256.376	10933.41
256.446	10958.57
256.517	10993.07
256.587	11025.31
256.657	11045.21
256.728	11056.68
256.798	11061.12
256.868	11058.85
256.938	11035.52
257.009	11081.02
257.079	11111.86
257.149	11200.24
257.219	11147.22
257.29	11182.68
257.36	11139.41
257.43	11171.51
257.5	11121.29
257.571	11117.72
257.641	11139.94
257.711	11105.62
257.781	11132.85
257.852	11145.53
257.922	11098.01
257.992	11099.5
258.062	11088.22
258.132	11116.13
258.202	11128.61
258.273	11139.98
258.343	11201.14
258.413	11187.94
258.483	11190.73
258.553	11167.07
258.623	11145.43
258.693	11172.18
258.764	11223.64
258.834	11284.94
258.904	11295.16
258.974	11285.91
259.044	11296.99
259.114	11328.56
259.184	11358
259.254	11366.39
259.324	11328.75
259.394	11370.19
259.464	11426.39
259.535	11444.18
259.605	11443.21
259.675	11432.47
259.745	11464.57
259.815	11451.84
259.885	11455.94
259.955	11542.75
260.025	11537.26
260.095	11545.16
260.165	11566.95
260.235	11614.48
260.305	11601.32
260.375	11583.82
260.445	11656.21
260.515	11701.13
260.585	11735.74
260.655	11745.18
260.725	11778.78
260.795	11807.5
260.865	11858.07
260.934	11841.48
261.004	11858.79
261.074	11866.02
261.144	11912.48
261.214	11937.64
261.284	11933.4
261.354	11960.72
261.424	11930.98
261.494	11975.94
261.564	11978.98
261.634	12002.65
261.703	11960.95
261.773	11978.45
261.843	12003.08
261.913	11999.51
261.983	11962.88
262.053	11973.92
262.123	11971.51
262.192	11942.25
262.262	11971.75
262.332	11935.31
262.402	11961.1
262.472	11976.38
262.541	11922.11
262.611	11959.18
262.681	11937.34
262.751	11972.29
262.821	11983.91
262.89	11961.25
262.96	11993.88
263.03	12063.78
263.1	12077.18
263.169	12096.8
263.239	12123.6
263.309	12182.31
263.379	12201.74
263.448	12216.87
263.518	12242.66
263.588	12257.07
263.657	12316.17
263.727	12343.16
263.797	12352.13
263.867	12345.91
263.936	12308.17
264.006	12361.8
264.076	12365.95
264.145	12369.66
264.215	12353.56
264.285	12382.72
264.354	12341.13
264.424	12330.81
264.494	12282.94
264.563	12278.65
264.633	12329.32
264.702	12345.47
264.772	12304.44
264.842	12314.28
264.911	12345.41
264.981	12312.88
265.05	12322.81
265.12	12324.01
265.19	12338.52
265.259	12376.94
265.329	12410.25
265.398	12433.87
265.468	12510.32
265.537	12505.07
265.607	12529.46
265.676	12574.05
265.746	12591.45
265.815	12646.98
265.885	12655.56
265.955	12650.45
266.024	12656.38
266.094	12612.94
266.163	12674.31
266.232	12725.21
266.302	12725.65
266.371	12736.64
266.441	12757.46
266.51	12798.25
266.58	12797.09
266.649	12788.07
266.719	12827.31
266.788	12850.55
266.858	12913.02
266.927	12863.18
266.996	12892.05
267.066	12924.74
267.135	12897.36
267.205	12930.38
267.274	12947.3
267.343	12991.6
267.413	13011.89
267.482	13058.08
267.552	13115.63
267.621	13068.54
267.69	13027.32
267.76	13051.66
267.829	13084.64
267.898	13101.94
267.968	13084.97
268.037	13121.18
268.106	13163.6
268.176	13138.67
268.245	13149.47
268.314	13142.58
268.384	13191.8
268.453	13200.28
268.522	13214.26
268.592	13264.59
268.661	13256.97
268.73	13275.87
268.799	13261.6
268.869	13325.28
268.938	13290.28
269.007	13279.63
269.076	13298.96
269.146	13346.11
269.215	13370.79
269.284	13409.16
269.353	13397.4
269.422	13406.17
269.492	13394.99
269.561	13325.76
269.63	13356.61
269.699	13355.8
269.768	13372.04
269.838	13396.1
269.907	13427.33
269.976	13401.54
270.045	13361.34
270.114	13394.12
270.183	13404.39
270.253	13431.14
270.322	13398.7
270.391	13422.85
270.46	13478.05
270.529	13518.54
270.598	13556.19
270.667	13565.25
270.736	13555.27
270.806	13588.68
270.875	13639.68
270.944	13657.13
271.013	13765.45
271.082	13786.62
271.151	13813.18
271.22	13783.29
271.289	13788.93
271.358	13804.6
271.427	13847.6
271.496	13873.1
271.565	13875.8
271.634	13901.64
271.703	14005.66
271.772	14053.63
271.841	14055.89
271.91	14029.67
271.979	14047.94
272.048	14026
272.117	14062.25
272.186	14056.18
272.255	14094.7
272.324	14132.01
272.393	14160.88
272.462	14148.69
272.531	14174.38
272.6	14185.18
272.669	14246.98
272.738	14251.9
272.807	14277.2
272.876	14261.05
272.945	14373.47
273.013	14419.46
273.082	14466.46
273.151	14392.99
273.22	14417.58
273.289	14455.37
273.358	14523.34
273.427	14527.44
273.496	14571.59
273.564	14602.88
273.633	14666.08
273.702	14657.4
273.771	14656.58
273.84	14685.84
273.909	14722.33
273.977	14747.73
274.046	14755.06
274.115	14802.54
274.184	14809.34
274.253	14829.63
274.322	14890.03
274.39	14836.82
274.459	14827.9
274.528	14793.24
274.597	14816.19
274.665	14835.18
274.734	14891.77
274.803	14897.94
274.872	14922.04
274.94	14916.98
275.009	15098.43
275.078	15095.01
275.147	15133.72
275.215	15159.89
275.284	15214.31
275.353	15227.57
275.421	15200.43
275.49	15286.9
275.559	15292.59
275.627	15310.33
275.696	15331.92
275.765	15365.14
275.833	15388.42
275.902	15434.6
275.971	15508.49
276.039	15583.54
276.108	15636.95
276.177	15661.09
276.245	15672.71
276.314	15700.33
276.383	15750.17
276.451	15619.33
276.52	15661.36
276.588	15725.42
276.657	15780.17
276.725	15785.52
276.794	15820.18
276.863	15893.68
276.931	15862.98
277	15914.7
277.068	15973.31
277.137	16046.62
277.205	16080.7
277.274	16159.5
277.342	16216.95
277.411	16196.71
277.48	16198.78
277.548	16201.19
277.617	16234.35
277.685	16255.13
277.754	16305.73
277.822	16324.87
277.89	16389.64
277.959	16406.27
278.027	16389.4
278.096	16393.55
278.164	16498.95
278.233	16508.44
278.301	16517.79
278.37	16572.06
278.438	16575.2
278.507	16616.36
278.575	16587.97
278.643	16608.31
278.712	16600.64
278.78	16609.18
278.849	16681.52
278.917	16739.59
278.985	16773.04
279.054	16818.83
279.122	16880.42
279.191	16904.66
279.259	16936.42
279.327	16919.99
279.396	17005.53
279.464	17039.37
279.532	17096.28
279.601	17111.9
279.669	17143.08
279.737	17213.3
279.806	17258.6
279.874	17328.58
279.942	17366.99
280.011	17393.4
280.079	17453.88
280.147	17538.8
280.215	17574.31
280.284	17587.23
280.352	17586.56
280.42	17642.27
280.488	17657.83
280.557	17682.75
280.625	17728.29
280.693	17756.1
280.761	17799.08
280.83	17774.07
280.898	17839.71
280.966	17819.04
281.034	17786.12
281.102	17787.37
281.171	17802.41
281.239	17860.82
281.307	17861.01
281.375	17870.89
281.443	17972.43
281.512	18000.47
281.58	18051.6
281.648	18052.76
281.716	18091.36
281.784	18135.84
281.852	18159.36
281.92	18194.15
281.989	18249.96
282.057	18240.61
282.125	18355.64
282.193	18394.96
282.261	18435.78
282.329	18462.57
282.397	18514.91
282.465	18559.39
282.533	18643.1
282.601	18657.79
282.67	18633.46
282.738	18649.17
282.806	18707.86
282.874	18698.56
282.942	18738.56
283.01	18755.19
283.078	18809.16
283.146	18833.25
283.214	18886.07
283.282	18923.18
283.35	18986.55
283.418	19013.2
283.486	19071.51
283.554	19042.11
283.622	19068.86
283.69	19108.27
283.758	19125.38
283.826	19180.13
283.894	19246.82
283.962	19331.97
284.03	19404.16
284.098	19447.2
284.165	19477.84
284.233	19516.3
284.301	19553.12
284.369	19573.69
284.437	19589.69
284.505	19602.66
284.573	19688.92
284.641	19698.99
284.709	19756.96
284.777	19746.27
284.845	19803.13
284.912	19848.38
284.98	19896.09
285.048	19923.03
285.116	19971.61
285.184	20046.59
285.252	20090.25
285.319	20072.13
285.387	20085.87
285.455	20082.21
285.523	20132.28
285.591	20173.19
285.659	20212.76
285.726	20280.23
285.794	20283.84
285.862	20312.03
285.93	20361.86
285.997	20389.14
286.065	20413.77
286.133	20417.14
286.201	20456.42
286.269	20454.06
286.336	20468.37
286.404	20492.47
286.472	20557.67
286.539	20549.05
286.607	20544.9
286.675	20582.88
286.743	20652.13
286.81	20671.03
286.878	20739.8
286.946	20760.57
287.013	20792.23
287.081	20833.59
287.149	20834.74
287.216	20920.77
287.284	20947.95
287.352	20984.58
287.419	21002.13
287.487	21090.52
287.555	21134.96
287.622	21161.81
287.69	21213.28
287.758	21287.41
287.825	21312.76
287.893	21316.91
287.96	21373.05
288.028	21444.73
288.096	21483.48
288.163	21522.04
288.231	21526.43
288.298	21561.57
288.366	21638.3
288.433	21672.81
288.501	21689.97
288.569	21723.38
288.636	21744.68
288.704	21821.04
288.771	21876.57
288.839	21894.35
288.906	21899.99
288.974	21975.78
289.041	22011.73
289.109	22017.9
289.176	22075.37
289.244	22131.19
289.311	22207.07
289.379	22274.94
289.446	22309.8
289.514	22347.94
289.581	22388.43
289.649	22437.46
289.716	22479.25
289.783	22485.28
289.851	22573.89
289.918	22612.5
289.986	22682.7
290.053	22727.97
290.121	22768.04
290.188	22810.32
290.255	22934.48
290.323	22960.85
290.39	22979.52
290.458	23028.79
290.525	23106.51
290.592	23120.88
290.66	23161.48
290.727	23182.07
290.794	23248.08
290.862	23284.88
290.929	23339.13
290.996	23369.84
291.064	23437.54
291.131	23508.92
291.198	23588.25
291.266	23625.72
291.333	23667.48
291.4	23724.73
291.468	23814.06
291.535	23827.81
291.602	23882.64
291.669	23894.37
291.737	23941.96
291.804	23980.55
291.871	24064.76
291.938	24121.29
292.006	24223.71
292.073	24293.56
292.14	24352.64
292.207	24371.12
292.275	24405.12
292.342	24465.43
292.409	24581.08
292.476	24684.87
292.543	24697.89
292.611	24744.65
292.678	24820.59
292.745	24923.4
292.812	24985.45
292.879	25010.69
292.946	25068.1
293.014	25142.46
293.081	25208.23
293.148	25289.48
293.215	25369.59
293.282	25393.38
293.349	25462.88
293.416	25460.66
293.484	25533.77
293.551	25593.95
293.618	25671.65
293.685	25790.34
293.752	25807.28
293.819	25837.02
293.886	25833.64
293.953	25888.36
294.02	25952.71
294.087	26006.35
294.154	26026.96
294.221	26100.12
294.288	26138.35
294.356	26216.6
294.423	26265.8
294.49	26285.59
294.557	26357.73
294.624	26374.43
294.691	26472.2
294.758	26517.4
294.825	26576.98
294.892	26592.23
294.959	26644.43
295.026	26707.75
295.093	26726.39
295.16	26763.9
295.226	26806.35
295.293	26914.65
295.36	26963.7
295.427	27029.98
295.494	27103.95
295.561	27165.33
295.628	27268.43
295.695	27354.75
295.762	27406.63
295.829	27466.54
295.896	27544.31
295.963	27607.55
296.03	27684.55
296.096	27736.4
296.163	27795.59
296.23	27887.84
296.297	27972.24
296.364	28010.98
296.431	28065.4
296.498	28096.17
296.564	28213.39
296.631	28251.85
296.698	28265.58
296.765	28380.79
296.832	28387.32
296.899	28400.42
296.965	28501.35
297.032	28486.89
297.099	28568.65
297.166	28644.16
297.233	28687.62
297.299	28719.91
297.366	28774.2
297.433	28816.6
297.5	28876.89
297.566	28932.64
297.633	28968.04
297.7	29018.9
297.767	29062.36
297.833	29127.35
297.9	29196.34
297.967	29192.57
298.033	29280.09
298.1	29396.29
298.167	29406.93
298.234	29470.12
298.3	29528.58
298.367	29546.48
298.434	29598
298.5	29608.01
298.567	29626.49
298.634	29662.43
298.7	29746.97
298.767	29788.24
298.834	29862.3
298.9	29895.53
298.967	29907.77
299.033	29975.56
299.1	30052.45
299.167	30126.99
299.233	30155.05
299.3	30231.11
299.366	30323.51
299.433	30400.67
299.5	30369.88
299.566	30426.06
299.633	30521.5
299.699	30589.78
299.766	30626.7
299.832	30691.52
299.899	30763.69
299.965	30844.17
300.032	30882.25
300.099	30941.89
300.165	31001.92
300.232	31034.2
300.298	31077.48
300.365	31167.7
300.431	31203.14
300.498	31235.58
300.564	31312.7
300.631	31385.81
300.697	31448.67
300.763	31496.74
300.83	31547.66
300.896	31635.48
300.963	31695.96
301.029	31736.59
301.096	31780.81
301.162	31862.59
301.229	31889.47
301.295	31896.83
301.361	31953.94
301.428	31993.15
301.494	31995.67
301.561	32040.43
301.627	32095.64
301.693	32148.18
301.76	32194.44
301.826	32229.8
301.892	32287.65
301.959	32343.95
302.025	32373.69
302.092	32394.09
302.158	32449.61
302.224	32483
302.291	32493.07
302.357	32523.21
302.423	32561.58
302.49	32595.93
302.556	32649.97
302.622	32692.65
302.688	32774.29
302.755	32849.13
302.821	32920.78
302.887	32989.19
302.954	33020.97
303.02	33079.03
303.086	33122.83
303.152	33153.46
303.219	33180.02
303.285	33240.61
303.351	33285.89
303.417	33324.51
303.483	33346.47
303.55	33358.48
303.616	33387.28
303.682	33427.89
303.748	33461.13
303.815	33523.97
303.881	33590.42
303.947	33592.99
304.013	33641.95
304.079	33657.86
304.145	33633.37
304.212	33672.1
304.278	33690.18
304.344	33713.06
304.41	33723.97
304.476	33748.54
304.542	33768.47
304.608	33830.86
304.674	33815.2
304.741	33834.35
304.807	33872.7
304.873	33930.59
304.939	34005.69
305.005	33998.08
305.071	34039.96
305.137	34078.41
305.203	34047.57
305.269	34075.89
305.335	34149.45
305.401	34164.92
305.467	34193.29
305.533	34249.34
305.599	34305.45
305.666	34359.32
305.732	34407.09
305.798	34470.13
305.864	34570.73
305.93	34629.79
305.996	34668.74
306.062	34715.3
306.128	34753.67
306.194	34770.54
306.259	34791.45
306.325	34801.78
306.391	34873.75
306.457	34923.32
306.523	34972.26
306.589	35077.23
306.655	35093.86
306.721	35080.77
306.787	35087.56
306.853	35158.19
306.919	35155.28
306.985	35169.69
307.051	35193.45
307.117	35212.81
307.183	35232.51
307.248	35197.18
307.314	35242.98
307.38	35269.14
307.446	35319.11
307.512	35320.76
307.578	35359.27
307.644	35390.17
307.709	35434.03
307.775	35448.1
307.841	35462.32
307.907	35483.28
307.973	35459.16
308.039	35482.98
308.104	35536.01
308.17	35583.41
308.236	35580.06
308.302	35625.85
308.368	35625.32
308.433	35656.32
308.499	35673.21
308.565	35681.55
308.631	35716.39
308.696	35687.81
308.762	35694.65
308.828	35719.01
308.894	35699.22
308.959	35680.35
309.025	35694.08
309.091	35713.93
309.156	35736.79
309.222	35787.11
309.288	35792.59
309.354	35771.78
309.419	35804.68
309.485	35798.23
309.551	35829.09
309.616	35826.57
309.682	35848.31
309.748	35863.54
309.813	35873.3
309.879	35881.11
309.945	35884.07
310.01	35908.14
310.076	35948.9
310.141	35962.19
310.207	35949.43
310.273	36003.09
310.338	36052.63
310.404	36033.03
310.469	36024.83
310.535	36022.98
310.601	35989.4
310.666	36030.46
310.732	36086.35
310.797	36094.95
310.863	36094.9
310.928	36112.56
310.994	36140.32
311.059	36159.98
311.125	36187.83
311.191	36251.42
311.256	36259.48
311.322	36302.43
311.387	36273.55
311.453	37359.28
311.518	37364.71
311.584	37397.67
311.649	37431.06
311.715	37428.15
311.78	37463.82
311.846	37481.63
311.911	37520.9
311.976	37550.4
312.042	37547.15
312.107	37542.98
312.173	37548.85
312.238	37583.16
312.304	37600.2
312.369	37615.25
312.434	37611.75
312.5	37624.18
312.565	37564.76
312.631	37608.49
312.696	37612.57
312.761	37656.39
312.827	36605.57
312.892	36700.34
312.958	36721.8
313.023	36736.6
313.088	36764.22
313.154	36767.57
313.219	36757.28
313.284	36761.31
313.35	36787.32
313.415	36789.27
313.48	36807.86
313.546	36835.48
313.611	36876.06
313.676	36868.59
313.741	36872.52
313.807	36920.24
313.872	36961.16
313.937	37020.92
314.003	37067.48
314.068	37100.93
314.133	37143.55
314.198	37138.36
314.264	37104.61
314.329	37097.37
314.394	37120.15
314.459	37148.79
314.525	37220.44
314.59	37247.43
314.655	37237.67
314.72	37280.88
314.785	37316.61
314.851	37327.87
314.916	37308.89
314.981	37292.97
315.046	37303.89
315.111	37302.53
315.176	37296.46
315.242	37330.16
315.307	37346.04
315.372	37313.17
315.437	37320.74
315.502	37326.13
315.567	37384.69
315.632	37382.75
315.698	37420.76
315.763	37426.78
315.828	37418.58
315.893	37428.73
315.958	37446.01
316.023	37456.21
316.088	37415.71
316.153	37367.17
316.218	37362.75
316.283	37331.83
316.348	37299.8
316.413	37301.83
316.479	37262.67
316.544	37184.96
316.609	37096.16
316.674	36985.3
316.739	36901.3
316.804	36793.74
316.869	36687.54
316.934	36574.19
316.999	36461.93
317.064	36307.25
317.129	36184.51
317.194	36074.06
317.259	35927.49
317.324	35762.1
317.389	35614.55
317.454	35479.96
317.518	35355.58
317.583	35265.77
317.648	35170.92
317.713	35047.37
317.778	34846.99
317.843	34740.53
317.908	34595.79
317.973	34443.99
318.038	34338.13
318.103	34195.36
318.168	34071.86
318.233	33931.98
318.297	33746.56
318.362	33593.53
318.427	33438.06
318.492	33316.27
318.557	33140.56
318.622	33006.2
318.687	32895.69
318.751	32734.04
318.816	32592.4
318.881	32452.12
318.946	32231.34
319.011	32051.52
319.075	31886.11
319.14	31741.19
319.205	31558.96
319.27	31414.25
319.335	31241.76
319.399	31069.15
319.464	30930.52
319.529	30729.18
319.594	30555.53
319.658	30415.73
319.723	30237.25
319.788	30080.76
319.853	29865.09
319.917	29706.7
319.982	29495.16
320.047	29317.26
320.112	29178.14
320.176	28966.88
320.241	28801.56
320.306	28645.76
320.37	28459.12
320.435	28280.95
320.5	28119.53
320.564	27933.15
320.629	27734.86
320.694	27560.45
320.758	27363.25
320.823	27164.17
320.888	26995.58
320.952	26790.09
321.017	26583.5
321.082	26407.07
321.146	26236.29
321.211	26050.62
321.275	25858.26
321.34	25644.32
321.405	25437.89
321.469	25224.57
321.534	25031.42
321.598	24795.14
321.663	24627.3
321.727	24444.59
321.792	24227.65
321.857	24036.22
321.921	23839.43
321.986	23633.8
322.05	23394.37
322.115	23203.88
322.179	22992.01
322.244	22762.89
322.308	22586.71
322.373	22377.67
322.437	22170.46
322.502	22007.44
322.566	21795.91
322.631	21605.26
322.695	21423.45
322.76	21213.1
322.824	21028.06
322.889	20822.79
322.953	20625.92
323.018	20349.5
323.082	20091.08
323.146	19863.7
323.211	19622.11
323.275	19414.4
323.34	19202.11
323.404	19019.03
323.468	18800.77
323.533	18587.18
323.597	18370.7
323.662	18132.44
323.726	17938.75
323.79	17722.27
323.855	17452.14
323.919	17224.09
323.983	17013.05
324.048	16687.71
324.112	16840
324.177	16161.03
324.241	15279.51
324.305	14411.55
324.37	13570.19
324.434	12746.19
324.498	12519.33
324.562	12263.37
324.627	11973.74
324.691	11690.4
324.755	11366.9
324.82	11001.82
324.884	10622.83
324.948	10233.57
325.012	9761.29
325.077	9185.58
