Data from 20250626_urea_1M_exp2_MAYP1162681_19-04-00-112.txt Node
Date: Thu Jun 26 19:04:00 BST 2025
User: adleo
Spectrometer: MAYP116268
Trigger mode: 0
Integration Time (sec): 3.000000E0
Scans to average: 1
Electric dark correction enabled: true
Nonlinearity correction enabled: true
Boxcar width: 10
XAxis mode: Wavelengths
Number of Pixels in Spectrum: 2068
>>>>>Begin Spectral Data<<<<<
179.565	3109.29
179.642	3267.77
179.718	3386.7
179.795	3505.46
179.871	3595.91
179.948	3653.44
180.024	3713.43
180.101	3775.46
180.177	3814.14
180.254	3876.8
180.33	3940.39
180.407	4156.83
180.483	4397.48
180.56	4643
180.636	4868.85
180.712	4833.16
180.789	4857.01
180.865	4890.94
180.942	4916.36
181.018	4949.93
181.095	4986.01
181.171	4998.03
181.248	5004.3
181.324	5050.45
181.4	5067.51
181.477	5102.05
181.553	5134.03
181.63	5192.83
181.706	5239.55
181.782	5270.43
181.859	5271.24
181.935	5287.87
182.011	5279.39
182.088	5323.34
182.164	5377
182.24	5413.26
182.317	5438.03
182.393	5433
182.469	5469.8
182.546	5510.55
182.622	5520.9
182.698	5512.89
182.775	5553.69
182.851	5586.19
182.927	5564.52
183.003	5553.11
183.08	5535.62
183.156	5564.33
183.232	5556.27
183.308	5525.88
183.385	5541.03
183.461	5589.11
183.537	5592.04
183.613	5625.17
183.69	5603.35
183.766	5576.15
183.842	5597.01
183.918	5614.31
183.995	5646.81
184.071	5659.24
184.147	5642.65
184.223	5610.4
184.299	5639.85
184.375	5602.27
184.452	5621.89
184.528	5732.93
184.604	5764.57
184.68	5795.21
184.756	5812.09
184.832	5825.91
184.908	5841.29
184.985	5842.44
185.061	5794.35
185.137	5817.9
185.213	5784.97
185.289	5787.17
185.365	5763.59
185.441	5757.3
185.517	5800.06
185.593	5791.19
185.669	5782.12
185.745	5802.5
185.822	5846.83
185.898	5823.62
185.974	5852.66
186.05	5826.18
186.126	5756.43
186.202	5736.34
186.278	5724.06
186.354	5697.44
186.43	5707.37
186.506	5703.3
186.582	5703.59
186.658	5726.11
186.734	5672.03
186.81	5683.01
186.886	5693.75
186.962	5729.99
187.038	5720.55
187.114	5696.98
187.19	5719.24
187.266	5691.43
187.341	5698.82
187.417	5683.91
187.493	5687.55
187.569	5694.08
187.645	5684.01
187.721	5653.41
187.797	5675.8
187.873	5692.2
187.949	5676.24
188.025	5662.85
188.101	5670.38
188.176	5684.04
188.252	5672.92
188.328	5695.01
188.404	5691.13
188.48	5674.78
188.556	5649.51
188.632	5651.24
188.707	5649.51
188.783	5643.37
188.859	5633.4
188.935	5602.32
189.011	5623.9
189.086	5604.78
189.162	5581.38
189.238	5577.4
189.314	5573.08
189.39	5555.25
189.465	5535.15
189.541	5579.99
189.617	5540.73
189.693	5522.32
189.768	5532.73
189.844	5596.11
189.92	5570.29
189.996	5596.32
190.071	5631.04
190.147	5631.23
190.223	5656.84
190.298	5637.75
190.374	5600.79
190.45	5634.57
190.526	5659.99
190.601	5639.66
190.677	5646.75
190.753	5724.69
190.828	5736.15
190.904	5777.69
190.98	5813.76
191.055	5845.22
191.131	5824.21
191.207	5881.28
191.282	5912
191.358	5881.75
191.433	5844.07
191.509	5884.37
191.585	5876.94
191.66	5875.69
191.736	5902.31
191.811	5875.83
191.887	5917.62
191.963	5982.24
192.038	5998.45
192.114	5997.49
192.189	6011.06
192.265	6000.08
192.34	5937.87
192.416	5930.01
192.491	5917.87
192.567	5928.33
192.642	5928.62
192.718	5929.63
192.793	5892.98
192.869	5877.78
192.944	5885.25
193.02	5909.44
193.095	5919.56
193.171	5934.24
193.246	5933.18
193.322	5920.85
193.397	5923.59
193.473	5881.75
193.548	5829.83
193.624	5840.53
193.699	5836.74
193.775	5881.14
193.85	5890.05
193.925	5913.7
194.001	5915.57
194.076	5892.89
194.152	5865.48
194.227	5844.76
194.302	5819.74
194.378	5835.18
194.453	5829.28
194.529	5866.03
194.604	5821.56
194.679	5805.78
194.755	5751.13
194.83	5787.52
194.905	5784.64
194.981	5806.47
195.056	5786.67
195.131	5808.06
195.207	5799.13
195.282	5775.01
195.357	5720.31
195.433	5763.76
195.508	5732.92
195.583	5753.97
195.659	5791.78
195.734	5806.6
195.809	5804.49
195.884	5827.89
195.96	5822.47
196.035	5864.82
196.11	5855.89
196.185	5887.49
196.261	5895.17
196.336	5982.36
196.411	5941.28
196.486	5953.6
196.561	5931.97
196.637	5966.11
196.712	6002.01
196.787	6014.01
196.862	6056.17
196.937	6082.31
197.013	6094.6
197.088	6123.57
197.163	6182.44
197.238	6233.8
197.313	6229.67
197.388	6272.71
197.464	6355.5
197.539	6390.62
197.614	6372.1
197.689	6399.56
197.764	6445.42
197.839	6501.58
197.914	6490.59
197.989	6551.13
198.065	6587.03
198.14	6732.83
198.215	6796.55
198.29	6834.85
198.365	6876.01
198.44	6904.2
198.515	6983.56
198.59	7022.62
198.665	7099.63
198.74	7115.06
198.815	7115.01
198.89	7182.31
198.965	7258.45
199.04	7246.05
199.115	7285.92
199.19	7403.3
199.265	7417.09
199.34	7447.33
199.415	7533.27
199.49	7585.69
199.565	7608.04
199.64	7680.82
199.715	7667.49
199.79	7692.11
199.865	7703.5
199.94	7691.15
200.015	7776.31
200.09	7792.04
200.165	7807.43
200.24	7819.16
200.315	7922.72
200.39	7964.71
200.464	7978.32
200.539	7986.88
200.614	8028.91
200.689	8099.23
200.764	8110.44
200.839	8154.91
200.914	8165.73
200.989	8139.21
201.063	8181.5
201.138	8136.66
201.213	8128.92
201.288	8077.7
201.363	8083.56
201.438	8086.83
201.512	8133.99
201.587	8085.74
201.662	8092.14
201.737	8129.95
201.812	8154.73
201.886	8070.5
201.961	8098.8
202.036	8065.15
202.111	8053.84
202.186	7974.64
202.26	7920.56
202.335	7865.34
202.41	7851.16
202.485	7804.39
202.559	7752.55
202.634	7677.97
202.709	7703.29
202.784	7653.72
202.858	7653.38
202.933	7601.85
203.008	7583.73
203.082	7527.97
203.157	7530.71
203.232	7418.14
203.306	7354.04
203.381	7257.12
203.456	7191.57
203.53	7123.11
203.605	7071.01
203.68	7002.84
203.754	6983.46
203.829	6943.13
203.904	6885.68
203.978	6846.9
204.053	6859.92
204.127	6822.22
204.202	6818.52
204.277	6768.58
204.351	6748.6
204.426	6728.27
204.5	6709.87
204.575	6615.35
204.65	6645.38
204.724	6622.07
204.799	6643.66
204.873	6632.47
204.948	6630.78
205.022	6602.47
205.097	6579.83
205.171	6620.45
205.246	6645.82
205.32	6645.24
205.395	6641.2
205.469	6618.37
205.544	6636
205.618	6585.34
205.693	6616.69
205.767	6581.69
205.842	6643.85
205.916	6625.75
205.991	6598.37
206.065	6614.37
206.14	6655.33
206.214	6638.94
206.289	6614.82
206.363	6643.44
206.438	6653.87
206.512	6678.61
206.586	6730.07
206.661	6755.11
206.735	6694.93
206.81	6694.78
206.884	6740.11
206.958	6703.1
207.033	6750.85
207.107	6766.81
207.181	6851.47
207.256	6835.04
207.33	6885.17
207.405	6917.35
207.479	6969.75
207.553	6990.45
207.628	6943.74
207.702	6977.12
207.776	6959.68
207.851	6967.84
207.925	7011.11
207.999	7000.68
208.073	6989.49
208.148	7000.3
208.222	6965.7
208.296	7051.59
208.371	7096.36
208.445	7120.92
208.519	7206.08
208.593	7242.99
208.668	7230.73
208.742	7239.1
208.816	7249.86
208.89	7282.41
208.965	7276.49
209.039	7300.91
209.113	7349.65
209.187	7408.51
209.261	7396.74
209.336	7455.09
209.41	7510.61
209.484	7510.85
209.558	7573.59
209.632	7610.31
209.707	7635.45
209.781	7700.55
209.855	7742.15
209.929	7789.99
210.003	7810.37
210.077	7803.21
210.151	7927.44
210.226	8025.29
210.3	8098.12
210.374	8162.3
210.448	8180.29
210.522	8205.84
210.596	8235.76
210.67	8263.18
210.744	8397.38
210.818	8488.12
210.892	8538.55
210.966	8522.53
211.041	8562.51
211.115	8549.67
211.189	8615.53
211.263	8661.96
211.337	8672.93
211.411	8715.19
211.485	8701.76
211.559	8734.95
211.633	8741.88
211.707	8658.34
211.781	8677.56
211.855	8585.35
211.929	8562.26
212.003	8510.85
212.077	8542.67
212.151	8574.68
212.225	8593.21
212.299	8557.48
212.373	8522.79
212.447	8509.45
212.52	8582.98
212.594	8592.56
212.668	8626.96
212.742	8589.04
212.816	8569.79
212.89	8554.16
212.964	8542.84
213.038	8549.15
213.112	8576.06
213.186	8614.64
213.26	8553.71
213.333	8425.35
213.407	8434.05
213.481	8441.17
213.555	8467.47
213.629	8430.55
213.703	8376.36
213.777	8367.89
213.85	8309.18
213.924	8396.54
213.998	8397.02
214.072	8379.64
214.146	8337.83
214.219	8328.39
214.293	8311.56
214.367	8316.47
214.441	8340.04
214.515	8302.75
214.588	8229.09
214.662	8129.71
214.736	8067.52
214.81	8084.78
214.883	8101.64
214.957	8062.8
215.031	8016.08
215.105	7947.81
215.178	7897.64
215.252	7866.58
215.326	7790.65
215.4	7726.63
215.473	7582.79
215.547	7515.79
215.621	7460.27
215.694	7458.87
215.768	7379.35
215.842	7326.14
215.915	7268.82
215.989	7176.17
216.063	7136.88
216.136	7122.18
216.21	7105.65
216.284	7116.47
216.357	7092.05
216.431	7061.35
216.504	7058.95
216.578	7104.56
216.652	7113.64
216.725	7097.68
216.799	7110.71
216.873	7089.82
216.946	7094.86
217.02	7069.32
217.093	7046.35
217.167	6968.38
217.24	6903.84
217.314	6870.95
217.387	6833.75
217.461	6797.48
217.535	6818.19
217.608	6763.38
217.682	6746.04
217.755	6752.86
217.829	6704.86
217.902	6692.18
217.976	6677.15
218.049	6643.01
218.123	6572.47
218.196	6573.09
218.27	6536.79
218.343	6477.79
218.417	6482.93
218.49	6462.28
218.563	6493.59
218.637	6493.06
218.71	6552.8
218.784	6574.32
218.857	6602.98
218.931	6628.61
219.004	6635.19
219.077	6648.41
219.151	6661.17
219.224	6650.27
219.298	6646.24
219.371	6682.02
219.444	6649.91
219.518	6659.08
219.591	6666.62
219.665	6762.12
219.738	6770.62
219.811	6762.9
219.885	6798.68
219.958	6818.14
220.031	6822.79
220.105	6836.24
220.178	6846.09
220.251	6823.85
220.325	6836.72
220.398	6845.76
220.471	6855.65
220.544	6885.48
220.618	6865.06
220.691	6892.05
220.764	6903.91
220.838	6931.2
220.911	6922.36
220.984	6991.91
221.057	7020.63
221.131	7047.1
221.204	6960.95
221.277	7014.59
221.35	7114.2
221.424	7106.8
221.497	7122.66
221.57	7140.33
221.643	7167.63
221.716	7200.13
221.79	7208.01
221.863	7218.25
221.936	7225.74
222.009	7242.41
222.082	7264.04
222.155	7274.42
222.229	7325.77
222.302	7352.34
222.375	7349.84
222.448	7385.22
222.521	7393.34
222.594	7396.8
222.667	7373.32
222.74	7427.14
222.814	7420.74
222.887	7410.59
222.96	7452.56
223.033	7481.55
223.106	7502.4
223.179	7527.56
223.252	7541.36
223.325	7565.49
223.398	7579.19
223.471	7602.79
223.544	7614.86
223.617	7621.64
223.69	7640.67
223.763	7609.22
223.837	7628.31
223.91	7655.57
223.983	7612.79
224.056	7589.33
224.129	7604.19
224.202	7649.11
224.275	7636.46
224.348	7614.02
224.42	7581.27
224.493	7537.58
224.566	7520.65
224.639	7540.69
224.712	7514.81
224.785	7496.88
224.858	7489.14
224.931	7471.63
225.004	7439.87
225.077	7445.01
225.15	7374.9
225.223	7366.78
225.296	7434.51
225.369	7383.66
225.442	7355.82
225.514	7368.94
225.587	7378.02
225.66	7384.71
225.733	7383.89
225.806	7386.44
225.879	7384.04
225.952	7359.48
226.025	7399.33
226.097	7442.48
226.17	7429.41
226.243	7377.17
226.316	7376.74
226.389	7380.35
226.461	7400.06
226.534	7414.67
226.607	7404.09
226.68	7473.09
226.753	7474.73
226.825	7404.54
226.898	7452.94
226.971	7457.51
227.044	7473.8
227.117	7483.03
227.189	7499.72
227.262	7530.35
227.335	7549.34
227.407	7546.84
227.48	7579.18
227.553	7584.14
227.626	7566.48
227.698	7578.5
227.771	7613.28
227.844	7599.34
227.916	7615.25
227.989	7584.44
228.062	7589.15
228.134	7665.04
228.207	7664.37
228.28	7651.29
228.352	7664.42
228.425	7677.12
228.498	7712.6
228.57	7700.11
228.643	7743.3
228.716	7737.96
228.788	7728.73
228.861	7723
228.934	7776.61
229.006	7778.92
229.079	7784.12
229.151	7773.82
229.224	7743.59
229.296	7763.45
229.369	7846.92
229.442	7891.95
229.514	7878.16
229.587	7910.85
229.659	7846.16
229.732	7855.78
229.804	7895.58
229.877	7960.68
229.949	7983.92
230.022	8023.09
230.094	8023.53
230.167	8020.45
230.239	7980.45
230.312	7967.8
230.384	8027.08
230.457	8015.97
230.529	8025.68
230.602	8027.99
230.674	8036.55
230.747	8074.09
230.819	8097.95
230.892	8002.71
230.964	7996.26
231.037	8023.8
231.109	8017.54
231.181	8052.07
231.254	8028.22
231.326	8015.14
231.399	7998.1
231.471	7976.01
231.544	7911.4
231.616	7948.66
231.688	7948.71
231.761	7951.5
231.833	7944.91
231.905	7876.01
231.978	7879.43
232.05	7858.95
232.122	7857.41
232.195	7833.12
232.267	7859.38
232.339	7840.33
232.412	7892.65
232.484	7867.58
232.556	7843.02
232.629	7901.82
232.701	7913.13
232.773	7916.49
232.846	7912.45
232.918	7914.52
232.99	7925.83
233.062	7964.45
233.135	7969.26
233.207	7942.33
233.279	7977.09
233.351	8002.24
233.424	8001.37
233.496	7984.15
233.568	8059.19
233.64	8027.84
233.713	8044.62
233.785	8042.27
233.857	8058.38
233.929	8017.41
234.001	8075.31
234.074	8129.06
234.146	8067.32
234.218	8061.74
234.29	8067.56
234.362	8055.01
234.434	8014.45
234.507	7987.71
234.579	7945.05
234.651	7934.56
234.723	7957.89
234.795	7970.4
234.867	7967.9
234.939	8014.17
235.012	8025.66
235.084	8026.63
235.156	8062.64
235.228	8041.58
235.3	8026.09
235.372	8036.24
235.444	8091.22
235.516	8029.08
235.588	8032.5
235.66	8042.79
235.732	8018.21
235.804	8175.56
235.876	8217.35
235.948	8272.88
236.02	8284.23
236.092	8298.13
236.164	8304.28
236.236	8306.98
236.308	8305.1
236.38	8332.81
236.452	8319.77
236.524	8335.84
236.596	8390.93
236.668	8417.44
236.74	8442.88
236.812	8468.14
236.884	8488.93
236.956	8496.2
237.028	8481.43
237.1	8466.71
237.172	8529.72
237.244	8605.17
237.316	8507.48
237.388	8485.84
237.46	8463.94
237.532	8514.42
237.604	8509.66
237.675	8567.79
237.747	8602.54
237.819	8590.23
237.891	8593.6
237.963	8589.32
238.035	8588.07
238.107	8492.94
238.178	8543.45
238.25	8549.08
238.322	8624.71
238.394	8597.38
238.466	8593.19
238.538	8633.79
238.609	8674.31
238.681	8631.56
238.753	8609.22
238.825	8626.89
238.897	8659.27
238.968	8722.97
239.04	8703.81
239.112	8794.48
239.184	8768.82
239.255	8765.98
239.327	8801.82
239.399	8810.78
239.471	8847.64
239.542	8878.39
239.614	8933.69
239.686	8867.59
239.758	8914.56
239.829	8880.8
239.901	8931.39
239.973	8944.92
240.044	8973.22
240.116	8980.44
240.188	8989.82
240.259	9004.27
240.331	8993.29
240.403	9019.42
240.474	8979.6
240.546	8972.28
240.618	8919.42
240.689	8912.78
240.761	8929.25
240.833	8982.98
240.904	8988.71
240.976	8988.03
241.048	8999.88
241.119	9029.44
241.191	9065.21
241.262	9113.71
241.334	9121.41
241.405	9123.24
241.477	9125.36
241.549	9135.81
241.62	9158.63
241.692	9198.93
241.763	9245.01
241.835	9260.71
241.906	9276.65
241.978	9258.26
242.049	9317.24
242.121	9368.31
242.192	9432.35
242.264	9404.67
242.335	9365.52
242.407	9404.91
242.478	9407.8
242.55	9422.24
242.621	9410.78
242.693	9411.65
242.764	9405.72
242.836	9401.68
242.907	9427.01
242.979	9461.34
243.05	9481.57
243.122	9500.4
243.193	9498.71
243.264	9436.11
243.336	9441.17
243.407	9472.76
243.479	9538.39
243.55	9552.51
243.622	9568.02
243.693	9563.44
243.764	9628.45
243.836	9608.43
243.907	9594.65
243.978	9601.83
244.05	9632.32
244.121	9595.43
244.192	9633.91
244.264	9597.69
244.335	9613.34
244.407	9575.83
244.478	9583.44
244.549	9570.63
244.62	9533.5
244.692	9528.45
244.763	9571.83
244.834	9561.81
244.906	9538.74
244.977	9555.79
245.048	9600.65
245.119	9582.4
245.191	9561.74
245.262	9504.19
245.333	9563.6
245.405	9576.65
245.476	9604.63
245.547	9606.07
245.618	9655.24
245.689	9659.76
245.761	9688.61
245.832	9698.78
245.903	9733.74
245.974	9757.53
246.045	9773.67
246.117	9844.04
246.188	9835.13
246.259	9821.88
246.33	9843.99
246.401	9854.44
246.473	9824.09
246.544	9812.77
246.615	9859.78
246.686	9866.04
246.757	9932.17
246.828	9910.21
246.899	9967.83
246.97	9939.32
247.042	9939.08
247.113	9976.61
247.184	10051.39
247.255	10048.45
247.326	10067.63
247.397	10077.5
247.468	10082.08
247.539	10091.57
247.61	10054.48
247.681	10093.15
247.752	10136.88
247.823	10114.73
247.894	10128.31
247.965	10106.88
248.037	10084.62
248.108	10044.5
248.179	10053.41
248.25	10043.14
248.321	10074.16
248.392	10043.42
248.463	10112.05
248.534	10108.63
248.605	10115.72
248.675	10086.56
248.746	10102.65
248.817	10114.36
248.888	10131.41
248.959	10087.72
249.03	10103.24
249.101	10111.67
249.172	10102.22
249.243	10040.96
249.314	10100.98
249.385	10112.4
249.456	10140.81
249.527	10142.55
249.598	10159.94
249.669	10158.11
249.739	10169.72
249.81	10179.45
249.881	10141.59
249.952	10133.73
250.023	10130.12
250.094	10090.81
250.165	10069.56
250.235	10063.82
250.306	10068.83
250.377	10039.83
250.448	10064.11
250.519	10022.73
250.59	10073.95
250.66	10070.38
250.731	10136.17
250.802	10132.94
250.873	10150.14
250.944	10167.34
251.014	10166.09
251.085	10237.55
251.156	10262.21
251.227	10300.47
251.297	10349.62
251.368	10395.86
251.439	10432.53
251.51	10477.34
251.58	10464.87
251.651	10467.66
251.722	10512.33
251.792	10478.17
251.863	10478.02
251.934	10522.83
252.005	10607.29
252.075	10607.14
252.146	10648.86
252.217	10686.98
252.287	10724.32
252.358	10727.99
252.429	10792.46
252.499	10783.31
252.57	10791.41
252.641	10828.31
252.711	10831.98
252.782	10788.75
252.852	10854.87
252.923	10845.96
252.994	10853.86
253.064	10901.7
253.135	10881.95
253.205	10867.01
253.276	10923.96
253.347	10978.69
253.417	10958.74
253.488	10948.19
253.558	10940.09
253.629	10934.21
253.699	10940.82
253.77	10965.06
253.841	10953.69
253.911	10961.59
253.982	10977.73
254.052	11003.52
254.123	11013.74
254.193	11018.07
254.264	11133.26
254.334	11102.17
254.405	11087.91
254.475	11068.34
254.546	11068.59
254.616	11117.78
254.687	11145.2
254.757	11159.03
254.827	11157.49
254.898	11186.79
254.968	11191.37
255.039	11188.14
255.109	11219.99
255.18	11199.41
255.25	11133.39
255.321	11164.18
255.391	11123.41
255.461	11198.54
255.532	11136.46
255.602	11131.45
255.673	11084.52
255.743	11053.57
255.813	10992.52
255.884	11033.77
255.954	11061.72
256.024	11113.05
256.095	11119.32
256.165	11083.51
256.235	11103.66
256.306	11090.55
256.376	11135.81
256.446	11174.94
256.517	11197.11
256.587	11231.04
256.657	11245.69
256.728	11265.3
256.798	11273.64
256.868	11274.12
256.938	11250.94
257.009	11286.17
257.079	11310.51
257.149	11391.18
257.219	11350.5
257.29	11382.92
257.36	11335.94
257.43	11365.58
257.5	11319.02
257.571	11315.65
257.641	11348.23
257.711	11319.93
257.781	11350.25
257.852	11355.55
257.922	11295.21
257.992	11295.83
258.062	11290.2
258.132	11326.83
258.202	11331.07
258.273	11335.98
258.343	11395.79
258.413	11380.71
258.483	11383.75
258.553	11359.02
258.623	11343.65
258.693	11361.67
258.764	11423.07
258.834	11477.53
258.904	11487.17
258.974	11476.13
259.044	11486.54
259.114	11517.92
259.184	11541.68
259.254	11546.11
259.324	11499.07
259.394	11538.25
259.464	11602.74
259.535	11612.87
259.605	11611.71
259.675	11611.85
259.745	11649.79
259.815	11633.64
259.885	11635.33
259.955	11729.66
260.025	11724.99
260.095	11733.95
260.165	11758.39
260.235	11808.96
260.305	11797.39
260.375	11775.75
260.445	11847.85
260.515	11895.81
260.585	11927.43
260.655	11936.63
260.725	11975.34
260.795	12016.26
260.865	12076.65
260.934	12052.07
261.004	12074.34
261.074	12080.32
261.144	12126.92
261.214	12152.28
261.284	12155.03
261.354	12181.1
261.424	12136.36
261.494	12195.21
261.564	12198.68
261.634	12224.81
261.703	12167.4
261.773	12186.87
261.843	12220.56
261.913	12219.31
261.983	12170.1
262.053	12182.68
262.123	12179.74
262.192	12154
262.262	12187.26
262.332	12154.92
262.402	12179.07
262.472	12183.36
262.541	12122.63
262.611	12158.78
262.681	12136.37
262.751	12164.85
262.821	12176.33
262.89	12152.37
262.96	12172.71
263.03	12234.12
263.1	12251
263.169	12267.67
263.239	12294.71
263.309	12344.32
263.379	12370.88
263.448	12394.3
263.518	12420.29
263.588	12435.9
263.657	12481.36
263.727	12509.94
263.797	12514.57
263.867	12511.1
263.936	12486.13
264.006	12540.79
264.076	12530.32
264.145	12532.35
264.215	12520.39
264.285	12547.82
264.354	12515.77
264.424	12503.57
264.494	12467.9
264.563	12461.78
264.633	12524.3
264.702	12541.85
264.772	12498.85
264.842	12498.17
264.911	12526.85
264.981	12487.81
265.05	12501.88
265.12	12511.48
265.19	12516.44
265.259	12551.87
265.329	12579.83
265.398	12603.06
265.468	12686.89
265.537	12690.85
265.607	12717.41
265.676	12759.97
265.746	12782.44
265.815	12832.47
265.885	12840.86
265.955	12829.87
266.024	12829.72
266.094	12778.58
266.163	12829.87
266.232	12878.36
266.302	12883.76
266.371	12903.19
266.441	12928.16
266.51	12965.23
266.58	12960.75
266.649	12953.08
266.719	12988.71
266.788	13016.23
266.858	13080.78
266.927	13024.67
266.996	13051.86
267.066	13082.32
267.135	13052.05
267.205	13077.7
267.274	13101.8
267.343	13142.77
267.413	13156.85
267.482	13200.38
267.552	13252.97
267.621	13215.52
267.69	13184.66
267.76	13207.42
267.829	13231.66
267.898	13245.4
267.968	13224.63
268.037	13261.41
268.106	13299.92
268.176	13279.29
268.245	13281.32
268.314	13268.59
268.384	13317.66
268.453	13323.5
268.522	13340.13
268.592	13391.13
268.661	13378.74
268.73	13400.87
268.799	13389.25
268.869	13455.78
268.938	13422.56
269.007	13421.4
269.076	13443.39
269.146	13490.19
269.215	13511.84
269.284	13557.01
269.353	13558.55
269.422	13571.71
269.492	13563.23
269.561	13498.24
269.63	13530.83
269.699	13533.63
269.768	13546.26
269.838	13557.88
269.907	13600.54
269.976	13580.73
270.045	13543.17
270.114	13579.04
270.183	13586.22
270.253	13609.22
270.322	13570.07
270.391	13594.56
270.46	13651.54
270.529	13687.36
270.598	13716.76
270.667	13718.16
270.736	13697.72
270.806	13718.21
270.875	13763.52
270.944	13775.48
271.013	13879.22
271.082	13894.89
271.151	13923.57
271.22	13894.36
271.289	13906.94
271.358	13910.99
271.427	13932.82
271.496	13959.48
271.565	13957.22
271.634	13971.05
271.703	14081.58
271.772	14131.96
271.841	14133.98
271.91	14098.7
271.979	14105.11
272.048	14085.1
272.117	14124.25
272.186	14129.31
272.255	14169.99
272.324	14200.75
272.393	14230.88
272.462	14224.85
272.531	14247.56
272.6	14258.79
272.669	14324.16
272.738	14332.78
272.807	14354.19
272.876	14341.12
272.945	14452.04
273.013	14505.74
273.082	14553.95
273.151	14474.7
273.22	14502.18
273.289	14525.32
273.358	14592.95
273.427	14604.04
273.496	14640.38
273.564	14674.46
273.633	14719.77
273.702	14717.89
273.771	14725.56
273.84	14757.18
273.909	14786.83
273.977	14819.7
274.046	14835.32
274.115	14882.56
274.184	14880.2
274.253	14897.69
274.322	14969.66
274.39	14920.79
274.459	14915.82
274.528	14887.91
274.597	14909.17
274.665	14934.09
274.734	15000.28
274.803	15009.87
274.872	15028.57
274.94	15031.99
275.009	15206.99
275.078	15210.17
275.147	15235.09
275.215	15261.12
275.284	15307.01
275.353	15316.5
275.421	15288.26
275.49	15355.16
275.559	15353.04
275.627	15382.97
275.696	15402.16
275.765	15425.83
275.833	15438.12
275.902	15471.86
275.971	15529.99
276.039	15615.16
276.108	15662.35
276.177	15687.75
276.245	15691.65
276.314	15716.14
276.383	15773.84
276.451	15650.9
276.52	15691.05
276.588	15751.01
276.657	15800.99
276.725	15812.66
276.794	15851.99
276.863	15921.44
276.931	15908.87
277	15961.69
277.068	16012.11
277.137	16088.12
277.205	16119.88
277.274	16203.46
277.342	16268.28
277.411	16258.64
277.48	16247.9
277.548	16248.09
277.617	16274.79
277.685	16293.25
277.754	16346.32
277.822	16354.75
277.89	16416.01
277.959	16429.41
278.027	16419.67
278.096	16428.44
278.164	16537.22
278.233	16548.64
278.301	16554.08
278.37	16582.04
278.438	16587.73
278.507	16634.96
278.575	16606.62
278.643	16623.97
278.712	16609.42
278.78	16600.64
278.849	16667.45
278.917	16726.73
278.985	16751.16
279.054	16789.28
279.122	16855.02
279.191	16878.93
279.259	16899.12
279.327	16876.95
279.396	16958.69
279.464	16982.55
279.532	17034.88
279.601	17048.19
279.669	17075.99
279.737	17134.89
279.806	17189.25
279.874	17251.8
279.942	17280.33
280.011	17304.05
280.079	17367.61
280.147	17442.17
280.215	17489.69
280.284	17505.06
280.352	17503.86
280.42	17564.1
280.488	17584.72
280.557	17599.28
280.625	17646.7
280.693	17686.36
280.761	17734.22
280.83	17716.63
280.898	17786.02
280.966	17761.78
281.034	17719.33
281.102	17711.52
281.171	17739.47
281.239	17797.69
281.307	17803.28
281.375	17812.24
281.443	17914.65
281.512	17931.9
281.58	17991.12
281.648	17985.2
281.716	18015.12
281.784	18049.1
281.852	18068.37
281.92	18094.3
281.989	18156.18
282.057	18142.64
282.125	18261.67
282.193	18288.6
282.261	18322.58
282.329	18346.05
282.397	18396.65
282.465	18433.9
282.533	18510.19
282.601	18514.57
282.67	18484.45
282.738	18496.17
282.806	18554.33
282.874	18553.08
282.942	18604.3
283.01	18619.72
283.078	18673.75
283.146	18707.19
283.214	18770.13
283.282	18803.57
283.35	18868.96
283.418	18888.72
283.486	18946.31
283.554	18894.75
283.622	18933.49
283.69	18982.55
283.758	19005.87
283.826	19069.63
283.894	19129.77
283.962	19215.74
284.03	19291.83
284.098	19336.94
284.165	19367.1
284.233	19406.72
284.301	19421.51
284.369	19438.14
284.437	19455.53
284.505	19478.13
284.573	19559
284.641	19564.1
284.709	19625.11
284.777	19623.91
284.845	19683.91
284.912	19727.47
284.98	19783.81
285.048	19803.08
285.116	19845.01
285.184	19914.02
285.252	19936.62
285.319	19931.85
285.387	19950.88
285.455	19938.84
285.523	19995.22
285.591	20023.36
285.659	20064.95
285.726	20139.8
285.794	20135.12
285.862	20162.54
285.93	20194.11
285.997	20218.64
286.065	20243.36
286.133	20252.56
286.201	20284.95
286.269	20281.96
286.336	20290.1
286.404	20309.57
286.472	20374.3
286.539	20354.78
286.607	20356.18
286.675	20389.43
286.743	20452.52
286.81	20462.4
286.878	20542.35
286.946	20551.99
287.013	20596.18
287.081	20626.64
287.149	20627.27
287.216	20711.65
287.284	20733.53
287.352	20769.29
287.419	20799.42
287.487	20882.22
287.555	20927.86
287.622	20951.14
287.69	21000.88
287.758	21087.15
287.825	21111.39
287.893	21118.14
287.96	21172.98
288.028	21234.82
288.096	21281.96
288.163	21323.85
288.231	21333.53
288.298	21358.12
288.366	21440.88
288.433	21466.52
288.501	21481.17
288.569	21518.57
288.636	21544.36
288.704	21623.89
288.771	21689.54
288.839	21698.07
288.906	21701.78
288.974	21763.88
289.041	21790.43
289.109	21799.16
289.176	21845.87
289.244	21894.12
289.311	21954.28
289.379	22021.18
289.446	22066.07
289.514	22101.84
289.581	22135
289.649	22183.4
289.716	22230.16
289.783	22230.88
289.851	22316.25
289.918	22360.22
289.986	22425.73
290.053	22463.38
290.121	22484.6
290.188	22519.94
290.255	22629.29
290.323	22660.09
290.39	22681.89
290.458	22745.37
290.525	22822.17
290.592	22849.71
290.66	22886.54
290.727	22912.29
290.794	22973.81
290.862	22997.97
290.929	23045.42
290.996	23078.11
291.064	23139.2
291.131	23197.5
291.198	23275.18
291.266	23310.14
291.333	23346.64
291.4	23397.04
291.468	23480.71
291.535	23510.22
291.602	23567.61
291.669	23580.34
291.737	23630.15
291.804	23669.41
291.871	23743.25
291.938	23797.7
292.006	23899.16
292.073	23969.52
292.14	24032.46
292.207	24057.25
292.275	24105.38
292.342	24161.58
292.409	24265.63
292.476	24363.52
292.543	24372.01
292.611	24409.35
292.678	24492.9
292.745	24591.45
292.812	24649.3
292.879	24663.72
292.946	24701.63
293.014	24766.53
293.081	24817.77
293.148	24884.82
293.215	24950.2
293.282	24980.35
293.349	25034.01
293.416	25013.83
293.484	25089.5
293.551	25147.16
293.618	25225.96
293.685	25321.66
293.752	25343.61
293.819	25371.27
293.886	25372.28
293.953	25438.29
294.02	25494.8
294.087	25541.34
294.154	25559.1
294.221	25631.51
294.288	25683.15
294.356	25773.73
294.423	25820.46
294.49	25839.67
294.557	25905.56
294.624	25925.54
294.691	26009
294.758	26053.75
294.825	26113.46
294.892	26127.9
294.959	26170.24
295.026	26227.5
295.093	26244.16
295.16	26280.6
295.226	26315.37
295.293	26423.93
295.36	26471.24
295.427	26552.76
295.494	26628.84
295.561	26691.94
295.628	26791.97
295.695	26866.68
295.762	26911.49
295.829	26978.68
295.896	27075.02
295.963	27143.61
296.03	27216.82
296.096	27273.39
296.163	27351.07
296.23	27435.37
296.297	27521.83
296.364	27563.99
296.431	27619.75
296.498	27647.28
296.564	27766.83
296.631	27825.72
296.698	27834.46
296.765	27933.9
296.832	27945.16
296.899	27942.79
296.965	28042.05
297.032	28027.11
297.099	28123.59
297.166	28180.52
297.233	28208.55
297.299	28220.87
297.366	28263.02
297.433	28301.38
297.5	28367.51
297.566	28396.03
297.633	28426.15
297.7	28472.51
297.767	28509.96
297.833	28557.43
297.9	28610.78
297.967	28608.94
298.033	28685.04
298.1	28799.36
298.167	28815.17
298.234	28864.38
298.3	28928.48
298.367	28939.79
298.434	28994.05
298.5	29001.84
298.567	29036.94
298.634	29080.7
298.7	29175.02
298.767	29228.18
298.834	29310.33
298.9	29341.39
298.967	29351.98
299.033	29413.98
299.1	29488.38
299.167	29561.64
299.233	29596.27
299.3	29672.92
299.366	29756.53
299.433	29831.97
299.5	29795.44
299.566	29845.75
299.633	29926.68
299.699	29997.65
299.766	30038.43
299.832	30100.08
299.899	30158.58
299.965	30231.73
300.032	30266.37
300.099	30310.79
300.165	30359.04
300.232	30389.86
300.298	30420.64
300.365	30512.08
300.431	30564.3
300.498	30587.2
300.564	30654.13
300.631	30719.7
300.697	30805.58
300.763	30833.94
300.83	30880.23
300.896	30966.09
300.963	31041.74
301.029	31101.44
301.096	31149.57
301.162	31224.36
301.229	31249.68
301.295	31262.75
301.361	31315.04
301.428	31361.01
301.494	31377.33
301.561	31424
301.627	31466.22
301.693	31516.18
301.76	31564.46
301.826	31588.23
301.892	31656.37
301.959	31710.22
302.025	31745.23
302.092	31756.86
302.158	31831.53
302.224	31854.93
302.291	31866.16
302.357	31885.58
302.423	31903.8
302.49	31925.49
302.556	31977.33
302.622	32001.79
302.688	32073.85
302.755	32149.49
302.821	32213.9
302.887	32287.71
302.954	32318.42
303.02	32386.14
303.086	32441.66
303.152	32474.26
303.219	32500.17
303.285	32544.32
303.351	32599.18
303.417	32638.27
303.483	32660.27
303.55	32672.47
303.616	32712.36
303.682	32751.55
303.748	32778.63
303.815	32853.65
303.881	32914.27
303.947	32925.75
304.013	32984.48
304.079	32999.26
304.145	32985.69
304.212	33026.73
304.278	33023.68
304.344	33058.13
304.41	33063.9
304.476	33076.84
304.542	33107.18
304.608	33157.23
304.674	33163.49
304.741	33195.19
304.807	33240.42
304.873	33297.9
304.939	33371.38
305.005	33354.9
305.071	33394.1
305.137	33440.19
305.203	33410.86
305.269	33442.33
305.335	33511.46
305.401	33536.33
305.467	33567.78
305.533	33613.3
305.599	33648.98
305.666	33717.96
305.732	33745.15
305.798	33806.53
305.864	33907.43
305.93	33953.73
305.996	33988.78
306.062	34014.52
306.128	34028.29
306.194	34033.82
306.259	34065
306.325	34079.84
306.391	34142.09
306.457	34187.85
306.523	34225.09
306.589	34326.73
306.655	34335.61
306.721	34314.71
306.787	34325.13
306.853	34406.12
306.919	34400.88
306.985	34420.76
307.051	34443.65
307.117	34470.76
307.183	34490.59
307.248	34445.39
307.314	34494.33
307.38	34533.61
307.446	34587.2
307.512	34587.06
307.578	34626.34
307.644	34642.88
307.709	34685.42
307.775	34714.61
307.841	34743.28
307.907	34768.26
307.973	34741.91
308.039	34769.36
308.104	34832.17
308.17	34856.18
308.236	34841.92
308.302	34883.91
308.368	34885.08
308.433	34897.4
308.499	34910.83
308.565	34912.09
308.631	34965.4
308.696	34914.66
308.762	34905.54
308.828	34933.49
308.894	34913.61
308.959	34889.17
309.025	34895.23
309.091	34902.94
309.156	34916.48
309.222	34958.93
309.288	34955.58
309.354	34936.57
309.419	34973.25
309.485	34952.05
309.551	35001.43
309.616	34996.87
309.682	35020.35
309.748	35048.29
309.813	35073.37
309.879	35088.11
309.945	35088.94
310.01	35086.66
310.076	35137.63
310.141	35163.58
310.207	35145.58
310.273	35196.12
310.338	35243.26
310.404	35234.19
310.469	35226.58
310.535	35229.05
310.601	35185.05
310.666	35230.8
310.732	35291.24
310.797	35291.05
310.863	35308.9
310.928	35327.34
310.994	35362.17
311.059	35392.35
311.125	35406.37
311.191	35466.35
311.256	35468.92
311.322	35518.46
311.387	35504.29
311.453	36201.47
311.518	36188.61
311.584	36212.1
311.649	36259.79
311.715	36267.51
311.78	36301.22
311.846	36311.17
311.911	36356.29
311.976	36389.43
312.042	36378.37
312.107	36363.71
312.173	36359.49
312.238	36372.4
312.304	36374.73
312.369	36386.28
312.434	36374.92
312.5	36381.03
312.565	36316.88
312.631	36360.79
312.696	36365.64
312.761	36399.9
312.827	35735.91
312.892	35845.98
312.958	35872.42
313.023	35886.11
313.088	35921.58
313.154	35924.59
313.219	35930.7
313.284	35933.23
313.35	35958.56
313.415	35962.39
313.48	35983.3
313.546	36020.91
313.611	36065.02
313.676	36069.29
313.741	36063.08
313.807	36109.97
313.872	36156.21
313.937	36211.53
314.003	36268.42
314.068	36307.15
314.133	36367.58
314.198	36374.66
314.264	36348.45
314.329	36345
314.394	36363.78
314.459	36374.85
314.525	36447.84
314.59	36476.52
314.655	36459.34
314.72	36501.77
314.785	36545.88
314.851	36553.26
314.916	36533.26
314.981	36512.05
315.046	36517.92
315.111	36530.15
315.176	36525.69
315.242	36558.74
315.307	36569.18
315.372	36534.42
315.437	36524.57
315.502	36505.2
315.567	36552.67
315.632	36535.78
315.698	36559.08
315.763	36562.96
315.828	36559.86
315.893	36550.34
315.958	36548.5
316.023	36560.39
316.088	36523.35
316.153	36482.05
316.218	36483.36
316.283	36460.9
316.348	36439.59
316.413	36440.18
316.479	36410.19
316.544	36316.88
316.609	36221.57
316.674	36129.23
316.739	36037.58
316.804	35947.04
316.869	35840.55
316.934	35737.42
316.999	35635.54
317.064	35484.77
317.129	35345.43
317.194	35227.85
317.259	35092.83
317.324	34932.79
317.389	34785.73
317.454	34661.41
317.518	34546.91
317.583	34445.29
317.648	34341.46
317.713	34202.69
317.778	34016.23
317.843	33899.13
317.908	33776.21
317.973	33649.29
318.038	33549.81
318.103	33413.58
318.168	33299.48
318.233	33185
318.297	33013.92
318.362	32878.09
318.427	32737.23
318.492	32635.37
318.557	32473.79
318.622	32349.41
318.687	32241.22
318.751	32095.51
318.816	31955.23
318.881	31803.46
318.946	31603.78
319.011	31429.47
319.075	31275.71
319.14	31114.59
319.205	30938.43
319.27	30792.66
319.335	30607.01
319.399	30429.77
319.464	30284.71
319.529	30065.45
319.594	29893.2
319.658	29749.33
319.723	29571.87
319.788	29433.66
319.853	29222.04
319.917	29069.55
319.982	28859.92
320.047	28696.45
320.112	28552.98
320.176	28337.44
320.241	28168.6
320.306	28009.9
320.37	27834.93
320.435	27676.44
320.5	27537.64
320.564	27366.9
320.629	27170.52
320.694	27015.19
320.758	26827.36
320.823	26637.96
320.888	26490.86
320.952	26286.83
321.017	26091.43
321.082	25901.29
321.146	25726.06
321.211	25554.04
321.275	25367.71
321.34	25171.52
321.405	24976.27
321.469	24765.17
321.534	24576.94
321.598	24367.95
321.663	24209.8
321.727	24037.21
321.792	23824.83
321.857	23626
321.921	23431.55
321.986	23243.83
322.05	23006.74
322.115	22820.47
322.179	22623.61
322.244	22391.77
322.308	22225.64
322.373	22016.51
322.437	21823.84
322.502	21666.81
322.566	21467.2
322.631	21295.6
322.695	21106.81
322.76	20905
322.824	20725.9
322.889	20533.61
322.953	20327.82
323.018	20053.92
323.082	19801.43
323.146	19580.85
323.211	19351.36
323.275	19149.63
323.34	18932.13
323.404	18752.28
323.468	18538.22
323.533	18328.72
323.597	18125.35
323.662	17888.05
323.726	17705.78
323.79	17494.45
323.855	17227.7
323.919	16994.34
323.983	16763.25
324.048	16448.51
324.112	16623.41
324.177	15970.14
324.241	15100.85
324.305	14248.02
324.37	13421.18
324.434	12608.93
324.498	12383.91
324.562	12134.35
324.627	11843.01
324.691	11571.93
324.755	11256.84
324.82	10901.96
324.884	10526.97
324.948	10143.03
325.012	9687.92
325.077	9106.83
