Data from 20250626_urea_1M_exp2_MAYP1162681_18-04-00-391.txt Node
Date: Thu Jun 26 18:04:00 BST 2025
User: adleo
Spectrometer: MAYP116268
Trigger mode: 0
Integration Time (sec): 3.000000E0
Scans to average: 1
Electric dark correction enabled: true
Nonlinearity correction enabled: true
Boxcar width: 10
XAxis mode: Wavelengths
Number of Pixels in Spectrum: 2068
>>>>>Begin Spectral Data<<<<<
179.565	3251.51
179.642	3415.16
179.718	3536.85
179.795	3657.11
179.871	3755.63
179.948	3813.18
180.024	3881.34
180.101	3946.01
180.177	3989.21
180.254	4053.04
180.33	4117.64
180.407	4345.82
180.483	4598.3
180.56	4857.04
180.636	5094.87
180.712	5062.32
180.789	5088.19
180.865	5124.24
180.942	5150.01
181.018	5178.09
181.095	5215.53
181.171	5229.66
181.248	5235.94
181.324	5286.37
181.4	5300.17
181.477	5328.83
181.553	5364.13
181.63	5420.8
181.706	5465.47
181.782	5491.24
181.859	5498.96
181.935	5516.79
182.011	5509.07
182.088	5556.3
182.164	5607.88
182.24	5641.47
182.317	5666.63
182.393	5661.45
182.469	5697.7
182.546	5729.35
182.622	5738.55
182.698	5726.9
182.775	5765.98
182.851	5803.19
182.927	5779.07
183.003	5769.77
183.08	5753.57
183.156	5781.19
183.232	5773.17
183.308	5741.53
183.385	5760.56
183.461	5801.33
183.537	5802.82
183.613	5835.24
183.69	5808.48
183.766	5780.35
183.842	5806.54
183.918	5820.64
183.995	5858.48
184.071	5867.65
184.147	5857.72
184.223	5832.17
184.299	5864.99
184.375	5828.83
184.452	5844.28
184.528	5957.19
184.604	5988.74
184.68	6023.27
184.756	6044.58
184.832	6056.33
184.908	6072.73
184.985	6075.08
185.061	6030.91
185.137	6055.14
185.213	6021.42
185.289	6024.15
185.365	5999.89
185.441	5990.58
185.517	6023.46
185.593	6012.95
185.669	6006.9
185.745	6035.02
185.822	6081.62
185.898	6059.31
185.974	6088.27
186.05	6066.82
186.126	5993.59
186.202	5974.21
186.278	5956.89
186.354	5928.1
186.43	5946.87
186.506	5943.28
186.582	5938.53
186.658	5960.68
186.734	5902.8
186.81	5912.34
186.886	5921.69
186.962	5958.57
187.038	5946.05
187.114	5925.17
187.19	5942.54
187.266	5914.39
187.341	5917.32
187.417	5892.76
187.493	5892.95
187.569	5903.12
187.645	5888.98
187.721	5857.98
187.797	5879.8
187.873	5898.37
187.949	5880
188.025	5856.96
188.101	5863.58
188.176	5872.59
188.252	5860.13
188.328	5884.76
188.404	5880.01
188.48	5865
188.556	5838.43
188.632	5842.6
188.707	5847.45
188.783	5841.26
188.859	5828.8
188.935	5789.36
189.011	5811.86
189.086	5795.74
189.162	5767.11
189.238	5760.92
189.314	5754.16
189.39	5738.43
189.465	5718.9
189.541	5765.1
189.617	5721.32
189.693	5712.16
189.768	5733.75
189.844	5795.66
189.92	5771.17
189.996	5798.75
190.071	5833.82
190.147	5836.16
190.223	5856.75
190.298	5837.22
190.374	5802.4
190.45	5836.34
190.526	5863.68
190.601	5847.37
190.677	5847.85
190.753	5930.86
190.828	5943.09
190.904	5987.28
190.98	6030.37
191.055	6053.3
191.131	6032.09
191.207	6090.9
191.282	6109.79
191.358	6077.6
191.433	6047.73
191.509	6082.39
191.585	6075.72
191.66	6075.05
191.736	6100.38
191.811	6074.47
191.887	6117.29
191.963	6184.85
192.038	6196.41
192.114	6199.53
192.189	6209.94
192.265	6203.76
192.34	6140.46
192.416	6137.3
192.491	6127.41
192.567	6137.2
192.642	6150.26
192.718	6147.72
192.793	6118.25
192.869	6112.02
192.944	6118.35
193.02	6134.29
193.095	6146.57
193.171	6164.61
193.246	6164.61
193.322	6152.09
193.397	6158.71
193.473	6122.7
193.548	6071.25
193.624	6089.06
193.699	6084.69
193.775	6133.85
193.85	6140.42
193.925	6163.27
194.001	6157.27
194.076	6135.1
194.152	6096.08
194.227	6075.2
194.302	6051.51
194.378	6063.65
194.453	6054.06
194.529	6088.32
194.604	6041.39
194.679	6029.78
194.755	5972.66
194.83	6005.7
194.905	6000.23
194.981	6025.52
195.056	6004.08
195.131	6022.94
195.207	6014.2
195.282	5987.05
195.357	5930.07
195.433	5966.39
195.508	5934.52
195.583	5960.91
195.659	6000.21
195.734	6017.87
195.809	6018.93
195.884	6043.58
195.96	6040.31
196.035	6085.8
196.11	6071.98
196.185	6113.28
196.261	6117.03
196.336	6201.28
196.411	6159.08
196.486	6177.98
196.561	6155.86
196.637	6185.26
196.712	6223.34
196.787	6234.43
196.862	6280.01
196.937	6303.37
197.013	6321.57
197.088	6342.35
197.163	6400.08
197.238	6441.89
197.313	6446.59
197.388	6484.76
197.464	6565.83
197.539	6603.09
197.614	6581.82
197.689	6621.25
197.764	6662.37
197.839	6719.02
197.914	6704.81
197.989	6774.98
198.065	6810.18
198.14	6952.65
198.215	7026.1
198.29	7063.11
198.365	7103.86
198.44	7134.79
198.515	7216.91
198.59	7265.26
198.665	7347.62
198.74	7366.71
198.815	7373.54
198.89	7440.62
198.965	7518.75
199.04	7511.73
199.115	7552.39
199.19	7671.06
199.265	7678.03
199.34	7707.55
199.415	7805.87
199.49	7866.48
199.565	7884.37
199.64	7957.22
199.715	7949.04
199.79	7963.94
199.865	7979
199.94	7973.85
200.015	8060.87
200.09	8073.95
200.165	8085.35
200.24	8106.67
200.315	8212.71
200.39	8259.33
200.464	8272.17
200.539	8280.11
200.614	8323.3
200.689	8386.38
200.764	8404.38
200.839	8452.17
200.914	8465.16
200.989	8429.64
201.063	8473.67
201.138	8426.65
201.213	8419.2
201.288	8361.13
201.363	8373.83
201.438	8373.35
201.512	8417.3
201.587	8367.31
201.662	8381.65
201.737	8416.44
201.812	8434.24
201.886	8346.19
201.961	8376.76
202.036	8343.34
202.111	8328.8
202.186	8241.7
202.26	8192.13
202.335	8134.73
202.41	8120.93
202.485	8072.31
202.559	8022.87
202.634	7945.77
202.709	7977.87
202.784	7925.11
202.858	7931.12
202.933	7878.85
203.008	7862.6
203.082	7802.64
203.157	7801.01
203.232	7682.05
203.306	7620.39
203.381	7525.07
203.456	7463.2
203.53	7386.83
203.605	7332.94
203.68	7272.64
203.754	7260.11
203.829	7217.94
203.904	7157.83
203.978	7124.47
204.053	7142.54
204.127	7106.65
204.202	7096.61
204.277	7046.49
204.351	7027.13
204.426	6997.52
204.5	6976.33
204.575	6876.45
204.65	6905.24
204.724	6876.82
204.799	6904.04
204.873	6895.05
204.948	6891.83
205.022	6863.17
205.097	6841.68
205.171	6882.65
205.246	6904.04
205.32	6898.37
205.395	6895.25
205.469	6870.77
205.544	6883.89
205.618	6830.18
205.693	6862.27
205.767	6834.08
205.842	6888.67
205.916	6874.79
205.991	6853.12
206.065	6868.5
206.14	6915.04
206.214	6900.95
206.289	6882.98
206.363	6909.69
206.438	6915.41
206.512	6937.66
206.586	6989.77
206.661	7016.22
206.735	6952.89
206.81	6953.27
206.884	7000.19
206.958	6964.99
207.033	7009.59
207.107	7026.95
207.181	7117.27
207.256	7103
207.33	7152.33
207.405	7188.65
207.479	7234.63
207.553	7251.83
207.628	7207.89
207.702	7241.47
207.776	7226.09
207.851	7238.25
207.925	7278.83
207.999	7267.82
208.073	7262.15
208.148	7262.97
208.222	7231.29
208.296	7324.66
208.371	7375.94
208.445	7408.92
208.519	7489.02
208.593	7522.76
208.668	7513.14
208.742	7520.17
208.816	7529.06
208.89	7565.66
208.965	7557.14
209.039	7586.72
209.113	7633.06
209.187	7691.41
209.261	7675.99
209.336	7734.65
209.41	7788.17
209.484	7790.52
209.558	7857.61
209.632	7895.83
209.707	7930.6
209.781	7988.25
209.855	8026.31
209.929	8073.25
210.003	8084.5
210.077	8081.14
210.151	8215.2
210.226	8308.66
210.3	8381.51
210.374	8436.81
210.448	8450.57
210.522	8483.92
210.596	8508.75
210.67	8545.7
210.744	8681.82
210.818	8777.58
210.892	8832.88
210.966	8819.41
211.041	8867.11
211.115	8854.64
211.189	8918.94
211.263	8963.16
211.337	8985.88
211.411	9033.54
211.485	9007.11
211.559	9043.49
211.633	9052.48
211.707	8965.27
211.781	8983.71
211.855	8883.83
211.929	8862.47
212.003	8812.5
212.077	8839.17
212.151	8874.41
212.225	8892.7
212.299	8854.89
212.373	8821.92
212.447	8804.54
212.52	8886.13
212.594	8890.56
212.668	8917.99
212.742	8877.22
212.816	8866.78
212.89	8847.53
212.964	8839.82
213.038	8848.44
213.112	8878.72
213.186	8924.1
213.26	8858.12
213.333	8730.06
213.407	8747.19
213.481	8757.1
213.555	8783.83
213.629	8746.95
213.703	8692.56
213.777	8684.33
213.85	8625.32
213.924	8713.76
213.998	8710.78
214.072	8684.53
214.146	8644.48
214.219	8636.45
214.293	8621.87
214.367	8616.43
214.441	8639.05
214.515	8590.38
214.588	8517.91
214.662	8411.19
214.736	8336.38
214.81	8359.03
214.883	8382.87
214.957	8337.76
215.031	8290.16
215.105	8215.14
215.178	8158.67
215.252	8134.91
215.326	8053.76
215.4	7987.32
215.473	7837.47
215.547	7770.26
215.621	7716.46
215.694	7705.88
215.768	7623.74
215.842	7565.81
215.915	7512.17
215.989	7413.68
216.063	7371.21
216.136	7358.42
216.21	7341.89
216.284	7353
216.357	7328.96
216.431	7289.55
216.504	7289.74
216.578	7335.99
216.652	7348
216.725	7334.15
216.799	7337.18
216.873	7318.21
216.946	7324.31
217.02	7295.25
217.093	7267.66
217.167	7185.73
217.24	7120.55
217.314	7089.91
217.387	7051.31
217.461	7010.8
217.535	7029.06
217.608	6976.93
217.682	6955.64
217.755	6965.54
217.829	6919.88
217.902	6910.42
217.976	6891.44
218.049	6853.35
218.123	6790.23
218.196	6787.26
218.27	6753.53
218.343	6693.94
218.417	6701.87
218.49	6677.57
218.563	6711.91
218.637	6724.11
218.71	6787.82
218.784	6813.04
218.857	6836.04
218.931	6859.08
219.004	6863.02
219.077	6883.16
219.151	6899.49
219.224	6890.07
219.298	6886.9
219.371	6925.3
219.444	6887.07
219.518	6898.31
219.591	6905.99
219.665	6996.63
219.738	7010.66
219.811	6997.02
219.885	7036.23
219.958	7060.21
220.031	7069.62
220.105	7085.24
220.178	7088.41
220.251	7067.31
220.325	7085.53
220.398	7106.09
220.471	7121.65
220.544	7156.69
220.618	7139.19
220.691	7164.8
220.764	7179.21
220.838	7201.66
220.911	7186.52
220.984	7258.72
221.057	7290.1
221.131	7318.88
221.204	7233.09
221.277	7291.02
221.35	7402.93
221.424	7395
221.497	7398.84
221.57	7421.23
221.643	7446.66
221.716	7483.59
221.79	7486.04
221.863	7493.5
221.936	7503.78
222.009	7519.25
222.082	7538.01
222.155	7541.52
222.229	7594.13
222.302	7622.73
222.375	7629.03
222.448	7668.07
222.521	7673.89
222.594	7677.78
222.667	7655.63
222.74	7708.7
222.814	7701.39
222.887	7685.99
222.96	7732.11
223.033	7768.37
223.106	7782.36
223.179	7807.81
223.252	7813.05
223.325	7836.46
223.398	7850.32
223.471	7877.05
223.544	7892.53
223.617	7906.82
223.69	7925.33
223.763	7891.75
223.837	7908.01
223.91	7931.19
223.983	7885.42
224.056	7854.99
224.129	7868.36
224.202	7912.96
224.275	7905.21
224.348	7877.9
224.42	7840.87
224.493	7796.1
224.566	7778.88
224.639	7801.57
224.712	7777.85
224.785	7767.32
224.858	7760.59
224.931	7744.71
225.004	7711.3
225.077	7714.42
225.15	7635.83
225.223	7636.55
225.296	7705.7
225.369	7654.16
225.442	7627.28
225.514	7646.26
225.587	7666.59
225.66	7677.13
225.733	7675.4
225.806	7674.72
225.879	7666.5
225.952	7639.93
226.025	7682.96
226.097	7725.74
226.17	7710.45
226.243	7654.3
226.316	7649.06
226.389	7655.22
226.461	7673.25
226.534	7685.99
226.607	7677.05
226.68	7746.22
226.753	7743.67
226.825	7675.39
226.898	7725.82
226.971	7728.32
227.044	7740.29
227.117	7740.82
227.189	7750.87
227.262	7785.07
227.335	7808.16
227.407	7813.64
227.48	7850.56
227.553	7854.45
227.626	7839.39
227.698	7854.1
227.771	7891.49
227.844	7880
227.916	7896.59
227.989	7868.22
228.062	7867.45
228.134	7940.67
228.207	7945.48
228.28	7932.3
228.352	7939.32
228.425	7952.07
228.498	7992
228.57	7981.47
228.643	8036.84
228.716	8042.66
228.788	8027.07
228.861	8016.64
228.934	8068.43
229.006	8071.18
229.079	8073.82
229.151	8064.1
229.224	8030.93
229.296	8051.32
229.369	8139.24
229.442	8183.46
229.514	8168.85
229.587	8204.97
229.659	8141.85
229.732	8153.97
229.804	8193.55
229.877	8262.27
229.949	8287.83
230.022	8333.95
230.094	8333.9
230.167	8317.1
230.239	8282.57
230.312	8273.43
230.384	8336.38
230.457	8338.02
230.529	8347.68
230.602	8354.76
230.674	8360.53
230.747	8394.52
230.819	8421.18
230.892	8323.36
230.964	8319.12
231.037	8346.77
231.109	8342.77
231.181	8378.12
231.254	8348.4
231.326	8338.39
231.399	8325.1
231.471	8297.77
231.544	8226.82
231.616	8270.21
231.688	8282.86
231.761	8271.47
231.833	8264.83
231.905	8187.5
231.978	8187.59
232.05	8175.81
232.122	8175.81
232.195	8157
232.267	8194.53
232.339	8174.37
232.412	8229.05
232.484	8206.24
232.556	8178.83
232.629	8239.34
232.701	8257.77
232.773	8266.38
232.846	8257.72
232.918	8256.04
232.99	8272.78
233.062	8307.96
233.135	8313.59
233.207	8279.86
233.279	8318.76
233.351	8352.82
233.424	8364.99
233.496	8342.23
233.568	8412.92
233.64	8379.1
233.713	8395.61
233.785	8390.7
233.857	8403.59
233.929	8359.67
234.001	8419.42
234.074	8478.77
234.146	8411.72
234.218	8403.78
234.29	8403.2
234.362	8397.77
234.434	8354.17
234.507	8329.48
234.579	8286.57
234.651	8272.18
234.723	8303.84
234.795	8316.64
234.867	8309.23
234.939	8352.2
235.012	8363.27
235.084	8368.95
235.156	8405.61
235.228	8387.03
235.3	8378.13
235.372	8389.59
235.444	8441.44
235.516	8373.61
235.588	8371.5
235.66	8386.22
235.732	8364.04
235.804	8529.56
235.876	8568.86
235.948	8628.88
236.02	8636.67
236.092	8656.63
236.164	8668.37
236.236	8667.22
236.308	8666.11
236.38	8689.21
236.452	8675.88
236.524	8694.16
236.596	8740.02
236.668	8767.16
236.74	8793.39
236.812	8815.53
236.884	8848.12
236.956	8854.71
237.028	8849.9
237.1	8841.14
237.172	8904.5
237.244	8973.62
237.316	8876.49
237.388	8862.63
237.46	8840.34
237.532	8899.84
237.604	8892.86
237.675	8953.67
237.747	8991.8
237.819	8983.38
237.891	8991.66
237.963	8985.59
238.035	8985.21
238.107	8899.98
238.178	8956.04
238.25	8959.98
238.322	9029.86
238.394	8992.84
238.466	8991.3
238.538	9028.5
238.609	9068.4
238.681	9031.33
238.753	9008.89
238.825	9028.39
238.897	9056.21
238.968	9129.22
239.04	9105.43
239.112	9197.77
239.184	9170.32
239.255	9169.07
239.327	9198.9
239.399	9212.1
239.471	9250.27
239.542	9280.89
239.614	9336.06
239.686	9265.27
239.758	9311.06
239.829	9285.67
239.901	9343.16
239.973	9363.04
240.044	9390.39
240.116	9401.17
240.188	9403.2
240.259	9422.17
240.331	9413.35
240.403	9443.3
240.474	9406.02
240.546	9403.23
240.618	9353.43
240.689	9353.58
240.761	9371.83
240.833	9430.2
240.904	9436.94
240.976	9439.49
241.048	9455.67
241.119	9484.57
241.191	9526.12
241.262	9584.61
241.334	9592.32
241.405	9592.12
241.477	9604.4
241.549	9619.81
241.62	9644.38
241.692	9689.59
241.763	9738.39
241.835	9754.24
241.906	9769.22
241.978	9749.28
242.049	9803.7
242.121	9857.35
242.192	9911.29
242.264	9880.42
242.335	9839.77
242.407	9880.66
242.478	9881.48
242.55	9901.23
242.621	9891.89
242.693	9890.92
242.764	9878.68
242.836	9877.43
242.907	9903.83
242.979	9926.27
243.05	9943.08
243.122	9960.48
243.193	9956.14
243.264	9899.11
243.336	9905.8
243.407	9935.87
243.479	10006.53
243.55	10023.68
243.622	10035.68
243.693	10031.63
243.764	10093.18
243.836	10081.72
243.907	10064.29
243.978	10065.59
244.05	10078.98
244.121	10039.15
244.192	10073.83
244.264	10033.7
244.335	10049.26
244.407	10007.02
244.478	10018.19
244.549	10002.44
244.62	9971.71
244.692	9974.36
244.763	10015.68
244.834	10002
244.906	9981.19
244.977	9994.59
245.048	10036.51
245.119	10021.34
245.191	10010.16
245.262	9957.37
245.333	10018.1
245.405	10037.51
245.476	10074.75
245.547	10090.84
245.618	10138.14
245.689	10154.9
245.761	10188.24
245.832	10195.03
245.903	10245.56
245.974	10272.74
246.045	10294.7
246.117	10364.51
246.188	10354.98
246.259	10339.56
246.33	10363.74
246.401	10376.85
246.473	10342.83
246.544	10334.73
246.615	10382.14
246.686	10393.22
246.757	10462.78
246.828	10443.56
246.899	10508.76
246.97	10482.03
247.042	10483.91
247.113	10521.69
247.184	10593.88
247.255	10586.8
247.326	10612.77
247.397	10610.12
247.468	10619.47
247.539	10628.05
247.61	10586.85
247.681	10627.32
247.752	10680.99
247.823	10656.56
247.894	10676.03
247.965	10654.93
248.037	10647.36
248.108	10603.76
248.179	10604.29
248.25	10590.65
248.321	10620.91
248.392	10580.91
248.463	10649.46
248.534	10648.89
248.605	10663.49
248.675	10640.26
248.746	10664.88
248.817	10677.5
248.888	10697.64
248.959	10654.81
249.03	10677.51
249.101	10684.2
249.172	10670.52
249.243	10608.66
249.314	10668.74
249.385	10674.38
249.456	10704.05
249.527	10695.62
249.598	10715.08
249.669	10711.95
249.739	10725.64
249.81	10730.36
249.881	10695.67
249.952	10691.76
250.023	10686.56
250.094	10643.19
250.165	10612.92
250.235	10606.27
250.306	10609.31
250.377	10584.01
250.448	10603.81
250.519	10554.09
250.59	10605.6
250.66	10606.81
250.731	10662.65
250.802	10664.81
250.873	10681.78
250.944	10703.12
251.014	10695.7
251.085	10778.11
251.156	10806.93
251.227	10854.3
251.297	10907.55
251.368	10953.09
251.439	10988.41
251.51	11029.18
251.58	11024.12
251.651	11033.57
251.722	11079.16
251.792	11041.28
251.863	11042.78
251.934	11096.85
252.005	11188.55
252.075	11195.44
252.146	11239.34
252.217	11281.7
252.287	11311.01
252.358	11308.26
252.429	11366
252.499	11365.8
252.57	11374.96
252.641	11412.94
252.711	11419.2
252.782	11380.94
252.852	11440.37
252.923	11432.17
252.994	11446.87
253.064	11488.94
253.135	11461.66
253.205	11447.21
253.276	11507.69
253.347	11567.49
253.417	11551.87
253.488	11542.14
253.558	11540.93
253.629	11535.78
253.699	11551.54
253.77	11578.77
253.841	11580.55
253.911	11590.19
253.982	11604.6
254.052	11627.11
254.123	11640.42
254.193	11641.29
254.264	11758.66
254.334	11735.76
254.405	11718.55
254.475	11695.66
254.546	11700.86
254.616	11754.02
254.687	11776.48
254.757	11793.98
254.827	11793.98
254.898	11812.25
254.968	11815.48
255.039	11798.27
255.109	11833.21
255.18	11805.4
255.25	11747.9
255.321	11779.66
255.391	11747.99
255.461	11818.56
255.532	11743.12
255.602	11732.18
255.673	11688.71
255.743	11660.6
255.813	11596.89
255.884	11637.43
255.954	11663.5
256.024	11727.17
256.095	11726.69
256.165	11703.94
256.235	11725.97
256.306	11712.57
256.376	11751.67
256.446	11784.92
256.517	11811.38
256.587	11842.52
256.657	11860.12
256.728	11881.22
256.798	11892.12
256.868	11891.83
256.938	11867.2
257.009	11917.47
257.079	11946.05
257.149	12028.43
257.219	11975.07
257.29	12008.27
257.36	11960.55
257.43	11994.29
257.5	11932.89
257.571	11940.65
257.641	11972.46
257.711	11943.39
257.781	11973.37
257.852	11983.69
257.922	11929.85
257.992	11935.92
258.062	11929.8
258.132	11967.44
258.202	11974.29
258.273	11978.82
258.343	12043.89
258.413	12036.13
258.483	12036.76
258.553	12022.25
258.623	12011.07
258.693	12038.16
258.764	12101.83
258.834	12162.12
258.904	12181.36
258.974	12171.29
259.044	12173.6
259.114	12192.83
259.184	12216.55
259.254	12224.98
259.324	12187.29
259.394	12231.29
259.464	12293.72
259.535	12306.69
259.605	12297.33
259.675	12282.68
259.745	12317.39
259.815	12290.44
259.885	12289.09
259.955	12381.99
260.025	12377.07
260.095	12379.77
260.165	12406.14
260.235	12454.73
260.305	12446.78
260.375	12417.9
260.445	12495.02
260.515	12549.83
260.585	12595
260.655	12612.59
260.725	12648.56
260.795	12678.97
260.865	12736.14
260.934	12712.96
261.004	12743.9
261.074	12752.2
261.144	12811.19
261.214	12836.94
261.284	12843.06
261.354	12883.64
261.424	12849.71
261.494	12900.71
261.564	12901.62
261.634	12923.36
261.703	12866.09
261.773	12887.16
261.843	12919.46
261.913	12915.46
261.983	12874.43
262.053	12892.7
262.123	12883.26
262.192	12853.85
262.262	12888.9
262.332	12852.84
262.402	12877.52
262.472	12884.12
262.541	12827.39
262.611	12869.81
262.681	12851.78
262.751	12881.04
262.821	12882.44
262.89	12851.69
262.96	12876.99
263.03	12947.95
263.1	12963.24
263.169	12979.38
263.239	13004.35
263.309	13055.69
263.379	13087.85
263.448	13100.67
263.518	13114.46
263.588	13121.88
263.657	13176.4
263.727	13210.63
263.797	13218.49
263.867	13220.12
263.936	13185.42
264.006	13248.42
264.076	13234.34
264.145	13227.4
264.215	13212.36
264.285	13244.46
264.354	13210.62
264.424	13203.39
264.494	13156.92
264.563	13158.08
264.633	13229.91
264.702	13248.22
264.772	13205.66
264.842	13200.35
264.911	13235.35
264.981	13208.74
265.05	13222.53
265.12	13224.7
265.19	13227.35
265.259	13270.49
265.329	13304.14
265.398	13316.87
265.468	13402.44
265.537	13401.13
265.607	13428.42
265.676	13482.31
265.746	13500.49
265.815	13544.55
265.885	13548.31
265.955	13534.42
266.024	13527.53
266.094	13474.79
266.163	13526.18
266.232	13583.45
266.302	13591.35
266.371	13598.59
266.441	13610.69
266.51	13654.89
266.58	13649.59
266.649	13646.55
266.719	13689.84
266.788	13709.6
266.858	13776.76
266.927	13719.92
266.996	13748.46
267.066	13779.55
267.135	13745.04
267.205	13778.83
267.274	13808.52
267.343	13848.82
267.413	13870.42
267.482	13927.06
267.552	13978.74
267.621	13933.04
267.69	13888.45
267.76	13910.91
267.829	13940.75
267.898	13958.54
267.968	13948.47
268.037	13987.37
268.106	14027.28
268.176	13997.06
268.245	14001.74
268.314	13994.12
268.384	14043.67
268.453	14055.68
268.522	14077.71
268.592	14133.29
268.661	14122.15
268.73	14138.45
268.799	14122.11
268.869	14190.12
268.938	14147.32
269.007	14135.41
269.076	14164.82
269.146	14218.71
269.215	14241.18
269.284	14299.45
269.353	14295.12
269.422	14298.2
269.492	14283.35
269.561	14214.47
269.63	14237.7
269.699	14236.93
269.768	14256.6
269.838	14268.31
269.907	14310.83
269.976	14282.53
270.045	14238.95
270.114	14267.73
270.183	14283.88
270.253	14313.67
270.322	14274.14
270.391	14304.51
270.46	14362.94
270.529	14400.63
270.598	14436.88
270.667	14444.98
270.736	14413.7
270.806	14434.43
270.875	14476.75
270.944	14489.57
271.013	14599
271.082	14623.29
271.151	14658.29
271.22	14628.79
271.289	14641.95
271.358	14638.38
271.427	14676.17
271.496	14706.93
271.565	14707.75
271.634	14725.25
271.703	14836.93
271.772	14888.89
271.841	14892.36
271.91	14865.03
271.979	14879.88
272.048	14850.86
272.117	14885.18
272.186	14890.24
272.255	14941.87
272.324	14974.31
272.393	15012.24
272.462	15002.89
272.531	15018.61
272.6	15021.64
272.669	15082.96
272.738	15084.84
272.807	15113.33
272.876	15101.76
272.945	15209.44
273.013	15263.43
273.082	15306.86
273.151	15226.17
273.22	15252.15
273.289	15270.18
273.358	15354.15
273.427	15359.35
273.496	15405.15
273.564	15441.15
273.633	15490.17
273.702	15477.11
273.771	15489.5
273.84	15513.5
273.909	15540.93
273.977	15573.9
274.046	15580.98
274.115	15628.46
274.184	15628.27
274.253	15641.62
274.322	15705.3
274.39	15658.06
274.459	15649.63
274.528	15618.05
274.597	15636.18
274.665	15659.94
274.734	15718.94
274.803	15718.26
274.872	15738.03
274.94	15736.87
275.009	15916.19
275.078	15909.4
275.147	15941.26
275.215	15974.85
275.284	16031.1
275.353	16047
275.421	16023
275.49	16103.4
275.559	16097.76
275.627	16121.71
275.696	16140.75
275.765	16172.13
275.833	16180.27
275.902	16216.37
275.971	16278.36
276.039	16352.15
276.108	16395.67
276.177	16421.26
276.245	16417.6
276.314	16443.44
276.383	16491.87
276.451	16356.7
276.52	16403.64
276.588	16469.14
276.657	16502.83
276.725	16498.78
276.794	16528.66
276.863	16595.8
276.931	16569.63
277	16630.5
277.068	16684.29
277.137	16762.95
277.205	16791.48
277.274	16877.08
277.342	16942.19
277.411	16928.74
277.48	16935.97
277.548	16948.5
277.617	16977.66
277.685	17005.71
277.754	17051.44
277.822	17063.2
277.89	17139.78
277.959	17155.39
278.027	17140.36
278.096	17153.71
278.164	17266.72
278.233	17281.18
278.301	17288.98
278.37	17338.58
278.438	17338.62
278.507	17383.49
278.575	17357.28
278.643	17378.58
278.712	17360.6
278.78	17350.1
278.849	17420.46
278.917	17486.87
278.985	17511.35
279.054	17561.28
279.122	17612.46
279.191	17644.22
279.259	17672.51
279.327	17635.64
279.396	17720.6
279.464	17746.43
279.532	17801.27
279.601	17822.04
279.669	17851.1
279.737	17921.51
279.806	17961.46
279.874	18019.82
279.942	18052.64
280.011	18075.48
280.079	18131.67
280.147	18222.85
280.215	18276.63
280.284	18294.66
280.352	18282.32
280.42	18329.55
280.488	18343.57
280.557	18374.27
280.625	18410.22
280.693	18441.93
280.761	18494.26
280.83	18483.85
280.898	18551.9
280.966	18531.51
281.034	18481.88
281.102	18471.66
281.171	18485.06
281.239	18545.87
281.307	18561.29
281.375	18571.03
281.443	18671.84
281.512	18699.41
281.58	18746.87
281.648	18730.97
281.716	18770.25
281.784	18800.99
281.852	18820.17
281.92	18850.82
281.989	18913.9
282.057	18901.18
282.125	19015.92
282.193	19048.01
282.261	19083.24
282.329	19103.53
282.397	19150.18
282.465	19202.08
282.533	19284
282.601	19285.54
282.67	19262.6
282.738	19270.7
282.806	19331.9
282.874	19328.05
282.942	19365.73
283.01	19375.71
283.078	19435.7
283.146	19465.44
283.214	19531.94
283.282	19569.38
283.35	19632.37
283.418	19646.97
283.486	19709.71
283.554	19671.98
283.622	19694.77
283.69	19717.95
283.758	19750.77
283.826	19802.29
283.894	19861.9
283.962	19954.43
284.03	20045.61
284.098	20094.81
284.165	20124.01
284.233	20164.54
284.301	20181.02
284.369	20199.19
284.437	20214.61
284.505	20233.84
284.573	20306.42
284.641	20300.2
284.709	20363.82
284.777	20359.14
284.845	20418.04
284.912	20469.03
284.98	20518.38
285.048	20544.5
285.116	20606.86
285.184	20669.51
285.252	20705.94
285.319	20691.2
285.387	20692.84
285.455	20673.08
285.523	20716.02
285.591	20749.99
285.659	20785.03
285.726	20857.71
285.794	20854.43
285.862	20886.24
285.93	20923.59
285.997	20950.97
286.065	20982.58
286.133	20990.44
286.201	21024.75
286.269	21025.81
286.336	21025.57
286.404	21049.19
286.472	21114.83
286.539	21089.92
286.607	21078.69
286.675	21119.27
286.743	21185.06
286.81	21195.57
286.878	21266.71
286.946	21281.45
287.013	21304.93
287.081	21332.35
287.149	21335.53
287.216	21429.14
287.284	21450.63
287.352	21488.66
287.419	21511.27
287.487	21602.32
287.555	21651.3
287.622	21671.4
287.69	21721.39
287.758	21798.99
287.825	21813.11
287.893	21821.36
287.96	21873.02
288.028	21940.85
288.096	21980.81
288.163	22018.89
288.231	22034.56
288.298	22069.75
288.366	22143.46
288.433	22184.23
288.501	22197.54
288.569	22230.27
288.636	22239.67
288.704	22314.68
288.771	22375.43
288.839	22386.18
288.906	22379.14
288.974	22438.35
289.041	22473.54
289.109	22480.58
289.176	22540.08
289.244	22595.85
289.311	22656.94
289.379	22724.24
289.446	22762.28
289.514	22791.26
289.581	22829.49
289.649	22876.02
289.716	22921.15
289.783	22935.71
289.851	23028.19
289.918	23081.32
289.986	23153.6
290.053	23205.77
290.121	23245.99
290.188	23285.19
290.255	23409.42
290.323	23439.8
290.39	23463.96
290.458	23526.12
290.525	23597.53
290.592	23612.92
290.66	23649.04
290.727	23670.06
290.794	23733.87
290.862	23775.2
290.929	23823.19
290.996	23864.86
291.064	23922.68
291.131	23998.41
291.198	24069.94
291.266	24098.93
291.333	24134.48
291.4	24172.87
291.468	24254.74
291.535	24260.63
291.602	24305.63
291.669	24305.24
291.737	24358.39
291.804	24389.8
291.871	24463.37
291.938	24512.58
292.006	24626.8
292.073	24701.48
292.14	24773.5
292.207	24799.65
292.275	24835.93
292.342	24894.6
292.409	24999.28
292.476	25104.53
292.543	25107.18
292.611	25137.1
292.678	25214.31
292.745	25318.25
292.812	25387.26
292.879	25414.14
292.946	25466.87
293.014	25535.31
293.081	25598.44
293.148	25667.15
293.215	25742.44
293.282	25753.4
293.349	25818.13
293.416	25799.59
293.484	25869.53
293.551	25930.94
293.618	26006.96
293.685	26114.57
293.752	26134.79
293.819	26150.68
293.886	26162.17
293.953	26208.99
294.02	26280.97
294.087	26328.97
294.154	26337.95
294.221	26413.68
294.288	26446.8
294.356	26535.68
294.423	26598.02
294.49	26615.16
294.557	26690.3
294.624	26713.43
294.691	26822.76
294.758	26864.53
294.825	26921.56
294.892	26935.38
294.959	26960.49
295.026	27013.52
295.093	27029.61
295.16	27077.22
295.226	27124.56
295.293	27224.91
295.36	27290.3
295.427	27364.85
295.494	27443.66
295.561	27511.09
295.628	27613.29
295.695	27690.49
295.762	27744.27
295.829	27805.35
295.896	27896.37
295.963	27961.37
296.03	28020.84
296.096	28066.13
296.163	28142.68
296.23	28225.04
296.297	28296.11
296.364	28351.38
296.431	28414.07
296.498	28442.92
296.564	28551.46
296.631	28605.49
296.698	28606.02
296.765	28699.08
296.832	28703.67
296.899	28709.08
296.965	28810.42
297.032	28783.09
297.099	28877.73
297.166	28941.41
297.233	28971.15
297.299	28983.04
297.366	29021.19
297.433	29060.54
297.5	29128.78
297.566	29167.86
297.633	29203.26
297.7	29262.3
297.767	29302.13
297.833	29360.27
297.9	29419.25
297.967	29415.19
298.033	29472.5
298.1	29594.76
298.167	29615.37
298.234	29671.41
298.3	29748.22
298.367	29763.22
298.434	29838.45
298.5	29850.36
298.567	29876.05
298.634	29912.13
298.7	30008.1
298.767	30060.16
298.834	30152.85
298.9	30173.71
298.967	30200.22
299.033	30262.65
299.1	30348.6
299.167	30429
299.233	30453.54
299.3	30526.7
299.366	30612.33
299.433	30693.26
299.5	30657.93
299.566	30713
299.633	30804.77
299.699	30863.68
299.766	30905.3
299.832	30945.24
299.899	31009.15
299.965	31077.15
300.032	31108.22
300.099	31160.12
300.165	31217.74
300.232	31241.99
300.298	31285.95
300.365	31363.02
300.431	31414.98
300.498	31437.35
300.564	31488.77
300.631	31567.99
300.697	31636.81
300.763	31676.22
300.83	31741.52
300.896	31824.75
300.963	31893.57
301.029	31934.21
301.096	31981.93
301.162	32045.66
301.229	32082.71
301.295	32088.62
301.361	32141.9
301.428	32197.05
301.494	32211.77
301.561	32254.94
301.627	32318.29
301.693	32361.2
301.76	32411.59
301.826	32438.38
301.892	32502
301.959	32568.42
302.025	32590.57
302.092	32620.12
302.158	32680.39
302.224	32702.63
302.291	32715.08
302.357	32739.85
302.423	32773.04
302.49	32786.8
302.556	32859.21
302.622	32891.24
302.688	32959.94
302.755	33036.72
302.821	33103.15
302.887	33169.39
302.954	33207.77
303.02	33262.54
303.086	33319.19
303.152	33344.83
303.219	33371.1
303.285	33420.16
303.351	33461.08
303.417	33506.73
303.483	33520.4
303.55	33551.66
303.616	33583.86
303.682	33631.06
303.748	33643.27
303.815	33716.97
303.881	33784.79
303.947	33786.29
304.013	33838.11
304.079	33867.25
304.145	33847.32
304.212	33881.4
304.278	33890.18
304.344	33913.88
304.41	33908.16
304.476	33923.04
304.542	33939.87
304.608	33995.48
304.674	33987.96
304.741	34018.71
304.807	34050.61
304.873	34114.52
304.939	34181.19
305.005	34170.23
305.071	34198.6
305.137	34238.59
305.203	34214.29
305.269	34248.15
305.335	34325.9
305.401	34348.89
305.467	34372.07
305.533	34438.65
305.599	34498.84
305.666	34562.41
305.732	34599.9
305.798	34669.16
305.864	34781.69
305.93	34837.47
305.996	34867.44
306.062	34915.21
306.128	34941.02
306.194	34952.56
306.259	34981.33
306.325	34993.45
306.391	35057.57
306.457	35114.22
306.523	35160.93
306.589	35262.03
306.655	35267.32
306.721	35230.79
306.787	35240.78
306.853	35317.29
306.919	35298.22
306.985	35303.51
307.051	35312.58
307.117	35342.32
307.183	35370.12
307.248	35323.39
307.314	35375.56
307.38	35416.5
307.446	35464.01
307.512	35473.27
307.578	35521.69
307.644	35540.37
307.709	35580.78
307.775	35613.68
307.841	35629.55
307.907	35675.64
307.973	35641.19
308.039	35674.47
308.104	35741.91
308.17	35784.66
308.236	35772.43
308.302	35815.8
308.368	35812.74
308.433	35855.78
308.499	35870.53
308.565	35871.35
308.631	35910.61
308.696	35868.44
308.762	35871.79
308.828	35887.03
308.894	35865.68
308.959	35842.3
309.025	35845.79
309.091	35866.95
309.156	35873.94
309.222	35912.86
309.288	35903.3
309.354	35887.58
309.419	35928.54
309.485	35899.13
309.551	35937.91
309.616	35931.51
309.682	35955.24
309.748	35981.68
309.813	35988.72
309.879	35981.24
309.945	35979.01
310.01	35997.41
310.076	36037
310.141	36054.04
310.207	36050.1
310.273	36102.46
310.338	36157.97
310.404	36156.13
310.469	36139.19
310.535	36143.56
310.601	36109.97
310.666	36153.02
310.732	36211.98
310.797	36202.91
310.863	36219.02
310.928	36229.11
310.994	36269.69
311.059	36294.78
311.125	36314.97
311.191	36377.54
311.256	36391.42
311.322	36435.92
311.387	36410.54
311.453	37353.56
311.518	37334.78
311.584	37359.97
311.649	37395.5
311.715	37380.51
311.78	37418.6
311.846	37437.43
311.911	37483.16
311.976	37519.75
312.042	37511.4
312.107	37494.51
312.173	37494.51
312.238	37516.79
312.304	37532.47
312.369	37552.03
312.434	37550.09
312.5	37562.37
312.565	37495.91
312.631	37532.56
312.696	37533.92
312.761	37578.62
312.827	36681.22
312.892	36786.96
312.958	36817.89
313.023	36837.16
313.088	36880.75
313.154	36871.52
313.219	36865.6
313.284	36860.8
313.35	36890.46
313.415	36882.98
313.48	36906.57
313.546	36958.37
313.611	36997.89
313.676	37006.09
313.741	37004.97
313.807	37058.57
313.872	37094.64
313.937	37136.87
314.003	37199.12
314.068	37238.15
314.133	37277.28
314.198	37281.41
314.264	37263.73
314.329	37251.74
314.394	37273.39
314.459	37277.91
314.525	37356.9
314.59	37392.77
314.655	37396.31
314.72	37439.63
314.785	37483.61
314.851	37492.69
314.916	37448.36
314.981	37441.71
315.046	37428.02
315.111	37424.86
315.176	37413.84
315.242	37439.14
315.307	37464.53
315.372	37438.11
315.437	37444.57
315.502	37445.45
315.567	37496.97
315.632	37485.31
315.698	37518.28
315.763	37529.31
315.828	37535.13
315.893	37540.72
315.958	37534.36
316.023	37521.98
316.088	37468.18
316.153	37428.56
316.218	37421.57
316.283	37400.07
316.348	37373.57
316.413	37384.25
316.479	37350.66
316.544	37264.16
316.609	37185.22
316.674	37084.27
316.739	36987.83
316.804	36895.84
316.869	36781.68
316.934	36670.51
316.999	36559.6
317.064	36395.38
317.129	36252.24
317.194	36130.05
317.259	35976.15
317.324	35816.19
317.389	35663.71
317.454	35555.02
317.518	35429.22
317.583	35335.09
317.648	35228.85
317.713	35095.44
317.778	34895.44
317.843	34780.96
317.908	34637.28
317.973	34490.33
318.038	34386.02
318.103	34243.09
318.168	34111.87
318.233	33994.68
318.297	33799.68
318.362	33661.51
318.427	33513.13
318.492	33392.37
318.557	33224.03
318.622	33096.06
318.687	32989.42
318.751	32841.44
318.816	32689.7
318.881	32552.84
318.946	32354.28
319.011	32186.67
319.075	32019.18
319.14	31881.94
319.205	31698.97
319.27	31560.4
319.335	31387.12
319.399	31225.29
319.464	31080.71
319.529	30873.98
319.594	30699.95
319.658	30560.34
319.723	30369.59
319.788	30227.27
319.853	30015.33
319.917	29859.88
319.982	29644.56
320.047	29469.75
320.112	29327.86
320.176	29111.32
320.241	28940.56
320.306	28770.61
320.37	28588.76
320.435	28428.17
320.5	28265.65
320.564	28078.97
320.629	27882.69
320.694	27718.55
320.758	27512.62
320.823	27323.05
320.888	27159.08
320.952	26949.22
321.017	26761.15
321.082	26578.78
321.146	26408.99
321.211	26234.94
321.275	26043.49
321.34	25848.74
321.405	25640.66
321.469	25436.25
321.534	25243.15
321.598	25016.58
321.663	24850.23
321.727	24680.34
321.792	24465.45
321.857	24268.26
321.921	24083.27
321.986	23879.55
322.05	23631.18
322.115	23437.55
322.179	23227.35
322.244	22997.59
322.308	22816.92
322.373	22604.38
322.437	22411.05
322.502	22254.57
322.566	22049.1
322.631	21871.7
322.695	21679.33
322.76	21476.06
322.824	21285.09
322.889	21082.71
322.953	20867.99
323.018	20595.28
323.082	20324.56
323.146	20088.51
323.211	19847.77
323.275	19644.44
323.34	19436.21
323.404	19253.13
323.468	19045.03
323.533	18823.78
323.597	18608.51
323.662	18375.35
323.726	18179.31
323.79	17954.01
323.855	17674.44
323.919	17436.12
323.983	17211.35
324.048	16884.27
324.112	17007.22
324.177	16341.35
324.241	15452.17
324.305	14583.33
324.37	13732.2
324.434	12901.35
324.498	12672.98
324.562	12412.53
324.627	12107.9
324.691	11812.86
324.755	11487.38
324.82	11111.36
324.884	10733.39
324.948	10335.8
325.012	9854.91
325.077	9256.87
