Data from 20250626_urea_1M_exp2_MAYP1162681_03-34-00-609.txt Node
Date: Fri Jun 27 03:34:00 BST 2025
User: adleo
Spectrometer: MAYP116268
Trigger mode: 0
Integration Time (sec): 3.000000E0
Scans to average: 1
Electric dark correction enabled: true
Nonlinearity correction enabled: true
Boxcar width: 10
XAxis mode: Wavelengths
Number of Pixels in Spectrum: 2068
>>>>>Begin Spectral Data<<<<<
179.565	2725.07
179.642	2866.37
179.718	2970.17
179.795	3071.26
179.871	3156.27
179.948	3208.56
180.024	3263.43
180.101	3323.26
180.177	3354.12
180.254	3410.66
180.33	3469.57
180.407	3656.97
180.483	3873.5
180.56	4086.12
180.636	4285.95
180.712	4259.25
180.789	4283.5
180.865	4308.83
180.942	4331.02
181.018	4358.95
181.095	4398.53
181.171	4409.53
181.248	4412.59
181.324	4451.5
181.4	4468.77
181.477	4493.56
181.553	4519.39
181.63	4566.14
181.706	4602.95
181.782	4628.96
181.859	4630.59
181.935	4647.58
182.011	4639.69
182.088	4677.46
182.164	4731.68
182.24	4760.67
182.317	4781.96
182.393	4778.47
182.469	4816.28
182.546	4850.17
182.622	4857.55
182.698	4847.97
182.775	4878.61
182.851	4909.63
182.927	4893.97
183.003	4881.15
183.08	4867.65
183.156	4893.55
183.232	4889.09
183.308	4862.33
183.385	4884.68
183.461	4924.33
183.537	4921.22
183.613	4951.29
183.69	4929.98
183.766	4902.19
183.842	4925.8
183.918	4941.32
183.995	4972.92
184.071	4978.38
184.147	4962.81
184.223	4939.7
184.299	4965.38
184.375	4942.01
184.452	4964.25
184.528	5067.45
184.604	5098.28
184.68	5125.05
184.756	5141.39
184.832	5151.78
184.908	5164.18
184.985	5160.2
185.061	5122.85
185.137	5142.78
185.213	5112.71
185.289	5116.82
185.365	5097.1
185.441	5088.43
185.517	5120.59
185.593	5111.44
185.669	5106.65
185.745	5136.92
185.822	5178.76
185.898	5158.64
185.974	5177.74
186.05	5154.35
186.126	5091.82
186.202	5071.28
186.278	5065.72
186.354	5042.3
186.43	5060.27
186.506	5056.68
186.582	5056.3
186.658	5072.19
186.734	5024.69
186.81	5034.03
186.886	5041.07
186.962	5070.47
187.038	5065.34
187.114	5043.91
187.19	5057.86
187.266	5035.69
187.341	5035.83
187.417	5016.53
187.493	5016.15
187.569	5022.23
187.645	5008.44
187.721	4981.51
187.797	5006.79
187.873	5019.11
187.949	5003.64
188.025	4984.95
188.101	4993.95
188.176	5005.16
188.252	4997.11
188.328	5015.97
188.404	5016.01
188.48	5003.09
188.556	4982.11
188.632	4980.34
188.707	4983.64
188.783	4983.26
188.859	4970.01
188.935	4944.62
189.011	4963.25
189.086	4948.12
189.162	4928.96
189.238	4925.47
189.314	4915.99
189.39	4895.73
189.465	4875.52
189.541	4917.33
189.617	4879.94
189.693	4863.33
189.768	4876.21
189.844	4932.95
189.92	4913.24
189.996	4933.74
190.071	4964.2
190.147	4965.39
190.223	4992.32
190.298	4972.68
190.374	4940.88
190.45	4974.39
190.526	4992.4
190.601	4980.42
190.677	4985.69
190.753	5063.31
190.828	5074.08
190.904	5112.89
190.98	5150.45
191.055	5172.91
191.131	5153.12
191.207	5204.27
191.282	5225.53
191.358	5202.2
191.433	5166.77
191.509	5199.89
191.585	5189.16
191.66	5188.35
191.736	5208.13
191.811	5180.34
191.887	5220.55
191.963	5275.55
192.038	5286.33
192.114	5287.53
192.189	5298.3
192.265	5288.73
192.34	5228.11
192.416	5222.8
192.491	5209.47
192.567	5217
192.642	5230.28
192.718	5234.06
192.793	5206.61
192.869	5198.66
192.944	5201.44
193.02	5223.44
193.095	5228.75
193.171	5247.1
193.246	5248.44
193.322	5243.7
193.397	5242.12
193.473	5211.11
193.548	5169.42
193.624	5184.56
193.699	5181.4
193.775	5217.4
193.85	5224.01
193.925	5241.35
194.001	5235.8
194.076	5215.3
194.152	5189.56
194.227	5165.07
194.302	5136.92
194.378	5142.85
194.453	5136.54
194.529	5165.33
194.604	5126.23
194.679	5117.66
194.755	5068.77
194.83	5096.1
194.905	5087.81
194.981	5111.39
195.056	5089.79
195.131	5102.58
195.207	5097.06
195.282	5070.34
195.357	5022.65
195.433	5059.58
195.508	5037.06
195.583	5059.28
195.659	5100.4
195.734	5119
195.809	5120.67
195.884	5140.49
195.96	5142.74
196.035	5181.5
196.11	5178.76
196.185	5208.08
196.261	5212.77
196.336	5289.24
196.411	5251.7
196.486	5265.78
196.561	5245.09
196.637	5272.86
196.712	5313.04
196.787	5318.32
196.862	5359.13
196.937	5385.09
197.013	5400.63
197.088	5422.1
197.163	5473.26
197.238	5514.1
197.313	5509.12
197.388	5544.54
197.464	5621.85
197.539	5653.15
197.614	5635.85
197.689	5661.36
197.764	5701.12
197.839	5746.62
197.914	5735.54
197.989	5795.15
198.065	5830.96
198.14	5962.09
198.215	6023.54
198.29	6051.72
198.365	6088.04
198.44	6115.57
198.515	6183.47
198.59	6220.61
198.665	6282.9
198.74	6304.65
198.815	6303.11
198.89	6359.97
198.965	6430.7
199.04	6423.36
199.115	6457.43
199.19	6564.31
199.265	6572.18
199.34	6601.47
199.415	6689.72
199.49	6738.82
199.565	6759.23
199.64	6819.79
199.715	6815.89
199.79	6829.48
199.865	6846.34
199.94	6838.9
200.015	6916.01
200.09	6924.17
200.165	6938.1
200.24	6959.05
200.315	7053.53
200.39	7091.3
200.464	7107.68
200.539	7105.32
200.614	7141.59
200.689	7196.31
200.764	7212.76
200.839	7254.77
200.914	7263.95
200.989	7236.64
201.063	7276.43
201.138	7232.03
201.213	7230.93
201.288	7177.98
201.363	7187.68
201.438	7184.7
201.512	7227.25
201.587	7182.41
201.662	7197.02
201.737	7231
201.812	7254.12
201.886	7177.51
201.961	7205.11
202.036	7175.09
202.111	7173.69
202.186	7098.66
202.26	7066.12
202.335	7010.62
202.41	6996.06
202.485	6951.65
202.559	6902.17
202.634	6833.77
202.709	6861.12
202.784	6812.32
202.858	6818.61
202.933	6778.85
203.008	6763.96
203.082	6714.36
203.157	6712.73
203.232	6608
203.306	6552.85
203.381	6465.63
203.456	6406.62
203.53	6339.96
203.605	6292.76
203.68	6231.34
203.754	6218.16
203.829	6172.6
203.904	6124.28
203.978	6094.42
204.053	6107.76
204.127	6081.42
204.202	6072.6
204.277	6025.3
204.351	6007.59
204.426	5984.88
204.5	5964.64
204.575	5880.39
204.65	5903.38
204.724	5882.54
204.799	5901.9
204.873	5887.6
204.948	5885.44
205.022	5857.2
205.097	5840.35
205.171	5873.3
205.246	5894.7
205.32	5893.5
205.395	5893.65
205.469	5871.22
205.544	5888.02
205.618	5844.75
205.693	5869.98
205.767	5842.7
205.842	5895.28
205.916	5877.34
205.991	5846.93
206.065	5857.97
206.14	5899.51
206.214	5884.34
206.289	5873.21
206.363	5901.89
206.438	5914.08
206.512	5931.74
206.586	5979.55
206.661	6003.75
206.735	5948.29
206.81	5954.53
206.884	5991.55
206.958	5959.71
207.033	5998.59
207.107	6009.44
207.181	6086.76
207.256	6075.15
207.33	6120.34
207.405	6148.15
207.479	6198.34
207.553	6222.8
207.628	6185.01
207.702	6209.09
207.776	6196.48
207.851	6195.37
207.925	6230.71
207.999	6218.71
208.073	6211.8
208.148	6214.15
208.222	6184.77
208.296	6262.99
208.371	6299.45
208.445	6326.48
208.519	6398.45
208.593	6428.69
208.668	6426.34
208.742	6438.69
208.816	6437.68
208.89	6472.07
208.965	6470.34
209.039	6493.64
209.113	6528.92
209.187	6577.88
209.261	6568.72
209.336	6620.24
209.41	6671.47
209.484	6675.65
209.558	6737.52
209.632	6772.75
209.707	6802.34
209.781	6856.07
209.855	6900.32
209.929	6944.23
210.003	6960.23
210.077	6958.98
210.151	7080.45
210.226	7162.12
210.3	7222.01
210.374	7284.63
210.448	7292.32
210.522	7321.49
210.596	7341.15
210.67	7368.63
210.744	7487.76
210.818	7567.3
210.892	7614.32
210.966	7604.66
211.041	7638.36
211.115	7627.45
211.189	7684.07
211.263	7722.81
211.337	7740.6
211.411	7773.97
211.485	7755.55
211.559	7783.52
211.633	7790.34
211.707	7706.92
211.781	7724.68
211.855	7639.47
211.929	7614.68
212.003	7571.54
212.077	7592.56
212.151	7623.63
212.225	7643.92
212.299	7616.1
212.373	7589.52
212.447	7577.5
212.52	7647.46
212.594	7656.07
212.668	7679.76
212.742	7647.6
212.816	7640.14
212.89	7625.82
212.964	7618.03
213.038	7627.89
213.112	7660.16
213.186	7694.09
213.26	7643.66
213.333	7524.45
213.407	7533.04
213.481	7542.56
213.555	7568.97
213.629	7539.05
213.703	7495.35
213.777	7487.56
213.85	7432.03
213.924	7511.72
213.998	7506
214.072	7481.95
214.146	7448.2
214.219	7438.53
214.293	7424.65
214.367	7418.11
214.441	7438.01
214.515	7402.62
214.588	7335.09
214.662	7242.09
214.736	7181.89
214.81	7198.64
214.883	7215.25
214.957	7179.52
215.031	7137.32
215.105	7073.25
215.178	7028.52
215.252	7001.66
215.326	6935.56
215.4	6883.61
215.473	6754.31
215.547	6695.45
215.621	6649.21
215.694	6644.6
215.768	6570.64
215.842	6525.07
215.915	6477.27
215.989	6392.97
216.063	6356.08
216.136	6341.67
216.21	6324.21
216.284	6331.41
216.357	6308.51
216.431	6285.23
216.504	6286.28
216.578	6329.64
216.652	6336.35
216.725	6319.79
216.799	6326.52
216.873	6309.39
216.946	6315.34
217.02	6283.11
217.093	6263.14
217.167	6191.16
217.24	6133.07
217.314	6109.29
217.387	6069.01
217.461	6035.85
217.535	6049.19
217.608	5998.34
217.682	5983.17
217.755	5993.15
217.829	5956.73
217.902	5946.7
217.976	5928.09
218.049	5889.57
218.123	5831.77
218.196	5829.61
218.27	5798
218.343	5747.51
218.417	5749.53
218.49	5727.37
218.563	5760.46
218.637	5770.39
218.71	5824.65
218.784	5842.21
218.857	5868.2
218.931	5888.57
219.004	5895.91
219.077	5911.42
219.151	5925.32
219.224	5917.79
219.298	5912.27
219.371	5944.61
219.444	5916.52
219.518	5919.2
219.591	5935.5
219.665	6017.86
219.738	6028.99
219.811	6022.8
219.885	6054.71
219.958	6080.1
220.031	6083.36
220.105	6097.61
220.178	6102.17
220.251	6084.65
220.325	6104.48
220.398	6112.2
220.471	6124.05
220.544	6150.2
220.618	6131.72
220.691	6153.7
220.764	6167.94
220.838	6192.71
220.911	6189.59
220.984	6254.36
221.057	6289.2
221.131	6309.26
221.204	6231.17
221.277	6289.46
221.35	6386.67
221.424	6379.91
221.497	6388.84
221.57	6412.87
221.643	6436.74
221.716	6463.58
221.79	6469.05
221.863	6479.91
221.936	6490.22
222.009	6505.82
222.082	6526.23
222.155	6537.84
222.229	6592.07
222.302	6611.46
222.375	6616.51
222.448	6638.02
222.521	6640.09
222.594	6635.77
222.667	6612.74
222.74	6661.36
222.814	6652.86
222.887	6629.93
222.96	6670.56
223.033	6700.54
223.106	6716.57
223.179	6742.04
223.252	6750.4
223.325	6773.45
223.398	6783.92
223.471	6805.24
223.544	6817.87
223.617	6829.16
223.69	6847.89
223.763	6816.85
223.837	6836.64
223.91	6856.86
223.983	6823.54
224.056	6798.05
224.129	6815.38
224.202	6860.35
224.275	6851.47
224.348	6827.55
224.42	6804.93
224.493	6767.47
224.566	6748.39
224.639	6765.01
224.712	6738.05
224.785	6732.09
224.858	6727.34
224.931	6708.79
225.004	6677.59
225.077	6674.66
225.15	6604.19
225.223	6597.37
225.296	6657.78
225.369	6611.59
225.442	6583.06
225.514	6593.05
225.587	6609.99
225.66	6625.08
225.733	6623.73
225.806	6634.2
225.879	6631.08
225.952	6608.62
226.025	6646.9
226.097	6684.91
226.17	6674.54
226.243	6631.76
226.316	6627.63
226.389	6624.22
226.461	6641.71
226.534	6660.34
226.607	6657.93
226.68	6721.25
226.753	6718.32
226.825	6658.86
226.898	6704.91
226.971	6710.48
227.044	6726.37
227.117	6734.68
227.189	6741.36
227.262	6768.26
227.335	6777.05
227.407	6774.89
227.48	6803.36
227.553	6802.78
227.626	6787.16
227.698	6795.66
227.771	6824.84
227.844	6810.43
227.916	6827.73
227.989	6802.32
228.062	6799.72
228.134	6866.9
228.207	6866.61
228.28	6863.05
228.352	6874.77
228.425	6884.91
228.498	6922.87
228.57	6911.49
228.643	6952.67
228.716	6958.1
228.788	6945.99
228.861	6940.76
228.934	6993.21
229.006	6996.91
229.079	7001.57
229.151	6989.85
229.224	6965.02
229.296	6985.1
229.369	7065.95
229.442	7104.59
229.514	7096.14
229.587	7137.27
229.659	7084.26
229.732	7099.06
229.804	7127.45
229.877	7181.34
229.949	7200.09
230.022	7234.9
230.094	7238.22
230.167	7226.2
230.239	7195.11
230.312	7188.77
230.384	7241.56
230.457	7231.61
230.529	7238.77
230.602	7236.94
230.674	7244.68
230.747	7273.68
230.819	7295.6
230.892	7207.31
230.964	7204.66
231.037	7224.06
231.109	7210.46
231.181	7242.36
231.254	7214.21
231.326	7208.49
231.399	7190.65
231.471	7173.58
231.544	7116.71
231.616	7148.84
231.688	7153.51
231.761	7137.09
231.833	7135.55
231.905	7068.93
231.978	7072.05
232.05	7059.71
232.122	7063.31
232.195	7048.46
232.267	7075.37
232.339	7056.01
232.412	7103.61
232.484	7086.59
232.556	7059.13
232.629	7117.02
232.701	7123.27
232.773	7131.39
232.846	7125.72
232.918	7128.08
232.99	7139.76
233.062	7167.25
233.135	7177.05
233.207	7150.72
233.279	7186.73
233.351	7207.25
233.424	7212.34
233.496	7192.31
233.568	7257.86
233.64	7236.77
233.713	7249.99
233.785	7243.02
233.857	7255.85
233.929	7215.44
234.001	7257.19
234.074	7310.4
234.146	7250.59
234.218	7244.96
234.29	7251.88
234.362	7239.44
234.434	7208.25
234.507	7184.79
234.579	7146.3
234.651	7128.18
234.723	7155.63
234.795	7171.2
234.867	7165.53
234.939	7209.36
235.012	7224.01
235.084	7224.2
235.156	7252.12
235.228	7235.83
235.3	7226.65
235.372	7231.27
235.444	7283.16
235.516	7225.08
235.588	7228.11
235.66	7236.28
235.732	7221.28
235.804	7361.69
235.876	7398.3
235.948	7444.94
236.02	7451.28
236.092	7465.16
236.164	7477.32
236.236	7475.3
236.308	7473.19
236.38	7496.36
236.452	7481.07
236.524	7492.79
236.596	7543.9
236.668	7563.95
236.74	7586.44
236.812	7605.09
236.884	7633.6
236.956	7641.2
237.028	7638.32
237.1	7625.29
237.172	7681.61
237.244	7741.8
237.316	7652.17
237.388	7635.06
237.46	7615.72
237.532	7664.82
237.604	7663.71
237.675	7719.93
237.747	7748.35
237.819	7737.44
237.891	7738.31
237.963	7735.42
238.035	7734.94
238.107	7647.68
238.178	7693.77
238.25	7696.17
238.322	7763.33
238.394	7733.71
238.466	7727.37
238.538	7759.28
238.609	7792.64
238.681	7752.24
238.753	7733.14
238.825	7747.82
238.897	7774.88
238.968	7837.33
239.04	7817.13
239.112	7892
239.184	7865.44
239.255	7866.6
239.327	7887.89
239.399	7904.48
239.471	7936.17
239.542	7968.24
239.614	8020.42
239.686	7960.58
239.758	7999.58
239.829	7976.24
239.901	8023.08
239.973	8036.93
240.044	8063.82
240.116	8074.25
240.188	8089.01
240.259	8095.8
240.331	8088.63
240.403	8112.91
240.474	8078.6
240.546	8071.82
240.618	8030.21
240.689	8029.01
240.761	8046.37
240.833	8102.08
240.904	8101.26
240.976	8104.63
241.048	8113.92
241.119	8139.86
241.191	8178.38
241.262	8228.49
241.334	8235.13
241.405	8241.67
241.477	8242.83
241.549	8251.1
241.62	8267.51
241.692	8295.75
241.763	8347.82
241.835	8362.97
241.906	8376.11
241.978	8349.17
242.049	8403.24
242.121	8452.32
242.192	8498.31
242.264	8469.55
242.335	8431.54
242.407	8467.72
242.478	8470.7
242.55	8484.75
242.621	8468.24
242.693	8464.35
242.764	8454.19
242.836	8451.78
242.907	8467.57
242.979	8495.23
243.05	8514.67
243.122	8529.5
243.193	8529.3
243.264	8470.31
243.336	8471.08
243.407	8495.96
243.479	8561.45
243.55	8568.47
243.622	8578.49
243.693	8578.63
243.764	8634.69
243.836	8620.84
243.907	8608.52
243.978	8609.67
244.05	8630.13
244.121	8599.1
244.192	8629.51
244.264	8594.09
244.335	8601.5
244.407	8563.53
244.478	8576
244.549	8568.25
244.62	8544.05
244.692	8547.94
244.763	8584.27
244.834	8575.22
244.906	8558.57
244.977	8572.63
245.048	8614.38
245.119	8596.33
245.191	8578.28
245.262	8529.53
245.333	8587.36
245.405	8602.04
245.476	8628.55
245.547	8633.99
245.618	8682.74
245.689	8694.05
245.761	8724.18
245.832	8728.46
245.903	8763.83
245.974	8783.57
246.045	8791.27
246.117	8854.23
246.188	8839.31
246.259	8828.1
246.33	8847.97
246.401	8858.32
246.473	8830.21
246.544	8820.67
246.615	8863.47
246.686	8866.93
246.757	8926.37
246.828	8907.74
246.899	8958.49
246.97	8934.96
247.042	8934.14
247.113	8956.44
247.184	9016.83
247.255	9011.15
247.326	9036.91
247.397	9043.6
247.468	9047.36
247.539	9056.69
247.61	9020.73
247.681	9055.14
247.752	9094.27
247.823	9073.77
247.894	9088.36
247.965	9068.48
248.037	9056.3
248.108	9017.74
248.179	9021.63
248.25	9015.57
248.321	9037.85
248.392	9004.67
248.463	9064.7
248.534	9063.78
248.605	9078.61
248.675	9058.33
248.746	9076.82
248.817	9089.44
248.888	9103.2
248.959	9062.63
249.03	9081.16
249.101	9086.75
249.172	9074.09
249.243	9017.73
249.314	9067.12
249.385	9072.41
249.456	9098.79
249.527	9097.87
249.598	9114.82
249.669	9119.97
249.739	9120.83
249.81	9127.91
249.881	9096.38
249.952	9088.92
250.023	9081.7
250.094	9042.45
250.165	9019.82
250.235	9009.71
250.306	9008.7
250.377	8988.28
250.448	9014.13
250.519	8968.45
250.59	9013.57
250.66	9012.94
250.731	9068.33
250.802	9067.37
250.873	9082.97
250.944	9094.24
251.014	9086.01
251.085	9149
251.156	9168.21
251.227	9208.32
251.297	9247.14
251.368	9284.25
251.439	9320.52
251.51	9359.18
251.58	9353.22
251.651	9352.59
251.722	9396.51
251.792	9365.74
251.863	9366.8
251.934	9407.59
252.005	9487.51
252.075	9491.95
252.146	9531.13
252.217	9565.18
252.287	9592.54
252.358	9595.04
252.429	9657.95
252.499	9656.79
252.57	9671.49
252.641	9707.27
252.711	9714.54
252.782	9683.09
252.852	9741.38
252.923	9734.87
252.994	9747.78
253.064	9786.11
253.135	9775.47
253.205	9757.07
253.276	9808.74
253.347	9857.85
253.417	9843.79
253.488	9834.06
253.558	9826.45
253.629	9826.98
253.699	9838.73
253.77	9861.76
253.841	9854.34
253.911	9855.6
253.982	9865.37
254.052	9885.99
254.123	9894.09
254.193	9894.81
254.264	9999.83
254.334	9972.52
254.405	9952.96
254.475	9929.36
254.546	9934.08
254.616	9978.3
254.687	10007.49
254.757	10022.85
254.827	10023.09
254.898	10036.77
254.968	10040.67
255.039	10022.04
255.109	10051.8
255.18	10031.43
255.25	9977.14
255.321	10005.8
255.391	9973.09
255.461	10037.64
255.532	9977.89
255.602	9969.66
255.673	9933.87
255.743	9902.69
255.813	9850.88
255.884	9881.51
255.954	9904.2
256.024	9950.88
256.095	9951.21
256.165	9922.89
256.235	9941.2
256.306	9929.06
256.376	9965.87
256.446	9997.04
256.517	10022.81
256.587	10052.24
256.657	10068.24
256.728	10087.4
256.798	10093.91
256.868	10092.22
256.938	10067.31
257.009	10108.21
257.079	10133.55
257.149	10208.85
257.219	10175.51
257.29	10209.21
257.36	10173.66
257.43	10209.9
257.5	10165.29
257.571	10158.45
257.641	10190.81
257.711	10167.21
257.781	10192.78
257.852	10202.42
257.922	10159.45
257.992	10163.93
258.062	10154.97
258.132	10187.1
258.202	10194.47
258.273	10199.43
258.343	10260.24
258.413	10250.12
258.483	10243.47
258.553	10219.91
258.623	10196.25
258.693	10213.07
258.764	10261.77
258.834	10314.28
258.904	10322.71
258.974	10312.4
259.044	10324.54
259.114	10340.92
259.184	10359.81
259.254	10368.72
259.324	10337.98
259.394	10378.83
259.464	10439.11
259.535	10449.47
259.605	10447.54
259.675	10442.82
259.745	10472.07
259.815	10453.81
259.885	10458.05
259.955	10546.63
260.025	10544.89
260.095	10554.58
260.165	10577.8
260.235	10619.44
260.305	10604.17
260.375	10589.13
260.445	10663.08
260.515	10711.7
260.585	10747.17
260.655	10756.86
260.725	10790.06
260.795	10814.92
260.865	10859.93
260.934	10839.45
261.004	10858.34
261.074	10860.99
261.144	10904.25
261.214	10933.31
261.284	10939.04
261.354	10969.97
261.424	10937.24
261.494	10987.88
261.564	10997.23
261.634	11015.59
261.703	10970.97
261.773	10993.95
261.843	11014.72
261.913	11005.42
261.983	10965.9
262.053	10986.1
262.123	10988.51
262.192	10956.7
262.262	10986.2
262.332	10952.9
262.402	10975.02
262.472	10986.73
262.541	10947.03
262.611	10981.2
262.681	10965.77
262.751	10984.86
262.821	10993.39
262.89	10965.53
262.96	10990.11
263.03	11051.7
263.1	11070.88
263.169	11090.64
263.239	11116.13
263.309	11165.58
263.379	11189.78
263.448	11208.62
263.518	11231.46
263.588	11243.85
263.657	11300.33
263.727	11333.82
263.797	11348.18
263.867	11357.73
263.936	11322.79
264.006	11367.84
264.076	11368.56
264.145	11362.54
264.215	11357.19
264.285	11387.07
264.354	11356.56
264.424	11342.68
264.494	11297.33
264.563	11293.04
264.633	11353.43
264.702	11367.5
264.772	11328.85
264.842	11327.79
264.911	11363.5
264.981	11321.03
265.05	11321.9
265.12	11319.35
265.19	11325.85
265.259	11358.29
265.329	11380.13
265.398	11406.44
265.468	11477.38
265.537	11469.14
265.607	11499.65
265.676	11537.68
265.746	11551.56
265.815	11600.23
265.885	11614.21
265.955	11605.48
266.024	11603.51
266.094	11556.8
266.163	11611.7
266.232	11665.83
266.302	11675.23
266.371	11676.34
266.441	11703.96
266.51	11750.18
266.58	11754.23
266.649	11748.3
266.719	11786.38
266.788	11810.77
266.858	11865.04
266.927	11814.14
266.996	11835.83
267.066	11862.82
267.135	11842.53
267.205	11879.84
267.274	11901.72
267.343	11937.87
267.413	11954.93
267.482	12005.74
267.552	12056.78
267.621	12018.27
267.69	11980.72
267.76	12002.46
267.829	12034.56
267.898	12048.92
267.968	12034.32
268.037	12070.47
268.106	12101.46
268.176	12075.72
268.245	12086.28
268.314	12085.17
268.384	12141.13
268.453	12154.14
268.522	12172.61
268.592	12223.51
268.661	12206.83
268.73	12227.41
268.799	12218.16
268.869	12279.81
268.938	12244.18
269.007	12239.94
269.076	12263.37
269.146	12309.74
269.215	12335.91
269.284	12383.44
269.353	12382.58
269.422	12388.26
269.492	12383.01
269.561	12331.72
269.63	12366.33
269.699	12361.37
269.768	12376.31
269.838	12388.75
269.907	12433.48
269.976	12413.96
270.045	12375.44
270.114	12409.38
270.183	12421.58
270.253	12448.47
270.322	12411.6
270.391	12437.24
270.46	12490.94
270.529	12525.31
270.598	12556.79
270.667	12558.43
270.736	12539.44
270.806	12560.5
270.875	12608.47
270.944	12621.53
271.013	12722.08
271.082	12739.39
271.151	12766.58
271.22	12739.53
271.289	12747.05
271.358	12747.15
271.427	12775.25
271.496	12803.11
271.565	12803.5
271.634	12821.53
271.703	12923.15
271.772	12977.43
271.841	12982.29
271.91	12952.74
271.979	12959.49
272.048	12942.96
272.117	12977.96
272.186	12984.75
272.255	13031.51
272.324	13064.73
272.393	13098.86
272.462	13087.05
272.531	13108.69
272.6	13119.15
272.669	13178.97
272.738	13196.38
272.807	13225.45
272.876	13217.97
272.945	13321.37
273.013	13371.27
273.082	13413.5
273.151	13340.9
273.22	13373.78
273.289	13399.08
273.358	13464.07
273.427	13475.35
273.496	13510.54
273.564	13538.26
273.633	13581.55
273.702	13570.22
273.771	13581.59
273.84	13602.95
273.909	13640.74
273.977	13666.44
274.046	13676.37
274.115	13721.39
274.184	13720.96
274.253	13741.11
274.322	13794.14
274.39	13755.57
274.459	13748.73
274.528	13714.88
274.597	13736.24
274.665	13759.48
274.734	13817.28
274.803	13827.59
274.872	13852.47
274.94	13860.18
275.009	14035.53
275.078	14038.81
275.147	14073.23
275.215	14100.46
275.284	14143.56
275.353	14155.32
275.421	14135.08
275.49	14214.04
275.559	14221.7
275.627	14246
275.696	14264.12
275.765	14303.65
275.833	14316.71
275.902	14357.06
275.971	14429.56
276.039	14496.96
276.108	14533.69
276.177	14567.05
276.245	14580.78
276.314	14608.12
276.383	14655.16
276.451	14536.6
276.52	14566.44
276.588	14621.34
276.657	14657.11
276.725	14671.52
276.794	14702.66
276.863	14769.28
276.931	14742
277	14793
277.068	14839.32
277.137	14913.17
277.205	14941.47
277.274	15022.21
277.342	15078.03
277.411	15059.8
277.48	15067.32
277.548	15077.98
277.617	15104.68
277.685	15121.7
277.754	15170.72
277.822	15185.57
277.89	15244.08
277.959	15269.92
278.027	15262.98
278.096	15276.42
278.164	15371.67
278.233	15384.78
278.301	15389.21
278.37	15437.22
278.438	15440.84
278.507	15482.82
278.575	15453.52
278.643	15479.83
278.712	15465.28
278.78	15466.72
278.849	15533.68
278.917	15591.08
278.985	15622.32
279.054	15653.55
279.122	15713.22
279.191	15743.3
279.259	15766.19
279.327	15757.47
279.396	15838.06
279.464	15861.63
279.532	15916.96
279.601	15945.64
279.669	15970.41
279.737	16042.04
279.806	16096.31
279.874	16161.71
279.942	16197.91
280.011	16230.11
280.079	16284.67
280.147	16358.99
280.215	16408.63
280.284	16433.16
280.352	16436.01
280.42	16485.65
280.488	16519.19
280.557	16539.53
280.625	16579.3
280.693	16626.1
280.761	16667.74
280.83	16656.65
280.898	16721.86
280.966	16706.06
281.034	16656.85
281.102	16658.29
281.171	16674.73
281.239	16720.13
281.307	16732.32
281.375	16746.92
281.443	16834.64
281.512	16858.49
281.58	16911.17
281.648	16902.21
281.716	16933
281.784	16965.63
281.852	16985.53
281.92	17012.14
281.989	17070.6
282.057	17067.56
282.125	17174.88
282.193	17210.93
282.261	17249.01
282.329	17279.37
282.397	17328.14
282.465	17378.02
282.533	17456.1
282.601	17464.2
282.67	17446.32
282.738	17458.61
282.806	17518.94
282.874	17523.95
282.942	17560.68
283.01	17574.56
283.078	17636.1
283.146	17672.29
283.214	17732.92
283.282	17781.35
283.35	17844.62
283.418	17867.56
283.486	17917.59
283.554	17883.56
283.622	17917.88
283.69	17949.87
283.758	17975.37
283.826	18030.35
283.894	18092.14
283.962	18186.35
284.03	18266.87
284.098	18313.57
284.165	18340.85
284.233	18374.97
284.301	18410.82
284.369	18433.08
284.437	18462.34
284.505	18483.35
284.573	18566.57
284.641	18578.91
284.709	18622.86
284.777	18616.4
284.845	18680.01
284.912	18733.98
284.98	18781.31
285.048	18806.46
285.116	18860.43
285.184	18937.25
285.252	18971.8
285.319	18968.62
285.387	18977.01
285.455	18975.9
285.523	19023.6
285.591	19058.01
285.659	19101.53
285.726	19159.98
285.794	19170.49
285.862	19199.69
285.93	19238.77
285.997	19251.3
286.065	19272.51
286.133	19293.13
286.201	19328.65
286.269	19329.13
286.336	19341.51
286.404	19366.72
286.472	19423.68
286.539	19406.28
286.607	19394.23
286.675	19437.6
286.743	19492.25
286.81	19512.73
286.878	19580.54
286.946	19600.01
287.013	19640.44
287.081	19676.68
287.149	19678.03
287.216	19756.96
287.284	19781.35
287.352	19819.13
287.419	19854.65
287.487	19945.05
287.555	19989.78
287.622	20025.97
287.69	20079.36
287.758	20146.59
287.825	20170.69
287.893	20176.47
287.96	20228.8
288.028	20290.97
288.096	20320.32
288.163	20371.21
288.231	20389.48
288.298	20415.89
288.366	20489.82
288.433	20525
288.501	20536.85
288.569	20587.21
288.636	20622.98
288.704	20699.32
288.771	20755.8
288.839	20767.75
288.906	20770.16
288.974	20826.55
289.041	20850.17
289.109	20857.78
289.176	20912.34
289.244	20962.9
289.311	21027.87
289.379	21092.26
289.446	21132.16
289.514	21176.7
289.581	21206.34
289.649	21243.45
289.716	21289.72
289.783	21298.25
289.851	21377.34
289.918	21423.61
289.986	21480.78
290.053	21518.18
290.121	21540.45
290.188	21578.39
290.255	21685.78
290.323	21724.15
290.39	21748.54
290.458	21809.8
290.525	21882.01
290.592	21903.46
290.66	21941.15
290.727	21973.6
290.794	22035.11
290.862	22081
290.929	22133.93
290.996	22169.21
291.064	22229.86
291.131	22294.8
291.198	22369.23
291.266	22399.31
291.333	22442.6
291.4	22487.43
291.468	22570.51
291.535	22597.07
291.602	22652.28
291.669	22665.15
291.737	22705.64
291.804	22749.47
291.871	22820.73
291.938	22877.92
292.006	22982.18
292.073	23042.3
292.14	23099.82
292.207	23133.19
292.275	23168.29
292.342	23216.17
292.409	23325.3
292.476	23413.8
292.543	23434.48
292.611	23472.68
292.678	23554.23
292.745	23651.98
292.812	23719.45
292.879	23737.29
292.946	23785.85
293.014	23842.76
293.081	23897.79
293.148	23961.44
293.215	24031.57
293.282	24059.69
293.349	24117.05
293.416	24098.38
293.484	24176.32
293.551	24239.27
293.618	24314.62
293.685	24417.27
293.752	24443.41
293.819	24464.59
293.886	24479.07
293.953	24537.24
294.02	24605.6
294.087	24654.82
294.154	24657.66
294.221	24726.24
294.288	24772.6
294.356	24850.27
294.423	24902.67
294.49	24938.08
294.557	25008.72
294.624	25031.78
294.691	25117.96
294.758	25159.31
294.825	25221.12
294.892	25244.43
294.959	25282.7
295.026	25334.87
295.093	25358.13
295.16	25399.72
295.226	25434.56
295.293	25527.05
295.36	25571.4
295.427	25643.04
295.494	25716.71
295.561	25799.23
295.628	25886.12
295.695	25956.59
295.762	26013.84
295.829	26085.25
295.896	26166.59
295.963	26231.47
296.03	26309.05
296.096	26358.25
296.163	26426.96
296.23	26511.22
296.297	26588.85
296.364	26631.96
296.431	26701.5
296.498	26737.52
296.564	26845.38
296.631	26910.46
296.698	26928.77
296.765	27029.27
296.832	27044.24
296.899	27053.95
296.965	27129.2
297.032	27126.88
297.099	27228.35
297.166	27288.05
297.233	27322.25
297.299	27345.72
297.366	27392
297.433	27427.02
297.5	27499.11
297.566	27554.09
297.633	27596.32
297.7	27648.84
297.767	27696.56
297.833	27751.22
297.9	27797.35
297.967	27800.39
298.033	27879.11
298.1	27991.29
298.167	28008.15
298.234	28071.31
298.3	28145.82
298.367	28177.57
298.434	28247.52
298.5	28252.79
298.567	28298.07
298.634	28342.24
298.7	28428.03
298.767	28479.02
298.834	28557.91
298.9	28589.86
298.967	28603.69
299.033	28668.43
299.1	28735.87
299.167	28809.24
299.233	28834.19
299.3	28913.66
299.366	28997.42
299.433	29068.86
299.5	29047.63
299.566	29110.15
299.633	29174.27
299.699	29239.36
299.766	29265.52
299.832	29311.18
299.899	29371.15
299.965	29435.38
300.032	29468.93
300.099	29520.79
300.165	29573.26
300.232	29602.19
300.298	29640.3
300.365	29719.47
300.431	29757.79
300.498	29786.47
300.564	29849.89
300.631	29911.52
300.697	29978.05
300.763	30015.92
300.83	30061.76
300.896	30132.91
300.963	30183.42
301.029	30230.51
301.096	30277.16
301.162	30356.84
301.229	30391.58
301.295	30402.18
301.361	30450.33
301.428	30496.39
301.494	30506.65
301.561	30546.62
301.627	30600.19
301.693	30656.37
301.76	30699.84
301.826	30729.89
301.892	30791.89
301.959	30852.07
302.025	30891.76
302.092	30913.64
302.158	30975.74
302.224	31004.98
302.291	31026.57
302.357	31063.99
302.423	31092.7
302.49	31111.63
302.556	31165.9
302.622	31197.13
302.688	31277.06
302.755	31354.3
302.821	31413.17
302.887	31470.43
302.954	31513.91
303.02	31563.93
303.086	31613.9
303.152	31646.83
303.219	31677.38
303.285	31722.66
303.351	31766.26
303.417	31804.76
303.483	31831.15
303.55	31853.38
303.616	31886.46
303.682	31923.89
303.748	31942.97
303.815	32019.31
303.881	32082.42
303.947	32098.16
304.013	32142.92
304.079	32157.4
304.145	32132.79
304.212	32175.51
304.278	32194.78
304.344	32217.89
304.41	32224.14
304.476	32238.09
304.542	32259.26
304.608	32321.5
304.674	32317.82
304.741	32339.48
304.807	32388.18
304.873	32438.9
304.939	32508.13
305.005	32497.42
305.071	32533.07
305.137	32577.64
305.203	32561.31
305.269	32584.04
305.335	32646.16
305.401	32672.81
305.467	32693.5
305.533	32750.14
305.599	32794.14
305.666	32850.35
305.732	32887.27
305.798	32959.47
305.864	33058.35
305.93	33116.07
305.996	33138.46
306.062	33195.49
306.128	33216.09
306.194	33214.98
306.259	33247.89
306.325	33246.29
306.391	33320.05
306.457	33374.86
306.523	33402.72
306.589	33492.64
306.655	33510.72
306.721	33499.82
306.787	33498.46
306.853	33571.17
306.919	33561.43
306.985	33585.38
307.051	33602.39
307.117	33621.73
307.183	33624.44
307.248	33578.33
307.314	33617.07
307.38	33653.63
307.446	33688.68
307.512	33698.08
307.578	33740.5
307.644	33758.39
307.709	33812.35
307.775	33824.03
307.841	33837.36
307.907	33880.02
307.973	33857.33
308.039	33892
308.104	33935.92
308.17	33974.89
308.236	33962.82
308.302	34007.8
308.368	33996.94
308.433	34033.11
308.499	34057.35
308.565	34072.58
308.631	34105.4
308.696	34082.32
308.762	34080.72
308.828	34104.67
308.894	34094.74
308.959	34076.17
309.025	34092.7
309.091	34103.66
309.156	34113.89
309.222	34152.25
309.288	34139.4
309.354	34124.81
309.419	34152.99
309.485	34148.43
309.551	34200.71
309.616	34205.65
309.682	34224.61
309.748	34242.26
309.813	34257.49
309.879	34265.63
309.945	34267.09
310.01	34286
310.076	34317.66
310.141	34335.61
310.207	34327.94
310.273	34362.66
310.338	34401.1
310.404	34390.29
310.469	34386.7
310.535	34394.8
310.601	34371.57
310.666	34435.01
310.732	34483.5
310.797	34474.19
310.863	34488.64
310.928	34498.44
310.994	34537.18
311.059	34561.29
311.125	34592.71
311.191	34645.59
311.256	34656.16
311.322	34702.72
311.387	34688.36
311.453	35498.89
311.518	35491.9
311.584	35521.44
311.649	35560.97
311.715	35572.75
311.78	35606.99
311.846	35617.95
311.911	35660.98
311.976	35688.57
312.042	35666.45
312.107	35663.11
312.173	35671.98
312.238	35692.25
312.304	35699.87
312.369	35701.04
312.434	35693.61
312.5	35699.05
312.565	35648.5
312.631	35673.14
312.696	35681.33
312.761	35707.91
312.827	34937.84
312.892	35041.38
312.958	35058.46
313.023	35087.86
313.088	35108.57
313.154	35102.84
313.219	35111.04
313.284	35112.01
313.35	35131.42
313.415	35135.2
313.48	35154.7
313.546	35185.65
313.611	35223
313.676	35227.27
313.741	35232.12
313.807	35283.41
313.872	35335.02
313.937	35380.33
314.003	35433.6
314.068	35467.86
314.133	35508.66
314.198	35498.37
314.264	35467.27
314.329	35463.29
314.394	35478.57
314.459	35491.33
314.525	35568.33
314.59	35587.88
314.655	35585.06
314.72	35636.79
314.785	35670.21
314.851	35678.7
314.916	35662.98
314.981	35650.76
315.046	35662.74
315.111	35678.65
315.176	35674.19
315.242	35693.12
315.307	35710.1
315.372	35687.39
315.437	35680.6
315.502	35687.05
315.567	35742.07
315.632	35730.19
315.698	35758.43
315.763	35759.4
315.828	35768.57
315.893	35773.61
315.958	35782.69
316.023	35785.79
316.088	35737.85
316.153	35698.41
316.218	35702.1
316.283	35674.88
316.348	35640.49
316.413	35635.45
316.479	35594.36
316.544	35509.96
316.609	35432.09
316.674	35342.6
316.739	35251.71
316.804	35167.21
316.869	35074.04
316.934	34972.06
316.999	34875.74
317.064	34730.74
317.129	34601.44
317.194	34483.51
317.259	34325.98
317.324	34164.54
317.389	34018.12
317.454	33897.49
317.518	33781.73
317.583	33681.94
317.648	33582.66
317.713	33463.71
317.778	33270.84
317.843	33161.25
317.908	33029.32
317.973	32887.37
318.038	32772.62
318.103	32653.25
318.168	32528.34
318.233	32407.41
318.297	32227.35
318.362	32094.28
318.427	31950.28
318.492	31841.92
318.557	31675.51
318.622	31548.97
318.687	31441.26
318.751	31296.39
318.816	31163.63
318.881	31027.85
318.946	30821.34
319.011	30653.77
319.075	30480.19
319.14	30339.6
319.205	30155.15
319.27	30001.18
319.335	29827.33
319.399	29656.17
319.464	29503.77
319.529	29307.13
319.594	29126.54
319.658	28987.48
319.723	28803.99
319.788	28662.89
319.853	28444.52
319.917	28293.41
319.982	28096.64
320.047	27922.22
320.112	27778.09
320.176	27563.5
320.241	27393.14
320.306	27239.09
320.37	27061.28
320.435	26913.97
320.5	26752.04
320.564	26579.21
320.629	26403.43
320.694	26244.92
320.758	26056.63
320.823	25865.76
320.888	25698.62
320.952	25509.57
321.017	25323.75
321.082	25137.05
321.146	24962.79
321.211	24798.85
321.275	24615.14
321.34	24423.73
321.405	24237.71
321.469	24031.21
321.534	23844.57
321.598	23628.94
321.663	23463.35
321.727	23292.97
321.792	23086.81
321.857	22902.7
321.921	22723.05
321.986	22525.48
322.05	22294.65
322.115	22122.68
322.179	21923.64
322.244	21701.67
322.308	21519.03
322.373	21317.54
322.437	21125.42
322.502	20965
322.566	20762.81
322.631	20580.58
322.695	20392.91
322.76	20187.36
322.824	20007.6
322.889	19815.85
322.953	19614.55
323.018	19366.3
323.082	19103.6
323.146	18883.17
323.211	18656.57
323.275	18444.05
323.34	18233.59
323.404	18053.01
323.468	17829.69
323.533	17626.7
323.597	17426.21
323.662	17203.26
323.726	17010.87
323.79	16801.36
323.855	16539.13
323.919	16322.05
323.983	16106.13
324.048	15791.24
324.112	15885.64
324.177	15238.1
324.241	14400.19
324.305	13581.92
324.37	12771.36
324.434	11996.61
324.498	11770.69
324.562	11521.53
324.627	11244.91
324.691	10976.11
324.755	10659.61
324.82	10314.13
324.884	9942.87
324.948	9560.82
325.012	9101.09
325.077	8534.68
