Data from 20250626_urea_1M_exp2_MAYP1162681_06-23-59-777.txt Node
Date: Fri Jun 27 06:23:59 BST 2025
User: adleo
Spectrometer: MAYP116268
Trigger mode: 0
Integration Time (sec): 3.000000E0
Scans to average: 1
Electric dark correction enabled: true
Nonlinearity correction enabled: true
Boxcar width: 10
XAxis mode: Wavelengths
Number of Pixels in Spectrum: 2068
>>>>>Begin Spectral Data<<<<<
179.565	2757.57
179.642	2902.94
179.718	3011.96
179.795	3113.94
179.871	3197.44
179.948	3244.4
180.024	3301.42
180.101	3362.65
180.177	3398.36
180.254	3454.85
180.33	3513.04
180.407	3702.12
180.483	3919.61
180.56	4141.32
180.636	4338.09
180.712	4309.9
180.789	4329.32
180.865	4362.98
180.942	4388.66
181.018	4413.58
181.095	4452.73
181.171	4469.09
181.248	4469.95
181.324	4511.17
181.4	4527.15
181.477	4551.75
181.553	4584.99
181.63	4634.05
181.706	4671.34
181.782	4695.26
181.859	4698.7
181.935	4710.05
182.011	4701.77
182.088	4742.03
182.164	4785.09
182.24	4823.08
182.317	4845.14
182.393	4844.28
182.469	4874.49
182.546	4905.04
182.622	4916.52
182.698	4904.6
182.775	4934.29
182.851	4970.3
182.927	4949.32
183.003	4937.84
183.08	4925.34
183.156	4947.13
183.232	4942.39
183.308	4915.33
183.385	4931.94
183.461	4973.13
183.537	4975.29
183.613	5005.74
183.69	4988.6
183.766	4966.07
183.842	4988.21
183.918	5004.54
183.995	5032.59
184.071	5045.63
184.147	5034.42
184.223	5007.05
184.299	5036.17
184.375	5007.68
184.452	5025.99
184.528	5131.36
184.604	5159.27
184.68	5190.64
184.756	5210.67
184.832	5218.91
184.908	5231.07
184.985	5234.28
185.061	5190.22
185.137	5215.71
185.213	5189.32
185.289	5187.88
185.365	5167.72
185.441	5157.56
185.517	5191.65
185.593	5186.04
185.669	5177.51
185.745	5203.57
185.822	5241.1
185.898	5220.98
185.974	5239.6
186.05	5218.46
186.126	5156.4
186.202	5138.49
186.278	5125.99
186.354	5099.97
186.43	5115.84
186.506	5111.19
186.582	5106.6
186.658	5127.37
186.734	5076.99
186.81	5083.22
186.886	5091.22
186.962	5121.96
187.038	5111.71
187.114	5088.51
187.19	5107.34
187.266	5079.47
187.341	5079.71
187.417	5063.91
187.493	5067.88
187.569	5077.9
187.645	5059.12
187.721	5029.79
187.797	5054.7
187.873	5066.48
187.949	5051.5
188.025	5036.54
188.101	5044.15
188.176	5055.79
188.252	5042.96
188.328	5063.73
188.404	5062.68
188.48	5050.47
188.556	5026.95
188.632	5029.39
188.707	5031.12
188.783	5024.21
188.859	5016.32
188.935	4989.59
189.011	5011.19
189.086	4993.61
189.162	4968.18
189.238	4964.88
189.314	4957.4
189.39	4940.69
189.465	4922.73
189.541	4965.21
189.617	4927.38
189.693	4916.42
189.768	4928.83
189.844	4991.8
189.92	4967.4
189.996	4993.17
190.071	5021.86
190.147	5024.97
190.223	5045.72
190.298	5031.53
190.374	4999.88
190.45	5032.1
190.526	5055.47
190.601	5039.48
190.677	5040.82
190.753	5118.72
190.828	5130.21
190.904	5163.13
190.98	5199.16
191.055	5224.17
191.131	5205.38
191.207	5257.5
191.282	5278.14
191.358	5252.22
191.433	5212.14
191.509	5247.04
191.585	5235.01
191.66	5235.39
191.736	5257.38
191.811	5233.43
191.887	5272.69
191.963	5329.7
192.038	5339.96
192.114	5337.9
192.189	5355
192.265	5350.93
192.34	5294.1
192.416	5289.88
192.491	5282.31
192.567	5289.26
192.642	5298.61
192.718	5298.56
192.793	5269.95
192.869	5259.8
192.944	5262.67
193.02	5284.14
193.095	5292.1
193.171	5309.25
193.246	5312.22
193.322	5303.89
193.397	5307.81
193.473	5269.41
193.548	5229.1
193.624	5242.96
193.699	5238.93
193.775	5275.71
193.85	5277.81
193.925	5293.39
194.001	5290.61
194.076	5273.22
194.152	5249.35
194.227	5228.35
194.302	5204.03
194.378	5209.73
194.453	5202.88
194.529	5235.75
194.604	5197.9
194.679	5186.02
194.755	5135.59
194.83	5164.13
194.905	5159.38
194.981	5179.99
195.056	5163.61
195.131	5174.29
195.207	5166.76
195.282	5142.82
195.357	5092.53
195.433	5130.38
195.508	5103.31
195.583	5123.38
195.659	5160.14
195.734	5173.46
195.809	5176
195.884	5200.04
195.96	5199.32
196.035	5235.63
196.11	5228.25
196.185	5259.92
196.261	5261.26
196.336	5340.99
196.411	5300.38
196.486	5308.33
196.561	5293.1
196.637	5320.06
196.712	5362.98
196.787	5373.43
196.862	5416.84
196.937	5445.01
197.013	5458.77
197.088	5483.16
197.163	5535.01
197.238	5575.27
197.313	5573.07
197.388	5608.84
197.464	5685.21
197.539	5719.53
197.614	5703.19
197.689	5727.93
197.764	5768.22
197.839	5821.82
197.914	5808.39
197.989	5866.28
198.065	5900.9
198.14	6031.53
198.215	6098.51
198.29	6123.52
198.365	6156.91
198.44	6178.59
198.515	6248.43
198.59	6288.45
198.665	6356.17
198.74	6381.38
198.815	6385.17
198.89	6442.42
198.965	6514.46
199.04	6499.29
199.115	6535.23
199.19	6643.32
199.265	6656.47
199.34	6677.6
199.415	6760.81
199.49	6809.06
199.565	6838.02
199.64	6902.65
199.715	6891.74
199.79	6898.56
199.865	6912.92
199.94	6908.94
200.015	6990.75
200.09	7003.92
200.165	7017.08
200.24	7034.19
200.315	7131
200.39	7170.31
200.464	7186.3
200.539	7185.82
200.614	7230.21
200.689	7287.11
200.764	7304.56
200.839	7343.08
200.914	7357.3
200.989	7331.57
201.063	7371.18
201.138	7322.3
201.213	7321.39
201.288	7273.19
201.363	7286.45
201.438	7290.63
201.512	7329.72
201.587	7281.8
201.662	7291.27
201.737	7321.17
201.812	7338.71
201.886	7257.32
201.961	7278.96
202.036	7246.79
202.111	7240.49
202.186	7164.72
202.26	7118.19
202.335	7065.04
202.41	7054.23
202.485	7009.38
202.559	6965.47
202.634	6898.45
202.709	6923.26
202.784	6874.61
202.858	6874.89
202.933	6830.04
203.008	6814.14
203.082	6762.28
203.157	6762.81
203.232	6654.14
203.306	6599.12
203.381	6523.66
203.456	6461.58
203.53	6400.1
203.605	6353.72
203.68	6294.26
203.754	6279.11
203.829	6244.93
203.904	6190.6
203.978	6157.09
204.053	6174.37
204.127	6140.69
204.202	6125.91
204.277	6086.23
204.351	6069.48
204.426	6046.49
204.5	6028.59
204.575	5938.39
204.65	5963.59
204.724	5942.98
204.799	5965.99
204.873	5956.87
204.948	5951.07
205.022	5920.81
205.097	5897.43
205.171	5934.6
205.246	5957.21
205.32	5955.3
205.395	5951.98
205.469	5928.22
205.544	5945.59
205.618	5895.6
205.693	5924.87
205.767	5898.4
205.842	5946.15
205.916	5931.09
205.991	5906.38
206.065	5917.71
206.14	5957.43
206.214	5945.47
206.289	5927.28
206.363	5954.96
206.438	5961.16
206.512	5975.46
206.586	6026.97
206.661	6051.02
206.735	5989.94
206.81	5991.91
206.884	6029.94
206.958	5997.24
207.033	6039.04
207.107	6052.2
207.181	6136.87
207.256	6119.69
207.33	6166.41
207.405	6198.7
207.479	6247.26
207.553	6268.89
207.628	6228.95
207.702	6261.82
207.776	6245.88
207.851	6254.9
207.925	6291.93
207.999	6282.76
208.073	6279.5
208.148	6284.93
208.222	6252.52
208.296	6334.72
208.371	6374.26
208.445	6399.52
208.519	6468.8
208.593	6501.54
208.668	6491.98
208.742	6492.9
208.816	6499.81
208.89	6538.76
208.965	6533.14
209.039	6553.17
209.113	6593.45
209.187	6647.74
209.261	6637.95
209.336	6685.2
209.41	6730.44
209.484	6733.08
209.558	6793.36
209.632	6825.19
209.707	6850.64
209.781	6909.91
209.855	6950.61
209.929	6988.79
210.003	7005.03
210.077	7008.1
210.151	7129.63
210.226	7219.91
210.3	7290.61
210.374	7351.18
210.448	7361.13
210.522	7386.95
210.596	7411.07
210.67	7435.2
210.744	7552.12
210.818	7630
210.892	7685.62
210.966	7671.4
211.041	7709.48
211.115	7698.23
211.189	7757.55
211.263	7801.68
211.337	7815.96
211.411	7854.86
211.485	7845.77
211.559	7874.37
211.633	7878.84
211.707	7797.96
211.781	7820.05
211.855	7731.28
211.929	7708.89
212.003	7666.51
212.077	7692.2
212.151	7724.09
212.225	7745.82
212.299	7715.21
212.373	7685.07
212.447	7668.43
212.52	7745.41
212.594	7751.95
212.668	7779.69
212.742	7743.87
212.816	7728.1
212.89	7714.68
212.964	7711.22
213.038	7717.76
213.112	7745.03
213.186	7784.11
213.26	7731.22
213.333	7608.67
213.407	7617.8
213.481	7621.12
213.555	7642.34
213.629	7610.31
213.703	7563.71
213.777	7559.48
213.85	7509.62
213.924	7597.55
213.998	7603.8
214.072	7580.71
214.146	7541.23
214.219	7529.88
214.293	7523.59
214.367	7523.59
214.441	7543.68
214.515	7501.12
214.588	7431.23
214.662	7341.31
214.736	7282.73
214.81	7297.18
214.883	7313.17
214.957	7277.2
215.031	7235.76
215.105	7170.2
215.178	7122.62
215.252	7093.36
215.326	7022.78
215.4	6964.3
215.473	6820.05
215.547	6753.34
215.621	6705.17
215.694	6701.18
215.768	6626.26
215.842	6570.85
215.915	6521.26
215.989	6432.74
216.063	6393.2
216.136	6377.79
216.21	6359.17
216.284	6367.04
216.357	6351.24
216.431	6320.24
216.504	6323.55
216.578	6368.35
216.652	6380.29
216.725	6364.11
216.799	6373.09
216.873	6358.89
216.946	6362.53
217.02	6339.85
217.093	6318.97
217.167	6248.8
217.24	6187.83
217.314	6166.2
217.387	6131.58
217.461	6098.9
217.535	6117.28
217.608	6071.65
217.682	6054.18
217.755	6064.64
217.829	6025.18
217.902	6010.31
217.976	5996.16
218.049	5962.04
218.123	5902.03
218.196	5903.42
218.27	5876.13
218.343	5821.7
218.417	5818.82
218.49	5809.51
218.563	5841.6
218.637	5847.79
218.71	5903.12
218.784	5922.55
218.857	5948.35
218.931	5970.64
219.004	5976.01
219.077	5994.16
219.151	6006.87
219.224	6000.82
219.298	5999.1
219.371	6030.68
219.444	5999.46
219.518	6009.05
219.591	6018.35
219.665	6098.02
219.738	6102.24
219.811	6094.43
219.885	6130.27
219.958	6152.2
220.031	6150.81
220.105	6162.52
220.178	6166.08
220.251	6144.23
220.325	6170.45
220.398	6177.12
220.471	6193
220.544	6222.13
220.618	6203.89
220.691	6230.13
220.764	6248.9
220.838	6268.96
220.911	6258.88
220.984	6324.81
221.057	6353.75
221.131	6370.44
221.204	6303.15
221.277	6360.82
221.35	6449.59
221.424	6439.8
221.497	6452.19
221.57	6472.58
221.643	6501.97
221.716	6532.32
221.79	6541.2
221.863	6548.4
221.936	6561.27
222.009	6569.14
222.082	6588.4
222.155	6597.33
222.229	6644.36
222.302	6663.51
222.375	6667.64
222.448	6695.45
222.521	6700.3
222.594	6703.95
222.667	6692
222.74	6733.24
222.814	6727.38
222.887	6718.1
222.96	6764.98
223.033	6792.17
223.106	6800.86
223.179	6822.63
223.252	6838.68
223.325	6860.1
223.398	6869.18
223.471	6889.4
223.544	6904.86
223.617	6917.45
223.69	6935.07
223.763	6902.3
223.837	6923.83
223.91	6945.73
223.983	6910.87
224.056	6889.55
224.129	6901.75
224.202	6941.93
224.275	6933.04
224.348	6908.54
224.42	6881.35
224.493	6841.2
224.566	6825.44
224.639	6846.71
224.712	6827.48
224.785	6814.89
224.858	6805.86
224.931	6785.3
225.004	6755.68
225.077	6757.4
225.15	6691.72
225.223	6691.29
225.296	6760.36
225.369	6711.14
225.442	6687.02
225.514	6700.22
225.587	6711.22
225.66	6718.62
225.733	6719.2
225.806	6721.26
225.879	6716.32
225.952	6691.93
226.025	6729.97
226.097	6767.99
226.17	6759.1
226.243	6710.75
226.316	6708.2
226.389	6711.28
226.461	6732.7
226.534	6750.28
226.607	6746.1
226.68	6804.05
226.753	6796.12
226.825	6728.68
226.898	6768.1
226.971	6772.76
227.044	6793.07
227.117	6798.07
227.189	6811.43
227.262	6834.78
227.335	6855.63
227.407	6858.9
227.48	6888.28
227.553	6890.63
227.626	6876.64
227.698	6888.75
227.771	6918.12
227.844	6902.99
227.916	6921.39
227.989	6895.64
228.062	6894.35
228.134	6958.94
228.207	6958.17
228.28	6951.78
228.352	6960.14
228.425	6978.3
228.498	7013.91
228.57	6999.93
228.643	7047.8
228.716	7053.66
228.788	7046.26
228.861	7039.92
228.934	7083.69
229.006	7089.74
229.079	7092.33
229.151	7083.44
229.224	7055.11
229.296	7073.51
229.369	7151.77
229.442	7183.4
229.514	7169.19
229.587	7204.64
229.659	7147.4
229.732	7157.73
229.804	7190.11
229.877	7251.07
229.949	7265.54
230.022	7300.99
230.094	7302.52
230.167	7288.58
230.239	7248.99
230.312	7240.63
230.384	7289.67
230.457	7292.03
230.529	7297.31
230.602	7298.13
230.674	7306.88
230.747	7335.69
230.819	7357.51
230.892	7269.69
230.964	7271.62
231.037	7295.1
231.109	7286.16
231.181	7315.76
231.254	7296.63
231.326	7292.64
231.399	7277.25
231.471	7257.64
231.544	7203.88
231.616	7236.84
231.688	7247.27
231.761	7240.98
231.833	7236.56
231.905	7179.98
231.978	7178.01
232.05	7166.86
232.122	7171.28
232.195	7155.95
232.267	7189.07
232.339	7173.83
232.412	7222.83
232.484	7201.63
232.556	7177.76
232.629	7230.32
232.701	7241.28
232.773	7247.24
232.846	7242.19
232.918	7248.54
232.99	7264.69
233.062	7293.53
233.135	7297.96
233.207	7266.38
233.279	7302.07
233.351	7325.9
233.424	7322.44
233.496	7297.98
233.568	7359.51
233.64	7330.97
233.713	7343.41
233.785	7338.89
233.857	7351.54
233.929	7313.38
234.001	7370.62
234.074	7424.09
234.146	7369.47
234.218	7370.81
234.29	7368.22
234.362	7357.26
234.434	7317.41
234.507	7294.87
234.579	7255.26
234.651	7245.36
234.723	7273.38
234.795	7290.25
234.867	7286.79
234.939	7333.03
235.012	7352.16
235.084	7352.45
235.156	7381.85
235.228	7368.54
235.3	7354.22
235.372	7362.58
235.444	7408.76
235.516	7342.92
235.588	7349.12
235.66	7362.68
235.732	7342.83
235.804	7487.42
235.876	7516.25
235.948	7563.8
236.02	7571.11
236.092	7585.76
236.164	7589.46
236.236	7586.62
236.308	7583.98
236.38	7605.57
236.452	7593.02
236.524	7608.11
236.596	7660.09
236.668	7685.04
236.74	7701.72
236.812	7720.56
236.884	7750.29
236.956	7765.15
237.028	7760.34
237.1	7745.82
237.172	7796.9
237.244	7860.76
237.316	7775.94
237.388	7765.99
237.46	7756.51
237.532	7807.77
237.604	7801.43
237.675	7858.81
237.747	7889.11
237.819	7883.43
237.891	7884.49
237.963	7876.7
238.035	7875.12
238.107	7794.09
238.178	7845.68
238.25	7850.78
238.322	7921.6
238.394	7887.31
238.466	7879.71
238.538	7911.58
238.609	7942.98
238.681	7906.85
238.753	7883.71
238.825	7905.03
238.897	7934.21
238.968	7992.49
239.04	7974.88
239.112	8059.72
239.184	8036.77
239.255	8036.34
239.327	8060.04
239.399	8076.49
239.471	8112.7
239.542	8138.19
239.614	8181.38
239.686	8117.05
239.758	8160.53
239.829	8137.04
239.901	8180.43
239.973	8195.58
240.044	8222.56
240.116	8229.11
240.188	8235.41
240.259	8247.43
240.331	8236.12
240.403	8255.6
240.474	8220.22
240.546	8211.47
240.618	8166.48
240.689	8166.2
240.761	8185.25
240.833	8232.07
240.904	8235.19
240.976	8229.81
241.048	8242.99
241.119	8273.74
241.191	8313.62
241.262	8363.93
241.334	8371
241.405	8370.57
241.477	8373.46
241.549	8379.28
241.62	8405.31
241.692	8443.12
241.763	8486.83
241.835	8502.28
241.906	8517.86
241.978	8490.97
242.049	8542.55
242.121	8589.56
242.192	8637.44
242.264	8612.61
242.335	8577.82
242.407	8608.72
242.478	8618.53
242.55	8631.24
242.621	8616.07
242.693	8610.97
242.764	8603.46
242.836	8598.36
242.907	8629.02
242.979	8652.84
243.05	8675.27
243.122	8688.89
243.193	8685.95
243.264	8634.65
243.336	8632.39
243.407	8660.74
243.479	8726.91
243.55	8744.29
243.622	8752.28
243.693	8745.25
243.764	8797.71
243.836	8782.12
243.907	8772.26
243.978	8778.61
244.05	8799.31
244.121	8765.72
244.192	8799.85
244.264	8765.62
244.335	8779.58
244.407	8742.9
244.478	8755.37
244.549	8744.16
244.62	8716.19
244.692	8718.84
244.763	8752.77
244.834	8750.55
244.906	8731.78
244.977	8743.05
245.048	8784.03
245.119	8772.67
245.191	8763.14
245.262	8718.81
245.333	8775.45
245.405	8791.43
245.476	8819.68
245.547	8834.75
245.618	8882.82
245.689	8884.84
245.761	8904.87
245.832	8907.32
245.903	8942.6
245.974	8964.85
246.045	8976.3
246.117	9045.05
246.188	9036.43
246.259	9033.45
246.33	9046.98
246.401	9059.01
246.473	9033.11
246.544	9024.68
246.615	9061.94
246.686	9068.58
246.757	9126.15
246.828	9111.86
246.899	9166.71
246.97	9136.77
247.042	9130.27
247.113	9160.08
247.184	9225.73
247.255	9228.09
247.326	9251.01
247.397	9255.63
247.468	9262.13
247.539	9272.1
247.61	9231.74
247.681	9265.92
247.752	9293.79
247.823	9278.58
247.894	9285.85
247.965	9268.67
248.037	9249.79
248.108	9217.05
248.179	9225.62
248.25	9215.46
248.321	9239.53
248.392	9204.42
248.463	9266.81
248.534	9259.34
248.605	9275.05
248.675	9256.83
248.746	9267.81
248.817	9280.24
248.888	9294.2
248.959	9255.11
249.03	9281.01
249.101	9286.21
249.172	9269.89
249.243	9224.45
249.314	9272.31
249.385	9287.29
249.456	9306.35
249.527	9305.14
249.598	9322.52
249.669	9314.63
249.739	9324.69
249.81	9331.72
249.881	9296.39
249.952	9289.16
250.023	9288.58
250.094	9253.09
250.165	9233.2
250.235	9229.05
250.306	9227.03
250.377	9201.95
250.448	9222.98
250.519	9169.93
250.59	9211.92
250.66	9213.41
250.731	9259.48
250.802	9257.89
250.873	9267.57
250.944	9284.42
251.014	9280.62
251.085	9347.47
251.156	9374.58
251.227	9412.05
251.297	9449.19
251.368	9494.01
251.439	9525.46
251.51	9567.07
251.58	9553.5
251.651	9546.99
251.722	9595.83
251.792	9567.85
251.863	9569.54
251.934	9616.06
252.005	9703.8
252.075	9709.53
252.146	9747.81
252.217	9785.53
252.287	9821.94
252.358	9825.12
252.429	9887.45
252.499	9876.19
252.57	9884.76
252.641	9912.99
252.711	9918.58
252.782	9884.67
252.852	9940.21
252.923	9942.24
252.994	9962.04
253.064	10004.8
253.135	9991.79
253.205	9973.44
253.276	10023.67
253.347	10078.19
253.417	10056.46
253.488	10041.82
253.558	10036.71
253.629	10038.83
253.699	10055.98
253.77	10070
253.841	10065.86
253.911	10072.27
253.982	10090.57
254.052	10114.23
254.123	10122.23
254.193	10129.11
254.264	10238.34
254.334	10212.56
254.405	10185.93
254.475	10152.16
254.546	10154.04
254.616	10209.19
254.687	10226.72
254.757	10245.32
254.827	10243.25
254.898	10274.03
254.968	10279.76
255.039	10269.26
255.109	10300.04
255.18	10273.79
255.25	10222.48
255.321	10249.12
255.391	10216.94
255.461	10281.44
255.532	10215.77
255.602	10215.38
255.673	10172.12
255.743	10151.06
255.813	10097.75
255.884	10136
255.954	10168.95
256.024	10217.99
256.095	10223.92
256.165	10202.39
256.235	10217.42
256.306	10206.97
256.376	10229.71
256.446	10257.22
256.517	10282.13
256.587	10313.49
256.657	10331.8
256.728	10351.74
256.798	10355.35
256.868	10357.42
256.938	10337.38
257.009	10379.92
257.079	10402.61
257.149	10480.95
257.219	10427.47
257.29	10465.61
257.36	10422.35
257.43	10447.46
257.5	10406.36
257.571	10387.28
257.641	10409.2
257.711	10389.63
257.781	10415.12
257.852	10431.74
257.922	10392.81
257.992	10397.05
258.062	10383.46
258.132	10416.61
258.202	10417.58
258.273	10439.16
258.343	10494.38
258.413	10485.37
258.483	10484.17
258.553	10457.96
258.623	10445.19
258.693	10471.26
258.764	10517.84
258.834	10578.74
258.904	10594.16
258.974	10582.26
259.044	10592.19
259.114	10622.83
259.184	10645.04
259.254	10653.19
259.324	10613.92
259.394	10647.3
259.464	10706.29
259.535	10722.77
259.605	10714.77
259.675	10712.98
259.745	10735.87
259.815	10713.32
259.885	10714.24
259.955	10804.37
260.025	10804.51
260.095	10801.62
260.165	10828.08
260.235	10871.89
260.305	10857.53
260.375	10838.06
260.445	10910.28
260.515	10960.35
260.585	10992.01
260.655	11002.57
260.725	11039.53
260.795	11067.91
260.865	11119.28
260.934	11096
261.004	11118.17
261.074	11123.72
261.144	11174.74
261.214	11197.78
261.284	11200.77
261.354	11234.78
261.424	11198.97
261.494	11252.45
261.564	11263.54
261.634	11279.15
261.703	11227.39
261.773	11253.75
261.843	11283.05
261.913	11271.58
261.983	11232.02
262.053	11249.46
262.123	11239.1
262.192	11204.55
262.262	11233.76
262.332	11193.42
262.402	11219.92
262.472	11228.21
262.541	11189.57
262.611	11226.78
262.681	11205.86
262.751	11232.75
262.821	11235.6
262.89	11210.58
262.96	11230.34
263.03	11285.39
263.1	11308.33
263.169	11333.82
263.239	11350.11
263.309	11396.91
263.379	11427.32
263.448	11445.15
263.518	11470.85
263.588	11487.66
263.657	11549.11
263.727	11578.42
263.797	11599.14
263.867	11603.43
263.936	11573.02
264.006	11612.72
264.076	11601.06
264.145	11606.69
264.215	11601.92
264.285	11637.69
264.354	11607.85
264.424	11604.43
264.494	11569.82
264.563	11560.57
264.633	11616.67
264.702	11640.15
264.772	11600.86
264.842	11598.4
264.911	11628.72
264.981	11594.06
265.05	11601.53
265.12	11594.74
265.19	11600.47
265.259	11637.34
265.329	11656.09
265.398	11675.61
265.468	11755.77
265.537	11759.91
265.607	11784.35
265.676	11825.99
265.746	11839.35
265.815	11880.65
265.885	11890.96
265.955	11885.81
266.024	11886
266.094	11837.12
266.163	11883.98
266.232	11933.19
266.302	11936.61
266.371	11951.31
266.441	11965.15
266.51	12006.65
266.58	12011.52
266.649	12010.17
266.719	12044.05
266.788	12068.73
266.858	12120.45
266.927	12069.65
266.996	12084.45
267.066	12116.55
267.135	12089.08
267.205	12119.93
267.274	12143.16
267.343	12186.25
267.413	12199.12
267.482	12248.87
267.552	12303.58
267.621	12261.83
267.69	12228.33
267.76	12255.71
267.829	12281.45
267.898	12302.56
267.968	12289.31
268.037	12325.26
268.106	12363.15
268.176	12339.73
268.245	12346.28
268.314	12345.94
268.384	12403.11
268.453	12426.15
268.522	12440.04
268.592	12492.1
268.661	12486.07
268.73	12511.28
268.799	12497.3
268.869	12562.23
268.938	12520.73
269.007	12517.35
269.076	12548.25
269.146	12593.27
269.215	12621.43
269.284	12676.72
269.353	12671.8
269.422	12685.68
269.492	12675.75
269.561	12616.32
269.63	12643.55
269.699	12641.29
269.768	12662.89
269.838	12673.39
269.907	12710.32
269.976	12690.46
270.045	12648.14
270.114	12676.24
270.183	12685.83
270.253	12707.24
270.322	12665.3
270.391	12695.71
270.46	12744.11
270.529	12770.72
270.598	12804.66
270.667	12807.65
270.736	12781.52
270.806	12810.69
270.875	12853.68
270.944	12869.79
271.013	12971.35
271.082	12993.87
271.151	13026.65
271.22	12994.69
271.289	13000.86
271.358	13001.15
271.427	13028.28
271.496	13061.83
271.565	13056.58
271.634	13073.79
271.703	13171.7
271.772	13230.02
271.841	13245.45
271.91	13224.67
271.979	13239.86
272.048	13219.37
272.117	13252.58
272.186	13263.62
272.255	13308.6
272.324	13339.69
272.393	13370.06
272.462	13362.3
272.531	13380.19
272.6	13389.78
272.669	13455.53
272.738	13468.4
272.807	13497.47
272.876	13495.88
272.945	13596.05
273.013	13656.41
273.082	13708.13
273.151	13636.16
273.22	13658.1
273.289	13682.92
273.358	13744.15
273.427	13755.57
273.496	13796.84
273.564	13826.1
273.633	13868.47
273.702	13858.83
273.771	13871.17
273.84	13893.01
273.909	13933.02
273.977	13973.22
274.046	13993.56
274.115	14035.41
274.184	14036.71
274.253	14050.21
274.322	14101.35
274.39	14062.84
274.459	14050.3
274.528	14011.79
274.597	14036.71
274.665	14067.13
274.734	14114.76
274.803	14128.2
274.872	14152.93
274.94	14147.25
275.009	14315.07
275.078	14309
275.147	14341.3
275.215	14362.75
275.284	14422.28
275.353	14428.89
275.421	14395.14
275.49	14461.71
275.559	14459.01
275.627	14481.72
275.696	14499.94
275.765	14537.01
275.833	14550.17
275.902	14594.66
275.971	14660.9
276.039	14736.39
276.108	14767.33
276.177	14799.92
276.245	14805.03
276.314	14829.9
276.383	14881.53
276.451	14768.61
276.52	14814.79
276.588	14870.17
276.657	14916.78
276.725	14918.76
276.794	14962.19
276.863	15034.01
276.931	15011.21
277	15070.12
277.068	15123.1
277.137	15200.46
277.205	15229.09
277.274	15309.59
277.342	15367.14
277.411	15357.79
277.48	15361.36
277.548	15374.03
277.617	15402.81
277.685	15426.57
277.754	15473.33
277.822	15491.6
277.89	15547.85
277.959	15566.26
278.027	15556.43
278.096	15557.25
278.164	15655.96
278.233	15654.75
278.301	15651.67
278.37	15700.06
278.438	15704.4
278.507	15749.08
278.575	15721.8
278.643	15748.26
278.712	15724.6
278.78	15717.46
278.849	15778.58
278.917	15830.83
278.985	15861.68
279.054	15899.18
279.122	15967.52
279.191	15992.78
279.259	16021.65
279.327	16005.21
279.396	16077.13
279.464	16109.42
279.532	16168.27
279.601	16194.53
279.669	16221.86
279.737	16298.55
279.806	16347.08
279.874	16405.98
279.942	16432.29
280.011	16454.8
280.079	16512.25
280.147	16602.04
280.215	16654.34
280.284	16673.33
280.352	16678.34
280.42	16733.04
280.488	16754.3
280.557	16766.73
280.625	16811.84
280.693	16847.02
280.761	16892.86
280.83	16888.09
280.898	16951.56
280.966	16942.98
281.034	16893.87
281.102	16900.67
281.171	16913.3
281.239	16966.98
281.307	16976.04
281.375	16995.61
281.443	17103.9
281.512	17128.86
281.58	17182.55
281.648	17175.03
281.716	17213.97
281.784	17247.71
281.852	17273.06
281.92	17306.99
281.989	17375.81
282.057	17370.74
282.125	17476.96
282.193	17507.42
282.261	17542.31
282.329	17562.84
282.397	17604.38
282.465	17650.6
282.533	17726.84
282.601	17742.94
282.67	17715.57
282.738	17734.12
282.806	17790.99
282.874	17787.81
282.942	17831.9
283.01	17845.78
283.078	17894.45
283.146	17918.45
283.214	17975.71
283.282	18010.55
283.35	18070.79
283.418	18081.1
283.486	18131.65
283.554	18097.68
283.622	18129.19
283.69	18171.12
283.758	18199.6
283.826	18251.12
283.894	18313.62
283.962	18394.92
284.03	18463.15
284.098	18513.56
284.165	18543.2
284.233	18581.17
284.301	18606.23
284.369	18610.86
284.437	18624.01
284.505	18648.21
284.573	18734.37
284.641	18747.72
284.709	18807.33
284.777	18800.2
284.845	18857.45
284.912	18911.13
284.98	18967.37
285.048	18996.04
285.116	19040.71
285.184	19112.8
285.252	19148.08
285.319	19144.66
285.387	19153.19
285.455	19153.52
285.523	19208.99
285.591	19240.84
285.659	19280.51
285.726	19343.3
285.794	19353.95
285.862	19386.09
285.93	19428.74
285.997	19449.65
286.065	19471.34
286.133	19477.12
286.201	19512.97
286.269	19514.08
286.336	19517.99
286.404	19540.25
286.472	19596.15
286.539	19586.22
286.607	19576.83
286.675	19621.26
286.743	19674.65
286.81	19693.01
286.878	19764.67
286.946	19780.24
287.013	19813.92
287.081	19838.21
287.149	19836
287.216	19924.43
287.284	19949.49
287.352	19986.21
287.419	20003.65
287.487	20083.12
287.555	20130.83
287.622	20160.71
287.69	20213
287.758	20289.58
287.825	20308.37
287.893	20316.81
287.96	20364.71
288.028	20435.17
288.096	20477.58
288.163	20529.19
288.231	20549.67
288.298	20579.65
288.366	20650.31
288.433	20686.79
288.501	20705.53
288.569	20744.91
288.636	20766.16
288.704	20832.04
288.771	20888.24
288.839	20909.78
288.906	20918.41
288.974	20975.24
289.041	21017.21
289.109	21030.37
289.176	21077.99
289.244	21128.5
289.311	21195.98
289.379	21266.73
289.446	21303.99
289.514	21336.91
289.581	21370.55
289.649	21410.8
289.716	21450.13
289.783	21462.37
289.851	21550.14
289.918	21593.76
289.986	21656.66
290.053	21696.91
290.121	21734.9
290.188	21776.25
290.255	21881.77
290.323	21915.51
290.39	21941.01
290.458	21990.95
290.525	22060.36
290.592	22077
290.66	22121.39
290.727	22153.26
290.794	22218
290.862	22251.07
290.929	22304.53
290.996	22343.82
291.064	22412.9
291.131	22483.49
291.198	22556
291.266	22581.69
291.333	22625.85
291.4	22673.05
291.468	22759.02
291.535	22783.7
291.602	22831.97
291.669	22847.35
291.737	22892.81
291.804	22930.56
291.871	23008
291.938	23059.4
292.006	23173.36
292.073	23236.81
292.14	23299.6
292.207	23314.59
292.275	23359.53
292.342	23406.07
292.409	23499.82
292.476	23592.62
292.543	23609.16
292.611	23643.64
292.678	23727.32
292.745	23832.74
292.812	23892.79
292.879	23906.15
292.946	23962.47
293.014	24027.97
293.081	24086.57
293.148	24161.76
293.215	24235.8
293.282	24256.97
293.349	24318.62
293.416	24305.5
293.484	24376.7
293.551	24435.89
293.618	24516.93
293.685	24619.55
293.752	24641.64
293.819	24674.74
293.886	24679.57
293.953	24727.23
294.02	24790.38
294.087	24836.66
294.154	24848.86
294.221	24929.36
294.288	24982.43
294.356	25048.24
294.423	25097.99
294.49	25120.28
294.557	25183.73
294.624	25191.16
294.691	25278.36
294.758	25322.86
294.825	25383.13
294.892	25407.11
294.959	25447.12
295.026	25506.39
295.093	25524.35
295.16	25566.62
295.226	25603.01
295.293	25713.23
295.36	25778.82
295.427	25854.85
295.494	25924.86
295.561	25984.18
295.628	26076.29
295.695	26148.94
295.762	26207.69
295.829	26280.6
295.896	26370.2
295.963	26445.33
296.03	26526.87
296.096	26580.37
296.163	26647.83
296.23	26731.47
296.297	26816.5
296.364	26858.41
296.431	26916.51
296.498	26941.18
296.564	27051.27
296.631	27110.09
296.698	27109.75
296.765	27193.79
296.832	27205.24
296.899	27213.59
296.965	27306.1
297.032	27296.38
297.099	27386.11
297.166	27454.85
297.233	27482
297.299	27502.77
297.366	27535.29
297.433	27589.78
297.5	27659.41
297.566	27709.81
297.633	27751.47
297.7	27789.3
297.767	27826.88
297.833	27886.61
297.9	27947.34
297.967	27945.02
298.033	28020.26
298.1	28127.23
298.167	28156.18
298.234	28213.29
298.3	28291.72
298.367	28318.02
298.434	28366.69
298.5	28372.45
298.567	28400.96
298.634	28436.68
298.7	28522.9
298.767	28575.4
298.834	28634.91
298.9	28651.63
298.967	28667.63
299.033	28729.09
299.1	28812.11
299.167	28892.89
299.233	28915.22
299.3	28986.92
299.366	29073.78
299.433	29151.37
299.5	29128.2
299.566	29173.51
299.633	29240.58
299.699	29300.74
299.766	29332.95
299.832	29394.18
299.899	29465.38
299.965	29540.63
300.032	29572.3
300.099	29622.7
300.165	29677.61
300.232	29710.54
300.298	29760.51
300.365	29837.46
300.431	29883.18
300.498	29896.15
300.564	29956.86
300.631	30038.49
300.697	30105.55
300.763	30135.05
300.83	30177.55
300.896	30257.57
300.963	30321.68
301.029	30385.46
301.096	30428.73
301.162	30496.9
301.229	30526.22
301.295	30537.31
301.361	30579.22
301.428	30634.08
301.494	30640.8
301.561	30675.89
301.627	30722.01
301.693	30775.1
301.76	30820.16
301.826	30839.96
301.892	30909.86
301.959	30958.7
302.025	30974.44
302.092	31003.29
302.158	31076.04
302.224	31101.07
302.291	31117.53
302.357	31144.98
302.423	31165.56
302.49	31173.84
302.556	31233.93
302.622	31274.79
302.688	31342.71
302.755	31413.23
302.821	31474.61
302.887	31540.78
302.954	31581.36
303.02	31651.29
303.086	31696.85
303.152	31728.62
303.219	31761.11
303.285	31814.88
303.351	31871.6
303.417	31906.86
303.483	31924.63
303.55	31939.16
303.616	31977.48
303.682	32006.82
303.748	32033.89
303.815	32107.04
303.881	32177.75
303.947	32193.35
304.013	32240.62
304.079	32260.44
304.145	32244.26
304.212	32293.33
304.278	32309.11
304.344	32335.27
304.41	32335.51
304.476	32347.72
304.542	32388.46
304.608	32442.58
304.674	32437.54
304.741	32457.41
304.807	32505.18
304.873	32561.66
304.939	32636.38
305.005	32616.8
305.071	32670.14
305.137	32717.71
305.203	32689.99
305.269	32726.29
305.335	32797.78
305.401	32815.85
305.467	32853.74
305.533	32916.64
305.599	32964.67
305.666	33025.92
305.732	33066.48
305.798	33134.03
305.864	33237.86
305.93	33276.54
305.996	33307.17
306.062	33340.94
306.128	33364.16
306.194	33363.92
306.259	33387.09
306.325	33394.12
306.391	33463.71
306.457	33504.52
306.523	33528.51
306.589	33627.74
306.655	33640.24
306.721	33611.74
306.787	33620.61
306.853	33692.65
306.919	33679.33
306.985	33677.24
307.051	33692.22
307.117	33706.95
307.183	33719.12
307.248	33680.62
307.314	33721.74
307.38	33760.33
307.446	33811.19
307.512	33819.77
307.578	33882.07
307.644	33915.28
307.709	33954.07
307.775	33967.2
307.841	33991.59
307.907	34030.04
307.973	34006.47
308.039	34044.29
308.104	34098.49
308.17	34141.93
308.236	34121.9
308.302	34163.74
308.368	34170.38
308.433	34201.17
308.499	34222.26
308.565	34230.26
308.631	34267.69
308.696	34233.99
308.762	34224.63
308.828	34239.76
308.894	34233.99
308.959	34197.68
309.025	34204.13
309.091	34228.33
309.156	34246.42
309.222	34290.89
309.288	34289.14
309.354	34269.22
309.419	34288.37
309.485	34290.22
309.551	34319.07
309.616	34322.37
309.682	34349.58
309.748	34371.78
309.813	34388.37
309.879	34395.4
309.945	34398.4
310.01	34411.31
310.076	34451.36
310.141	34469.74
310.207	34466.2
310.273	34508.77
310.338	34562.21
310.404	34547.76
310.469	34545.04
310.535	34555.32
310.601	34518.22
310.666	34562.55
310.732	34623.6
310.797	34626.46
310.863	34621.95
310.928	34643.15
310.994	34671.23
311.059	34687.48
311.125	34709.3
311.191	34762.33
311.256	34778.23
311.322	34818.68
311.387	34794.92
311.453	35621.19
311.518	35619.25
311.584	35636.37
311.649	35665.67
311.715	35663.92
311.78	35703.49
311.846	35711.11
311.911	35759.04
311.976	35793.18
312.042	35783.09
312.107	35770.68
312.173	35774.65
312.238	35798.27
312.304	35813.17
312.369	35820.64
312.434	35820.01
312.5	35843.09
312.565	35794.29
312.631	35822.03
312.696	35822.81
312.761	35859.82
312.827	35068.04
312.892	35164.54
312.958	35199.62
313.023	35224.75
313.088	35259.53
313.154	35254.05
313.219	35251.67
313.284	35255.22
313.35	35264.19
313.415	35269.28
313.48	35279.86
313.546	35313.72
313.611	35364.95
313.676	35370.58
313.741	35368.5
313.807	35414.2
313.872	35433.61
313.937	35473.14
314.003	35527.93
314.068	35549.66
314.133	35587.65
314.198	35587.02
314.264	35555.76
314.329	35547.37
314.394	35555.96
314.459	35559.94
314.525	35633.39
314.59	35657.6
314.655	35656.24
314.72	35714.52
314.785	35743.05
314.851	35763.91
314.916	35758.23
314.981	35729.26
315.046	35723.78
315.111	35734.69
315.176	35730.96
315.242	35758.47
315.307	35780.07
315.372	35750.66
315.437	35777.54
315.502	35787.15
315.567	35842.76
315.632	35835.63
315.698	35872.02
315.763	35879.59
315.828	35885.8
315.893	35881.97
315.958	35891.53
316.023	35879.35
316.088	35828.93
316.153	35794.58
316.218	35784.3
316.283	35731.67
316.348	35706.2
316.413	35708.77
316.479	35676.03
316.544	35591.48
316.609	35507.79
316.674	35414.9
316.739	35327.11
316.804	35226.5
316.869	35121.44
316.934	35010.92
316.999	34921.05
317.064	34765.84
317.129	34638.57
317.194	34524.85
317.259	34387.49
317.324	34232.93
317.389	34094.26
317.454	33970.38
317.518	33852.77
317.583	33753.61
317.648	33667.62
317.713	33554.28
317.778	33376.47
317.843	33258.59
317.908	33124.81
317.973	32995.85
318.038	32891.18
318.103	32760.71
318.168	32641.37
318.233	32523.73
318.297	32346.67
318.362	32200.71
318.427	32057.08
318.492	31947.46
318.557	31775.23
318.622	31650.51
318.687	31540.8
318.751	31386.78
318.816	31246.23
318.881	31108.6
318.946	30921.1
319.011	30745.64
319.075	30578.57
319.14	30424.8
319.205	30263.51
319.27	30123.17
319.335	29950.08
319.399	29774.84
319.464	29635.92
319.529	29430.05
319.594	29256.89
319.658	29118.55
319.723	28941.25
319.788	28790.09
319.853	28577.6
319.917	28429.62
319.982	28226.83
320.047	28048.39
320.112	27908.5
320.176	27720.29
320.241	27561.84
320.306	27401.3
320.37	27229.48
320.435	27065.68
320.5	26912.29
320.564	26729.97
320.629	26537.08
320.694	26380.15
320.758	26198.51
320.823	25999.51
320.888	25855.29
320.952	25646.2
321.017	25454.06
321.082	25269
321.146	25096.19
321.211	24925.05
321.275	24740.99
321.34	24539.78
321.405	24353.57
321.469	24144.7
321.534	23948.73
321.598	23722.51
321.663	23556.83
321.727	23387.74
321.792	23182.49
321.857	22984.3
321.921	22799.76
321.986	22607.5
322.05	22378.3
322.115	22187.09
322.179	21994.55
322.244	21766.3
322.308	21600.48
322.373	21389.89
322.437	21200.37
322.502	21048.96
322.566	20855.69
322.631	20667.91
322.695	20481.21
322.76	20277.2
322.824	20097.92
322.889	19896.67
322.953	19693.73
323.018	19440.61
323.082	19176.13
323.146	18956.13
323.211	18736.28
323.275	18531.71
323.34	18326.65
323.404	18138.84
323.468	17929.11
323.533	17717.69
323.597	17504.76
323.662	17273.09
323.726	17089.57
323.79	16875.63
323.855	16619.33
323.919	16390.5
323.983	16184.16
324.048	15866.76
324.112	15989.07
324.177	15339.6
324.241	14501.88
324.305	13679.65
324.37	12868.9
324.434	12090.58
324.498	11865.88
324.562	11616.99
324.627	11332.17
324.691	11054.94
324.755	10742.09
324.82	10391.86
324.884	10025.64
324.948	9649.33
325.012	9199.51
325.077	8645.91
