Data from 20250626_urea_1M_exp2_MAYP1162681_16-24-00-863.txt Node
Date: Thu Jun 26 16:24:00 BST 2025
User: adleo
Spectrometer: MAYP116268
Trigger mode: 0
Integration Time (sec): 3.000000E0
Scans to average: 1
Electric dark correction enabled: true
Nonlinearity correction enabled: true
Boxcar width: 10
XAxis mode: Wavelengths
Number of Pixels in Spectrum: 2068
>>>>>Begin Spectral Data<<<<<
179.565	3358.39
179.642	3534.62
179.718	3659.67
179.795	3788.2
179.871	3895.3
179.948	3957.01
180.024	4023.59
180.101	4096.63
180.177	4136.57
180.254	4204.1
180.33	4277.29
180.407	4512
180.483	4777.8
180.56	5043.45
180.636	5291.28
180.712	5252.45
180.789	5279.14
180.865	5312.62
180.942	5343.47
181.018	5376.25
181.095	5422.77
181.171	5433.74
181.248	5439.26
181.324	5492.92
181.4	5507.78
181.477	5533.87
181.553	5565.77
181.63	5628.26
181.706	5667.97
181.782	5705.1
181.859	5710.28
181.935	5725.1
182.011	5719.06
182.088	5765.54
182.164	5822.36
182.24	5856.83
182.317	5889.09
182.393	5880.85
182.469	5922.96
182.546	5955.43
182.622	5968.19
182.698	5957.01
182.775	6004.02
182.851	6037.12
182.927	6010.83
183.003	6004.12
183.08	5990.74
183.156	6022.88
183.232	6015.53
183.308	5988.19
183.385	6001.24
183.461	6043.6
183.537	6042.54
183.613	6077.67
183.69	6048.97
183.766	6020.02
183.842	6044.02
183.918	6056.87
183.995	6094
184.071	6103.03
184.147	6088.87
184.223	6053.11
184.299	6085.46
184.375	6045.54
184.452	6066.52
184.528	6185.8
184.604	6218.67
184.68	6248.79
184.756	6267.61
184.832	6276.25
184.908	6291.17
184.985	6295.68
185.061	6252.69
185.137	6282.4
185.213	6248.24
185.289	6253.52
185.365	6229.05
185.441	6224.01
185.517	6267.13
185.593	6261.42
185.669	6252.54
185.745	6280.95
185.822	6337.74
185.898	6313.11
185.974	6339.11
186.05	6318.27
186.126	6249.67
186.202	6225.44
186.278	6212.48
186.354	6187.38
186.43	6203.03
186.506	6195.74
186.582	6189.55
186.658	6215.64
186.734	6154.38
186.81	6166.03
186.886	6171.55
186.962	6209.22
187.038	6197.84
187.114	6174.4
187.19	6190.05
187.266	6162.42
187.341	6175.19
187.417	6146.31
187.493	6147.79
187.569	6160.95
187.645	6140.27
187.721	6102.1
187.797	6124.27
187.873	6138.28
187.949	6117.99
188.025	6097.63
188.101	6105.74
188.176	6121.09
188.252	6101.95
188.328	6127.46
188.404	6120.84
188.48	6108.13
188.556	6081.64
188.632	6083.17
188.707	6082.5
188.783	6079.38
188.859	6074.87
188.935	6030.28
189.011	6055.09
189.086	6038.15
189.162	6010.08
189.238	6010.42
189.314	6004.18
189.39	5988.44
189.465	5971.74
189.541	6025.73
189.617	5989.85
189.693	5980.74
189.768	5991.39
189.844	6056.44
189.92	6028.1
189.996	6055.55
190.071	6089.33
190.147	6086.79
190.223	6110.74
190.298	6090.39
190.374	6052.63
190.45	6079.73
190.526	6107.61
190.601	6093.12
190.677	6097.39
190.753	6182.11
190.828	6192.18
190.904	6233.27
190.98	6274.07
191.055	6301.72
191.131	6273.34
191.207	6328.38
191.282	6354.82
191.358	6326.94
191.433	6293.66
191.509	6331.87
191.585	6322.99
191.66	6321.94
191.736	6351.31
191.811	6322.22
191.887	6365.24
191.963	6433.98
192.038	6448.62
192.114	6453.9
192.189	6466.24
192.265	6453.67
192.34	6384.69
192.416	6382.82
192.491	6376.04
192.567	6383.15
192.642	6395.78
192.718	6396.7
192.793	6362.85
192.869	6351.34
192.944	6353.93
193.02	6374.38
193.095	6386.67
193.171	6407.7
193.246	6410.58
193.322	6396.85
193.397	6399.39
193.473	6362.89
193.548	6311.57
193.624	6334.19
193.699	6325.59
193.775	6368.72
193.85	6373.42
193.925	6398.38
194.001	6390.52
194.076	6363.88
194.152	6329.16
194.227	6305.54
194.302	6280.78
194.378	6295.32
194.453	6282.66
194.529	6321.06
194.604	6282.46
194.679	6270.8
194.755	6210.11
194.83	6245.27
194.905	6241.77
194.981	6267.64
195.056	6243.51
195.131	6260.45
195.207	6248.1
195.282	6219.94
195.357	6163.9
195.433	6210.26
195.508	6179.4
195.583	6212.17
195.659	6258.17
195.734	6283.38
195.809	6281.27
195.884	6298.63
195.96	6294.74
196.035	6341.39
196.11	6332.13
196.185	6364.38
196.261	6366.73
196.336	6460.96
196.411	6418.11
196.486	6431.65
196.561	6412.06
196.637	6443.88
196.712	6487.63
196.787	6495.75
196.862	6543.8
196.937	6574.76
197.013	6592.43
197.088	6616.67
197.163	6665.88
197.238	6710.63
197.313	6710.87
197.388	6746.12
197.464	6834.86
197.539	6872.31
197.614	6849.79
197.689	6883.95
197.764	6927.53
197.839	6985.74
197.914	6973.39
197.989	7037.82
198.065	7083.7
198.14	7236.99
198.215	7312.49
198.29	7347.25
198.365	7387.04
198.44	7415.83
198.515	7495.38
198.59	7535.19
198.665	7610.85
198.74	7638.26
198.815	7641.48
198.89	7705.56
198.965	7797.13
199.04	7791.03
199.115	7827.9
199.19	7955.01
199.265	7968.08
199.34	7995.16
199.415	8098.42
199.49	8154.06
199.565	8181.86
199.64	8248.24
199.715	8237.64
199.79	8251.88
199.865	8274.93
199.94	8269.83
200.015	8367.6
200.09	8385.7
200.165	8405.08
200.24	8425.1
200.315	8536.09
200.39	8584.69
200.464	8601.24
200.539	8600.08
200.614	8642.61
200.689	8714.85
200.764	8731.51
200.839	8778.79
200.914	8800.34
200.989	8759.76
201.063	8801.53
201.138	8746.33
201.213	8749.61
201.288	8687
201.363	8694.79
201.438	8690.75
201.512	8736.88
201.587	8681.77
201.662	8693.03
201.737	8727.59
201.812	8752.71
201.886	8654.86
201.961	8683.37
202.036	8647.05
202.111	8640.02
202.186	8552.7
202.26	8506.2
202.335	8444.93
202.41	8428
202.485	8374.17
202.559	8328.13
202.634	8250.04
202.709	8283.89
202.784	8221.16
202.858	8223.61
202.933	8180.17
203.008	8159.63
203.082	8102.45
203.157	8101.29
203.232	7971.16
203.306	7907.79
203.381	7814.42
203.456	7752.62
203.53	7675.32
203.605	7618.38
203.68	7545.22
203.754	7530.82
203.829	7481.67
203.904	7423.74
203.978	7389.07
204.053	7404.36
204.127	7362.07
204.202	7354.47
204.277	7303.05
204.351	7283.82
204.426	7256.61
204.5	7234.31
204.575	7132.03
204.65	7158.24
204.724	7128.99
204.799	7156.51
204.873	7146.36
204.948	7139.59
205.022	7104.86
205.097	7081.34
205.171	7128.09
205.246	7160.3
205.32	7154.45
205.395	7153.34
205.469	7123.91
205.544	7144.1
205.618	7088.55
205.693	7119.88
205.767	7083.08
205.842	7141.86
205.916	7130.86
205.991	7109.05
206.065	7117.74
206.14	7162.91
206.214	7151.66
206.289	7135.51
206.363	7169.67
206.438	7182.27
206.512	7209.67
206.586	7266.6
206.661	7297.81
206.735	7226.78
206.81	7228.99
206.884	7278.81
206.958	7241.73
207.033	7291.43
207.107	7302.74
207.181	7396.3
207.256	7380.39
207.33	7440.41
207.405	7476.21
207.479	7524.52
207.553	7545.08
207.628	7502.57
207.702	7538.52
207.776	7515.4
207.851	7524.77
207.925	7571.04
207.999	7555.65
208.073	7542
208.148	7546.47
208.222	7509.93
208.296	7602.21
208.371	7647.15
208.445	7675.96
208.519	7756.71
208.593	7792.05
208.668	7776.75
208.742	7783.25
208.816	7793.34
208.89	7834.28
208.965	7830.92
209.039	7856.51
209.113	7900.75
209.187	7965.09
209.261	7951.15
209.336	8013.66
209.41	8071
209.484	8069.89
209.558	8140.18
209.632	8181.68
209.707	8211.84
209.781	8273.7
209.855	8327.64
209.929	8370.64
210.003	8387.38
210.077	8383.77
210.151	8520.09
210.226	8626.56
210.3	8702.21
210.374	8767.25
210.448	8773.75
210.522	8807.11
210.596	8837.34
210.67	8871.46
210.744	9007.8
210.818	9101.37
210.892	9159.14
210.966	9139.65
211.041	9183.02
211.115	9163.82
211.189	9235.21
211.263	9287.39
211.337	9307.51
211.411	9348.2
211.485	9331.97
211.559	9365.52
211.633	9377.55
211.707	9290.8
211.781	9311.27
211.855	9209.73
211.929	9187.25
212.003	9136.88
212.077	9162.31
212.151	9195.73
212.225	9217.35
212.299	9180.73
212.373	9148.96
212.447	9137.31
212.52	9220.36
212.594	9233.75
212.668	9273.36
212.742	9225.89
212.816	9210.92
212.89	9196.76
212.964	9189.2
213.038	9198.64
213.112	9233.55
213.186	9273.84
213.26	9203.6
213.333	9066.41
213.407	9079.84
213.481	9092.06
213.555	9120.2
213.629	9082.4
213.703	9030.25
213.777	9022.6
213.85	8959.43
213.924	9054.06
213.998	9049.1
214.072	9027.9
214.146	8978.17
214.219	8963.87
214.293	8951.89
214.367	8947.31
214.441	8964.45
214.515	8921.93
214.588	8847.04
214.662	8737.83
214.736	8670.85
214.81	8691.77
214.883	8715.81
214.957	8674.97
215.031	8624.85
215.105	8550
215.178	8492.83
215.252	8466.51
215.326	8384.57
215.4	8315.27
215.473	8160
215.547	8080.98
215.621	8022.2
215.694	8020.66
215.768	7939.7
215.842	7883.43
215.915	7828.48
215.989	7727.13
216.063	7673.34
216.136	7657.08
216.21	7639.3
216.284	7645.84
216.357	7625.3
216.431	7591.69
216.504	7584.77
216.578	7628.15
216.652	7638.43
216.725	7623.96
216.799	7622.56
216.873	7604.44
216.946	7615.4
217.02	7585.18
217.093	7563.79
217.167	7487.11
217.24	7419.25
217.314	7380.48
217.387	7342.29
217.461	7300.33
217.535	7325.61
217.608	7277.65
217.682	7256.45
217.755	7265.92
217.829	7220.39
217.902	7202.27
217.976	7182.57
218.049	7146.67
218.123	7081.71
218.196	7080.65
218.27	7043.7
218.343	6989.57
218.417	6987.64
218.49	6966.7
218.563	7003.74
218.637	7013.21
218.71	7070.84
218.784	7090.3
218.857	7122.2
218.931	7143.52
219.004	7151.16
219.077	7169.2
219.151	7185.87
219.224	7176.88
219.298	7172.7
219.371	7212.84
219.444	7181.18
219.518	7187.86
219.591	7204.34
219.665	7297.89
219.738	7316.73
219.811	7308.51
219.885	7345.81
219.958	7375.71
220.031	7381.14
220.105	7397.15
220.178	7407.87
220.251	7390.32
220.325	7412.87
220.398	7426.04
220.471	7438.1
220.544	7472.76
220.618	7449.25
220.691	7478.14
220.764	7494.72
220.838	7525.73
220.911	7514.77
220.984	7590.37
221.057	7625.94
221.131	7647.91
221.204	7564.73
221.277	7625.1
221.35	7732.28
221.424	7726.75
221.497	7738.39
221.57	7758.43
221.643	7785.03
221.716	7819.37
221.79	7823.36
221.863	7833.71
221.936	7842.36
222.009	7862.12
222.082	7890.79
222.155	7906.8
222.229	7963.43
222.302	7990.98
222.375	7996.18
222.448	8028.54
222.521	8037.83
222.594	8040.67
222.667	8015.43
222.74	8065.69
222.814	8052.84
222.887	8044.03
222.96	8091.7
223.033	8130.29
223.106	8153.8
223.179	8184.12
223.252	8197.12
223.325	8221.93
223.398	8232.95
223.471	8269.9
223.544	8291.58
223.617	8299.96
223.69	8314.58
223.763	8271.85
223.837	8288.74
223.91	8312.99
223.983	8275.91
224.056	8246.47
224.129	8262.82
224.202	8316.24
224.275	8305.36
224.348	8283.52
224.42	8250.9
224.493	8207.03
224.566	8177.82
224.639	8197.59
224.712	8171.12
224.785	8159.23
224.858	8158.08
224.931	8149.22
225.004	8108.77
225.077	8104.73
225.15	8027.4
225.223	8028.12
225.296	8107.88
225.369	8067.09
225.442	8041.74
225.514	8054
225.587	8070.44
225.66	8086.71
225.733	8090.51
225.806	8097.29
225.879	8089.69
225.952	8060.12
226.025	8102.41
226.097	8154.1
226.17	8139.71
226.243	8088.11
226.316	8086.91
226.389	8087.97
226.461	8104.47
226.534	8126.11
226.607	8122.46
226.68	8191.17
226.753	8188.38
226.825	8119.69
226.898	8165.05
226.971	8167.26
227.044	8191.5
227.117	8199.83
227.189	8208.34
227.262	8242.18
227.335	8260.99
227.407	8267.44
227.48	8299.27
227.553	8299.36
227.626	8288.87
227.698	8308.3
227.771	8347.98
227.844	8335.85
227.916	8357.84
227.989	8326.18
228.062	8327.67
228.134	8404.15
228.207	8412.14
228.28	8409.01
228.352	8422.44
228.425	8436.92
228.498	8477.63
228.57	8462.24
228.643	8515.04
228.716	8522.84
228.788	8510.85
228.861	8507.58
228.934	8562.58
229.006	8576.34
229.079	8589.86
229.151	8577.25
229.224	8545.36
229.296	8562.1
229.369	8655.12
229.442	8704.27
229.514	8697.83
229.587	8736.28
229.659	8672.89
229.732	8683.28
229.804	8720.72
229.877	8790.92
229.949	8817.92
230.022	8865.21
230.094	8869.93
230.167	8862.75
230.239	8823.58
230.312	8812.9
230.384	8881.51
230.457	8877.61
230.529	8888.01
230.602	8890.46
230.674	8902.35
230.747	8938.14
230.819	8966.92
230.892	8860.59
230.964	8855.2
231.037	8876.31
231.109	8874.34
231.181	8914.86
231.254	8890.22
231.326	8880.88
231.399	8863.25
231.471	8837.16
231.544	8772.11
231.616	8812
231.688	8815.85
231.761	8806.81
231.833	8804.45
231.905	8721.07
231.978	8726.56
232.05	8710.05
232.122	8713.76
232.195	8696
232.267	8734.99
232.339	8721.65
232.412	8785.94
232.484	8759.8
232.556	8735.46
232.629	8792.67
232.701	8806.29
232.773	8817.7
232.846	8806.39
232.918	8806.68
232.99	8828.73
233.062	8863.1
233.135	8872.2
233.207	8845.82
233.279	8887.96
233.351	8917.37
233.424	8931.28
233.496	8906.58
233.568	8983.95
233.64	8954.97
233.713	8968.36
233.785	8967.1
233.857	8982.8
233.929	8933.13
234.001	8996.37
234.074	9064.26
234.146	9004.17
234.218	9000.07
234.29	9001.28
234.362	8999.59
234.434	8964.64
234.507	8939.7
234.579	8899.89
234.651	8886.46
234.723	8922.42
234.795	8941.49
234.867	8941.05
234.939	8990.59
235.012	9011.19
235.084	9013.07
235.156	9052.64
235.228	9039.78
235.3	9024.19
235.372	9031.99
235.444	9094.61
235.516	9029.97
235.588	9036.76
235.66	9054.67
235.732	9035.32
235.804	9205.66
235.876	9246.62
235.948	9311.73
236.02	9320.54
236.092	9335.46
236.164	9346.44
236.236	9338.15
236.308	9338.49
236.38	9362.76
236.452	9355.49
236.524	9376.05
236.596	9439.02
236.668	9468.59
236.74	9495.07
236.812	9519.86
236.884	9550.83
236.956	9562
237.028	9552.18
237.1	9536.05
237.172	9597.32
237.244	9666.47
237.316	9570.72
237.388	9560.8
237.46	9538.25
237.532	9598.55
237.604	9597.73
237.675	9671.37
237.747	9715.4
237.819	9713.76
237.891	9722.14
237.963	9715.06
238.035	9713.33
238.107	9616.59
238.178	9671.61
238.25	9677.49
238.322	9756.26
238.394	9726.49
238.466	9722.88
238.538	9771.9
238.609	9815.82
238.681	9781.23
238.753	9769.62
238.825	9791.4
238.897	9818.94
238.968	9888.17
239.04	9866.69
239.112	9968.32
239.184	9940.52
239.255	9941.38
239.327	9973.75
239.399	9993.93
239.471	10034.67
239.542	10069.83
239.614	10133.17
239.686	10074.35
239.758	10122.9
239.829	10105.79
239.901	10163.02
239.973	10184.98
240.044	10210.13
240.116	10218.36
240.188	10228.86
240.259	10238.74
240.331	10225.83
240.403	10262.87
240.474	10226.1
240.546	10225.33
240.618	10172.24
240.689	10167.08
240.761	10192.23
240.833	10249.28
240.904	10256.6
240.976	10258.58
241.048	10277.99
241.119	10314.47
241.191	10351.47
241.262	10413.63
241.334	10418.26
241.405	10423.66
241.477	10432.42
241.549	10449.91
241.62	10476.32
241.692	10523.39
241.763	10583.96
241.835	10608.05
241.906	10622.55
241.978	10600.92
242.049	10659.84
242.121	10722.91
242.192	10788.78
242.264	10761.94
242.335	10720.6
242.407	10766.57
242.478	10780.49
242.55	10803.91
242.621	10794.22
242.693	10796.15
242.764	10794.85
242.836	10797.07
242.907	10826.27
242.979	10854.6
243.05	10873.54
243.122	10905.83
243.193	10898.16
243.264	10840
243.336	10845.59
243.407	10883.37
243.479	10957.39
243.55	10977.92
243.622	10988.57
243.693	10986.64
243.764	11048.46
243.836	11039.55
243.907	11026.73
243.978	11032.8
244.05	11053.77
244.121	11017.53
244.192	11058.78
244.264	11017.1
244.335	11036.9
244.407	10999.99
244.478	11017.72
244.549	11017.05
244.62	10976.09
244.692	10977.92
244.763	11020.13
244.834	11022.59
244.906	11006.4
244.977	11025.43
245.048	11082.89
245.119	11075.42
245.191	11062.6
245.262	11010.22
245.333	11079.22
245.405	11101.73
245.476	11139.55
245.547	11160.04
245.618	11211.07
245.689	11221.63
245.761	11262.2
245.832	11272.23
245.903	11318.49
245.974	11349
246.045	11366.01
246.117	11447.51
246.188	11446.16
246.259	11439.75
246.33	11455.51
246.401	11471.03
246.473	11444.9
246.544	11434.44
246.615	11484.66
246.686	11496.66
246.757	11569.63
246.828	11556.08
246.899	11623.76
246.97	11599.18
247.042	11597.54
247.113	11637.89
247.184	11720.51
247.255	11723.21
247.326	11753.14
247.397	11768.61
247.468	11780.13
247.539	11797.29
247.61	11760.13
247.681	11809.19
247.752	11854.73
247.823	11843.41
247.894	11866.16
247.965	11850.59
248.037	11841.38
248.108	11800.66
248.179	11809.48
248.25	11804.7
248.321	11837.81
248.392	11799.69
248.463	11867.31
248.534	11863.84
248.605	11882.39
248.675	11862.87
248.746	11877.19
248.817	11891.5
248.888	11906.44
248.959	11861.09
249.03	11879.17
249.101	11890.11
249.172	11860.27
249.243	11807.55
249.314	11859.41
249.385	11867.07
249.456	11890.64
249.527	11885.58
249.598	11900.13
249.669	11901.63
249.739	11912.04
249.81	11919.03
249.881	11881.05
249.952	11875.7
250.023	11876.18
250.094	11835.54
250.165	11802.67
250.235	11802.43
250.306	11797.56
250.377	11775.29
250.448	11801.32
250.519	11751.91
250.59	11804.89
250.66	11812.16
250.731	11872.31
250.802	11880.22
250.873	11904.51
250.944	11929.43
251.014	11919.26
251.085	12008.68
251.156	12031.91
251.227	12085.37
251.297	12138.73
251.368	12191.71
251.439	12235.48
251.51	12291.2
251.58	12279.29
251.651	12286.67
251.722	12336.95
251.792	12310.43
251.863	12316.6
251.934	12370.21
252.005	12472.25
252.075	12489.12
252.146	12547.4
252.217	12598.93
252.287	12632.24
252.358	12633.44
252.429	12708.98
252.499	12709.61
252.57	12715.15
252.641	12755.93
252.711	12761.86
252.782	12721.56
252.852	12785.63
252.923	12789.39
252.994	12796.67
253.064	12843.08
253.135	12826.26
253.205	12812.67
253.276	12872.05
253.347	12925.22
253.417	12908.06
253.488	12902.18
253.558	12890.56
253.629	12887.09
253.699	12896.39
253.77	12925.85
253.841	12922.57
253.911	12926.38
253.982	12948.36
254.052	12976.27
254.123	12993.77
254.193	12991.17
254.264	13109.17
254.334	13090.23
254.405	13059.14
254.475	13033.06
254.546	13044.77
254.616	13101.94
254.687	13122.67
254.757	13144.46
254.827	13152.12
254.898	13181.19
254.968	13182.64
255.039	13169.91
255.109	13204.96
255.18	13180.66
255.25	13121.9
255.321	13153.91
255.391	13121.71
255.461	13205.2
255.532	13129.8
255.602	13123.39
255.673	13086.56
255.743	13063.71
255.813	13000.47
255.884	13045.64
255.954	13079.38
256.024	13129.61
256.095	13135.49
256.165	13114.04
256.235	13136.56
256.306	13123.73
256.376	13167.94
256.446	13206.36
256.517	13230.51
256.587	13267.77
256.657	13292.17
256.728	13314.92
256.798	13320.46
256.868	13320.32
256.938	13290
257.009	13345.43
257.079	13379.47
257.149	13470.53
257.219	13419
257.29	13459.92
257.36	13416.82
257.43	13450.91
257.5	13398.99
257.571	13396.92
257.641	13431.14
257.711	13404.92
257.781	13436.93
257.852	13453.65
257.922	13412.87
257.992	13425.69
258.062	13429.5
258.132	13470.57
258.202	13484.65
258.273	13496.85
258.343	13562.5
258.413	13549.87
258.483	13558.12
258.553	13534.64
258.623	13507.6
258.693	13535.89
258.764	13588.63
258.834	13658.39
258.904	13684.27
258.974	13684.18
259.044	13695.07
259.114	13732.96
259.184	13762.95
259.254	13776.59
259.324	13738.41
259.394	13772.11
259.464	13840.7
259.535	13844.13
259.605	13844.13
259.675	13832.03
259.745	13875.84
259.815	13867.99
259.885	13881.68
259.955	13977.22
260.025	13978.28
260.095	13996.11
260.165	14029.62
260.235	14089.25
260.305	14074.93
260.375	14054.49
260.445	14136.63
260.515	14193.27
260.585	14230.39
260.655	14239.5
260.725	14274.84
260.795	14305.5
260.865	14368.93
260.934	14343.87
261.004	14374.67
261.074	14378.38
261.144	14437.68
261.214	14466.79
261.284	14468.19
261.354	14499.38
261.424	14468.48
261.494	14530.77
261.564	14538.53
261.634	14554.87
261.703	14501.84
261.773	14517.51
261.843	14545.47
261.913	14542.77
261.983	14505.94
262.053	14515.15
262.123	14516.79
262.192	14489.94
262.262	14523.34
262.332	14479.04
262.402	14511.48
262.472	14511.82
262.541	14460.34
262.611	14497.84
262.681	14484.2
262.751	14507.29
262.821	14513.31
262.89	14482.99
262.96	14503.77
263.03	14566.63
263.1	14596.9
263.169	14612.9
263.239	14656.82
263.309	14714.42
263.379	14738.09
263.448	14758.67
263.518	14790.34
263.588	14801.81
263.657	14864.24
263.727	14903.04
263.797	14920.06
263.867	14920.3
263.936	14892.77
264.006	14955.59
264.076	14954.14
264.145	14945.9
264.215	14929.65
264.285	14966
264.354	14931.19
264.424	14923.58
264.494	14888.39
264.563	14878.85
264.633	14950.33
264.702	14963.2
264.772	14918.13
264.842	14916.78
264.911	14937.22
264.981	14897.26
265.05	14906.08
265.12	14903.87
265.19	14913.07
265.259	14951.39
265.329	14978.48
265.398	15001.53
265.468	15080.09
265.537	15075.51
265.607	15103.47
265.676	15156.21
265.746	15180.4
265.815	15232.32
265.885	15240.37
265.955	15229.77
266.024	15227.89
266.094	15166.86
266.163	15227.74
266.232	15282.45
266.302	15302.06
266.371	15330.26
266.441	15354.46
266.51	15399.53
266.58	15400.93
266.649	15383.96
266.719	15430.14
266.788	15456.6
266.858	15530.01
266.927	15470.48
266.996	15497.76
267.066	15533.62
267.135	15509.33
267.205	15543.99
267.274	15560.66
267.343	15605.11
267.413	15624.82
267.482	15683.19
267.552	15751.59
267.621	15701.08
267.69	15658.37
267.76	15668.88
267.829	15692.26
267.898	15707.1
267.968	15696.98
268.037	15732.41
268.106	15773.71
268.176	15744.84
268.245	15753.42
268.314	15738.96
268.384	15785.53
268.453	15802.44
268.522	15821.67
268.592	15876.14
268.661	15864.04
268.73	15901.93
268.799	15892.63
268.869	15958.71
268.938	15912.92
269.007	15892.87
269.076	15922.27
269.146	15977.89
269.215	16012.93
269.284	16068.36
269.353	16065.47
269.422	16075.69
269.492	16070.62
269.561	16005.12
269.63	16039
269.699	16037.27
269.768	16060.98
269.838	16083.68
269.907	16119.64
269.976	16088.65
270.045	16043.58
270.114	16071.68
270.183	16069.94
270.253	16102.14
270.322	16065.56
270.391	16097.13
270.46	16160.56
270.529	16188.17
270.598	16220.66
270.667	16220.08
270.736	16194.05
270.806	16217.29
270.875	16263.7
270.944	16269.63
271.013	16384.2
271.082	16408.1
271.151	16441.5
271.22	16406.27
271.289	16421.21
271.358	16422.22
271.427	16463.77
271.496	16494.57
271.565	16494.62
271.634	16520.55
271.703	16619.77
271.772	16674.14
271.841	16686.77
271.91	16649.8
271.979	16678.67
272.048	16658.28
272.117	16704.12
272.186	16709.18
272.255	16760.22
272.324	16794.58
272.393	16826.78
272.462	16821.62
272.531	16836.8
272.6	16851.65
272.669	16914.45
272.738	16921.05
272.807	16956.95
272.876	16938.01
272.945	17055.17
273.013	17102.93
273.082	17149.25
273.151	17070.6
273.22	17092.19
273.289	17111.8
273.358	17189.78
273.427	17192.77
273.496	17233.93
273.564	17261.78
273.633	17309.83
273.702	17297.59
273.771	17308.92
273.84	17342.03
273.909	17373.88
273.977	17405.69
274.046	17407.09
274.115	17462.51
274.184	17460.92
274.253	17471.23
274.322	17545.02
274.39	17486.56
274.459	17485.84
274.528	17449.59
274.597	17475.04
274.665	17505.35
274.734	17567.38
274.803	17583.14
274.872	17606.65
274.94	17597.79
275.009	17786.99
275.078	17779.91
275.147	17807.33
275.215	17830.89
275.284	17884.34
275.353	17892.34
275.421	17855.04
275.49	17937.25
275.559	17934.12
275.627	17950.5
275.696	17972.19
275.765	17998.55
275.833	18013.68
275.902	18058.55
275.971	18130.84
276.039	18202.55
276.108	18246.88
276.177	18271.99
276.245	18277.87
276.314	18301.91
276.383	18362.63
276.451	18226.73
276.52	18272.99
276.588	18343.16
276.657	18396.6
276.725	18407.93
276.794	18440.89
276.863	18523.39
276.931	18496.84
277	18548.83
277.068	18610.81
277.137	18690.27
277.205	18720.83
277.274	18809.21
277.342	18863.42
277.411	18831.95
277.48	18839.37
277.548	18842.7
277.617	18874.41
277.685	18883.9
277.754	18935.56
277.822	18946.07
277.89	19013.77
277.959	19033.48
278.027	19022.98
278.096	19023.41
278.164	19139.8
278.233	19149.24
278.301	19143.7
278.37	19193.96
278.438	19196.47
278.507	19248.85
278.575	19219.98
278.643	19244.13
278.712	19232.37
278.78	19239.31
278.849	19322.48
278.917	19381.37
278.985	19415.64
279.054	19453.32
279.122	19529.46
279.191	19545.84
279.259	19568.01
279.327	19548.25
279.396	19628.2
279.464	19654.61
279.532	19713.16
279.601	19723.77
279.669	19760.58
279.737	19838.94
279.806	19889.83
279.874	19963.95
279.942	19990.26
280.011	20014.89
280.079	20071.46
280.147	20147.99
280.215	20187.75
280.284	20207.8
280.352	20205.82
280.42	20256.33
280.488	20281.53
280.557	20291.46
280.625	20346.93
280.693	20393.96
280.761	20435.5
280.83	20416.8
280.898	20493.43
280.966	20473.05
281.034	20419.6
281.102	20412.56
281.171	20427.6
281.239	20475.99
281.307	20474.64
281.375	20477.63
281.443	20578.06
281.512	20601.05
281.58	20665.64
281.648	20655.57
281.716	20681.4
281.784	20714.41
281.852	20722.46
281.92	20753.45
281.989	20827.38
282.057	20809.12
282.125	20932.75
282.193	20968.18
282.261	21009.72
282.329	21022.16
282.397	21069.53
282.465	21110.64
282.533	21194.93
282.601	21208.52
282.67	21181.58
282.738	21196.86
282.806	21271.61
282.874	21279.51
282.942	21326.03
283.01	21334.66
283.078	21390.47
283.146	21431.1
283.214	21495.83
283.282	21556.51
283.35	21625.64
283.418	21635.91
283.486	21693.74
283.554	21643.99
283.622	21680.05
283.69	21718.56
283.758	21742.32
283.826	21802.43
283.894	21865.19
283.962	21946.13
284.03	22027.11
284.098	22068.52
284.165	22095.99
284.233	22125.93
284.301	22137.64
284.369	22149.6
284.437	22162.32
284.505	22186.91
284.573	22252.71
284.641	22258.78
284.709	22311.33
284.777	22297.5
284.845	22361.14
284.912	22411.61
284.98	22459.1
285.048	22475.49
285.116	22530.78
285.184	22606.38
285.252	22632.22
285.319	22628.32
285.387	22642.78
285.455	22630.1
285.523	22691.28
285.591	22720.69
285.659	22761.57
285.726	22840.65
285.794	22839.54
285.862	22876.18
285.93	22909.3
285.997	22935.15
286.065	22960.7
286.133	22961.33
286.201	22996.04
286.269	22981.91
286.336	22990.93
286.404	23020.48
286.472	23082.78
286.539	23053.81
286.607	23043.97
286.675	23092.96
286.743	23155.4
286.81	23176.34
286.878	23250.74
286.946	23257.54
287.013	23294.28
287.081	23328.32
287.149	23329.19
287.216	23423.03
287.284	23443.62
287.352	23491.51
287.419	23526.52
287.487	23613.19
287.555	23668.17
287.622	23695.08
287.69	23761.83
287.758	23839.48
287.825	23860.22
287.893	23865.62
287.96	23925.31
288.028	23995.73
288.096	24025.73
288.163	24072.42
288.231	24082.07
288.298	24114.34
288.366	24199.09
288.433	24231.26
288.501	24244.52
288.569	24276.07
288.636	24302.99
288.704	24378.1
288.771	24427.74
288.839	24442.79
288.906	24446.5
288.974	24510.63
289.041	24538.65
289.109	24543.14
289.176	24598.1
289.244	24647.11
289.311	24711.28
289.379	24778.62
289.446	24813.85
289.514	24864.37
289.581	24903.31
289.649	24955.89
289.716	25005.65
289.783	25019.06
289.851	25126.56
289.918	25172.3
289.986	25242.85
290.053	25290.91
290.121	25318.96
290.188	25369.92
290.255	25489.66
290.323	25515.38
290.39	25532.18
290.458	25590.27
290.525	25670.1
290.592	25678.55
290.66	25716.33
290.727	25741.62
290.794	25817.22
290.862	25858.29
290.929	25904.54
290.996	25943.45
291.064	25998.38
291.131	26059.16
291.198	26133.99
291.266	26150.75
291.333	26190.85
291.4	26239.43
291.468	26309.45
291.535	26332.76
291.602	26380.13
291.669	26393.31
291.737	26443.08
291.804	26478.43
291.871	26566.3
291.938	26620.97
292.006	26746.52
292.073	26817.79
292.14	26882.3
292.207	26901.33
292.275	26936.19
292.342	26999.18
292.409	27095.31
292.476	27199.66
292.543	27205.4
292.611	27238.44
292.678	27326.75
292.745	27447.66
292.812	27519.26
292.879	27546.46
292.946	27603.84
293.014	27680.76
293.081	27741.21
293.148	27817.48
293.215	27901.55
293.282	27928.85
293.349	27983.16
293.416	27967.07
293.484	28039.65
293.551	28109.19
293.618	28189.5
293.685	28297.37
293.752	28318.05
293.819	28349.57
293.886	28353.34
293.953	28427.57
294.02	28496.2
294.087	28560.07
294.154	28567.95
294.221	28643.97
294.288	28696.56
294.356	28786.8
294.423	28830.08
294.49	28844.82
294.557	28913.47
294.624	28924.69
294.691	29018.49
294.758	29078.3
294.825	29135.93
294.892	29168.23
294.959	29215.29
295.026	29278.69
295.093	29313.57
295.16	29350.55
295.226	29396.15
295.293	29508.67
295.36	29549.05
295.427	29624.61
295.494	29683.74
295.561	29754.55
295.628	29859.07
295.695	29947.94
295.762	30007.74
295.829	30092.51
295.896	30185.39
295.963	30268.37
296.03	30345.91
296.096	30399.72
296.163	30469.08
296.23	30558.84
296.297	30625.41
296.364	30672.35
296.431	30728.3
296.498	30755.06
296.564	30875.69
296.631	30933.86
296.698	30932.89
296.765	31048.76
296.832	31062.75
296.899	31076.64
296.965	31165.04
297.032	31148.72
297.099	31237.73
297.166	31291.42
297.233	31314.03
297.299	31332.19
297.366	31380.86
297.433	31439.43
297.5	31510.91
297.566	31545.29
297.633	31594.79
297.7	31652.17
297.767	31689.1
297.833	31752.55
297.9	31801.88
297.967	31798.06
298.033	31873.61
298.1	32008.63
298.167	32023.59
298.234	32093.62
298.3	32158.61
298.367	32182.54
298.434	32244.02
298.5	32252.4
298.567	32286.07
298.634	32327.63
298.7	32429.01
298.767	32475.23
298.834	32560.89
298.9	32590.6
298.967	32622.96
299.033	32685.38
299.1	32770.42
299.167	32848.07
299.233	32874.09
299.3	32961.11
299.366	33059.22
299.433	33144.29
299.5	33103.53
299.566	33160.27
299.633	33242.86
299.699	33336.55
299.766	33376.19
299.832	33425.25
299.899	33496.71
299.965	33569.99
300.032	33607.6
300.099	33661.41
300.165	33708.77
300.232	33736.21
300.298	33773.2
300.365	33849.59
300.431	33899.2
300.498	33923.87
300.564	33988.35
300.631	34066.22
300.697	34154.62
300.763	34198.36
300.83	34245.41
300.896	34337.91
300.963	34407.54
301.029	34460.26
301.096	34495.28
301.162	34574.23
301.229	34614
301.295	34620.2
301.361	34676.95
301.428	34733.14
301.494	34732.12
301.561	34789.6
301.627	34839.75
301.693	34894.11
301.76	34943
301.826	34974.73
301.892	35057.34
301.959	35121.23
302.025	35162.9
302.092	35180.27
302.158	35232.32
302.224	35259
302.291	35268.17
302.357	35300.48
302.423	35319.31
302.49	35344.39
302.556	35409.7
302.622	35437.11
302.688	35516.77
302.755	35594.9
302.821	35657.63
302.887	35737.28
302.954	35787.94
303.02	35835.64
303.086	35897.85
303.152	35938.22
303.219	35961.6
303.285	36004.02
303.351	36075.76
303.417	36100.07
303.483	36120.02
303.55	36143.11
303.616	36179.47
303.682	36221.15
303.748	36255.45
303.815	36348.7
303.881	36420.14
303.947	36428.3
304.013	36484.88
304.079	36498.18
304.145	36477.12
304.212	36510.02
304.278	36521.52
304.344	36530.36
304.41	36548.56
304.476	36560.21
304.542	36592.63
304.608	36654.42
304.674	36658.49
304.741	36674.81
304.807	36733.84
304.873	36790.09
304.939	36876.99
305.005	36870.1
305.071	36907.23
305.137	36940.18
305.203	36908.92
305.269	36925.13
305.335	36996.94
305.401	37022.82
305.467	37051.85
305.533	37104.91
305.599	37170.45
305.666	37232.34
305.732	37275.31
305.798	37355.95
305.864	37466.23
305.93	37506.43
305.996	37532.35
306.062	37569.11
306.128	37597.81
306.194	37596.69
306.259	37631.51
306.325	37634.57
306.391	37704.58
306.457	37777.07
306.523	37819.21
306.589	37922.75
306.655	37947.71
306.721	37923.91
306.787	37931.1
306.853	38028.23
306.919	38023.42
306.985	38023.13
307.051	38052.17
307.117	38063.43
307.183	38074.55
307.248	38029.29
307.314	38081.01
307.38	38133.37
307.446	38182.47
307.512	38182.42
307.578	38222.19
307.644	38241.03
307.709	38285.96
307.775	38304.65
307.841	38308.64
307.907	38345.21
307.973	38314.85
308.039	38346.42
308.104	38395.56
308.17	38440.92
308.236	38424.65
308.302	38493.22
308.368	38500.07
308.433	38528.19
308.499	38558.49
308.565	38566.36
308.631	38601.91
308.696	38567.53
308.762	38562.77
308.828	38581.32
308.894	38555.93
308.959	38540.48
309.025	38549.42
309.091	38570.84
309.156	38584.83
309.222	38636.56
309.288	38630.64
309.354	38616.41
309.419	38644.34
309.485	38644.73
309.551	38683.59
309.616	38664.6
309.682	38660.22
309.748	38688.83
309.813	38702.43
309.879	38704.13
309.945	38704.47
310.01	38735.27
310.076	38784.42
310.141	38802.3
310.207	38799.97
310.273	38854.22
310.338	38903.32
310.404	38882.34
310.469	38868.1
310.535	38879.91
310.601	38844.59
310.666	38884.96
310.732	38940.48
310.797	38942.86
310.863	38945.77
310.928	38950.49
310.994	38995.76
311.059	39028.69
311.125	39047.3
311.191	39111.43
311.256	39126.29
311.322	39163.84
311.387	39119.4
311.453	40169.72
311.518	40168.75
311.584	40189.4
311.649	40230.16
311.715	40232.34
311.78	40291.12
311.846	40296.46
311.911	40344.71
311.976	40372.35
312.042	40370.16
312.107	40363.6
312.173	40367.63
312.238	40394.64
312.304	40406.74
312.369	40412.28
312.434	40408.59
312.5	40421.26
312.565	40357.71
312.631	40392.64
312.696	40401.68
312.761	40448.99
312.827	39427.52
312.892	39519.85
312.958	39544.77
313.023	39560.47
313.088	39581.02
313.154	39554.64
313.219	39557.07
313.284	39554.2
313.35	39581.26
313.415	39590.4
313.48	39593.46
313.546	39631.99
313.611	39685.43
313.676	39699.91
313.741	39708.9
313.807	39760.65
313.872	39804.48
313.937	39859.62
314.003	39922.69
314.068	39958.02
314.133	40010.11
314.198	40017.64
314.264	39994.36
314.329	39998.88
314.394	40024.87
314.459	40061.07
314.525	40149.06
314.59	40187.01
314.655	40176.95
314.72	40226.23
314.785	40255.72
314.851	40274.91
314.916	40257.76
314.981	40228.99
315.046	40229.62
315.111	40219.13
315.176	40217.14
315.242	40240.41
315.307	40265.1
315.372	40238.32
315.437	40227.44
315.502	40220.39
315.567	40273.21
315.632	40252.22
315.698	40282.11
315.763	40285.32
315.828	40273.8
315.893	40275.06
315.958	40268.65
316.023	40268.89
316.088	40224.53
316.153	40179.68
316.218	40170.01
316.283	40122.01
316.348	40089.36
316.413	40083.78
316.479	40061.72
316.544	39966.64
316.609	39873.46
316.674	39759.92
316.739	39654.69
316.804	39560.89
316.869	39451.49
316.934	39337.21
316.999	39234.62
317.064	39060.18
317.129	38915.51
317.194	38785.69
317.259	38624.31
317.324	38459.15
317.389	38301.85
317.454	38164.26
317.518	38038
317.583	37946.49
317.648	37842.63
317.713	37714.14
317.778	37515.74
317.843	37388.09
317.908	37228.09
317.973	37073.71
318.038	36940.32
318.103	36785.68
318.168	36658.07
318.233	36509.54
318.297	36309.24
318.362	36146.9
318.427	35988.98
318.492	35849.65
318.557	35655.76
318.622	35519.21
318.687	35403.95
318.751	35239
318.816	35074.39
318.881	34921.98
318.946	34694.28
319.011	34498.93
319.075	34302.1
319.14	34135.71
319.205	33940.83
319.27	33780.06
319.335	33592.47
319.399	33409.62
319.464	33254.44
319.529	33026.87
319.594	32849.06
319.658	32688.01
319.723	32502.44
319.788	32337.18
319.853	32115.94
319.917	31966.07
319.982	31736.25
320.047	31533.77
320.112	31369.25
320.176	31140.99
320.241	30948.96
320.306	30772.52
320.37	30578.03
320.435	30412.66
320.5	30245.8
320.564	30050.77
320.629	29858.83
320.694	29682.47
320.758	29476.53
320.823	29265.81
320.888	29099.44
320.952	28873.07
321.017	28666.2
321.082	28453.13
321.146	28270.51
321.211	28094.5
321.275	27875.04
321.34	27661.46
321.405	27446.29
321.469	27229.2
321.534	27029.12
321.598	26786.53
321.663	26606.41
321.727	26422.86
321.792	26184.39
321.857	25957.37
321.921	25749.02
321.986	25531.26
322.05	25278.91
322.115	25085.48
322.179	24865.31
322.244	24608.41
322.308	24421.27
322.373	24187.31
322.437	23984.29
322.502	23811.95
322.566	23572.91
322.631	23380.88
322.695	23176.43
322.76	22958.38
322.824	22754.33
322.889	22524.75
322.953	22298.03
323.018	22005.14
323.082	21725.01
323.146	21484.58
323.211	21233.88
323.275	20995.19
323.34	20759.26
323.404	20546.77
323.468	20303.99
323.533	20076.76
323.597	19846.78
323.662	19595.01
323.726	19393.9
323.79	19157.42
323.855	18856.92
323.919	18618.75
323.983	18375.19
324.048	18028.37
324.112	18197.49
324.177	17482.69
324.241	16538.42
324.305	15608.29
324.37	14696.39
324.434	13801.79
324.498	13552.29
324.562	13283.68
324.627	12980.88
324.691	12675.63
324.755	12333.86
324.82	11943.95
324.884	11528.57
324.948	11108.6
325.012	10594.34
325.077	9965.33
