Data from 20250626_urea_1M_exp2_MAYP1162681_00-03-58-624.txt Node
Date: Fri Jun 27 00:03:58 BST 2025
User: adleo
Spectrometer: MAYP116268
Trigger mode: 0
Integration Time (sec): 3.000000E0
Scans to average: 1
Electric dark correction enabled: true
Nonlinearity correction enabled: true
Boxcar width: 10
XAxis mode: Wavelengths
Number of Pixels in Spectrum: 2068
>>>>>Begin Spectral Data<<<<<
179.565	2813.83
179.642	2964.69
179.718	3073.63
179.795	3175.7
179.871	3253.51
179.948	3301.95
180.024	3357.5
180.101	3414.36
180.177	3447.11
180.254	3505.86
180.33	3562.32
180.407	3754.94
180.483	3973.44
180.56	4192.95
180.636	4395.27
180.712	4365.69
180.789	4386.93
180.865	4413.8
180.942	4438.82
181.018	4468.19
181.095	4497.44
181.171	4513.23
181.248	4514.04
181.324	4551.95
181.4	4567.94
181.477	4598.33
181.553	4633.01
181.63	4685.81
181.706	4725.84
181.782	4756.26
181.859	4759.56
181.935	4777.03
182.011	4771.43
182.088	4811.03
182.164	4862.24
182.24	4893.97
182.317	4918.8
182.393	4914.35
182.469	4947.49
182.546	4981.53
182.622	4993.31
182.698	4987.8
182.775	5020.75
182.851	5051.64
182.927	5035.4
183.003	5023.44
183.08	5008.26
183.156	5032.06
183.232	5023.97
183.308	4998.25
183.385	5012.9
183.461	5054.77
183.537	5055.87
183.613	5084.28
183.69	5067.13
183.766	5041.58
183.842	5070.04
183.918	5083.64
183.995	5115.06
184.071	5122.05
184.147	5110.17
184.223	5079.21
184.299	5106.95
184.375	5074.24
184.452	5093.65
184.528	5194.33
184.604	5226.8
184.68	5258.02
184.756	5270.77
184.832	5279.35
184.908	5292.9
184.985	5296.97
185.061	5254.38
185.137	5277.39
185.213	5249.41
185.289	5249.03
185.365	5233.18
185.441	5219.18
185.517	5254.8
185.593	5249.72
185.669	5246.13
185.745	5267.88
185.822	5311.88
185.898	5288.21
185.974	5315.93
186.05	5294.08
186.126	5234.22
186.202	5214.68
186.278	5205.05
186.354	5184.83
186.43	5201.51
186.506	5193.7
186.582	5188.72
186.658	5205.34
186.734	5155.43
186.81	5158.59
186.886	5169.61
186.962	5196.58
187.038	5186.47
187.114	5163.45
187.19	5179.07
187.266	5156.99
187.341	5159.92
187.417	5143.15
187.493	5145.41
187.569	5156.48
187.645	5143.92
187.721	5111.62
187.797	5131.07
187.873	5147.79
187.949	5130.84
188.025	5113.2
188.101	5121.1
188.176	5131.54
188.252	5121.2
188.328	5138
188.404	5134.41
188.48	5121
188.556	5098.34
188.632	5099.54
188.707	5099.68
188.783	5096.13
188.859	5085.22
188.935	5059.15
189.011	5079.56
189.086	5063.66
189.162	5041.14
189.238	5037.31
189.314	5034.97
189.39	5021.55
189.465	4997.17
189.541	5042.73
189.617	5008.49
189.693	4994.27
189.768	5006.06
189.844	5065.49
189.92	5044.38
189.996	5071.4
190.071	5096.64
190.147	5095.69
190.223	5119.69
190.298	5101.63
190.374	5067
190.45	5096.63
190.526	5110.86
190.601	5095.72
190.677	5100.94
190.753	5173.45
190.828	5182.84
190.904	5215.61
190.98	5253.91
191.055	5282.03
191.131	5257.25
191.207	5307.89
191.282	5333.46
191.358	5308.55
191.433	5270.81
191.509	5304.85
191.585	5294.59
191.66	5298.91
191.736	5323.68
191.811	5302.74
191.887	5341.52
191.963	5401.95
192.038	5416.28
192.114	5425.48
192.189	5435.78
192.265	5428.12
192.34	5364.19
192.416	5360.21
192.491	5349.81
192.567	5358.92
192.642	5364.44
192.718	5368.17
192.793	5337.64
192.869	5326.44
192.944	5333.81
193.02	5358.74
193.095	5367.89
193.171	5381.88
193.246	5384.28
193.322	5377.43
193.397	5376.61
193.473	5347.94
193.548	5303.07
193.624	5313.86
193.699	5305.61
193.775	5343.49
193.85	5349.48
193.925	5372.82
194.001	5365.97
194.076	5347.48
194.152	5313.19
194.227	5295.17
194.302	5269.98
194.378	5282.53
194.453	5277.31
194.529	5306.93
194.604	5267.11
194.679	5255.8
194.755	5215.47
194.83	5244.63
194.905	5236.97
194.981	5260.11
195.056	5239.04
195.131	5252.79
195.207	5247.03
195.282	5221.31
195.357	5172.51
195.433	5209.5
195.508	5179.17
195.583	5202.93
195.659	5241.27
195.734	5259.58
195.809	5258.38
195.884	5278.11
195.96	5275.62
196.035	5316.93
196.11	5310.36
196.185	5343.52
196.261	5347.11
196.336	5418.94
196.411	5377.71
196.486	5393.52
196.561	5374.45
196.637	5401.46
196.712	5437.38
196.787	5444.57
196.862	5485.78
196.937	5512.66
197.013	5529.93
197.088	5552.3
197.163	5603.29
197.238	5646.97
197.313	5650.09
197.388	5684.42
197.464	5762.71
197.539	5798
197.614	5772.69
197.689	5797.92
197.764	5836.88
197.839	5886.79
197.914	5876.33
197.989	5938.26
198.065	5966.75
198.14	6103.2
198.215	6162.26
198.29	6195.73
198.365	6232.1
198.44	6261.03
198.515	6330.34
198.59	6366.48
198.665	6435.83
198.74	6456.58
198.815	6452.49
198.89	6512.59
198.965	6586.65
199.04	6578.44
199.115	6607.81
199.19	6721.24
199.265	6733.24
199.34	6758.98
199.415	6844.51
199.49	6898.28
199.565	6919.56
199.64	6987.62
199.715	6976.26
199.79	6996.2
199.865	7005.71
199.94	6998.27
200.015	7077.94
200.09	7094.61
200.165	7105.47
200.24	7123.01
200.315	7224.63
200.39	7267.49
200.464	7271.29
200.539	7273.79
200.614	7313
200.689	7379.56
200.764	7397.93
200.839	7435.06
200.914	7444.72
200.989	7419.28
201.063	7459.9
201.138	7415.53
201.213	7414.81
201.288	7364.64
201.363	7376.31
201.438	7381.46
201.512	7425.26
201.587	7378.78
201.662	7388.49
201.737	7421.7
201.812	7444.39
201.886	7360.07
201.961	7382.43
202.036	7357.65
202.111	7351.83
202.186	7274.9
202.26	7229.04
202.335	7174.91
202.41	7168.52
202.485	7127.65
202.559	7080.52
202.634	7005.32
202.709	7028.07
202.784	6973.6
202.858	6970.09
202.933	6919.71
203.008	6903.18
203.082	6848.14
203.157	6848
203.232	6736.92
203.306	6681.52
203.381	6605.08
203.456	6541.17
203.53	6483.01
203.605	6432.87
203.68	6367.36
203.754	6350.62
203.829	6311.39
203.904	6256.68
203.978	6224.22
204.053	6237.75
204.127	6202.73
204.202	6194.13
204.277	6148.89
204.351	6131.66
204.426	6114.9
204.5	6101.04
204.575	6012.07
204.65	6037.85
204.724	6016.28
204.799	6038.04
204.873	6028.49
204.948	6017.26
205.022	5997.65
205.097	5976.86
205.171	6017.1
205.246	6039.62
205.32	6045.66
205.395	6046.95
205.469	6024.86
205.544	6037.29
205.618	5984.46
205.693	6020.36
205.767	5995.61
205.842	6051.56
205.916	6042.31
205.991	6013.57
206.065	6024.6
206.14	6064.43
206.214	6049.78
206.289	6028.95
206.363	6058.26
206.438	6069.69
206.512	6089.13
206.586	6129.23
206.661	6147.76
206.735	6086.87
206.81	6090.95
206.884	6118.96
206.958	6082.75
207.033	6126.14
207.107	6145.11
207.181	6227.82
207.256	6209.87
207.33	6257.8
207.405	6287.6
207.479	6330.4
207.553	6358.9
207.628	6316.8
207.702	6347.17
207.776	6331.43
207.851	6342.66
207.925	6381.41
207.999	6365.77
208.073	6358.09
208.148	6371.1
208.222	6344.83
208.296	6426.14
208.371	6470.39
208.445	6500.4
208.519	6571.19
208.593	6602.35
208.668	6588.08
208.742	6600.05
208.816	6603.31
208.89	6636.61
208.965	6632.38
209.039	6652.79
209.113	6687.37
209.187	6740.18
209.261	6730.05
209.336	6784.17
209.41	6830.62
209.484	6833.02
209.558	6897.05
209.632	6930.9
209.707	6955.16
209.781	7011.02
209.855	7055.38
209.929	7094.05
210.003	7109.09
210.077	7110.15
210.151	7227.17
210.226	7321.31
210.3	7383.22
210.374	7443.74
210.448	7450.86
210.522	7476.05
210.596	7504.65
210.67	7529.55
210.744	7656.49
210.818	7740.62
210.892	7793.41
210.966	7785.2
211.041	7818.32
211.115	7805.68
211.189	7870.29
211.263	7915.2
211.337	7926.35
211.411	7952.61
211.485	7934.09
211.559	7970.68
211.633	7979.95
211.707	7905.99
211.781	7921.49
211.855	7835.12
211.929	7813.54
212.003	7771.74
212.077	7796.42
212.151	7823.74
212.225	7849.32
212.299	7814.57
212.373	7782.69
212.447	7768.26
212.52	7841.51
212.594	7855.21
212.668	7886.61
212.742	7845.97
212.816	7831.45
212.89	7821.31
212.964	7818.71
213.038	7833.14
213.112	7853.68
213.186	7885.22
213.26	7827.99
213.333	7704.38
213.407	7712.5
213.481	7721.25
213.555	7749.59
213.629	7722.46
213.703	7680.09
213.777	7672.92
213.85	7620.79
213.924	7703.82
213.998	7704.59
214.072	7678.75
214.146	7639.66
214.219	7624.85
214.293	7613.02
214.367	7612.59
214.441	7630.96
214.515	7594.79
214.588	7524.94
214.662	7439.86
214.736	7380.26
214.81	7391.88
214.883	7411.81
214.957	7378.96
215.031	7338.08
215.105	7268.09
215.178	7217
215.252	7191.97
215.326	7119.26
215.4	7059.47
215.473	6922.95
215.547	6855.8
215.621	6807.53
215.694	6803.93
215.768	6728.27
215.842	6679
215.915	6626.14
215.989	6541.55
216.063	6503.73
216.136	6491.25
216.21	6469.65
216.284	6481.32
216.357	6463.02
216.431	6432.06
216.504	6430.91
216.578	6474.62
216.652	6485.79
216.725	6466.3
216.799	6470.14
216.873	6450.8
216.946	6455.89
217.02	6428.79
217.093	6407.14
217.167	6335.71
217.24	6275.11
217.314	6252.71
217.387	6221.44
217.461	6184.44
217.535	6200.04
217.608	6151.72
217.682	6131.22
217.755	6138.03
217.829	6100.25
217.902	6092.19
217.976	6079.23
218.049	6042.77
218.123	5977.46
218.196	5973.87
218.27	5949.49
218.343	5894.87
218.417	5895.97
218.49	5877.93
218.563	5912.13
218.637	5920.73
218.71	5977.88
218.784	5996.41
218.857	6017.6
218.931	6035.2
219.004	6044.99
219.077	6061.99
219.151	6073.3
219.224	6068.79
219.298	6065.15
219.371	6093.18
219.444	6059.75
219.518	6066.51
219.591	6079.65
219.665	6160.82
219.738	6167.34
219.811	6155.21
219.885	6187.6
219.958	6215.49
220.031	6221.05
220.105	6234.4
220.178	6236.32
220.251	6214.43
220.325	6237.81
220.398	6251.49
220.471	6264.06
220.544	6292.52
220.618	6276.77
220.691	6305.66
220.764	6320.35
220.838	6340.8
220.911	6327.59
220.984	6392.57
221.057	6422.66
221.131	6438.35
221.204	6365.3
221.277	6427.48
221.35	6521.4
221.424	6518.42
221.497	6523.41
221.57	6540.64
221.643	6565.9
221.716	6602.17
221.79	6607.06
221.863	6615.09
221.936	6627.33
222.009	6639.04
222.082	6655.99
222.155	6665.88
222.229	6709.74
222.302	6732.84
222.375	6737.93
222.448	6769.15
222.521	6774
222.594	6770.3
222.667	6755.86
222.74	6804.69
222.814	6794.22
222.887	6777.92
222.96	6816.97
223.033	6851.33
223.106	6869.81
223.179	6897.31
223.252	6907.45
223.325	6925.12
223.398	6934.01
223.471	6953.27
223.544	6965.61
223.617	6982.72
223.69	6998.32
223.763	6970.79
223.837	6987.46
223.91	7012.35
223.983	6981.13
224.056	6955.63
224.129	6974.84
224.202	7018
224.275	7003.06
224.348	6978.66
224.42	6961.46
224.493	6924.14
224.566	6905.3
224.639	6922.98
224.712	6895.29
224.785	6884.04
224.858	6883.08
224.931	6864.92
225.004	6840.19
225.077	6846.48
225.15	6774.83
225.223	6770.85
225.296	6836.8
225.369	6789.3
225.442	6767.4
225.514	6780.84
225.587	6797.74
225.66	6808.07
225.733	6803.61
225.806	6811.48
225.879	6807.31
225.952	6780.51
226.025	6812.98
226.097	6853.51
226.17	6842.65
226.243	6792.09
226.316	6790.65
226.389	6793.34
226.461	6814.87
226.534	6824.85
226.607	6820.43
226.68	6877.71
226.753	6876.22
226.825	6812.95
226.898	6857.14
226.971	6858.67
227.044	6869.1
227.117	6877.93
227.189	6890.91
227.262	6922.87
227.335	6934.45
227.407	6935.55
227.48	6957.68
227.553	6968.74
227.626	6949.36
227.698	6962.04
227.771	6998.29
227.844	6981.52
227.916	7000.31
227.989	6969.66
228.062	6970.52
228.134	7028.62
228.207	7034.44
228.28	7029.25
228.352	7039.63
228.425	7046.16
228.498	7078.79
228.57	7066.21
228.643	7107.83
228.716	7107.07
228.788	7099.57
228.861	7098.03
228.934	7145.4
229.006	7155.63
229.079	7159.81
229.151	7154.67
229.224	7123.69
229.296	7140.17
229.369	7224.65
229.442	7257.63
229.514	7247.59
229.587	7283.82
229.659	7229.94
229.732	7241.72
229.804	7270.79
229.877	7329.98
229.949	7351.66
230.022	7389.17
230.094	7393.16
230.167	7384.84
230.239	7350.77
230.312	7335.25
230.384	7393.19
230.457	7388.39
230.529	7400.59
230.602	7399.77
230.674	7406.74
230.747	7436.23
230.819	7453.73
230.892	7361.67
230.964	7359.5
231.037	7384.09
231.109	7375.68
231.181	7407.92
231.254	7384.42
231.326	7375.48
231.399	7357.92
231.471	7340.67
231.544	7285.03
231.616	7322.37
231.688	7324.1
231.761	7318.53
231.833	7313.92
231.905	7244.06
231.978	7245.98
232.05	7228.87
232.122	7233.01
232.195	7214.7
232.267	7243.87
232.339	7237.53
232.412	7279.76
232.484	7258.79
232.556	7237.28
232.629	7287.91
232.701	7300.7
232.773	7304.4
232.846	7295.51
232.918	7292.15
232.99	7304.07
233.062	7333.53
233.135	7332.43
233.207	7306.04
233.279	7333.47
233.351	7363.12
233.424	7369.03
233.496	7354.13
233.568	7416.29
233.64	7384.67
233.713	7398.03
233.785	7401.59
233.857	7408.75
233.929	7374.34
234.001	7423.36
234.074	7474.62
234.146	7416.15
234.218	7417.16
234.29	7418.41
234.362	7407.84
234.434	7372.27
234.507	7349.53
234.579	7313.05
234.651	7303.77
234.723	7333.1
234.795	7346.89
234.867	7335.6
234.939	7379.58
235.012	7392.13
235.084	7392.56
235.156	7421.39
235.228	7408.94
235.3	7393.03
235.372	7401.01
235.444	7452.15
235.516	7392.71
235.588	7392.23
235.66	7407.22
235.732	7379.82
235.804	7530.92
235.876	7571.24
235.948	7624.66
236.02	7634.8
236.092	7645.85
236.164	7652.15
236.236	7648.5
236.308	7647.34
236.38	7673.59
236.452	7657.39
236.524	7668.83
236.596	7715.61
236.668	7740.04
236.74	7756.81
236.812	7778.73
236.884	7803.41
236.956	7808.02
237.028	7807.93
237.1	7795.14
237.172	7849.44
237.244	7908.21
237.316	7817.64
237.388	7802.83
237.46	7786.86
237.532	7832.26
237.604	7830.34
237.675	7887.14
237.747	7915.38
237.819	7908.89
237.891	7915.62
237.963	7909.51
238.035	7913.17
238.107	7834.94
238.178	7879.16
238.25	7885.89
238.322	7953.26
238.394	7921.95
238.466	7917.38
238.538	7946.71
238.609	7980.17
238.681	7946.59
238.753	7932.79
238.825	7947.13
238.897	7971.31
238.968	8033.48
239.04	8020.35
239.112	8097.69
239.184	8068.29
239.255	8066.56
239.327	8096.18
239.399	8107.39
239.471	8145.43
239.542	8167.84
239.614	8218.35
239.686	8159.55
239.758	8203.04
239.829	8171.99
239.901	8221.68
239.973	8236.97
240.044	8263.72
240.116	8274.64
240.188	8276.42
240.259	8290.52
240.331	8284.69
240.403	8310.09
240.474	8276.4
240.546	8269.42
240.618	8230.26
240.689	8235.26
240.761	8251.81
240.833	8297.28
240.904	8294.78
240.976	8291.22
241.048	8306.62
241.119	8329.62
241.191	8367.91
241.262	8416.49
241.334	8418.66
241.405	8419.86
241.477	8424.29
241.549	8433.86
241.62	8449.11
241.692	8487.99
241.763	8528.86
241.835	8540.31
241.906	8552.29
241.978	8534.15
242.049	8583.23
242.121	8630.1
242.192	8678.46
242.264	8655.66
242.335	8620.67
242.407	8658.5
242.478	8666.05
242.55	8675.68
242.621	8670.77
242.693	8665.47
242.764	8655.26
242.836	8660.99
242.907	8682.36
242.979	8705.36
243.05	8721.78
243.122	8743.53
243.193	8742.24
243.264	8691.75
243.336	8698.34
243.407	8732.13
243.479	8786.76
243.55	8802.55
243.622	8808.47
243.693	8805.59
243.764	8858.72
243.836	8842.46
243.907	8826.82
243.978	8829.51
244.05	8847.8
244.121	8810.8
244.192	8843.62
244.264	8804.63
244.335	8816.81
244.407	8777.44
244.478	8791.16
244.549	8783.12
244.62	8748.95
244.692	8741.34
244.763	8772.09
244.834	8766.85
244.906	8744.17
244.977	8755.49
245.048	8800.04
245.119	8785.64
245.191	8767.69
245.262	8717.01
245.333	8778.36
245.405	8799.93
245.476	8825.15
245.547	8838.97
245.618	8876.17
245.689	8883
245.761	8910.73
245.832	8916.55
245.903	8955.58
245.974	8975.61
246.045	8986.54
246.117	9048.35
246.188	9041.52
246.259	9035.45
246.33	9043.3
246.401	9052.3
246.473	9028.23
246.544	9014.74
246.615	9058.22
246.686	9070.15
246.757	9132.24
246.828	9114.67
246.899	9164.52
246.97	9139.15
247.042	9133.38
247.113	9171.95
247.184	9245.21
247.255	9245.31
247.326	9261.15
247.397	9268.8
247.468	9277.71
247.539	9288.93
247.61	9257.87
247.681	9299.41
247.752	9333.11
247.823	9316.31
247.894	9331.91
247.965	9310.74
248.037	9296.82
248.108	9258.25
248.179	9255.02
248.25	9242.84
248.321	9269.17
248.392	9235.99
248.463	9298.57
248.534	9298.19
248.605	9311.92
248.675	9285.13
248.746	9301.02
248.817	9314.89
248.888	9329.43
248.959	9285.47
249.03	9299.34
249.101	9306.85
249.172	9293.42
249.243	9245.33
249.314	9295.79
249.385	9306.04
249.456	9331.41
249.527	9325.2
249.598	9343.01
249.669	9346.62
249.739	9357.65
249.81	9363.81
249.881	9334.68
249.952	9324.71
250.023	9322.98
250.094	9276.56
250.165	9255.03
250.235	9248.19
250.306	9251.22
250.377	9227.72
250.448	9253.14
250.519	9209.48
250.59	9251.95
250.66	9251.61
250.731	9307.99
250.802	9308.95
250.873	9320.03
250.944	9335.43
251.014	9329.27
251.085	9392.08
251.156	9411.29
251.227	9456.66
251.297	9494.76
251.368	9525.09
251.439	9558.43
251.51	9599.12
251.58	9594.55
251.651	9590.69
251.722	9632.65
251.792	9599.37
251.863	9598.99
251.934	9637.95
252.005	9722.03
252.075	9728.82
252.146	9763.2
252.217	9792.77
252.287	9821.39
252.358	9826.59
252.429	9884.1
252.499	9880.16
252.57	9892.15
252.641	9922.98
252.711	9925.96
252.782	9889.55
252.852	9954.87
252.923	9954.39
252.994	9967.98
253.064	10009.92
253.135	9996.15
253.205	9978.42
253.276	10030.14
253.347	10079.46
253.417	10064.43
253.488	10048.97
253.558	10041.55
253.629	10042.75
253.699	10053.74
253.77	10074.5
253.841	10061.55
253.911	10072.97
253.982	10083.8
254.052	10105
254.123	10118.4
254.193	10114.35
254.264	10220.11
254.334	10193.46
254.405	10167.45
254.475	10140.62
254.546	10142.5
254.616	10191.48
254.687	10214.46
254.757	10234.84
254.827	10237.25
254.898	10257.38
254.968	10262.54
255.039	10245.01
255.109	10271.69
255.18	10253.58
255.25	10198.28
255.321	10224.67
255.391	10185.21
255.461	10256.03
255.532	10195.03
255.602	10194.35
255.673	10155.92
255.743	10126.42
255.813	10068.34
255.884	10109.72
255.954	10137.03
256.024	10184.68
256.095	10188.25
256.165	10159.97
256.235	10179.1
256.306	10168.02
256.376	10208.59
256.446	10245.69
256.517	10275.51
256.587	10310.44
256.657	10326.68
256.728	10351.63
256.798	10359.48
256.868	10363.38
256.938	10339.77
257.009	10379.95
257.079	10399.17
257.149	10474.57
257.219	10437.76
257.29	10472.43
257.36	10427.87
257.43	10459.77
257.5	10414.24
257.571	10407.88
257.641	10438.71
257.711	10413.36
257.781	10435.81
257.852	10441.31
257.922	10390.04
257.992	10393.37
258.062	10386.91
258.132	10419.72
258.202	10418.62
258.273	10430.66
258.343	10483.18
258.413	10472.2
258.483	10472.58
258.553	10453.12
258.623	10436.35
258.693	10451.77
258.764	10499.27
258.834	10555.3
258.904	10561.61
258.974	10552.07
259.044	10560.26
259.114	10586.76
259.184	10605.94
259.254	10618.76
259.324	10586.42
259.394	10628.82
259.464	10691.52
259.535	10693.83
259.605	10688.82
259.675	10689.44
259.745	10726.36
259.815	10710.69
259.885	10715.7
259.955	10803.95
260.025	10796.1
260.095	10807.52
260.165	10834.6
260.235	10886.99
260.305	10879.62
260.375	10864.15
260.445	10931.6
260.515	10979.45
260.585	11016.03
260.655	11025.19
260.725	11057.77
260.795	11080.27
260.865	11127.55
260.934	11101.91
261.004	11126.73
261.074	11132.46
261.144	11173.27
261.214	11195.15
261.284	11197.95
261.354	11223.58
261.424	11187.19
261.494	11243.32
261.564	11245.34
261.634	11263.37
261.703	11217.97
261.773	11240.86
261.843	11264.38
261.913	11262.25
261.983	11226.5
262.053	11235.32
262.123	11231.03
262.192	11198.31
262.262	11231.08
262.332	11202.31
262.402	11226.69
262.472	11236.09
262.541	11191.86
262.611	11233.79
262.681	11214.51
262.751	11246.03
262.821	11249.83
262.89	11230.84
262.96	11254.51
263.03	11311.48
263.1	11335.1
263.169	11351.63
263.239	11370.57
263.309	11427.49
263.379	11451.44
263.448	11464.07
263.518	11491.3
263.588	11507.26
263.657	11566.97
263.727	11595.21
263.797	11601.38
263.867	11601.96
263.936	11575.98
264.006	11625.85
264.076	11615.06
264.145	11616.79
264.215	11604.89
264.285	11638.48
264.354	11603.35
264.424	11587.97
264.494	11555.63
264.563	11540.88
264.633	11598.48
264.702	11619.93
264.772	11570.81
264.842	11568.88
264.911	11602.96
264.981	11568.64
265.05	11577.36
265.12	11569.17
265.19	11583.92
265.259	11623.68
265.329	11643.73
265.398	11663.39
265.468	11734.88
265.537	11736.03
265.607	11764.57
265.676	11798.31
265.746	11820.04
265.815	11864.86
265.885	11877.3
265.955	11867.95
266.024	11870.84
266.094	11825.58
266.163	11867.28
266.232	11920.25
266.302	11930.76
266.371	11944.93
266.441	11962.52
266.51	12000.12
266.58	12006.91
266.649	11993.9
266.719	12027.64
266.788	12061.96
266.858	12117.01
266.927	12067.55
266.996	12092.42
267.066	12114.65
267.135	12095.12
267.205	12126.94
267.274	12151.33
267.343	12191.19
267.413	12206.13
267.482	12259.11
267.552	12306.59
267.621	12273.71
267.69	12243.39
267.76	12266.67
267.829	12291.11
267.898	12304.85
267.968	12294.68
268.037	12329.19
268.106	12374.41
268.176	12352.81
268.245	12355.03
268.314	12352.57
268.384	12399.14
268.453	12413.26
268.522	12427.72
268.592	12479.44
268.661	12469.9
268.73	12496.65
268.799	12490.63
268.869	12550.06
268.938	12516.03
269.007	12511.93
269.076	12536.85
269.146	12580.67
269.215	12610.65
269.284	12660.06
269.353	12660.16
269.422	12668.88
269.492	12662.28
269.561	12598.46
269.63	12630.37
269.699	12629.98
269.768	12651.15
269.838	12664.64
269.907	12697.13
269.976	12681.52
270.045	12643.58
270.114	12671.54
270.183	12676.31
270.253	12700.08
270.322	12671.15
270.391	12695.35
270.46	12751.56
270.529	12782.27
270.598	12818.95
270.667	12823
270.736	12802.66
270.806	12833.12
270.875	12879.74
270.944	12893.91
271.013	12993.55
271.082	13009.85
271.151	13037.23
271.22	12999.29
271.289	13015.78
271.358	13022.96
271.427	13051.11
271.496	13075.89
271.565	13075.84
271.634	13093.14
271.703	13130.02
271.772	13181.84
271.841	13193.61
271.91	13165.16
271.979	13184.35
272.048	13168.15
272.117	13206.62
272.186	13212.55
272.255	13254.01
272.324	13283.41
272.393	13315.91
272.462	13312.19
272.531	13330.08
272.6	13339.29
272.669	13401.62
272.738	13409.14
272.807	13441.43
272.876	13438.98
272.945	13545.27
273.013	13595.84
273.082	13640.24
273.151	13628.76
273.22	13648.24
273.289	13665.98
273.358	13734.91
273.427	13741.28
273.496	13777.87
273.564	13807.37
273.633	13854.32
273.702	13845.64
273.771	13860.93
273.84	13884.84
273.909	13911.73
273.977	13951.17
274.046	13972.33
274.115	14024.73
274.184	14019.43
274.253	14034.76
274.322	14088.7
274.39	14044.49
274.459	14041.51
274.528	14019.14
274.597	14046.38
274.665	14080.65
274.734	14136.67
274.803	14148.19
274.872	14170.07
274.94	14168.72
275.009	14335.73
275.078	14331.05
275.147	14368.17
275.215	14391.5
275.284	14442.41
275.353	14459.86
275.421	14429.15
275.49	14495.77
275.559	14492.15
275.627	14522.72
275.696	14542.29
275.765	14572.17
275.833	14592.23
275.902	14627.51
275.971	14687.87
276.039	14759.45
276.108	14800.13
276.177	14831.95
276.245	14835.85
276.314	14863.76
276.383	14911
276.451	14790.37
276.52	14840.74
276.588	14898.88
276.657	14954.21
276.725	14961.25
276.794	14993.02
276.863	15070.86
276.931	15049.56
277	15111.69
277.068	15170.36
277.137	15246.52
277.205	15283.34
277.274	15362.97
277.342	15418.6
277.411	15401.1
277.48	15401.68
277.548	15417.1
277.617	15454.46
277.685	15473.69
277.754	15523.34
277.822	15543.15
277.89	15611.3
277.959	15627.31
278.027	15622.58
278.096	15616.22
278.164	15722.4
278.233	15741.49
278.301	15740.04
278.37	15799.47
278.438	15797.25
278.507	15843.53
278.575	15812.29
278.643	15834.32
278.712	15822.61
278.78	15829.98
278.849	15897.85
278.917	15959.64
278.985	15982.78
279.054	16024.13
279.122	16091.61
279.191	16117.88
279.259	16138.84
279.327	16118.12
279.396	16196.87
279.464	16214.9
279.532	16279.92
279.601	16299.82
279.669	16324.64
279.737	16399.4
279.806	16444.9
279.874	16512.27
279.942	16544.04
280.011	16573.97
280.079	16636.28
280.147	16711.38
280.215	16754.94
280.284	16780.68
280.352	16783.09
280.42	16833.65
280.488	16843.38
280.557	16859.67
280.625	16903.29
280.693	16946.09
280.761	16997.08
280.83	16981.22
280.898	17050.14
280.966	17028.41
281.034	16982.53
281.102	16984.74
281.171	16996.74
281.239	17045.85
281.307	17058.62
281.375	17058.86
281.443	17158.43
281.512	17180.17
281.58	17231.06
281.648	17235.78
281.716	17266.29
281.784	17302.92
281.852	17318.72
281.92	17352.46
281.989	17416.12
282.057	17412.7
282.125	17520.65
282.193	17553.37
282.261	17592.89
282.329	17615.39
282.397	17666.62
282.465	17723.83
282.533	17805.03
282.601	17814.82
282.67	17789.32
282.738	17800.6
282.806	17866.72
282.874	17866
282.942	17902.48
283.01	17922.04
283.078	17973.22
283.146	18018.81
283.214	18076.02
283.282	18122.66
283.35	18188.4
283.418	18210.56
283.486	18258.75
283.554	18225.84
283.622	18252.44
283.69	18290.61
283.758	18320.54
283.826	18377.64
283.894	18428.67
283.962	18510.98
284.03	18589.58
284.098	18635.75
284.165	18672.18
284.233	18712.18
284.301	18744.85
284.369	18773.43
284.437	18796.37
284.505	18818.53
284.573	18883.64
284.641	18892.26
284.709	18948.45
284.777	18951.2
284.845	19004.93
284.912	19060.93
284.98	19108.35
285.048	19142.18
285.116	19190.7
285.184	19262.46
285.252	19293.69
285.319	19290.89
285.387	19299.81
285.455	19299.18
285.523	19352.43
285.591	19388.33
285.659	19422.88
285.726	19485.92
285.794	19479.99
285.862	19515.84
285.93	19558.54
285.997	19584.99
286.065	19614.39
286.133	19621.33
286.201	19648.36
286.269	19653.18
286.336	19662.29
286.404	19698.1
286.472	19752.31
286.539	19740.6
286.607	19727.06
286.675	19773.76
286.743	19831.25
286.81	19861.85
286.878	19933.46
286.946	19958.57
287.013	19985.94
287.081	20028.93
287.149	20021.32
287.216	20123.68
287.284	20143.15
287.352	20181.46
287.419	20208.4
287.487	20286.42
287.555	20341.12
287.622	20374.23
287.69	20429.41
287.758	20504.93
287.825	20526.95
287.893	20535.29
287.96	20591.72
288.028	20670.66
288.096	20708.59
288.163	20756.69
288.231	20768.93
288.298	20801.18
288.366	20871.21
288.433	20901.33
288.501	20912.56
288.569	20960.27
288.636	20968.56
288.704	21040.85
288.771	21095.6
288.839	21113.39
288.906	21132.28
288.974	21191.62
289.041	21232.63
289.109	21245.02
289.176	21295.87
289.244	21340.02
289.311	21410.92
289.379	21471.26
289.446	21513.1
289.514	21550.65
289.581	21585.99
289.649	21629.27
289.716	21667.68
289.783	21679.88
289.851	21768.81
289.918	21817.01
289.986	21884.25
290.053	21940.55
290.121	21977.38
290.188	22030.07
290.255	22147.85
290.323	22174.74
290.39	22208.64
290.458	22265.85
290.525	22338.89
290.592	22366.32
290.66	22414.72
290.727	22437.33
290.794	22508.34
290.862	22551.97
290.929	22598.79
290.996	22638.17
291.064	22703.4
291.131	22776.11
291.198	22853.74
291.266	22883.53
291.333	22926.82
291.4	22977.4
291.468	23056.44
291.535	23079
291.602	23114.3
291.669	23119.27
291.737	23167.43
291.804	23197.18
291.871	23256.68
291.938	23312.48
292.006	23413.62
292.073	23477.42
292.14	23551.1
292.207	23571.12
292.275	23597.11
292.342	23659.08
292.409	23761.19
292.476	23853.51
292.543	23869.47
292.611	23902.61
292.678	23992.75
292.745	24094.91
292.812	24160.22
292.879	24177.83
292.946	24231.99
293.014	24303.33
293.081	24369.56
293.148	24446.83
293.215	24522.81
293.282	24559.03
293.349	24616.25
293.416	24607.71
293.484	24677.71
293.551	24732.47
293.618	24819.26
293.685	24926.71
293.752	24951.03
293.819	24983.7
293.886	24987.17
293.953	25046.42
294.02	25106.59
294.087	25150.69
294.154	25170.82
294.221	25240.18
294.288	25291.76
294.356	25372.2
294.423	25425.14
294.49	25444.69
294.557	25513.41
294.624	25532.52
294.691	25622.1
294.758	25659.07
294.825	25712.49
294.892	25742.76
294.959	25777.56
295.026	25833.89
295.093	25853.69
295.16	25888.77
295.226	25937.24
295.293	26050.61
295.36	26095.74
295.427	26179.03
295.494	26252.04
295.561	26319.72
295.628	26418.23
295.695	26500.26
295.762	26542.61
295.829	26616.89
295.896	26687.22
295.963	26741.12
296.03	26813.5
296.096	26863.24
296.163	26947.28
296.23	27038.61
296.297	27103.99
296.364	27148.32
296.431	27193.19
296.498	27243.08
296.564	27354.49
296.631	27398.54
296.698	27397.43
296.765	27490.46
296.832	27504.96
296.899	27522.01
296.965	27599.75
297.032	27593.8
297.099	27677.8
297.166	27746.36
297.233	27774.62
297.299	27811.19
297.366	27867.88
297.433	27911.31
297.5	27978.78
297.566	28023.53
297.633	28063.21
297.7	28111.82
297.767	28156.17
297.833	28218.62
297.9	28258.92
297.967	28261.77
298.033	28337.46
298.1	28455.62
298.167	28480.65
298.234	28536.96
298.3	28597.52
298.367	28632.09
298.434	28685.32
298.5	28695.62
298.567	28726.95
298.634	28764.75
298.7	28852.68
298.767	28891.17
298.834	28979.46
298.9	29009.97
298.967	29024.67
299.033	29084.73
299.1	29167.91
299.167	29249.52
299.233	29277.13
299.3	29353.43
299.366	29434.66
299.433	29522.96
299.5	29487.31
299.566	29549.07
299.633	29625.39
299.699	29697.32
299.766	29727.55
299.832	29784.11
299.899	29854.5
299.965	29918.64
300.032	29953.07
300.099	30002.66
300.165	30064.2
300.232	30089.75
300.298	30132.66
300.365	30214.47
300.431	30267.12
300.498	30292.14
300.564	30348.51
300.631	30429.22
300.697	30502.26
300.763	30545.08
300.83	30577.23
300.896	30667.95
300.963	30726.9
301.029	30785.13
301.096	30828.65
301.162	30896.84
301.229	30916.83
301.295	30920.12
301.361	30979.03
301.428	31035.79
301.494	31046.63
301.561	31092.23
301.627	31140.64
301.693	31193.93
301.76	31238.33
301.826	31256.15
301.892	31326.69
301.959	31386.49
302.025	31407.6
302.092	31416.22
302.158	31474.46
302.224	31517.67
302.291	31533.12
302.357	31562.36
302.423	31581.98
302.49	31609.97
302.556	31676.85
302.622	31729.15
302.688	31799.17
302.755	31874.11
302.821	31933.77
302.887	32011.93
302.954	32058.57
303.02	32114.42
303.086	32169.88
303.152	32198.26
303.219	32233.37
303.285	32275.96
303.351	32325.14
303.417	32378.47
303.483	32409.52
303.55	32440.61
303.616	32474.49
303.682	32515.9
303.748	32535.27
303.815	32598.6
303.881	32662.85
303.947	32671.13
304.013	32700.06
304.079	32728.06
304.145	32708.29
304.212	32742.69
304.278	32754.8
304.344	32771.66
304.41	32771.08
304.476	32781.4
304.542	32815.13
304.608	32869.54
304.674	32874.68
304.741	32898.04
304.807	32941.66
304.873	33007.32
304.939	33068.44
305.005	33047.45
305.071	33069.4
305.137	33122.8
305.203	33106.47
305.269	33128.33
305.335	33189.6
305.401	33230.41
305.467	33252.65
305.533	33310.52
305.599	33362.92
305.666	33420.16
305.732	33459.76
305.798	33538.04
305.864	33633.99
305.93	33674.07
305.996	33698.99
306.062	33740.68
306.128	33759.92
306.194	33759.29
306.259	33770.73
306.325	33783.34
306.391	33844.32
306.457	33910.44
306.523	33944.42
306.589	34038.39
306.655	34055.45
306.721	34047.84
306.787	34050.31
306.853	34126.29
306.919	34124.99
306.985	34140.41
307.051	34150.88
307.117	34164.6
307.183	34169.55
307.248	34128.13
307.314	34181.52
307.38	34220.17
307.446	34260.81
307.512	34274.68
307.578	34322.05
307.644	34346.15
307.709	34389.36
307.775	34425.78
307.841	34455.9
307.907	34492.8
307.973	34464.19
308.039	34494.64
308.104	34534.55
308.17	34568.3
308.236	34569.66
308.302	34611.8
308.368	34609.66
308.433	34646.32
308.499	34671.06
308.565	34679.59
308.631	34717.85
308.696	34688.9
308.762	34696.95
308.828	34721.2
308.894	34696.67
308.959	34678.05
309.025	34699.63
309.091	34717.05
309.156	34728.15
309.222	34755.76
309.288	34749.26
309.354	34745.62
309.419	34771.33
309.485	34773.75
309.551	34826.43
309.616	34809.94
309.682	34832.55
309.748	34851.94
309.813	34868.87
309.879	34870.91
309.945	34882.36
310.01	34902.73
310.076	34945.36
310.141	34963.02
310.207	34959.63
310.273	35011.03
310.338	35055.99
310.404	35039.69
310.469	35037.85
310.535	35041.58
310.601	35007.82
310.666	35061.28
310.732	35118.57
310.797	35124.88
310.863	35138.51
310.928	35145.15
310.994	35185.9
311.059	35208.32
311.125	35232.47
311.191	35284.59
311.256	35305.2
311.322	35347.02
311.387	35333.24
311.453	35976.58
311.518	35955.43
311.584	35977.65
311.649	36030.09
311.715	36030.29
311.78	36064.58
311.846	36068.85
311.911	36113.68
311.976	36158.36
312.042	36143.23
312.107	36123.19
312.173	36124.16
312.238	36138.13
312.304	36157.01
312.369	36168.6
312.434	36163.56
312.5	36180.05
312.565	36127.89
312.631	36151.61
312.696	36157.97
312.761	36196.59
312.827	35595.95
312.892	35702.08
312.958	35731.97
313.023	35752.36
313.088	35778.17
313.154	35770.07
313.219	35773.22
313.284	35768.61
313.35	35789.23
313.415	35788.84
313.48	35804.56
313.546	35836.68
313.611	35895.21
313.676	35894.14
313.741	35892.78
313.807	35934.71
313.872	35962.22
313.937	36006.86
314.003	36063.01
314.068	36080.53
314.133	36111.35
314.198	36094.8
314.264	36070.19
314.329	36055.24
314.394	36058.88
314.459	36080.23
314.525	36161.71
314.59	36183.59
314.655	36183.3
314.72	36214.36
314.785	36238.09
314.851	36254.98
314.916	36237.41
314.981	36213.39
315.046	36218.29
315.111	36219.26
315.176	36219.6
315.242	36254.88
315.307	36282.89
315.372	36257.8
315.437	36270.27
315.502	36278.28
315.567	36331.42
315.632	36320.55
315.698	36353.75
315.763	36370.64
315.828	36371.56
315.893	36373.41
315.958	36380.44
316.023	36374.33
316.088	36343.51
316.153	36318.23
316.218	36315.85
316.283	36283.73
316.348	36251.46
316.413	36249.62
316.479	36218.23
316.544	36138.85
316.609	36069.26
316.674	35968.92
316.739	35874.03
316.804	35781.99
316.869	35676.42
316.934	35575.49
316.999	35477.11
317.064	35331.04
317.129	35196.5
317.194	35070.49
317.259	34919.23
317.324	34765.02
317.389	34620.36
317.454	34494.84
317.518	34373.33
317.583	34280.93
317.648	34190.45
317.713	34068.65
317.778	33881.63
317.843	33768.09
317.908	33622.06
317.973	33461.02
318.038	33347.11
318.103	33220
318.168	33099.32
318.233	32969.16
318.297	32784.63
318.362	32640.83
318.427	32484.04
318.492	32362.62
318.557	32199.46
318.622	32070.84
318.687	31969.63
318.751	31825.39
318.816	31673.37
318.881	31515.24
318.946	31314.13
319.011	31145.73
319.075	30963.67
319.14	30817.08
319.205	30638.08
319.27	30498.05
319.335	30324.45
319.399	30153.96
319.464	29999.44
319.529	29786.79
319.594	29617.58
319.658	29477.37
319.723	29304.86
319.788	29173.87
319.853	28961.19
319.917	28808
319.982	28605.62
320.047	28419.5
320.112	28267.59
320.176	28061.81
320.241	27911.22
320.306	27758.81
320.37	27570.76
320.435	27413.03
320.5	27252.78
320.564	27066.54
320.629	26878.53
320.694	26723.95
320.758	26534.89
320.823	26349.77
320.888	26203.02
320.952	25990.43
321.017	25788.89
321.082	25600.07
321.146	25411.97
321.211	25247.51
321.275	25057.35
321.34	24866.05
321.405	24672.04
321.469	24467.53
321.534	24272.19
321.598	24052.46
321.663	23873.82
321.727	23704.52
321.792	23495.35
321.857	23298.24
321.921	23120.59
321.986	22925.03
322.05	22668.82
322.115	22487.19
322.179	22291.45
322.244	22060.54
322.308	21893.84
322.373	21691.05
322.437	21498.19
322.502	21343.4
322.566	21131.75
322.631	20946.67
322.695	20748.05
322.76	20540.18
322.824	20362.82
322.889	20171.5
322.953	19957.18
323.018	19696.74
323.082	19438.18
323.146	19208.35
323.211	18979.58
323.275	18764.11
323.34	18552.6
323.404	18385.85
323.468	18165.52
323.533	17939.3
323.597	17731.1
323.662	17505.17
323.726	17322.86
323.79	17103.62
323.855	16838.55
323.919	16615.55
323.983	16401.22
324.048	16086.04
324.112	16149.07
324.177	15483.86
324.241	14632.6
324.305	13805.75
324.37	12987.28
324.434	12190.07
324.498	11971.17
324.562	11716.77
324.627	11434.49
324.691	11149.43
324.755	10828.67
324.82	10467.44
324.884	10099.43
324.948	9706.02
325.012	9233.21
325.077	8644.44
