Data from 20250626_urea_1M_exp2_MAYP1162681_16-14-00-917.txt Node
Date: Thu Jun 26 16:14:00 BST 2025
User: adleo
Spectrometer: MAYP116268
Trigger mode: 0
Integration Time (sec): 3.000000E0
Scans to average: 1
Electric dark correction enabled: true
Nonlinearity correction enabled: true
Boxcar width: 10
XAxis mode: Wavelengths
Number of Pixels in Spectrum: 2068
>>>>>Begin Spectral Data<<<<<
179.565	3378.26
179.642	3543.67
179.718	3672.87
179.795	3804.03
179.871	3904.42
179.948	3967.8
180.024	4036.74
180.101	4110.26
180.177	4151.58
180.254	4223.24
180.33	4293.38
180.407	4530.45
180.483	4795.38
180.56	5060.02
180.636	5305.65
180.712	5272.09
180.789	5297.4
180.865	5337.53
180.942	5365.18
181.018	5394.03
181.095	5430.81
181.171	5447.21
181.248	5458.28
181.324	5505.61
181.4	5521.1
181.477	5552.94
181.553	5587.44
181.63	5647.72
181.706	5689.68
181.782	5720.92
181.859	5724.57
181.935	5742.46
182.011	5738.96
182.088	5788.22
182.164	5848.6
182.24	5884.36
182.317	5915.04
182.393	5908.61
182.469	5940.89
182.546	5977.64
182.622	5995.58
182.698	5985.98
182.775	6023.74
182.851	6063.17
182.927	6043.6
183.003	6036.41
183.08	6024.8
183.156	6053.73
183.232	6042.01
183.308	6010.64
183.385	6030.11
183.461	6076.8
183.537	6076.66
183.613	6109.15
183.69	6080.26
183.766	6046.75
183.842	6074.1
183.918	6091.33
183.995	6131.62
184.071	6145.98
184.147	6127.17
184.223	6094.61
184.299	6127.54
184.375	6093.08
184.452	6107.92
184.528	6225.34
184.604	6253.02
184.68	6285.36
184.756	6306.73
184.832	6321.75
184.908	6336.33
184.985	6339.21
185.061	6289.98
185.137	6318.06
185.213	6281.11
185.289	6280.49
185.365	6258.23
185.441	6248.96
185.517	6290.22
185.593	6278.89
185.669	6272.41
185.745	6303.08
185.822	6354.64
185.898	6327.57
185.974	6353.47
186.05	6332.3
186.126	6258.89
186.202	6237.35
186.278	6221.61
186.354	6198.18
186.43	6214.75
186.506	6214.32
186.582	6211.63
186.658	6236.28
186.734	6170.66
186.81	6183.08
186.886	6198.24
186.962	6234.27
187.038	6223.04
187.114	6195.37
187.19	6216.45
187.266	6193.51
187.341	6197.79
187.417	6171.06
187.493	6175.52
187.569	6184.93
187.645	6169.82
187.721	6139.48
187.797	6166.92
187.873	6179.4
187.949	6156.85
188.025	6137.4
188.101	6140.91
188.176	6154.15
188.252	6136.26
188.328	6168.38
188.404	6163.82
188.48	6148.47
188.556	6122.17
188.632	6123.66
188.707	6125.63
188.783	6121.36
188.859	6104.43
188.935	6070.69
189.011	6096.79
189.086	6082.54
189.162	6052.55
189.238	6047.66
189.314	6035.23
189.39	6012.44
189.465	5992.86
189.541	6039.7
189.617	5997.29
189.693	5984.25
189.768	5996.82
189.844	6066.58
189.92	6036.85
189.996	6064.01
190.071	6097.99
190.147	6099.86
190.223	6124.73
190.298	6103.27
190.374	6060.85
190.45	6094.95
190.526	6115.93
190.601	6094.71
190.677	6095.96
190.753	6183.71
190.828	6193.35
190.904	6241.49
190.98	6287.43
191.055	6318.1
191.131	6291.41
191.207	6351.06
191.282	6378.16
191.358	6350.52
191.433	6309.5
191.509	6353.58
191.585	6341.34
191.66	6340.18
191.736	6370.66
191.811	6347.71
191.887	6395.3
191.963	6464.33
192.038	6481.61
192.114	6485.54
192.189	6497.92
192.265	6483.06
192.34	6419.02
192.416	6419.97
192.491	6406.86
192.567	6418.59
192.642	6429.49
192.718	6432.27
192.793	6400.2
192.869	6388.21
192.944	6392.04
193.02	6420.33
193.095	6424.75
193.171	6447.45
193.246	6448.6
193.322	6435.4
193.397	6434.92
193.473	6388.97
193.548	6335.24
193.624	6351.57
193.699	6348.3
193.775	6395.23
193.85	6402.47
193.925	6419.51
194.001	6408.43
194.076	6385.2
194.152	6347.5
194.227	6321.86
194.302	6296.09
194.378	6302.81
194.453	6297.82
194.529	6337.48
194.604	6287.69
194.679	6279.92
194.755	6223.11
194.83	6260.34
194.905	6257.94
194.981	6282.47
195.056	6266.4
195.131	6287.23
195.207	6278.49
195.282	6249.46
195.357	6194.57
195.433	6239.83
195.508	6209.11
195.583	6239.63
195.659	6282.22
195.734	6302.77
195.809	6302.91
195.884	6327.57
195.96	6328.57
196.035	6370.62
196.11	6360.11
196.185	6395.77
196.261	6398.5
196.336	6486.54
196.411	6435.43
196.486	6450.75
196.561	6432.55
196.637	6461.63
196.712	6509.67
196.787	6520.57
196.862	6567.27
196.937	6590.46
197.013	6605.3
197.088	6637.89
197.163	6694.59
197.238	6741.7
197.313	6739.49
197.388	6782.67
197.464	6867.86
197.539	6900.75
197.614	6881.21
197.689	6911.14
197.764	6956.74
197.839	7016.6
197.914	7003.04
197.989	7072.18
198.065	7104.07
198.14	7255.01
198.215	7324.4
198.29	7356.96
198.365	7398.2
198.44	7425.68
198.515	7507.68
198.59	7553.16
198.665	7626.71
198.74	7646.38
198.815	7648.98
198.89	7717.29
198.965	7796.46
199.04	7785.64
199.115	7828.47
199.19	7951.4
199.265	7966.93
199.34	7997.52
199.415	8093.47
199.49	8158.86
199.565	8186.81
199.64	8264.35
199.715	8250.82
199.79	8270.25
199.865	8290.41
199.94	8285.6
200.015	8384.38
200.09	8405.94
200.165	8423.45
200.24	8444.72
200.315	8557.63
200.39	8605.27
200.464	8624.13
200.539	8630.2
200.614	8674.89
200.689	8747.13
200.764	8764.7
200.839	8810.16
200.914	8823.39
200.989	8794.26
201.063	8830.98
201.138	8780.25
201.213	8778.47
201.288	8726.83
201.363	8745.46
201.438	8743.15
201.512	8780.76
201.587	8726.85
201.662	8734.79
201.737	8773.35
201.812	8801.65
201.886	8707.56
201.961	8737.7
202.036	8699.41
202.111	8694.55
202.186	8609.58
202.26	8555.76
202.335	8497.19
202.41	8477.94
202.485	8431.43
202.559	8373.45
202.634	8291.38
202.709	8317.82
202.784	8257.83
202.858	8258.64
202.933	8205.78
203.008	8187.35
203.082	8134.97
203.157	8133.15
203.232	8011.66
203.306	7943.18
203.381	7846.53
203.456	7780.98
203.53	7708.64
203.605	7654.91
203.68	7580.4
203.754	7563.01
203.829	7520.84
203.904	7459.65
203.978	7424.4
204.053	7436.23
204.127	7398.02
204.202	7396.48
204.277	7348.95
204.351	7327.41
204.426	7297.65
204.5	7270.11
204.575	7165.05
204.65	7196.93
204.724	7168.65
204.799	7194.77
204.873	7182.75
204.948	7171.84
205.022	7140.95
205.097	7114.79
205.171	7154.96
205.246	7182.7
205.32	7183.71
205.395	7181.11
205.469	7160.27
205.544	7174.6
205.618	7121.93
205.693	7154.9
205.767	7116.75
205.842	7175.73
205.916	7166.93
205.991	7138.78
206.065	7155.4
206.14	7205.33
206.214	7181.95
206.289	7158.83
206.363	7192.91
206.438	7202.91
206.512	7228.96
206.586	7285.94
206.661	7312.3
206.735	7247.89
206.81	7250.78
206.884	7295.12
206.958	7257.84
207.033	7297.18
207.107	7318.1
207.181	7408.64
207.256	7389.12
207.33	7445.3
207.405	7486.2
207.479	7532.97
207.553	7560.5
207.628	7514.53
207.702	7547.89
207.776	7534
207.851	7549.62
207.925	7588.58
207.999	7574.44
208.073	7566.41
208.148	7569.25
208.222	7535.4
208.296	7623.56
208.371	7666.24
208.445	7689.42
208.519	7776.18
208.593	7815.27
208.668	7807.14
208.742	7815.32
208.816	7831.52
208.89	7872.51
208.965	7859.61
209.039	7888.04
209.113	7932.62
209.187	7998.26
209.261	7985.42
209.336	8048.43
209.41	8102.93
209.484	8112.22
209.558	8182.64
209.632	8220.54
209.707	8250.94
209.781	8315.97
209.855	8366.93
209.929	8413.69
210.003	8436.49
210.077	8433.08
210.151	8569.92
210.226	8669.96
210.3	8749.08
210.374	8805.8
210.448	8818.84
210.522	8847.43
210.596	8874.34
210.67	8899.99
210.744	9033.06
210.818	9130.68
210.892	9189.71
210.966	9172.24
211.041	9207
211.115	9197.18
211.189	9272.04
211.263	9325.04
211.337	9342.61
211.411	9383.35
211.485	9364.86
211.559	9403.07
211.633	9411.64
211.707	9319.54
211.781	9344.11
211.855	9237.37
211.929	9215.81
212.003	9156.68
212.077	9188.03
212.151	9219.19
212.225	9252.26
212.299	9219.02
212.373	9181.33
212.447	9165.15
212.52	9256.15
212.594	9269.44
212.668	9305.11
212.742	9255.18
212.816	9237.27
212.89	9217.68
212.964	9210.59
213.038	9224.27
213.112	9256.88
213.186	9294.23
213.26	9231.39
213.333	9087.65
213.407	9100.64
213.481	9118.64
213.555	9151.73
213.629	9114.41
213.703	9064.92
213.777	9050.52
213.85	8988.07
213.924	9084
213.998	9080.92
214.072	9050.14
214.146	9002.72
214.219	8982.64
214.293	8972.73
214.367	8973.98
214.441	9001.9
214.515	8957.03
214.588	8881.6
214.662	8772.39
214.736	8705.4
214.81	8723.43
214.883	8745.41
214.957	8710.58
215.031	8656.66
215.105	8580.32
215.178	8523.53
215.252	8494.9
215.326	8413.87
215.4	8343.23
215.473	8185.83
215.547	8107.39
215.621	8056.07
215.694	8061.22
215.768	7979.68
215.842	7921.92
215.915	7858.93
215.989	7758.05
216.063	7709.26
216.136	7694.88
216.21	7673.34
216.284	7689.12
216.357	7668.44
216.431	7634.88
216.504	7632.96
216.578	7677.3
216.652	7690.71
216.725	7676.42
216.799	7685.23
216.873	7666.05
216.946	7679.31
217.02	7647.51
217.093	7631.07
217.167	7546.11
217.24	7469.79
217.314	7440.19
217.387	7397.92
217.461	7361.48
217.535	7381.96
217.608	7329.68
217.682	7301.74
217.755	7311.74
217.829	7259.33
217.902	7245.78
217.976	7224.59
218.049	7178.26
218.123	7112.38
218.196	7106.81
218.27	7071.2
218.343	7007.83
218.417	7008.12
218.49	6982.56
218.563	7023.5
218.637	7030.42
218.71	7096.17
218.784	7121.22
218.857	7150.24
218.931	7174.1
219.004	7184.77
219.077	7199.29
219.151	7221.15
219.224	7215.29
219.298	7208.66
219.371	7250.96
219.444	7218.29
219.518	7229.92
219.591	7246.88
219.665	7347.7
219.738	7362.31
219.811	7355.39
219.885	7395.81
219.958	7427.74
220.031	7435.42
220.105	7448.31
220.178	7452.44
220.251	7423.64
220.325	7441.67
220.398	7453.78
220.471	7469.4
220.544	7497.82
220.618	7479.45
220.691	7503.96
220.764	7524.48
220.838	7553.91
220.911	7541.93
220.984	7614.32
221.057	7649.89
221.131	7676.47
221.204	7583.34
221.277	7650.34
221.35	7757.24
221.424	7751.18
221.497	7758.3
221.57	7779.87
221.643	7810.76
221.716	7848.42
221.79	7856.88
221.863	7870.06
221.936	7879.73
222.009	7895.93
222.082	7913.24
222.155	7924.98
222.229	7986.13
222.302	8010.51
222.375	8018.59
222.448	8047.88
222.521	8057.36
222.594	8053.27
222.667	8031.78
222.74	8088.1
222.814	8079.53
222.887	8060.18
222.96	8105.45
223.033	8143.32
223.106	8167.31
223.179	8197.06
223.252	8205.86
223.325	8232.6
223.398	8240.69
223.471	8265.75
223.544	8280.7
223.617	8301.3
223.69	8321.02
223.763	8286.22
223.837	8311.39
223.91	8343.48
223.983	8307.7
224.056	8279.13
224.129	8302.65
224.202	8352.03
224.275	8340.92
224.348	8315.9
224.42	8296.7
224.493	8249.85
224.566	8229.68
224.639	8246.14
224.712	8218.94
224.785	8208.4
224.858	8200.75
224.931	8187.81
225.004	8156.6
225.077	8160.83
225.15	8086.48
225.223	8088.16
225.296	8162.39
225.369	8107.7
225.442	8071.81
225.514	8087.44
225.587	8103.98
225.66	8116.35
225.733	8114.76
225.806	8118.9
225.879	8114.09
225.952	8084.51
226.025	8132.09
226.097	8176.08
226.17	8171.13
226.243	8116.59
226.316	8114.81
226.389	8119.14
226.461	8142.04
226.534	8167.29
226.607	8158.78
226.68	8223.89
226.753	8215.13
226.825	8138.55
226.898	8190.3
226.971	8195.69
227.044	8215.17
227.117	8224.5
227.189	8238.03
227.262	8272.73
227.335	8293.56
227.407	8295.1
227.48	8327.61
227.553	8338.34
227.626	8323.42
227.698	8336.65
227.771	8372.66
227.844	8360.93
227.916	8380.46
227.989	8349.71
228.062	8348.8
228.134	8427.49
228.207	8441.49
228.28	8442.98
228.352	8462.61
228.425	8477.05
228.498	8524.75
228.57	8509.26
228.643	8559.22
228.716	8564.66
228.788	8553.87
228.861	8558.59
228.934	8613.98
229.006	8628.89
229.079	8637.56
229.151	8633.37
229.224	8597.72
229.296	8623.42
229.369	8714.84
229.442	8763.08
229.514	8756.3
229.587	8792.73
229.659	8729.96
229.732	8735.98
229.804	8771.15
229.877	8836.35
229.949	8860.9
230.022	8901.21
230.094	8905.82
230.167	8906.16
230.239	8867.57
230.312	8861.21
230.384	8921.41
230.457	8918.47
230.529	8919.82
230.602	8911.63
230.674	8917.8
230.747	8956.71
230.819	8979.48
230.892	8876.8
230.964	8874.3
231.037	8894.79
231.109	8892.24
231.181	8934.4
231.254	8908.79
231.326	8894.98
231.399	8879.04
231.471	8851.12
231.544	8786.36
231.616	8828.46
231.688	8826.15
231.761	8822.4
231.833	8814.22
231.905	8737.28
231.978	8740.65
232.05	8725.25
232.122	8737
232.195	8721.11
232.267	8756.97
232.339	8746.14
232.412	8809.57
232.484	8793.92
232.556	8771.89
232.629	8833.05
232.701	8846.48
232.773	8856.82
232.846	8852.83
232.918	8853.7
232.99	8878.2
233.062	8915.32
233.135	8927.26
233.207	8902.22
233.279	8943.61
233.351	8972.24
233.424	8983.12
233.496	8962.52
233.568	9046.86
233.64	9008.84
233.713	9022.99
233.785	9020.2
233.857	9035.99
233.929	8992.82
234.001	9047.43
234.074	9112.21
234.146	9052.2
234.218	9051.43
234.29	9053.17
234.362	9043.69
234.434	9005.46
234.507	8975.71
234.579	8937.44
234.651	8922.56
234.723	8948.65
234.795	8968.39
234.867	8964.49
234.939	9013.31
235.012	9032.23
235.084	9036.57
235.156	9072.33
235.228	9062.6
235.3	9052.59
235.372	9061.83
235.444	9119.6
235.516	9056.65
235.588	9054.29
235.66	9070.71
235.732	9048.08
235.804	9221.51
235.876	9265.21
235.948	9327.29
236.02	9341
236.092	9357.56
236.164	9373.11
236.236	9381.92
236.308	9371.09
236.38	9405.13
236.452	9398.82
236.524	9422.22
236.596	9474.79
236.668	9512.35
236.74	9534.31
236.812	9562.23
236.884	9597.34
236.956	9601.92
237.028	9597.73
237.1	9590.41
237.172	9653.66
237.244	9728.16
237.316	9630.43
237.388	9620.65
237.46	9607.07
237.532	9663.46
237.604	9657.83
237.675	9725.79
237.747	9767.12
237.819	9765.92
237.891	9769.96
237.963	9757.69
238.035	9751.04
238.107	9657.44
238.178	9714.05
238.25	9727.2
238.322	9802.98
238.394	9768.59
238.466	9777.26
238.538	9816.84
238.609	9855.37
238.681	9811.82
238.753	9788.65
238.825	9812.74
238.897	9838.79
238.968	9905.42
239.04	9897.66
239.112	9997.27
239.184	9966.77
239.255	9962.44
239.327	9998.99
239.399	10018.11
239.471	10057.41
239.542	10091.22
239.614	10152.34
239.686	10086.97
239.758	10135.86
239.829	10112.58
239.901	10170.44
239.973	10189.42
240.044	10223.38
240.116	10242.74
240.188	10257.77
240.259	10277.71
240.331	10268.08
240.403	10311.82
240.474	10276.3
240.546	10262.67
240.618	10214.54
240.689	10209.05
240.761	10228.75
240.833	10282.91
240.904	10291.77
240.976	10299.77
241.048	10322.94
241.119	10362.17
241.191	10404.37
241.262	10460.51
241.334	10467.35
241.405	10472.94
241.477	10474.44
241.549	10485.52
241.62	10508.31
241.692	10555.28
241.763	10613.21
241.835	10637.78
241.906	10659.03
241.978	10638.22
242.049	10710.39
242.121	10766.71
242.192	10834.55
242.264	10808.59
242.335	10776.16
242.407	10821.84
242.478	10833.5
242.55	10854.7
242.621	10848.53
242.693	10856.43
242.764	10859.86
242.836	10871.18
242.907	10903.37
242.979	10935.85
243.05	10959.07
243.122	10986.49
243.193	10985
243.264	10924.09
243.336	10930.31
243.407	10956.43
243.479	11031.12
243.55	11049
243.622	11065.87
243.693	11062.54
243.764	11132.07
243.836	11118.68
243.907	11105.53
243.978	11113.23
244.05	11140.9
244.121	11104.47
244.192	11138.2
244.264	11093.53
244.335	11107.07
244.407	11071.6
244.478	11086.06
244.549	11082.54
244.62	11049.92
244.692	11058.64
244.763	11102
244.834	11093.04
244.906	11075.16
244.977	11093.62
245.048	11144.67
245.119	11138.07
245.191	11123.08
245.262	11074.69
245.333	11142.88
245.405	11170.2
245.476	11202.34
245.547	11217.77
245.618	11271.64
245.689	11282.44
245.761	11320.08
245.832	11326.39
245.903	11373.09
245.974	11412.47
246.045	11434.25
246.117	11517.05
246.188	11512.43
246.259	11504.19
246.33	11523.99
246.401	11544.23
246.473	11518.5
246.544	11510.49
246.615	11563.9
246.686	11578.41
246.757	11648.67
246.828	11638.02
246.899	11706.03
246.97	11687.58
247.042	11683.38
247.113	11721.22
247.184	11817.87
247.255	11831.08
247.326	11868
247.397	11881.54
247.468	11891.14
247.539	11905.5
247.61	11867.47
247.681	11905.16
247.752	11947.57
247.823	11935.91
247.894	11955.81
247.965	11934.8
248.037	11921.93
248.108	11872.52
248.179	11883.66
248.25	11878.16
248.321	11905.06
248.392	11861.05
248.463	11927.61
248.534	11926.59
248.605	11945.59
248.675	11915.55
248.746	11926.59
248.817	11939.41
248.888	11949.25
248.959	11905.87
249.03	11925.87
249.101	11927.37
249.172	11913.39
249.243	11867.22
249.314	11915.13
249.385	11922.94
249.456	11954.26
249.527	11951.03
249.598	11975.61
249.669	11968.09
249.739	11976.58
249.81	11992.48
249.881	11958.12
249.952	11955.42
250.023	11955.76
250.094	11914.83
250.165	11881.62
250.235	11875.55
250.306	11878.97
250.377	11865.71
250.448	11890
250.519	11839.64
250.59	11906.73
250.66	11907.65
250.731	11968.96
250.802	11983.8
250.873	12000.87
250.944	12026.56
251.014	12024.24
251.085	12104.41
251.156	12142.78
251.227	12196.52
251.297	12248.54
251.368	12294.62
251.439	12329.28
251.51	12388.33
251.58	12380.61
251.651	12390.3
251.722	12442.22
251.792	12399.9
251.863	12396.38
251.934	12447.28
252.005	12550
252.075	12555.59
252.146	12614.21
252.217	12661.54
252.287	12699.43
252.358	12712.59
252.429	12777.14
252.499	12779.74
252.57	12792.37
252.641	12825.49
252.711	12828.67
252.782	12782.83
252.852	12858.95
252.923	12860.87
252.994	12868.73
253.064	12916.36
253.135	12901.99
253.205	12882.23
253.276	12949.13
253.347	13014.06
253.417	12999.99
253.488	12986.49
253.558	12976.7
253.629	12970.24
253.699	12979.02
253.77	13010.45
253.841	13006.11
253.911	13021.58
253.982	13035.42
254.052	13060.92
254.123	13080.3
254.193	13084.59
254.264	13208.91
254.334	13173.09
254.405	13150.68
254.475	13124.98
254.546	13135.01
254.616	13193.44
254.687	13219.9
254.757	13244
254.827	13244.25
254.898	13263.29
254.968	13265.99
255.039	13252.06
255.109	13287.73
255.18	13265.94
255.25	13198.02
255.321	13227.76
255.391	13188.37
255.461	13267.82
255.532	13200.52
255.602	13193.72
255.673	13149.76
255.743	13127.97
255.813	13075.14
255.884	13119.68
255.954	13160.22
256.024	13215.52
256.095	13216.14
256.165	13195.66
256.235	13214.5
256.306	13201.97
256.376	13253.21
256.446	13298.77
256.517	13327.84
256.587	13369.97
256.657	13392.77
256.728	13422.08
256.798	13435.39
256.868	13442.86
256.938	13416.54
257.009	13468.46
257.079	13504.18
257.149	13601.12
257.219	13547.47
257.29	13586.99
257.36	13539.56
257.43	13571.18
257.5	13515.12
257.571	13514.44
257.641	13550.21
257.711	13530.74
257.781	13559.85
257.852	13578.07
257.922	13527.41
257.992	13532.66
258.062	13528.71
258.132	13564.48
258.202	13571.42
258.273	13583.33
258.343	13644.6
258.413	13636.16
258.483	13640.74
258.553	13618.28
258.623	13595.24
258.693	13620.98
258.764	13687.17
258.834	13756.25
258.904	13769.02
258.974	13762.95
259.044	13774.32
259.114	13803.73
259.184	13831.5
259.254	13847.6
259.324	13795.15
259.394	13839.74
259.464	13915.52
259.535	13929.55
259.605	13937.74
259.675	13926.32
259.745	13962.95
259.815	13952.97
259.885	13959.39
259.955	14060.76
260.025	14058.2
260.095	14067.55
260.165	14103.27
260.235	14153.12
260.305	14147.19
260.375	14135.67
260.445	14224.75
260.515	14280.81
260.585	14322.75
260.655	14331.14
260.725	14365.17
260.795	14412.66
260.865	14474.16
260.934	14442.35
261.004	14459.12
261.074	14448.23
261.144	14513.79
261.214	14540.11
261.284	14536.83
261.354	14570.67
261.424	14530.57
261.494	14591.74
261.564	14601.29
261.634	14622.26
261.703	14564.41
261.773	14582.63
261.843	14609
261.913	14598.2
261.983	14558.87
262.053	14567.55
262.123	14563.06
262.192	14531.1
262.262	14558.82
262.332	14517.36
262.402	14551.4
262.472	14566
262.541	14524.26
262.611	14567.78
262.681	14554.67
262.751	14586.54
262.821	14589.91
262.89	14559.4
262.96	14584.8
263.03	14652.91
263.1	14671.28
263.169	14688.87
263.239	14718.61
263.309	14776.41
263.379	14802.97
263.448	14823.22
263.518	14856.81
263.588	14874.98
263.657	14934.61
263.727	14970.67
263.797	14985.81
263.867	14987.69
263.936	14956.59
264.006	15016.27
264.076	15006.01
264.145	15003.4
264.215	14992.03
264.285	15032.66
264.354	14996.61
264.424	14981.52
264.494	14942.47
264.563	14934.71
264.633	15005.19
264.702	15027.99
264.772	14981.86
264.842	14978.48
264.911	15004.95
264.981	14962.67
265.05	14978.97
265.12	14978.34
265.19	14988.13
265.259	15023.27
265.329	15050.45
265.398	15075.52
265.468	15166.71
265.537	15171.2
265.607	15202.05
265.676	15248.27
265.746	15267.22
265.815	15319.71
265.885	15328.77
265.955	15310.22
266.024	15314.94
266.094	15263.8
266.163	15315.8
266.232	15370.85
266.302	15380.01
266.371	15401.75
266.441	15422.04
266.51	15455.64
266.58	15460.12
266.649	15453.08
266.719	15492.37
266.788	15525.04
266.858	15589.44
266.927	15526.59
266.996	15547.8
267.066	15571.7
267.135	15547.99
267.205	15583.22
267.274	15607.71
267.343	15659.38
267.413	15671.77
267.482	15733.17
267.552	15788.37
267.621	15744.17
267.69	15709.27
267.76	15735.11
267.829	15764.75
267.898	15786.97
267.968	15778.34
268.037	15819.02
268.106	15863.94
268.176	15845.53
268.245	15856.57
268.314	15848.86
268.384	15897.35
268.453	15916.67
268.522	15938.22
268.592	15998.13
268.661	15981.12
268.73	16007.29
268.799	15991.63
268.869	16075.01
268.938	16032.07
269.007	16022.09
269.076	16053.42
269.146	16103.84
269.215	16136.66
269.284	16192.71
269.353	16188.85
269.422	16193.19
269.492	16187.75
269.561	16113.37
269.63	16147.69
269.699	16139.35
269.768	16149.72
269.838	16172.51
269.907	16203.74
269.976	16182.01
270.045	16131.45
270.114	16173.38
270.183	16177.86
270.253	16212.85
270.322	16165.38
270.391	16189.09
270.46	16251.65
270.529	16288.47
270.598	16332.52
270.667	16330.4
270.736	16302.21
270.806	16331.51
270.875	16384.1
270.944	16393.25
271.013	16502.57
271.082	16524.25
271.151	16556.5
271.22	16531.72
271.289	16543.96
271.358	16544.74
271.427	16573.65
271.496	16598.72
271.565	16590.09
271.634	16611.73
271.703	16715.54
271.772	16774.82
271.841	16789.09
271.91	16764.75
271.979	16777.62
272.048	16736.94
272.117	16776.27
272.186	16772.9
272.255	16817.76
272.324	16859.84
272.393	16891.41
272.462	16889
272.531	16894.97
272.6	16907.41
272.669	16967.75
272.738	16974.59
272.807	17009.77
272.876	17005.15
272.945	17124.91
273.013	17177.83
273.082	17230.84
273.151	17158.46
273.22	17179.47
273.289	17189.64
273.358	17248.77
273.427	17259.33
273.496	17306.12
273.564	17342.36
273.633	17397.54
273.702	17379.28
273.771	17377.01
273.84	17402.85
273.909	17430.99
273.977	17468.58
274.046	17477.21
274.115	17527.81
274.184	17525.4
274.253	17537.25
274.322	17604.24
274.39	17554.99
274.459	17547.96
274.528	17508
274.597	17517.35
274.665	17550.08
274.734	17611.19
274.803	17627.47
274.872	17643.91
274.94	17642.75
275.009	17833.64
275.078	17833.02
275.147	17871.38
275.215	17902.32
275.284	17958.6
275.353	17972.92
275.421	17942.17
275.49	18020.19
275.559	18020.87
275.627	18046.5
275.696	18065.01
275.765	18093.11
275.833	18101.06
275.902	18149.05
275.971	18223.08
276.039	18304.13
276.108	18355.36
276.177	18393.58
276.245	18403.84
276.314	18428.71
276.383	18477.28
276.451	18337.81
276.52	18371.78
276.588	18439.35
276.657	18491.73
276.725	18497.22
276.794	18527.63
276.863	18606.09
276.931	18573.7
277	18638.13
277.068	18697.6
277.137	18777.26
277.205	18811.33
277.274	18899.66
277.342	18957.63
277.411	18934.69
277.48	18936.96
277.548	18942.21
277.617	18973.34
277.685	18992.86
277.754	19045.77
277.822	19062.3
277.89	19130.15
277.959	19155.84
278.027	19140.27
278.096	19141.29
278.164	19255.6
278.233	19277.76
278.301	19283.4
278.37	19341.76
278.438	19339.01
278.507	19386.53
278.575	19360.7
278.643	19378.09
278.712	19367.83
278.78	19361.71
278.849	19437.56
278.917	19502.95
278.985	19521.27
279.054	19559.29
279.122	19619.24
279.191	19652.3
279.259	19676.44
279.327	19653.5
279.396	19729.74
279.464	19762.75
279.532	19822.46
279.601	19846.85
279.669	19867.28
279.737	19944.1
279.806	19990.46
279.874	20059.66
279.942	20086.94
280.011	20103.08
280.079	20161.54
280.147	20243.22
280.215	20294.83
280.284	20311.46
280.352	20299.65
280.42	20360.66
280.488	20365.44
280.557	20383.51
280.625	20416.71
280.693	20459.65
280.761	20502.11
280.83	20490.35
280.898	20561.48
280.966	20533.68
281.034	20476.76
281.102	20473.19
281.171	20489.91
281.239	20543.89
281.307	20549.44
281.375	20559.17
281.443	20674.02
281.512	20699.28
281.58	20755.91
281.648	20752.39
281.716	20785.16
281.784	20822.95
281.852	20838.22
281.92	20880.4
281.989	20950.67
282.057	20940.4
282.125	21057.87
282.193	21098.93
282.261	21134.02
282.329	21156
282.397	21214.74
282.465	21253.3
282.533	21333.3
282.601	21330.27
282.67	21301.97
282.738	21311.27
282.806	21375.18
282.874	21368.82
282.942	21416.98
283.01	21432.79
283.078	21486.19
283.146	21519.98
283.214	21586.74
283.282	21635.03
283.35	21699.92
283.418	21710.67
283.486	21775.49
283.554	21732.44
283.622	21758.09
283.69	21792.84
283.758	21806.43
283.826	21859.45
283.894	21936.77
283.962	22028.08
284.03	22122.23
284.098	22168.16
284.165	22193.47
284.233	22232.32
284.301	22262.45
284.369	22276.62
284.437	22280.34
284.505	22298.85
284.573	22370.96
284.641	22365.47
284.709	22416.86
284.777	22413.68
284.845	22476.12
284.912	22525.78
284.98	22586.28
285.048	22601.61
285.116	22651.07
285.184	22725.03
285.252	22757.43
285.319	22747.26
285.387	22760.08
285.455	22735.98
285.523	22790.17
285.591	22824.3
285.659	22850.57
285.726	22915.96
285.794	22907.38
285.862	22948.46
285.93	22982.69
285.997	23005.16
286.065	23037.22
286.133	23043.39
286.201	23078.3
286.269	23071.21
286.336	23080.66
286.404	23095.61
286.472	23166.49
286.539	23154.87
286.607	23147.78
286.675	23183.37
286.743	23236.07
286.81	23252.47
286.878	23328.08
286.946	23342.07
287.013	23381.55
287.081	23421.49
287.149	23421.24
287.216	23522.56
287.284	23536.26
287.352	23579.66
287.419	23610.48
287.487	23693.38
287.555	23748.22
287.622	23767.17
287.69	23827.9
287.758	23903.19
287.825	23917.22
287.893	23921.47
287.96	23975.42
288.028	24043.72
288.096	24095.43
288.163	24151.87
288.231	24160.55
288.298	24193.4
288.366	24276.52
288.433	24305.89
288.501	24311.34
288.569	24350.12
288.636	24361.7
288.704	24439.8
288.771	24490.65
288.839	24503.57
288.906	24523.21
288.974	24592.7
289.041	24637.42
289.109	24633.94
289.176	24687.37
289.244	24749.74
289.311	24826.21
289.379	24893.75
289.446	24942.54
289.514	24978.35
289.581	25010.39
289.649	25056.8
289.716	25100.66
289.783	25107.81
289.851	25206.53
289.918	25258.05
289.986	25326
290.053	25383.86
290.121	25421.95
290.188	25470.78
290.255	25593.86
290.323	25603.03
290.39	25601.34
290.458	25658.96
290.525	25737.14
290.592	25759.68
290.66	25802.01
290.727	25819.53
290.794	25897.88
290.862	25929.02
290.929	25966.28
290.996	26000.94
291.064	26075.76
291.131	26142.25
291.198	26219.16
291.266	26247.45
291.333	26292
291.4	26341.78
291.468	26423.49
291.535	26446.38
291.602	26499.78
291.669	26510.89
291.737	26573.79
291.804	26619.27
291.871	26689.29
291.938	26748.06
292.006	26863.82
292.073	26933.89
292.14	27005.94
292.207	27018.07
292.275	27050.37
292.342	27118.53
292.409	27225.58
292.476	27315.25
292.543	27338.19
292.611	27369.74
292.678	27454.38
292.745	27572.73
292.812	27638.21
292.879	27666.47
292.946	27715.98
293.014	27785.99
293.081	27840.83
293.148	27914.6
293.215	28007.77
293.282	28035.01
293.349	28107.6
293.416	28082.47
293.484	28155.1
293.551	28220.64
293.618	28305.98
293.685	28421.55
293.752	28436.62
293.819	28470.9
293.886	28481.44
293.953	28536.68
294.02	28620.31
294.087	28668.51
294.154	28670.59
294.221	28751.69
294.288	28788.28
294.356	28887
294.423	28941.73
294.49	28972.09
294.557	29046.31
294.624	29050.27
294.691	29149.77
294.758	29187.88
294.825	29257.51
294.892	29277.91
294.959	29311.14
295.026	29381.08
295.093	29414.89
295.16	29456.27
295.226	29489.79
295.293	29594.62
295.36	29645.55
295.427	29710.19
295.494	29783.83
295.561	29856.37
295.628	29950.44
295.695	30032.24
295.762	30080.67
295.829	30157.86
295.896	30252
295.963	30326.77
296.03	30407.51
296.096	30468.05
296.163	30547.61
296.23	30623.15
296.297	30702.51
296.364	30744.84
296.431	30798.18
296.498	30820.35
296.564	30951.77
296.631	31002.83
296.698	31021.32
296.765	31124.37
296.832	31147.85
296.899	31166.39
296.965	31263.9
297.032	31251.74
297.099	31352.23
297.166	31412.12
297.233	31442.63
297.299	31459.43
297.366	31505.72
297.433	31550.41
297.5	31618.99
297.566	31668.05
297.633	31720.7
297.7	31775.27
297.767	31825.76
297.833	31882.77
297.9	31937.29
297.967	31931.72
298.033	32029.31
298.1	32148.31
298.167	32178.29
298.234	32241.02
298.3	32300.64
298.367	32325.88
298.434	32396.91
298.5	32398.8
298.567	32430.48
298.634	32467.78
298.7	32568.78
298.767	32613.75
298.834	32703.09
298.9	32724.89
298.967	32747.42
299.033	32814.16
299.1	32903.18
299.167	32991.02
299.233	33025.18
299.3	33118.61
299.366	33199.47
299.433	33270.63
299.5	33241.21
299.566	33290.21
299.633	33366.06
299.699	33455.74
299.766	33491.41
299.832	33533
299.899	33614.06
299.965	33702.23
300.032	33733.59
300.099	33784.79
300.165	33842.77
300.232	33871.86
300.298	33931.73
300.365	34004.15
300.431	34050.61
300.498	34074.17
300.564	34126.92
300.631	34200.34
300.697	34268.86
300.763	34306.77
300.83	34359.21
300.896	34442.71
300.963	34521.12
301.029	34575.4
301.096	34611.14
301.162	34686.45
301.229	34722.87
301.295	34731.9
301.361	34779.48
301.428	34834.41
301.494	34840.57
301.561	34896.26
301.627	34946.79
301.693	34991.8
301.76	35044.29
301.826	35073.73
301.892	35142.82
301.959	35222.91
302.025	35251.63
302.092	35272.5
302.158	35342.15
302.224	35369.08
302.291	35374.56
302.357	35409.59
302.423	35439.05
302.49	35465
302.556	35536.53
302.622	35575.1
302.688	35638.61
302.755	35719.17
302.821	35797.67
302.887	35864.71
302.954	35898.73
303.02	35961.52
303.086	36017.03
303.152	36056.05
303.219	36090.55
303.285	36149.13
303.351	36192.33
303.417	36247.71
303.483	36268.13
303.55	36289.63
303.616	36326.71
303.682	36377.13
303.748	36387.12
303.815	36461.05
303.881	36527.89
303.947	36535.65
304.013	36582
304.079	36610.25
304.145	36581.8
304.212	36619.13
304.278	36634.17
304.344	36663.54
304.41	36677.96
304.476	36691.26
304.542	36720.48
304.608	36766.25
304.674	36762.75
304.741	36784.21
304.807	36822.37
304.873	36892.71
304.939	36983.25
305.005	36978.05
305.071	37014.55
305.137	37071.88
305.203	37047.85
305.269	37075.62
305.335	37146.51
305.401	37183.51
305.467	37214.96
305.533	37286.82
305.599	37337.07
305.666	37410.38
305.732	37446.89
305.798	37507.77
305.864	37609.07
305.93	37666.41
305.996	37716.47
306.062	37744.58
306.128	37776.15
306.194	37780.81
306.259	37792.75
306.325	37802.81
306.391	37873.46
306.457	37927.45
306.523	37963.28
306.589	38062.98
306.655	38074.15
306.721	38048.75
306.787	38057.83
306.853	38141.85
306.919	38134.76
306.985	38133.55
307.051	38150.3
307.117	38174.1
307.183	38189.35
307.248	38153.12
307.314	38191.87
307.38	38214.07
307.446	38269.97
307.512	38272.25
307.578	38310.91
307.644	38336.79
307.709	38368.17
307.775	38377.06
307.841	38395.22
307.907	38427.47
307.973	38412.95
308.039	38461.56
308.104	38516.93
308.17	38560.2
308.236	38553.55
308.302	38598.33
308.368	38611.29
308.433	38638.49
308.499	38656.12
308.565	38662.63
308.631	38705.27
308.696	38670.3
308.762	38682.59
308.828	38715.58
308.894	38698
308.959	38679.98
309.025	38694.89
309.091	38719.67
309.156	38732.44
309.222	38779.03
309.288	38777.71
309.354	38745.95
309.419	38759.21
309.485	38756.93
309.551	38785.69
309.616	38768.25
309.682	38787.29
309.748	38801.96
309.813	38828.38
309.879	38834.94
309.945	38839.65
310.01	38857.97
310.076	38905.37
310.141	38915.53
310.207	38894
310.273	38943.25
310.338	38994.79
310.404	38979.88
310.469	38969.14
310.535	38978.9
310.601	38944.22
310.666	38976.43
310.732	39047.39
310.797	39063.52
310.863	39071.59
310.928	39091.07
310.994	39133.62
311.059	39164.13
311.125	39199.06
311.191	39253.62
311.256	39262.47
311.322	39309.29
311.387	39270.04
311.453	40255.46
311.518	40254.48
311.584	40284.46
311.649	40327.36
311.715	40324.88
311.78	40370.54
311.846	40378.6
311.911	40441.48
311.976	40475.97
312.042	40470.86
312.107	40449
312.173	40446.18
312.238	40461.24
312.304	40464.74
312.369	40470.28
312.434	40469.41
312.5	40473.49
312.565	40410.47
312.631	40448.7
312.696	40454.24
312.761	40514.82
312.827	39574.74
312.892	39672.6
312.958	39684.56
313.023	39690.58
313.088	39721.09
313.154	39721.48
313.219	39730.18
313.284	39715.79
313.35	39744.22
313.415	39746.45
313.48	39759.76
313.546	39797.86
313.611	39846.01
313.676	39865.15
313.741	39873.27
313.807	39914.76
313.872	39962.19
313.937	40000.71
314.003	40059.56
314.068	40078.37
314.133	40109.47
314.198	40105.29
314.264	40079.58
314.329	40091.04
314.394	40119.52
314.459	40147.17
314.525	40216.56
314.59	40238.23
314.655	40234.29
314.72	40271.42
314.785	40317.48
314.851	40337.21
314.916	40315.53
314.981	40307.61
315.046	40305.52
315.111	40301.59
315.176	40288.61
315.242	40314.08
315.307	40349.55
315.372	40324.47
315.437	40340.75
315.502	40341.53
315.567	40381.91
315.632	40376.96
315.698	40398.63
315.763	40420.55
315.828	40411.08
315.893	40409.33
315.958	40416.37
316.023	40420.79
316.088	40391.83
316.153	40348.39
316.218	40352.91
316.283	40318.32
316.348	40273.28
316.413	40267.84
316.479	40235.87
316.544	40141.47
316.609	40052.99
316.674	39952.56
316.739	39843.4
316.804	39741.97
316.869	39636.45
316.934	39533.78
316.999	39415.83
317.064	39255.62
317.129	39081.27
317.194	38954.11
317.259	38797.15
317.324	38622.75
317.389	38449.18
317.454	38301.67
317.518	38170.84
317.583	38060
317.648	37945.15
317.713	37801.37
317.778	37595.92
317.843	37468.22
317.908	37319.97
317.973	37157.13
318.038	37015.86
318.103	36866.8
318.168	36728.35
318.233	36593.45
318.297	36387.61
318.362	36227.45
318.427	36059.23
318.492	35950.14
318.557	35771.74
318.622	35634.65
318.687	35516.77
318.751	35355.41
318.816	35194
318.881	35027.67
318.946	34803.84
319.011	34611.29
319.075	34433.62
319.14	34284.52
319.205	34090.02
319.27	33933.01
319.335	33748.8
319.399	33568.46
319.464	33418.2
319.529	33193.3
319.594	33000.1
319.658	32838.31
319.723	32656.61
319.788	32505.43
319.853	32268.22
319.917	32094.84
319.982	31866.21
320.047	31679.99
320.112	31526.26
320.176	31302.57
320.241	31116.32
320.306	30943.55
320.37	30757.54
320.435	30588.73
320.5	30412.12
320.564	30208.47
320.629	30001.95
320.694	29822.09
320.758	29617.05
320.823	29385.73
320.888	29210.46
320.952	28980.79
321.017	28776.56
321.082	28566.66
321.146	28376.15
321.211	28192.35
321.275	27975.25
321.34	27761.03
321.405	27538.29
321.469	27302.21
321.534	27097.63
321.598	26865.7
321.663	26685.41
321.727	26491.71
321.792	26261.13
321.857	26037.23
321.921	25837.13
321.986	25611.08
322.05	25349.99
322.115	25149.65
322.179	24933.94
322.244	24685.77
322.308	24499.3
322.373	24271.26
322.437	24058.14
322.502	23886.52
322.566	23654.71
322.631	23463.31
322.695	23243.33
322.76	23016.12
322.824	22824.99
322.889	22597.28
322.953	22371.91
323.018	22067.24
323.082	21773.86
323.146	21523.44
323.211	21273.36
323.275	21041.07
323.34	20814.83
323.404	20614.39
323.468	20379.08
323.533	20160.14
323.597	19937.53
323.662	19683.02
323.726	19469.38
323.79	19232.84
323.855	18935.47
323.919	18687.18
323.983	18445.5
324.048	18108.17
324.112	18234.86
324.177	17517.34
324.241	16565.14
324.305	15626.28
324.37	14715.67
324.434	13830.9
324.498	13579.69
324.562	13299.16
324.627	12984.54
324.691	12676.49
324.755	12324.92
324.82	11921.09
324.884	11497.3
324.948	11063.11
325.012	10539.95
325.077	9906.76
