Data from 20250626_urea_1M_exp2_MAYP1162681_17-14-00-604.txt Node
Date: Thu Jun 26 17:14:00 BST 2025
User: adleo
Spectrometer: MAYP116268
Trigger mode: 0
Integration Time (sec): 3.000000E0
Scans to average: 1
Electric dark correction enabled: true
Nonlinearity correction enabled: true
Boxcar width: 10
XAxis mode: Wavelengths
Number of Pixels in Spectrum: 2068
>>>>>Begin Spectral Data<<<<<
179.565	3317.82
179.642	3489.76
179.718	3618.53
179.795	3745.15
179.871	3840.53
179.948	3899.59
180.024	3966.68
180.101	4037.04
180.177	4079.08
180.254	4146.35
180.33	4207.64
180.407	4440.72
180.483	4699.28
180.56	4957.98
180.636	5195.47
180.712	5165.98
180.789	5189.79
180.865	5221.3
180.942	5243.48
181.018	5271.46
181.095	5308.05
181.171	5323.53
181.248	5328.18
181.324	5374.3
181.4	5387.2
181.477	5423.15
181.553	5458.03
181.63	5516.52
181.706	5560.98
181.782	5589.91
181.859	5591.44
181.935	5612.88
182.011	5603.77
182.088	5650.52
182.164	5709.73
182.24	5746.44
182.317	5772.96
182.393	5767.68
182.469	5809.3
182.546	5848.63
182.622	5863.5
182.698	5854.29
182.775	5893.04
182.851	5930.5
182.927	5909.01
183.003	5900.77
183.08	5883.07
183.156	5909.83
183.232	5901.82
183.308	5867
183.385	5887.91
183.461	5934.73
183.537	5941.68
183.613	5978.96
183.69	5952.14
183.766	5918.06
183.842	5943.06
183.918	5953.9
183.995	5994.14
184.071	6006.33
184.147	5987.76
184.223	5953.01
184.299	5987.27
184.375	5958.01
184.452	5978.37
184.528	6091.87
184.604	6122.66
184.68	6156
184.756	6174
184.832	6184.36
184.908	6202.25
184.985	6204.36
185.061	6155.62
185.137	6175.54
185.213	6143.25
185.289	6145.89
185.365	6127.37
185.441	6117.44
185.517	6158.11
185.593	6150.19
185.669	6138.81
185.745	6167.75
185.822	6220.59
185.898	6194.33
185.974	6214.67
186.05	6188.56
186.126	6122.56
186.202	6103.33
186.278	6088.45
186.354	6063.64
186.43	6086.26
186.506	6081.7
186.582	6076.9
186.658	6101.17
186.734	6045.53
186.81	6050.75
186.886	6064.86
186.962	6099.97
187.038	6092.58
187.114	6068.81
187.19	6086.57
187.266	6059.42
187.341	6063.94
187.417	6038.46
187.493	6036.35
187.569	6043.93
187.645	6026.9
187.721	5991.19
187.797	6013.79
187.873	6021.27
187.949	6004.49
188.025	5983.46
188.101	5993.67
188.176	6008.45
188.252	5996.75
188.328	6019.56
188.404	6015.87
188.48	5998.36
188.556	5971.35
188.632	5973.08
188.707	5971.25
188.783	5968.57
188.859	5957.4
188.935	5927.88
189.011	5952.92
189.086	5941.56
189.162	5916.32
189.238	5912.68
189.314	5905.63
189.39	5891.47
189.465	5875.83
189.541	5922.61
189.617	5877.81
189.693	5860.98
189.768	5875.28
189.844	5937.73
189.92	5907.73
189.996	5934.93
190.071	5965.63
190.147	5967.7
190.223	5995.44
190.298	5977.34
190.374	5936.76
190.45	5974.6
190.526	5992.88
190.601	5979.2
190.677	5981.7
190.753	6065.97
190.828	6075.32
190.904	6116.59
190.98	6154.46
191.055	6186.04
191.131	6160.55
191.207	6219.85
191.282	6244.74
191.358	6212.69
191.433	6183.3
191.509	6225.11
191.585	6217.81
191.66	6221.99
191.736	6250.54
191.811	6223.23
191.887	6269.8
191.963	6335.45
192.038	6345.05
192.114	6347.79
192.189	6358.63
192.265	6347.75
192.34	6280.31
192.416	6275.08
192.491	6262.31
192.567	6274.18
192.642	6286.32
192.718	6291.36
192.793	6258.29
192.869	6251.48
192.944	6260.64
193.02	6277.06
193.095	6291.99
193.171	6307.87
193.246	6307.49
193.322	6295.83
193.397	6296.69
193.473	6260.96
193.548	6215.69
193.624	6236.91
193.699	6229.81
193.775	6274.81
193.85	6282.57
193.925	6310.42
194.001	6307.78
194.076	6289.01
194.152	6254.82
194.227	6232.69
194.302	6205.64
194.378	6217.49
194.453	6207.32
194.529	6244.96
194.604	6203.06
194.679	6182.28
194.755	6126.49
194.83	6163.14
194.905	6155.46
194.981	6181.33
195.056	6153.8
195.131	6169.06
195.207	6160.22
195.282	6139.78
195.357	6078.33
195.433	6118.35
195.508	6081.88
195.583	6113.74
195.659	6156.51
195.734	6176.19
195.809	6174.32
195.884	6198.26
195.96	6192.83
196.035	6238.76
196.11	6220.8
196.185	6253.44
196.261	6263.42
196.336	6351.57
196.411	6301.54
196.486	6313.96
196.561	6293.13
196.637	6325.04
196.712	6372.63
196.787	6380.51
196.862	6429.18
196.937	6464.16
197.013	6482.08
197.088	6513.75
197.163	6563.28
197.238	6608.95
197.313	6607.79
197.388	6644.77
197.464	6731.92
197.539	6770.52
197.614	6745.22
197.689	6780.52
197.764	6826.26
197.839	6885.14
197.914	6873.65
197.989	6939.36
198.065	6979.46
198.14	7127.63
198.215	7197.68
198.29	7226.29
198.365	7267.28
198.44	7290.87
198.515	7371.1
198.59	7414.02
198.665	7485.3
198.74	7511.79
198.815	7516.75
198.89	7579.13
198.965	7666.13
199.04	7655.88
199.115	7696.02
199.19	7820.76
199.265	7832.34
199.34	7856.62
199.415	7955.88
199.49	8013.38
199.565	8042.14
199.64	8119.04
199.715	8104.31
199.79	8121.72
199.865	8139.09
199.94	8134.37
200.015	8229.58
200.09	8248.64
200.165	8262.2
200.24	8285.2
200.315	8400.41
200.39	8445.84
200.464	8468.21
200.539	8465.32
200.614	8508.28
200.689	8582.43
200.764	8603.38
200.839	8647.47
200.914	8668.07
200.989	8630.71
201.063	8671.47
201.138	8620.46
201.213	8616.17
201.288	8562.34
201.363	8576.38
201.438	8577.4
201.512	8623.62
201.587	8569.28
201.662	8576.26
201.737	8613.79
201.812	8636.08
201.886	8532.75
201.961	8557.21
202.036	8516.08
202.111	8513.39
202.186	8422.23
202.26	8369.48
202.335	8304.61
202.41	8294.89
202.485	8246.17
202.559	8194.36
202.634	8118.02
202.709	8145.56
202.784	8089.81
202.858	8090.15
202.933	8039.89
203.008	8020.74
203.082	7959.76
203.157	7954.18
203.232	7832.52
203.306	7768.77
203.381	7675.22
203.456	7612.86
203.53	7541.87
203.605	7488.64
203.68	7419.62
203.754	7409.01
203.829	7361.36
203.904	7300.61
203.978	7260.8
204.053	7270.7
204.127	7231.69
204.202	7223.76
204.277	7174.07
204.351	7156.72
204.426	7135.38
204.5	7115.48
204.575	7014.52
204.65	7042.69
204.724	7022.06
204.799	7052.74
204.873	7040.39
204.948	7035.58
205.022	7008.07
205.097	6980.76
205.171	7024.9
205.246	7045.04
205.32	7042.55
205.395	7038.61
205.469	7018.83
205.544	7037.29
205.618	6985.01
205.693	7017.93
205.767	6983.2
205.842	7044.47
205.916	7024.68
205.991	6997.77
206.065	7009.35
206.14	7057.06
206.214	7039.08
206.289	7015.19
206.363	7036.71
206.438	7048.73
206.512	7071.56
206.586	7121.09
206.661	7152.24
206.735	7085.64
206.81	7089.97
206.884	7132.67
206.958	7096.65
207.033	7143.18
207.107	7162.03
207.181	7259.67
207.256	7247.27
207.33	7300.6
207.405	7338.47
207.479	7395.08
207.553	7415.79
207.628	7368.96
207.702	7404.57
207.776	7390.05
207.851	7403.22
207.925	7449
207.999	7433.29
208.073	7420.69
208.148	7426.41
208.222	7395.21
208.296	7488.16
208.371	7534.11
208.445	7563
208.519	7649.56
208.593	7686.48
208.668	7672.82
208.742	7678.6
208.816	7684.17
208.89	7726.31
208.965	7723.32
209.039	7748.15
209.113	7798.39
209.187	7859.02
209.261	7843.06
209.336	7902.54
209.41	7956.6
209.484	7956.36
209.558	8026
209.632	8070.33
209.707	8104.24
209.781	8164.65
209.855	8210.41
209.929	8256.15
210.003	8275.54
210.077	8266.44
210.151	8396.64
210.226	8494.73
210.3	8568.93
210.374	8636.46
210.448	8648.35
210.522	8673.67
210.596	8698.6
210.67	8723.14
210.744	8859.02
210.818	8951.14
210.892	9006.12
210.966	8988.41
211.041	9038.66
211.115	9027.93
211.189	9095.36
211.263	9146.72
211.337	9162.41
211.411	9197.37
211.485	9177.67
211.559	9217.57
211.633	9233.4
211.707	9142.52
211.781	9168.44
211.855	9069.93
211.929	9043.75
212.003	8991.85
212.077	9016.55
212.151	9050.83
212.225	9075.62
212.299	9042.15
212.373	9008.84
212.447	8995.88
212.52	9078.88
212.594	9085.96
212.668	9121.48
212.742	9079.6
212.816	9065.2
212.89	9048.11
212.964	9045.42
213.038	9063.14
213.112	9092.85
213.186	9130.15
213.26	9074.54
213.333	8932.55
213.407	8942.85
213.481	8946.5
213.555	8975.22
213.629	8940.4
213.703	8886.15
213.777	8883.79
213.85	8822.02
213.924	8913.51
213.998	8910.24
214.072	8882.64
214.146	8832.24
214.219	8811.92
214.293	8797.49
214.367	8796.67
214.441	8826.13
214.515	8785.21
214.588	8703.24
214.662	8596.93
214.736	8531.25
214.81	8540.19
214.883	8566.25
214.957	8523.93
215.031	8480.31
215.105	8400.86
215.178	8354.28
215.252	8322.82
215.326	8235.64
215.4	8171.4
215.473	8021.15
215.547	7947.63
215.621	7897.09
215.694	7898.92
215.768	7818.93
215.842	7765.12
215.915	7701.57
215.989	7596.66
216.063	7545.62
216.136	7532.01
216.21	7509.75
216.284	7521.92
216.357	7507.06
216.431	7470.43
216.504	7470.38
216.578	7523.19
216.652	7534.04
216.725	7511.92
216.799	7520.82
216.873	7504.77
216.946	7508.61
217.02	7472.3
217.093	7449.32
217.167	7363.15
217.24	7290.73
217.314	7264.22
217.387	7221.28
217.461	7183.17
217.535	7207.92
217.608	7159.77
217.682	7138.1
217.755	7150.69
217.829	7100.69
217.902	7084.54
217.976	7070.13
218.049	7029.96
218.123	6960.87
218.196	6960.77
218.27	6921.95
218.343	6860.95
218.417	6862.3
218.49	6841.11
218.563	6882.71
218.637	6888.91
218.71	6954.35
218.784	6981.99
218.857	7004.51
218.931	7029.58
219.004	7037.6
219.077	7047.41
219.151	7064.75
219.224	7057.93
219.298	7049.08
219.371	7086
219.444	7052.95
219.518	7057.27
219.591	7071.49
219.665	7158.87
219.738	7174.73
219.811	7170.26
219.885	7210.29
219.958	7237.74
220.031	7244.75
220.105	7261.34
220.178	7270.37
220.251	7247.92
220.325	7269.08
220.398	7285.9
220.471	7304.3
220.544	7332.66
220.618	7315.78
220.691	7341.88
220.764	7353.56
220.838	7377.83
220.911	7366.1
220.984	7435.44
221.057	7466.49
221.131	7487.49
221.204	7402.08
221.277	7461.85
221.35	7563.63
221.424	7559.97
221.497	7563.05
221.57	7587.99
221.643	7618.24
221.716	7655.51
221.79	7663.69
221.863	7671.29
221.936	7678.3
222.009	7685.22
222.082	7711.05
222.155	7723.17
222.229	7776.61
222.302	7807.57
222.375	7817.33
222.448	7859.37
222.521	7870.96
222.594	7875.91
222.667	7857.03
222.74	7915.49
222.814	7908.08
222.887	7893.79
222.96	7937.03
223.033	7980.61
223.106	7999.41
223.179	8028.77
223.252	8037.04
223.325	8056.18
223.398	8065.71
223.471	8092.15
223.544	8110.18
223.617	8121.01
223.69	8137.26
223.763	8103.87
223.837	8121.58
223.91	8145.34
223.983	8098.21
224.056	8069.64
224.129	8091.53
224.202	8131.18
224.275	8117.52
224.348	8095.2
224.42	8068.07
224.493	8022.81
224.566	8002.8
224.639	8019.15
224.712	7989.99
224.785	7981.57
224.858	7982.53
224.931	7971.65
225.004	7938.09
225.077	7945.45
225.15	7873.86
225.223	7875.4
225.296	7942.68
225.369	7898.24
225.442	7871.3
225.514	7888.08
225.587	7901.16
225.66	7907.51
225.733	7914
225.806	7920.16
225.879	7908.81
225.952	7882.08
226.025	7921.42
226.097	7964.31
226.17	7951.46
226.243	7890.69
226.316	7886.94
226.389	7890.11
226.461	7905.94
226.534	7924.11
226.607	7912.43
226.68	7980.46
226.753	7979.26
226.825	7923.19
226.898	7968.53
226.971	7971.76
227.044	7989.89
227.117	7998.02
227.189	8013.75
227.262	8042.76
227.335	8063.5
227.407	8072.73
227.48	8102.2
227.553	8111.06
227.626	8092.52
227.698	8110.99
227.771	8154.4
227.844	8136.08
227.916	8153.44
227.989	8123.38
228.062	8127.99
228.134	8203.54
228.207	8206.43
228.28	8196.09
228.352	8198.54
228.425	8210.38
228.498	8257.19
228.57	8245.26
228.643	8292.86
228.716	8300.17
228.788	8296.03
228.861	8291.22
228.934	8344.82
229.006	8359.25
229.079	8365.02
229.151	8359.97
229.224	8328.04
229.296	8349.73
229.369	8448.16
229.442	8496.2
229.514	8486.54
229.587	8524.83
229.659	8458.52
229.732	8476.9
229.804	8518.33
229.877	8582.35
229.949	8607.86
230.022	8651.72
230.094	8653.26
230.167	8648.93
230.239	8607.22
230.312	8596.34
230.384	8656.81
230.457	8649.01
230.529	8658.54
230.602	8657
230.674	8667.15
230.747	8702.4
230.819	8725.6
230.892	8618.51
230.964	8613.55
231.037	8638.8
231.109	8632.02
231.181	8672.19
231.254	8635.33
231.326	8617.63
231.399	8605.54
231.471	8576.13
231.544	8504.16
231.616	8536.2
231.688	8543.81
231.761	8533.95
231.833	8528.37
231.905	8456.59
231.978	8459
232.05	8438.75
232.122	8444.57
232.195	8423.35
232.267	8458.43
232.339	8441.59
232.412	8501.77
232.484	8482.47
232.556	8457.07
232.629	8512
232.701	8526.2
232.773	8536.21
232.846	8531.54
232.918	8530.48
232.99	8546.03
233.062	8587.32
233.135	8599.02
233.207	8568.12
233.279	8605.93
233.351	8630.37
233.424	8637.2
233.496	8617.62
233.568	8695.11
233.64	8661.57
233.713	8680.68
233.785	8680.87
233.857	8699.31
233.929	8652.54
234.001	8709.94
234.074	8768.58
234.146	8713.7
234.218	8711.34
234.29	8716.92
234.362	8709.56
234.434	8670.67
234.507	8650.74
234.579	8604.35
234.651	8592.41
234.723	8616.14
234.795	8633.42
234.867	8631.44
234.939	8678.23
235.012	8690.98
235.084	8692.38
235.156	8729.81
235.228	8714.22
235.3	8698.77
235.372	8705.56
235.444	8759.69
235.516	8690.21
235.588	8701.42
235.66	8717.69
235.732	8693.58
235.804	8861.83
235.876	8905.52
235.948	8964.93
236.02	8975.61
236.092	8996.06
236.164	9012.14
236.236	9017
236.308	9022.68
236.38	9046.56
236.452	9033.99
236.524	9058.73
236.596	9118.57
236.668	9149.33
236.74	9170.12
236.812	9197.18
236.884	9235.03
236.956	9257.03
237.028	9254.62
237.1	9236.48
237.172	9297.73
237.244	9372.74
237.316	9275.65
237.388	9258.76
237.46	9240.5
237.532	9296.64
237.604	9289.86
237.675	9352.85
237.747	9392.29
237.819	9374.86
237.891	9389.79
237.963	9383.43
238.035	9378.76
238.107	9275.17
238.178	9330.18
238.25	9337.69
238.322	9410.81
238.394	9373.54
238.466	9364
238.538	9402.51
238.609	9440.26
238.681	9399.32
238.753	9379.38
238.825	9391.56
238.897	9423.19
238.968	9495.83
239.04	9482.06
239.112	9577.98
239.184	9547.16
239.255	9542.24
239.327	9587.59
239.399	9602.04
239.471	9642.05
239.542	9675.09
239.614	9741.15
239.686	9677.86
239.758	9725.73
239.829	9698.31
239.901	9753.46
239.973	9767.37
240.044	9799.79
240.116	9809.56
240.188	9823.67
240.259	9841.64
240.331	9836.44
240.403	9871.55
240.474	9829.97
240.546	9815.14
240.618	9763.5
240.689	9761.52
240.761	9793.56
240.833	9844.96
240.904	9851.27
240.976	9859.26
241.048	9878.68
241.119	9914.81
241.191	9955.46
241.262	10010.53
241.334	10015.54
241.405	10022.53
241.477	10031.68
241.549	10041.56
241.62	10076.19
241.692	10116.9
241.763	10173.8
241.835	10197.65
241.906	10211.09
241.978	10188.4
242.049	10259.4
242.121	10318.31
242.192	10376.84
242.264	10339.27
242.335	10295.57
242.407	10331.23
242.478	10330.07
242.55	10348.04
242.621	10337.49
242.693	10336.09
242.764	10335.94
242.836	10346.11
242.907	10373.82
242.979	10403.44
243.05	10420.06
243.122	10440.11
243.193	10436.16
243.264	10372.13
243.336	10375.74
243.407	10412.65
243.479	10486.36
243.55	10495.51
243.622	10504.96
243.693	10510.11
243.764	10573.32
243.836	10567.78
243.907	10557.91
243.978	10569.47
244.05	10597.51
244.121	10563.88
244.192	10599.39
244.264	10555.25
244.335	10567.01
244.407	10515.99
244.478	10528.85
244.549	10523.12
244.62	10487.71
244.692	10491.37
244.763	10529.57
244.834	10525.53
244.906	10498.78
244.977	10513.82
245.048	10566.54
245.119	10555.41
245.191	10536.38
245.262	10490.42
245.333	10547.55
245.405	10566.73
245.476	10603.93
245.547	10612.94
245.618	10655.96
245.689	10671.72
245.761	10707.76
245.832	10719.71
245.903	10773.24
245.974	10802.63
246.045	10823.26
246.117	10901.61
246.188	10895.15
246.259	10886.29
246.33	10906.62
246.401	10926.57
246.473	10904.11
246.544	10892.21
246.615	10943.58
246.686	10956.69
246.757	11026.46
246.828	11010.36
246.899	11082.9
246.97	11054.09
247.042	11050.62
247.113	11092.35
247.184	11170.87
247.255	11173.81
247.326	11200.41
247.397	11206.63
247.468	11216.41
247.539	11226.87
247.61	11184.75
247.681	11225.56
247.752	11277.17
247.823	11254.29
247.894	11270
247.965	11246.29
248.037	11238.19
248.108	11191.35
248.179	11198.96
248.25	11188.17
248.321	11216.79
248.392	11170.13
248.463	11239.19
248.534	11238.85
248.605	11252.35
248.675	11229.55
248.746	11241.84
248.817	11255.52
248.888	11269.02
248.959	11227.48
249.03	11251.53
249.101	11257.21
249.172	11240.06
249.243	11176.69
249.314	11241.56
249.385	11253.61
249.456	11284.25
249.527	11282.13
249.598	11310.52
249.669	11309.26
249.739	11321.36
249.81	11333.6
249.881	11302.13
249.952	11294.32
250.023	11295.77
250.094	11258.13
250.165	11235.04
250.235	11232
250.306	11231.62
250.377	11209.01
250.448	11230.51
250.519	11181.54
250.59	11233.55
250.66	11237.26
250.731	11300.38
250.802	11293.3
250.873	11309.44
250.944	11330.12
251.014	11326.46
251.085	11404.3
251.156	11424.45
251.227	11469.71
251.297	11515.98
251.368	11565.42
251.439	11603.5
251.51	11650.5
251.58	11640.81
251.651	11637.39
251.722	11683.61
251.792	11651.95
251.863	11659.46
251.934	11718.07
252.005	11818.56
252.075	11826.47
252.146	11873.94
252.217	11917.13
252.287	11955.88
252.358	11958.87
252.429	12026.26
252.499	12015.22
252.57	12029.1
252.641	12073.83
252.711	12082.51
252.782	12052.58
252.852	12118.18
252.923	12115.92
252.994	12139.49
253.064	12183.2
253.135	12168.36
253.205	12154.18
253.276	12211.01
253.347	12272.66
253.417	12247.35
253.488	12233.13
253.558	12231.25
253.629	12231.2
253.699	12241.23
253.77	12266.34
253.841	12259.79
253.911	12263.45
253.982	12286.35
254.052	12310.88
254.123	12327.13
254.193	12324.86
254.264	12434.14
254.334	12402.37
254.405	12377.36
254.475	12335.76
254.546	12344.44
254.616	12401.41
254.687	12426.47
254.757	12442.86
254.827	12443.88
254.898	12475.21
254.968	12479.11
255.039	12464.27
255.109	12491.45
255.18	12470
255.25	12413.99
255.321	12443.1
255.391	12411
255.461	12494.54
255.532	12421.12
255.602	12412.97
255.673	12375.28
255.743	12358.21
255.813	12299.17
255.884	12355.62
255.954	12392.78
256.024	12456.99
256.095	12455.45
256.165	12430.62
256.235	12460.03
256.306	12443.64
256.376	12483.41
256.446	12519.61
256.517	12554.94
256.587	12602.19
256.657	12625.61
256.728	12648.46
256.798	12664.66
256.868	12664.61
256.938	12627.54
257.009	12672.03
257.079	12694.74
257.149	12773.45
257.219	12721.92
257.29	12754.36
257.36	12703.31
257.43	12739.37
257.5	12678.82
257.571	12681.76
257.641	12716.03
257.711	12680.65
257.781	12708.75
257.852	12727.75
257.922	12680.02
257.992	12682.72
258.062	12674.48
258.132	12713.48
258.202	12721.14
258.273	12731.03
258.343	12799.53
258.413	12790.99
258.483	12792.15
258.553	12779.09
258.623	12764.58
258.693	12789.36
258.764	12845.51
258.834	12905
258.904	12917.19
258.974	12907.99
259.044	12913.63
259.114	12945.49
259.184	12977.69
259.254	12990.47
259.324	12946.84
259.394	12989.74
259.464	13055.64
259.535	13061.86
259.605	13054.05
259.675	13043.01
259.745	13082.97
259.815	13064.13
259.885	13077.53
259.955	13175.48
260.025	13162.18
260.095	13181.41
260.165	13207.49
260.235	13276.14
260.305	13265.34
260.375	13247.69
260.445	13328.53
260.515	13382.81
260.585	13419.31
260.655	13427.89
260.725	13468.14
260.795	13494.61
260.865	13547.68
260.934	13524.73
261.004	13549.9
261.074	13566.53
261.144	13626.93
261.214	13645.97
261.284	13642.89
261.354	13664.77
261.424	13633.49
261.494	13700.3
261.564	13701.75
261.634	13723.97
261.703	13661.16
261.773	13685.26
261.843	13712.93
261.913	13713.66
261.983	13675.72
262.053	13690.56
262.123	13686.03
262.192	13648.87
262.262	13679.72
262.332	13643.08
262.402	13671.14
262.472	13681.84
262.541	13619.32
262.611	13652.39
262.681	13634.5
262.751	13671.91
262.821	13688.06
262.89	13654.89
262.96	13674.95
263.03	13743.93
263.1	13765.38
263.169	13785.82
263.239	13809.1
263.309	13867.34
263.379	13886.38
263.448	13901.22
263.518	13928.8
263.588	13943.4
263.657	14005.11
263.727	14038.61
263.797	14048.4
263.867	14038.9
263.936	14009.93
264.006	14069.46
264.076	14069.9
264.145	14067.68
264.215	14050.85
264.285	14081.32
264.354	14047.77
264.424	14038.18
264.494	13992.09
264.563	13984.52
264.633	14050.57
264.702	14070.14
264.772	14020.39
264.842	14010.56
264.911	14041.99
264.981	14004.77
265.05	14017.93
265.12	14024.3
265.19	14038.13
265.259	14081.56
265.329	14113.09
265.398	14131.36
265.468	14212.01
265.537	14208.54
265.607	14247.05
265.676	14297.57
265.746	14315.26
265.815	14364.34
265.885	14371.04
265.955	14362.22
266.024	14366.27
266.094	14313.1
266.163	14372.43
266.232	14435.44
266.302	14451.73
266.371	14475.01
266.441	14489.62
266.51	14535.08
266.58	14531.41
266.649	14518.5
266.719	14562.79
266.788	14600.68
266.858	14667.45
266.927	14609.26
266.996	14636.4
267.066	14659.11
267.135	14628.79
267.205	14667.44
267.274	14695.21
267.343	14743.95
267.413	14764.87
267.482	14817.99
267.552	14872.89
267.621	14826.23
267.69	14781.16
267.76	14803.72
267.829	14822.91
267.898	14838.91
267.968	14814.23
268.037	14848.55
268.106	14894.54
268.176	14868.22
268.245	14867.69
268.314	14858.19
268.384	14910.64
268.453	14930.4
268.522	14956.05
268.592	15010.9
268.661	14995.62
268.73	15018.33
268.799	15012.2
268.869	15075.98
268.938	15027.77
269.007	15020.01
269.076	15043.01
269.146	15091.31
269.215	15123.99
269.284	15175.42
269.353	15174.55
269.422	15184.05
269.492	15178.26
269.561	15117.19
269.63	15147.75
269.699	15145.92
269.768	15164.57
269.838	15190.31
269.907	15218.51
269.976	15189.59
270.045	15143.51
270.114	15178.45
270.183	15186.94
270.253	15203.04
270.322	15166.88
270.391	15193.44
270.46	15250.08
270.529	15291.97
270.598	15332.02
270.667	15334.72
270.736	15313.56
270.806	15338.77
270.875	15394.16
270.944	15404.62
271.013	15511.67
271.082	15526.08
271.151	15553.75
271.22	15517.84
271.289	15518.13
271.358	15523.33
271.427	15551
271.496	15579.01
271.565	15567.73
271.634	15587.11
271.703	15701.14
271.772	15758.35
271.841	15778.6
271.91	15748.09
271.979	15761.44
272.048	15733.1
272.117	15774.21
272.186	15784.67
272.255	15836.05
272.324	15867.19
272.393	15899.48
272.462	15883.24
272.531	15902.95
272.6	15910.91
272.669	15977.67
272.738	15991.84
272.807	16023.65
272.876	16016.47
272.945	16127.08
273.013	16182.89
273.082	16235
273.151	16155.67
273.22	16174.51
273.289	16195.62
273.358	16275.63
273.427	16283.68
273.496	16336.12
273.564	16359.35
273.633	16404.51
273.702	16392.66
273.771	16403.02
273.84	16434.93
273.909	16478.35
273.977	16515.85
274.046	16535.99
274.115	16585.39
274.184	16578.6
274.253	16592.91
274.322	16656.73
274.39	16614.17
274.459	16604.05
274.528	16562.36
274.597	16578.5
274.665	16605.54
274.734	16660.29
274.803	16665.98
274.872	16683.72
274.94	16669.79
275.009	16860.67
275.078	16855.42
275.147	16885.69
275.215	16910.65
275.284	16960.49
275.353	16962.27
275.421	16931.42
275.49	17011.91
275.559	17009.3
275.627	17030.8
275.696	17047.43
275.765	17076.06
275.833	17091.91
275.902	17138.37
275.971	17213.12
276.039	17287.1
276.108	17334.86
276.177	17369.9
276.245	17371.2
276.314	17392.35
276.383	17450.28
276.451	17314.53
276.52	17352.94
276.588	17416.7
276.657	17470.58
276.725	17476.51
276.794	17504.46
276.863	17577.04
276.931	17541.13
277	17601.28
277.068	17661.91
277.137	17746.34
277.205	17780.31
277.274	17865.71
277.342	17926.72
277.411	17905.71
277.48	17908.79
277.548	17907.59
277.617	17941.56
277.685	17961.71
277.754	18014.52
277.822	18022.62
277.89	18091.1
277.959	18118.76
278.027	18104.3
278.096	18106.37
278.164	18219.04
278.233	18242.8
278.301	18237.55
278.37	18293.26
278.438	18294.37
278.507	18343.13
278.575	18305.69
278.643	18333.3
278.712	18312.78
278.78	18305.55
278.849	18379.47
278.917	18449.97
278.985	18476.86
279.054	18511.18
279.122	18579.7
279.191	18607.7
279.259	18633.29
279.327	18611.94
279.396	18694.25
279.464	18723.45
279.532	18772.51
279.601	18784.08
279.669	18804.8
279.737	18879.45
279.806	18928.5
279.874	18987.87
279.942	19019.24
280.011	19041.56
280.079	19098.9
280.147	19183.81
280.215	19234.32
280.284	19245.88
280.352	19235.91
280.42	19302.55
280.488	19314.79
280.557	19328.96
280.625	19379.42
280.693	19418.69
280.761	19464.37
280.83	19443.07
280.898	19515.6
280.966	19502.44
281.034	19450.59
281.102	19444.23
281.171	19461.34
281.239	19510.98
281.307	19521.87
281.375	19527.17
281.443	19642.54
281.512	19671.45
281.58	19723.55
281.648	19714.92
281.716	19751.4
281.784	19787.88
281.852	19802.44
281.92	19836.07
281.989	19909.57
282.057	19885.28
282.125	20012.42
282.193	20045.67
282.261	20094.53
282.329	20117.47
282.397	20162.19
282.465	20219.25
282.533	20309.17
282.601	20321.37
282.67	20288.35
282.738	20302.23
282.806	20360.26
282.874	20342.76
282.942	20372.55
283.01	20391.2
283.078	20450.38
283.146	20484.5
283.214	20550.52
283.282	20598.86
283.35	20671.74
283.418	20686.1
283.486	20742.96
283.554	20696.16
283.622	20727.88
283.69	20752.36
283.758	20769.08
283.826	20830.53
283.894	20891.88
283.962	20976.23
284.03	21056.86
284.098	21109.25
284.165	21139.27
284.233	21178.46
284.301	21204.43
284.369	21224.2
284.437	21231.38
284.505	21247.04
284.573	21316.97
284.641	21312.4
284.709	21355.01
284.777	21348.88
284.845	21408.46
284.912	21469.82
284.98	21513.73
285.048	21529.63
285.116	21591.33
285.184	21662.04
285.252	21696.65
285.319	21693.13
285.387	21703.21
285.455	21679.93
285.523	21730.06
285.591	21767.7
285.659	21803.32
285.726	21877.94
285.794	21874.81
285.862	21920.46
285.93	21961.67
285.997	21991.75
286.065	22013.58
286.133	22026.5
286.201	22049.49
286.269	22044.82
286.336	22049.3
286.404	22071.23
286.472	22139.59
286.539	22104.07
286.607	22100.74
286.675	22133.43
286.743	22192.09
286.81	22213.11
286.878	22293.72
286.946	22308.66
287.013	22338.55
287.081	22377.4
287.149	22377.12
287.216	22481.68
287.284	22498.61
287.352	22535.92
287.419	22558.29
287.487	22651.58
287.555	22698.69
287.622	22727.86
287.69	22776.41
287.758	22848.73
287.825	22875.44
287.893	22876.16
287.96	22933.62
288.028	23005.52
288.096	23048.04
288.163	23086.48
288.231	23085.66
288.298	23122.06
288.366	23204.72
288.433	23232.29
288.501	23240.87
288.569	23284.51
288.636	23294.4
288.704	23364.81
288.771	23437
288.839	23445.39
288.906	23456.87
288.974	23520.05
289.041	23552.02
289.109	23569.38
289.176	23623.74
289.244	23672.5
289.311	23751.54
289.379	23821.95
289.446	23867.92
289.514	23903.9
289.581	23941.33
289.649	23992.3
289.716	24030.5
289.783	24032.77
289.851	24124.02
289.918	24168.97
289.986	24231.63
290.053	24287.44
290.121	24328.21
290.188	24358.12
290.255	24483.4
290.323	24506.94
290.39	24521.94
290.458	24579.49
290.525	24643.36
290.592	24661.59
290.66	24713.6
290.727	24723.63
290.794	24808.65
290.862	24835.43
290.929	24887.83
290.996	24917.65
291.064	24985.58
291.131	25058.83
291.198	25145.11
291.266	25172.08
291.333	25210.68
291.4	25260.34
291.468	25330.86
291.535	25341.57
291.602	25389.44
291.669	25404.12
291.737	25446.05
291.804	25495.52
291.871	25576.64
291.938	25637.22
292.006	25748.6
292.073	25810.38
292.14	25876.65
292.207	25878.53
292.275	25918.3
292.342	25972.85
292.409	26087.47
292.476	26189.15
292.543	26205.62
292.611	26240.62
292.678	26331.68
292.745	26448.27
292.812	26518.48
292.879	26544.61
292.946	26598
293.014	26668.93
293.081	26725.96
293.148	26803.64
293.215	26880.58
293.282	26910.51
293.349	26971.81
293.416	26962.29
293.484	27034.25
293.551	27101.92
293.618	27187.98
293.685	27295.65
293.752	27313.91
293.819	27344.06
293.886	27342.08
293.953	27394.53
294.02	27467.14
294.087	27516.09
294.154	27524.39
294.221	27587.56
294.288	27629.59
294.356	27722.53
294.423	27771.82
294.49	27794.19
294.557	27874.45
294.624	27888.12
294.691	27972.34
294.758	28013.18
294.825	28068.65
294.892	28091.12
294.959	28128.48
295.026	28195.71
295.093	28214.32
295.16	28269.21
295.226	28307.73
295.293	28427.14
295.36	28488.81
295.427	28549.92
295.494	28634.4
295.561	28697.57
295.628	28810.92
295.695	28894.65
295.762	28943.39
295.829	29020.47
295.896	29117.93
295.963	29178.72
296.03	29251.43
296.096	29307.53
296.163	29380.94
296.23	29470.99
296.297	29559.24
296.364	29612.47
296.431	29667.91
296.498	29703.69
296.564	29813.57
296.631	29868.56
296.698	29860.86
296.765	29946.77
296.832	29957.37
296.899	29969.56
296.965	30073.48
297.032	30051.84
297.099	30151.2
297.166	30209.79
297.233	30242.16
297.299	30249.66
297.366	30291.37
297.433	30345.56
297.5	30420.67
297.566	30468.83
297.633	30511.52
297.7	30552.02
297.767	30596.73
297.833	30650.21
297.9	30701.69
297.967	30698.45
298.033	30775.99
298.1	30904.53
298.167	30925.58
298.234	30994.5
298.3	31056.16
298.367	31086.23
298.434	31149.51
298.5	31156.44
298.567	31192.07
298.634	31229.05
298.7	31335.45
298.767	31390.22
298.834	31462.02
298.9	31483.62
298.967	31508.17
299.033	31573.65
299.1	31662.52
299.167	31737.27
299.233	31774.32
299.3	31861.43
299.366	31942.77
299.433	32017.03
299.5	31996.59
299.566	32065.8
299.633	32149.11
299.699	32221.14
299.766	32256.79
299.832	32312.03
299.899	32379.61
299.965	32453.87
300.032	32487.97
300.099	32532.83
300.165	32598.29
300.232	32633.85
300.298	32686.17
300.365	32770.13
300.431	32817.53
300.498	32839.58
300.564	32892.29
300.631	32959.31
300.697	33046.03
300.763	33087.35
300.83	33145.19
300.896	33220.83
300.963	33282.33
301.029	33336.58
301.096	33389.22
301.162	33458.04
301.229	33491
301.295	33500.75
301.361	33543.11
301.428	33610.46
301.494	33614.1
301.561	33646.19
301.627	33692.58
301.693	33744.06
301.76	33779.83
301.826	33808.44
301.892	33877.82
301.959	33939.34
302.025	33965.43
302.092	33967.56
302.158	34039.21
302.224	34067.73
302.291	34084.7
302.357	34122.47
302.423	34145.75
302.49	34154.62
302.556	34222.81
302.622	34263.35
302.688	34338.36
302.755	34432.65
302.821	34484
302.887	34554.89
302.954	34603.82
303.02	34665.85
303.086	34712.26
303.152	34757.99
303.219	34788.45
303.285	34834.44
303.351	34895.42
303.417	34941.93
303.483	34964.14
303.55	34986.64
303.616	35014.73
303.682	35056.73
303.748	35079.24
303.815	35159.44
303.881	35237.25
303.947	35235.94
304.013	35281
304.079	35306.28
304.145	35275.08
304.212	35321.75
304.278	35349.84
304.344	35368.8
304.41	35373.75
304.476	35386.27
304.542	35406.4
304.608	35459.43
304.674	35460.11
304.741	35481.51
304.807	35527.65
304.873	35592.96
304.939	35671.27
305.005	35660.01
305.071	35685.48
305.137	35733.08
305.203	35700.37
305.269	35716.39
305.335	35792.77
305.401	35813.1
305.467	35838.92
305.533	35898.94
305.599	35945.34
305.666	35994.15
305.732	36035.98
305.798	36111.59
305.864	36226.43
305.93	36271.41
305.996	36302.04
306.062	36343.14
306.128	36369.88
306.194	36368.43
306.259	36400.07
306.325	36403.72
306.391	36469.57
306.457	36541.3
306.523	36573.91
306.589	36677.79
306.655	36700.56
306.721	36675.17
306.787	36680.61
306.853	36756.24
306.919	36743.57
306.985	36756.53
307.051	36774.39
307.117	36795.41
307.183	36810.65
307.248	36761.86
307.314	36813.76
307.38	36855.65
307.446	36911.87
307.512	36918.42
307.578	36970.02
307.644	36976.91
307.709	37014.97
307.775	37035.65
307.841	37042.64
307.907	37079.25
307.973	37048.56
308.039	37086.14
308.104	37149.49
308.17	37191.92
308.236	37174.53
308.302	37236.52
308.368	37232.93
308.433	37264.29
308.499	37289.78
308.565	37293.57
308.631	37333.91
308.696	37306.96
308.762	37304.58
308.828	37322.21
308.894	37308.72
308.959	37284.69
309.025	37308.28
309.091	37340.52
309.156	37362.67
309.222	37415.83
309.288	37411.56
309.354	37388.84
309.419	37411.91
309.485	37398.22
309.551	37448.33
309.616	37456.39
309.682	37467.31
309.748	37490.27
309.813	37508.43
309.879	37509.94
309.945	37500.42
310.01	37526.5
310.076	37558.93
310.141	37583.5
310.207	37566.02
310.273	37610
310.338	37652.14
310.404	37644.33
310.469	37622.86
310.535	37620.09
310.601	37569.84
310.666	37607.47
310.732	37682.73
310.797	37689.92
310.863	37699.05
310.928	37706.96
310.994	37737.12
311.059	37771.6
311.125	37801.51
311.191	37862.51
311.256	37868.04
311.322	37930.2
311.387	37892.27
311.453	38882.48
311.518	38869.22
311.584	38895.49
311.649	38941.43
311.715	38949.93
311.78	38980.23
311.846	38994.75
311.911	39060.51
311.976	39101.59
312.042	39096.92
312.107	39077.79
312.173	39070.89
312.238	39090.37
312.304	39108.34
312.369	39121.06
312.434	39119.6
312.5	39128.59
312.565	39065.21
312.631	39115.03
312.696	39116.88
312.761	39167.18
312.827	38222.83
312.892	38324.34
312.958	38359.8
313.023	38390.01
313.088	38417.26
313.154	38417.4
313.219	38421.48
313.284	38420.07
313.35	38459.7
313.415	38459.07
313.48	38476.02
313.546	38511.57
313.611	38566.8
313.676	38565.63
313.741	38565.73
313.807	38605.85
313.872	38650.88
313.937	38706.97
314.003	38759.48
314.068	38783.96
314.133	38824.43
314.198	38828.51
314.264	38798.72
314.329	38789.64
314.394	38783.91
314.459	38806.64
314.525	38886.83
314.59	38910.2
314.655	38897.32
314.72	38926.13
314.785	38962.17
314.851	38964.6
314.916	38940.89
314.981	38917.77
315.046	38921.56
315.111	38923.41
315.176	38922.39
315.242	38957.17
315.307	38977.28
315.372	38937.79
315.437	38943.28
315.502	38953.63
315.567	38992.29
315.632	38980.44
315.698	39006.14
315.763	39029.17
315.828	39030.96
315.893	39035.38
315.958	39043.64
316.023	39032.76
316.088	38993.8
316.153	38953.78
316.218	38961.16
316.283	38930.96
316.348	38892.59
316.413	38892.93
316.479	38859.42
316.544	38760.89
316.609	38659.71
316.674	38544.13
316.739	38455.02
316.804	38352.9
316.869	38234.84
316.934	38118.67
316.999	38017.33
317.064	37853.26
317.129	37700.19
317.194	37560.17
317.259	37398.22
317.324	37229.38
317.389	37081.37
317.454	36958.64
317.518	36829.04
317.583	36716.93
317.648	36618.59
317.713	36484.68
317.778	36276.12
317.843	36152.21
317.908	36012.52
317.973	35856.31
318.038	35749.42
318.103	35590.5
318.168	35463.57
318.233	35328.79
318.297	35149.69
318.362	34988.5
318.427	34844.33
318.492	34735.57
318.557	34568.53
318.622	34436.06
318.687	34322.03
318.751	34158.13
318.816	33990.59
318.881	33850.39
318.946	33634.56
319.011	33449.62
319.075	33275.78
319.14	33133.41
319.205	32940.58
319.27	32780.75
319.335	32598.15
319.399	32403.39
319.464	32264.67
319.529	32057.17
319.594	31874.99
319.658	31719.11
319.723	31541.98
319.788	31391.46
319.853	31147.47
319.917	30985.38
319.982	30757.8
320.047	30578.85
320.112	30436.29
320.176	30222.32
320.241	30030.17
320.306	29867.82
320.37	29680.57
320.435	29511.03
320.5	29342.32
320.564	29152.67
320.629	28945.57
320.694	28772.55
320.758	28581.12
320.823	28379.98
320.888	28209.1
320.952	27975.76
321.017	27769.71
321.082	27563.13
321.146	27370.34
321.211	27196.6
321.275	27002.78
321.34	26796.2
321.405	26595.87
321.469	26367.56
321.534	26163.22
321.598	25931.8
321.663	25763.19
321.727	25580.53
321.792	25359.23
321.857	25136.58
321.921	24943.42
321.986	24749.19
322.05	24504.27
322.115	24311.78
322.179	24097.17
322.244	23859.28
322.308	23687.88
322.373	23479.93
322.437	23276.19
322.502	23115.38
322.566	22901.57
322.631	22703.21
322.695	22501.59
322.76	22262.08
322.824	22078.06
322.889	21861.87
322.953	21647.14
323.018	21358.19
323.082	21086.48
323.146	20845.64
323.211	20612.99
323.275	20392.48
323.34	20159.32
323.404	19967.75
323.468	19733.77
323.533	19507.55
323.597	19271.99
323.662	19029.19
323.726	18820.37
323.79	18604.57
323.855	18310.01
323.919	18068.95
323.983	17834.2
324.048	17491.28
324.112	17674.35
324.177	16973.14
324.241	16055.91
324.305	15152.58
324.37	14268.58
324.434	13397.59
324.498	13159.94
324.562	12888.97
324.627	12580.86
324.691	12289.73
324.755	11947.46
324.82	11573.19
324.884	11173.93
324.948	10773.2
325.012	10279.03
325.077	9670.16
