Data from 20250626_urea_1M_exp2_MAYP1162681_09-53-58-755.txt Node
Date: Fri Jun 27 09:53:58 BST 2025
User: adleo
Spectrometer: MAYP116268
Trigger mode: 0
Integration Time (sec): 3.000000E0
Scans to average: 1
Electric dark correction enabled: true
Nonlinearity correction enabled: true
Boxcar width: 10
XAxis mode: Wavelengths
Number of Pixels in Spectrum: 2068
>>>>>Begin Spectral Data<<<<<
179.565	3123.61
179.642	3281.9
179.718	3402.38
179.795	3517.21
179.871	3608.76
179.948	3666.43
180.024	3727.72
180.101	3790.13
180.177	3827.3
180.254	3889.6
180.33	3953.16
180.407	4166.3
180.483	4409.64
180.56	4655.34
180.636	4880.24
180.712	4850.05
180.789	4871.22
180.865	4903.62
180.942	4932.25
181.018	4960.74
181.095	4995.53
181.171	5007.12
181.248	5015.17
181.324	5059.06
181.4	5080
181.477	5109.03
181.553	5138.86
181.63	5193.25
181.706	5234.98
181.782	5266.05
181.859	5267.15
181.935	5286.37
182.011	5282.78
182.088	5325.2
182.164	5376.03
182.24	5416.17
182.317	5437.63
182.393	5431.98
182.469	5469.6
182.546	5504.74
182.622	5515.09
182.698	5506.46
182.775	5546.63
182.851	5576.83
182.927	5557.9
183.003	5541.84
183.08	5525.89
183.156	5551.24
183.232	5546.25
183.308	5518.98
183.385	5535.32
183.461	5577.36
183.537	5575.78
183.613	5610.93
183.69	5585.9
183.766	5556.64
183.842	5572.22
183.918	5588.76
183.995	5621.84
184.071	5635.65
184.147	5619.92
184.223	5591.32
184.299	5622.35
184.375	5590.85
184.452	5610.81
184.528	5715.66
184.604	5747.87
184.68	5782.67
184.756	5808.1
184.832	5818.89
184.908	5833.94
184.985	5835.04
185.061	5791.99
185.137	5815.2
185.213	5783.41
185.289	5791.56
185.365	5773.25
185.441	5769.8
185.517	5804.63
185.593	5801.18
185.669	5792.07
185.745	5821.51
185.822	5865.51
185.898	5842.77
185.974	5862.91
186.05	5836.33
186.126	5775.61
186.202	5755.61
186.278	5743.72
186.354	5712.59
186.43	5728.71
186.506	5724.06
186.582	5725.41
186.658	5748.36
186.734	5696.87
186.81	5701.38
186.886	5711.59
186.962	5744.62
187.038	5736.52
187.114	5715.11
187.19	5731.33
187.266	5703.38
187.341	5706.93
187.417	5686.26
187.493	5688.61
187.569	5697.87
187.645	5688.81
187.721	5652.98
187.797	5676.04
187.873	5688.51
187.949	5670.68
188.025	5653.5
188.101	5662.46
188.176	5670.04
188.252	5658.92
188.328	5679.33
188.404	5678.66
188.48	5662.41
188.556	5638.91
188.632	5638.86
188.707	5639.87
188.783	5636.32
188.859	5625.39
188.935	5594.55
189.011	5616.22
189.086	5599.16
189.162	5578.63
189.238	5569.24
189.314	5564.78
189.39	5545.36
189.465	5522.78
189.541	5572.89
189.617	5535.31
189.693	5517.86
189.768	5531.91
189.844	5596.49
189.92	5572.15
189.996	5594.06
190.071	5624.23
190.147	5628.64
190.223	5648.54
190.298	5627.29
190.374	5597.56
190.45	5628.91
190.526	5647.42
190.601	5638.45
190.677	5637.73
190.753	5713.8
190.828	5725.26
190.904	5761.33
190.98	5805.22
191.055	5836.44
191.131	5812.12
191.207	5867.98
191.282	5894.3
191.358	5861.22
191.433	5822.05
191.509	5859.81
191.585	5852.95
191.66	5861.3
191.736	5883.36
191.811	5863.27
191.887	5908.51
191.963	5964.5
192.038	5976.2
192.114	5980.47
192.189	5986.9
192.265	5985.31
192.34	5924.35
192.416	5926.22
192.491	5920.94
192.567	5928.47
192.642	5935.77
192.718	5934.09
192.793	5904.78
192.869	5894.47
192.944	5904.87
193.02	5929.77
193.095	5938.21
193.171	5955.91
193.246	5945.69
193.322	5937.54
193.397	5939.65
193.473	5904.71
193.548	5858.03
193.624	5877.17
193.699	5875.83
193.775	5914.32
193.85	5916.19
193.925	5934.99
194.001	5930.1
194.076	5907.75
194.152	5873.87
194.227	5854.01
194.302	5829.52
194.378	5837.38
194.453	5827.8
194.529	5867.71
194.604	5824.82
194.679	5812.59
194.755	5760.72
194.83	5795.57
194.905	5791.59
194.981	5814.23
195.056	5796.2
195.131	5816.25
195.207	5805.74
195.282	5771.36
195.357	5722.18
195.433	5766.97
195.508	5735.94
195.583	5761.64
195.659	5802.95
195.734	5821.71
195.809	5822.24
195.884	5850.62
195.96	5845.92
196.035	5890.13
196.11	5879.1
196.185	5911.23
196.261	5915.98
196.336	5997.18
196.411	5957.25
196.486	5966.17
196.561	5948.18
196.637	5970.67
196.712	6015.03
196.787	6026.89
196.862	6075.37
196.937	6099.5
197.013	6112.65
197.088	6140.37
197.163	6193.58
197.238	6228.79
197.313	6230.71
197.388	6267.18
197.464	6346.46
197.539	6382.59
197.614	6362.54
197.689	6390.43
197.764	6438.21
197.839	6495.53
197.914	6483.9
197.989	6550.6
198.065	6591.64
198.14	6732.2
198.215	6804.24
198.29	6832.49
198.365	6868.66
198.44	6896.8
198.515	6979.72
198.59	7021.66
198.665	7092.94
198.74	7112.94
198.815	7123.8
198.89	7189.71
198.965	7271.14
199.04	7263.6
199.115	7305.1
199.19	7419.31
199.265	7429.06
199.34	7458.24
199.415	7546.92
199.49	7605.01
199.565	7623.95
199.64	7687.26
199.715	7668.4
199.79	7685.75
199.865	7701.09
199.94	7695.61
200.015	7783.38
200.09	7796.55
200.165	7813.53
200.24	7834.83
200.315	7941.86
200.39	7984.52
200.464	7994.19
200.539	7997.85
200.614	8032.66
200.689	8092.54
200.764	8117.04
200.839	8158.09
200.914	8166.84
200.989	8136.67
201.063	8177.08
201.138	8129.02
201.213	8127.67
201.288	8083.09
201.363	8092.57
201.438	8088.53
201.512	8138.86
201.587	8088.01
201.662	8099.99
201.737	8135.54
201.812	8160.37
201.886	8072.67
201.961	8101.64
202.036	8076.98
202.111	8073.9
202.186	7993.45
202.26	7943.09
202.335	7880.99
202.41	7866.42
202.485	7817.91
202.559	7765.99
202.634	7689.19
202.709	7717.92
202.784	7666.87
202.858	7668.11
202.933	7617.35
203.008	7602.21
203.082	7545
203.157	7542.64
203.232	7425.74
203.306	7359.28
203.381	7260.4
203.456	7194.89
203.53	7127.97
203.605	7066.31
203.68	6992.65
203.754	6981.18
203.829	6940.38
203.904	6882.84
203.978	6849.2
204.053	6863.67
204.127	6831.15
204.202	6824.19
204.277	6776.78
204.351	6756.85
204.426	6734.89
204.5	6716.15
204.575	6621.97
204.65	6642.92
204.724	6623.54
204.799	6642.02
204.873	6631.83
204.948	6631.69
205.022	6600.16
205.097	6573.19
205.171	6613.18
205.246	6637.78
205.32	6635.34
205.395	6636.06
205.469	6614.61
205.544	6635.08
205.618	6584.07
205.693	6611.88
205.767	6578.8
205.842	6633.66
205.916	6618.53
205.991	6588.66
206.065	6603.94
206.14	6647.54
206.214	6632.35
206.289	6606.89
206.363	6640.17
206.438	6653.24
206.512	6676.58
206.586	6726.13
206.661	6748.95
206.735	6691.02
206.81	6691.12
206.884	6731.93
206.958	6698.71
207.033	6746.85
207.107	6764.92
207.181	6854.1
207.256	6842.86
207.33	6895.3
207.405	6930.79
207.479	6983.1
207.553	7008.65
207.628	6959.69
207.702	6990.14
207.776	6973.8
207.851	6988.07
207.925	7029.79
207.999	7016.25
208.073	7006.49
208.148	7016.34
208.222	6987.61
208.296	7076.58
208.371	7121.01
208.445	7149.65
208.519	7228.44
208.593	7260.01
208.668	7249.91
208.742	7254.14
208.816	7259.04
208.89	7292.55
208.965	7287.55
209.039	7307.07
209.113	7345.33
209.187	7409.71
209.261	7396.93
209.336	7454.89
209.41	7505.71
209.484	7504.7
209.558	7568.78
209.632	7608.67
209.707	7639.1
209.781	7693.57
209.855	7737.58
209.929	7783.35
210.003	7797.34
210.077	7794.93
210.151	7922.05
210.226	8017.26
210.3	8096.31
210.374	8158.95
210.448	8178.19
210.522	8205.08
210.596	8235.97
210.67	8262.47
210.744	8388.92
210.818	8481.05
210.892	8538.36
210.966	8522.01
211.041	8566.81
211.115	8558
211.189	8624.35
211.263	8676.94
211.337	8696.71
211.411	8732.33
211.485	8714.91
211.559	8750.79
211.633	8757.38
211.707	8677.45
211.781	8695.75
211.855	8598.96
211.929	8577.9
212.003	8525.19
212.077	8555.42
212.151	8586.9
212.225	8610.77
212.299	8578.36
212.373	8543.77
212.447	8524.08
212.52	8603.38
212.594	8610.8
212.668	8642.75
212.742	8598.71
212.816	8578.84
212.89	8564.4
212.964	8559.3
213.038	8568.78
213.112	8599.11
213.186	8640.15
213.26	8574.22
213.333	8440.66
213.407	8446.29
213.481	8452.83
213.555	8488.07
213.629	8445.04
213.703	8390.71
213.777	8383.01
213.85	8320.55
213.924	8410.46
213.998	8410.56
214.072	8392.94
214.146	8348
214.219	8332.45
214.293	8322.69
214.367	8320.33
214.441	8334.19
214.515	8294.53
214.588	8222.7
214.662	8119.38
214.736	8053.14
214.81	8066.31
214.883	8089.96
214.957	8049.43
215.031	8002.62
215.105	7922.04
215.178	7874.09
215.252	7849.85
215.326	7774.21
215.4	7712.89
215.473	7560.54
215.547	7489.65
215.621	7432.73
215.694	7433.07
215.768	7352.64
215.842	7297.56
215.915	7243.69
215.989	7154.62
216.063	7109.85
216.136	7091.73
216.21	7073.62
216.284	7086.16
216.357	7068.05
216.431	7034.36
216.504	7034.56
216.578	7080.51
216.652	7087.61
216.725	7070.94
216.799	7081.42
216.873	7066.38
216.946	7072.77
217.02	7047.66
217.093	7029.98
217.167	6952.92
217.24	6881.75
217.314	6852.61
217.387	6814.21
217.461	6776.98
217.535	6800.75
217.608	6749.55
217.682	6727.89
217.755	6736.2
217.829	6685.7
217.902	6671.1
217.976	6655.3
218.049	6620.1
218.123	6559.07
218.196	6561.08
218.27	6529.49
218.343	6465.97
218.417	6463.9
218.49	6446.96
218.563	6482.72
218.637	6485.65
218.71	6546.51
218.784	6570.24
218.857	6598.9
218.931	6621.21
219.004	6621.26
219.077	6639.71
219.151	6654.45
219.224	6650.85
219.298	6649.17
219.371	6691.93
219.444	6662.6
219.518	6672.92
219.591	6686.79
219.665	6770.87
219.738	6778.69
219.811	6769.53
219.885	6806.99
219.958	6835.72
220.031	6840.71
220.105	6856.42
220.178	6859.26
220.251	6825.09
220.325	6846.81
220.398	6856.27
220.471	6868.37
220.544	6902.43
220.618	6876
220.691	6895.21
220.764	6907.51
220.838	6934.66
220.911	6917.31
220.984	6986.66
221.057	7011.93
221.131	7027.92
221.204	6945.05
221.277	7008.4
221.35	7104.11
221.424	7098.01
221.497	7107
221.57	7123.52
221.643	7149.33
221.716	7189.23
221.79	7200.8
221.863	7207.73
221.936	7218.49
222.009	7229.44
222.082	7256.51
222.155	7270.06
222.229	7324.62
222.302	7356.05
222.375	7355.57
222.448	7384.12
222.521	7385.42
222.594	7390.03
222.667	7368.42
222.74	7422.82
222.814	7408.24
222.887	7395.55
222.96	7437.27
223.033	7463.04
223.106	7477.84
223.179	7505.21
223.252	7513.39
223.325	7537.22
223.398	7551.02
223.471	7577.7
223.544	7595.34
223.617	7601.73
223.69	7621.15
223.763	7589.99
223.837	7604.75
223.91	7629.66
223.983	7593.95
224.056	7564.92
224.129	7582.95
224.202	7625.9
224.275	7612.48
224.348	7594.26
224.42	7569.93
224.493	7527.44
224.566	7512.63
224.639	7534.02
224.712	7503.09
224.785	7492.03
224.858	7484.58
224.931	7466.59
225.004	7437.66
225.077	7436.17
225.15	7363.65
225.223	7356.25
225.296	7422.63
225.369	7369.29
225.442	7343.13
225.514	7355.1
225.587	7374.75
225.66	7375.81
225.733	7381.96
225.806	7388.69
225.879	7378.26
225.952	7354.57
226.025	7390
226.097	7431.46
226.17	7426.08
226.243	7379.47
226.316	7379.37
226.389	7384.61
226.461	7396.92
226.534	7404.8
226.607	7403.79
226.68	7466.97
226.753	7463.08
226.825	7392.75
226.898	7447.78
226.971	7447.4
227.044	7465.95
227.117	7472.49
227.189	7488.75
227.262	7518.18
227.335	7532.7
227.407	7530.44
227.48	7555.24
227.553	7561.34
227.626	7542.05
227.698	7546.62
227.771	7578.33
227.844	7558.76
227.916	7572.75
227.989	7547.42
228.062	7548.19
228.134	7617.2
228.207	7620.81
228.28	7613.79
228.352	7623.69
228.425	7628.55
228.498	7667.69
228.57	7656.59
228.643	7702.86
228.716	7703.15
228.788	7688.62
228.861	7680.11
228.934	7734.34
229.006	7737.75
229.079	7744.1
229.151	7738.76
229.224	7707.43
229.296	7721.75
229.369	7802.96
229.442	7843.41
229.514	7829.82
229.587	7863.42
229.659	7801.43
229.732	7812.2
229.804	7843.01
229.877	7910.42
229.949	7932.64
230.022	7977.4
230.094	7973.12
230.167	7961.1
230.239	7925.61
230.312	7917.25
230.384	7976.62
230.457	7977.82
230.529	7991.23
230.602	7989.26
230.674	7997.44
230.747	8033.1
230.819	8061.86
230.892	7965.67
230.964	7957.34
231.037	7981.51
231.109	7976.95
231.181	8005.36
231.254	7977.71
231.326	7973.72
231.399	7953.31
231.471	7929.16
231.544	7859.49
231.616	7896.9
231.688	7899.74
231.761	7891.62
231.833	7882.82
231.905	7808.49
231.978	7805.32
232.05	7783.49
232.122	7792.05
232.195	7767.57
232.267	7800.23
232.339	7777.77
232.412	7838.4
232.484	7819.68
232.556	7802.04
232.629	7858.63
232.701	7874.8
232.773	7878.64
232.846	7867.63
232.918	7867.82
232.99	7884.23
233.062	7918.81
233.135	7930.07
233.207	7906.64
233.279	7940.43
233.351	7970.25
233.424	7976.45
233.496	7953.85
233.568	8022.68
233.64	7985.65
233.713	8005.32
233.785	7998.49
233.857	8013.4
233.929	7961.75
234.001	8022.88
234.074	8074.03
234.146	8013.12
234.218	8009.22
234.29	8012.83
234.362	8005.86
234.434	7971.46
234.507	7946.35
234.579	7906.48
234.651	7887.91
234.723	7911.38
234.795	7925.14
234.867	7915.09
234.939	7969.49
235.012	7985.17
235.084	7990.18
235.156	8021.72
235.228	7998.3
235.3	7983
235.372	7988.78
235.444	8046.39
235.516	7982.28
235.588	7987.52
235.66	7999.16
235.732	7977.66
235.804	8140.16
235.876	8174.2
235.948	8226.03
236.02	8235.93
236.092	8248.39
236.164	8258.87
236.236	8255.98
236.308	8253.24
236.38	8279.22
236.452	8253.19
236.524	8267.04
236.596	8312.45
236.668	8347.14
236.74	8369.31
236.812	8395.62
236.884	8425.51
236.956	8431.72
237.028	8422.14
237.1	8400.88
237.172	8461.72
237.244	8524.7
237.316	8426.34
237.388	8409.84
237.46	8390.16
237.532	8434.09
237.604	8423.46
237.675	8479.48
237.747	8518.37
237.819	8508.37
237.891	8505.53
237.963	8506.34
238.035	8503.17
238.107	8423.84
238.178	8469.43
238.25	8475.93
238.322	8546.07
238.394	8515.32
238.466	8510.46
238.538	8545.82
238.609	8580.56
238.681	8534.54
238.753	8517.02
238.825	8534.06
238.897	8564.75
238.968	8632.25
239.04	8619.21
239.112	8711.5
239.184	8680.6
239.255	8678.39
239.327	8708.45
239.399	8730.54
239.471	8768.75
239.542	8802.72
239.614	8848.35
239.686	8782.64
239.758	8827.44
239.829	8796.72
239.901	8842.78
239.973	8858.66
240.044	8885.37
240.116	8903.71
240.188	8913.77
240.259	8925.13
240.331	8905.53
240.403	8933.69
240.474	8894.53
240.546	8881.35
240.618	8831.57
240.689	8834.85
240.761	8856.9
240.833	8915.73
240.904	8916.16
240.976	8911.73
241.048	8921.51
241.119	8958.49
241.191	8992.28
241.262	9045.59
241.334	9051.75
241.405	9059.41
241.477	9058.93
241.549	9063.02
241.62	9076.79
241.692	9116.55
241.763	9160.81
241.835	9188.49
241.906	9202.98
241.978	9176.41
242.049	9233.55
242.121	9287.23
242.192	9340.38
242.264	9303.6
242.335	9258.59
242.407	9300.09
242.478	9301.49
242.55	9320.79
242.621	9309.81
242.693	9311.88
242.764	9303.84
242.836	9306.15
242.907	9329.51
242.979	9357.43
243.05	9386.23
243.122	9406.21
243.193	9405.1
243.264	9351.08
243.336	9350.36
243.407	9375.69
243.479	9447
243.55	9467.47
243.622	9477.29
243.693	9481.05
243.764	9538.83
243.836	9522.71
243.907	9504.12
243.978	9511.48
244.05	9530.84
244.121	9487.75
244.192	9524.25
244.264	9486.74
244.335	9498.29
244.407	9454.14
244.478	9467.19
244.549	9448.55
244.62	9414.94
244.692	9416.05
244.763	9455.24
244.834	9445.95
244.906	9429.38
244.977	9436.08
245.048	9472.79
245.119	9460.17
245.191	9434.11
245.262	9384.18
245.333	9444.36
245.405	9463.33
245.476	9490.92
245.547	9504.31
245.618	9545.53
245.689	9550.44
245.761	9574.95
245.832	9581.79
245.903	9624.89
245.974	9649.65
246.045	9667.99
246.117	9738.89
246.188	9716.07
246.259	9701.38
246.33	9716.07
246.401	9719.82
246.473	9690.06
246.544	9678.11
246.615	9722.81
246.686	9733.5
246.757	9796.29
246.828	9779.25
246.899	9840.96
246.97	9814.19
247.042	9806.96
247.113	9851.14
247.184	9927.75
247.255	9927.37
247.326	9945.38
247.397	9950.82
247.468	9956.46
247.539	9967.83
247.61	9932.71
247.681	9976.63
247.752	10024.6
247.823	10005
247.894	10024.94
247.965	10005.34
248.037	9999.75
248.108	9956.45
248.179	9960.3
248.25	9953.31
248.321	9980.04
248.392	9934.08
248.463	10003.29
248.534	9995.34
248.605	10003.58
248.675	9973.75
248.746	9989.79
248.817	10004.48
248.888	10016.29
248.959	9972.84
249.03	9990.57
249.101	9991.2
249.172	9977.71
249.243	9918.71
249.314	9975.74
249.385	9987.98
249.456	10016.53
249.527	10001.6
249.598	10016.72
249.669	10011.38
249.739	10017.45
249.81	10027.99
249.881	9999.43
249.952	9991.34
250.023	9993.6
250.094	9948.22
250.165	9927.41
250.235	9922.64
250.306	9931.84
250.377	9911.75
250.448	9933.23
250.519	9874.67
250.59	9926.79
250.66	9931.08
250.731	9985.4
250.802	9981.35
250.873	9992.29
250.944	10010.11
251.014	10006.93
251.085	10082.44
251.156	10110.18
251.227	10161.78
251.297	10200.86
251.368	10238.24
251.439	10273.8
251.51	10314.22
251.58	10310.94
251.651	10307.28
251.722	10355.42
251.792	10311.53
251.863	10306.52
251.934	10354.21
252.005	10452.44
252.075	10456.29
252.146	10494.97
252.217	10536.75
252.287	10572.07
252.358	10573.51
252.429	10637.07
252.499	10633.75
252.57	10641.27
252.641	10679.09
252.711	10675.81
252.782	10641.65
252.852	10704.44
252.923	10699.43
252.994	10717.02
253.064	10759.55
253.135	10744.42
253.205	10718.26
253.276	10781.18
253.347	10844.05
253.417	10834.03
253.488	10812.97
253.558	10802.75
253.629	10799.24
253.699	10808.59
253.77	10841.17
253.841	10840.69
253.911	10851.43
253.982	10861.65
254.052	10885.12
254.123	10887.91
254.193	10892.97
254.264	11005.22
254.334	10983.58
254.405	10956.88
254.475	10923.06
254.546	10925.47
254.616	10973.26
254.687	10998.08
254.757	11010.03
254.827	11011.43
254.898	11022.37
254.968	11031.33
255.039	11019.91
255.109	11049.16
255.18	11027.66
255.25	10953.6
255.321	10973.74
255.391	10933.16
255.461	11017.01
255.532	10952.72
255.602	10951.9
255.673	10908.05
255.743	10880.82
255.813	10814.14
255.884	10851.58
255.954	10883.43
256.024	10932.2
256.095	10935.14
256.165	10910.03
256.235	10931
256.306	10912.01
256.376	10959
256.446	10995.68
256.517	11022.47
256.587	11064.4
256.657	11078.76
256.728	11108.05
256.798	11116.05
256.868	11118.08
256.938	11081.98
257.009	11118.99
257.079	11139.37
257.149	11223.18
257.219	11172.24
257.29	11207.64
257.36	11173.67
257.43	11201.58
257.5	11147.31
257.571	11142.49
257.641	11178.15
257.711	11149.91
257.781	11177.43
257.852	11186.01
257.922	11135.11
257.992	11135.11
258.062	11122.49
258.132	11152.56
258.202	11159.4
258.273	11169.57
258.343	11226.3
258.413	11212.52
258.483	11221.82
258.553	11201.53
258.623	11173.14
258.693	11192.22
258.764	11253.62
258.834	11299.06
258.904	11316.51
258.974	11311.59
259.044	11321.57
259.114	11338.05
259.184	11359.69
259.254	11371.98
259.324	11325.91
259.394	11361.28
259.464	11429.72
259.535	11439.6
259.605	11439.75
259.675	11427.41
259.745	11462.26
259.815	11445.63
259.885	11452.42
259.955	11537.45
260.025	11526.13
260.095	11535.72
260.165	11563
260.235	11607.16
260.305	11602.34
260.375	11581.37
260.445	11656.84
260.515	11702.53
260.585	11741.28
260.655	11749.62
260.725	11780.81
260.795	11814.21
260.865	11873.98
260.934	11848.43
261.004	11873.83
261.074	11878.12
261.144	11928
261.214	11952.25
261.284	11955.86
261.354	11988.83
261.424	11950.12
261.494	12012.33
261.564	12019.71
261.634	12046.65
261.703	11991.08
261.773	12004.96
261.843	12024.34
261.913	12022.79
261.983	11986.93
262.053	12004.38
262.123	12001.2
262.192	11970.45
262.262	12007.9
262.332	11963.7
262.402	11986.26
262.472	11994.55
262.541	11945.3
262.611	11980.97
262.681	11963.95
262.751	11996.92
262.821	11999.62
262.89	11971.42
262.96	11991.47
263.03	12055.63
263.1	12074.91
263.169	12100.12
263.239	12131.07
263.309	12183.03
263.379	12202.89
263.448	12218.17
263.518	12237.79
263.588	12253.94
263.657	12317.18
263.727	12341.33
263.797	12359.64
263.867	12366.35
263.936	12330.68
264.006	12385.86
264.076	12379.01
264.145	12378.1
264.215	12361.23
264.285	12391.98
264.354	12366.24
264.424	12364.84
264.494	12323.72
264.563	12311.24
264.633	12368.51
264.702	12383.98
264.772	12350.09
264.842	12345.41
264.911	12365.95
264.981	12339.97
265.05	12347.82
265.12	12339.48
265.19	12348.55
265.259	12380.79
265.329	12405.23
265.398	12425.14
265.468	12503.57
265.537	12502.13
265.607	12525.36
265.676	12561.13
265.746	12577.23
265.815	12622.54
265.885	12617.76
265.955	12606.68
266.024	12609.04
266.094	12556.93
266.163	12607.93
266.232	12661.73
266.302	12677.59
266.371	12694.61
266.441	12706.56
266.51	12745.32
266.58	12743
266.649	12732.74
266.719	12774.92
266.788	12794.05
266.858	12852.62
266.927	12800.37
266.996	12821.96
267.066	12847.61
267.135	12824.28
267.205	12860.96
267.274	12882.99
267.343	12925.08
267.413	12944.94
267.482	12996.13
267.552	13047.32
267.621	13004.47
267.69	12965.9
267.76	12985.14
267.829	13009.53
267.898	13029.63
267.968	13018.98
268.037	13050.17
268.106	13094.9
268.176	13064.73
268.245	13065.69
268.314	13065.16
268.384	13112.79
268.453	13134.53
268.522	13157.43
268.592	13212.19
268.661	13205.63
268.73	13223.23
268.799	13220.96
268.869	13281.61
268.938	13239.62
269.007	13236.29
269.076	13266.66
269.146	13308.6
269.215	13335.93
269.284	13393.3
269.353	13389.11
269.422	13396.53
269.492	13391.85
269.561	13331.98
269.63	13367.36
269.699	13373.39
269.768	13385.39
269.838	13398.31
269.907	13436.4
269.976	13412.73
270.045	13368.43
270.114	13396.53
270.183	13408.97
270.253	13432.54
270.322	13390.31
270.391	13423.14
270.46	13479.88
270.529	13512.66
270.598	13549.83
270.667	13553.01
270.736	13536.47
270.806	13565.45
270.875	13610.9
270.944	13625.9
271.013	13725.54
271.082	13739.42
271.151	13767.67
271.22	13736.24
271.289	13743.04
271.358	13740.72
271.427	13769.55
271.496	13793.7
271.565	13791.29
271.634	13812.07
271.703	13912.77
271.772	13971.92
271.841	13975.97
271.91	13938.17
271.979	13952.25
272.048	13927.71
272.117	13967.96
272.186	13969.41
272.255	14004.5
272.324	14037.62
272.393	14063.46
272.462	14046.93
272.531	14068.67
272.6	14079.22
272.669	14141.65
272.738	14151.29
272.807	14182.82
272.876	14165.51
272.945	14278.07
273.013	14335.34
273.082	14381.81
273.151	14300.1
273.22	14323.58
273.289	14341.17
273.358	14417
273.427	14424.95
273.496	14467.47
273.564	14490.08
273.633	14531.3
273.702	14521.61
273.771	14532.6
273.84	14562.72
273.909	14597.58
273.977	14629.01
274.046	14635.75
274.115	14685.31
274.184	14682.32
274.253	14701.79
274.322	14772.03
274.39	14722.52
274.459	14711.68
274.528	14678.66
274.597	14708.11
274.665	14731.49
274.734	14798.11
274.803	14804.76
274.872	14825.25
274.94	14820.57
275.009	15002.27
275.078	14998.85
275.147	15033.17
275.215	15052.59
275.284	15104.03
275.353	15118.49
275.421	15092.94
275.49	15171.22
275.559	15171.75
275.627	15197.73
275.696	15212.14
275.765	15242.9
275.833	15258.52
275.902	15304.4
275.971	15374.78
276.039	15444.63
276.108	15494.42
276.177	15521.99
276.245	15533.75
276.314	15564.74
276.383	15612.32
276.451	15485.18
276.52	15538.69
276.588	15597.2
276.657	15648.58
276.725	15654.42
276.794	15684.83
276.863	15759.35
276.931	15730.77
277	15793.33
277.068	15853
277.137	15934.89
277.205	15962.42
277.274	16046.04
277.342	16098.48
277.411	16070.43
277.48	16077.22
277.548	16081.42
277.617	16103.49
277.685	16127.93
277.754	16170.25
277.822	16190.15
277.89	16258.16
277.959	16272.23
278.027	16262.35
278.096	16266.45
278.164	16376.53
278.233	16394.31
278.301	16391.56
278.37	16444.97
278.438	16433.88
278.507	16473.79
278.575	16437.74
278.643	16463.19
278.712	16450.61
278.78	16445.11
278.849	16512.3
278.917	16575.49
278.985	16604.79
279.054	16645.52
279.122	16700.75
279.191	16721.13
279.259	16741.38
279.327	16720.56
279.396	16799.36
279.464	16826.68
279.532	16886.69
279.601	16904.03
279.669	16929.82
279.737	17002.5
279.806	17049.05
279.874	17117.39
279.942	17148.24
280.011	17174.41
280.079	17232.38
280.147	17313.64
280.215	17359.66
280.284	17383.57
280.352	17373.06
280.42	17425.25
280.488	17443.52
280.557	17468.82
280.625	17522.07
280.693	17566.51
280.761	17611.76
280.83	17604.39
280.898	17681.83
280.966	17661.21
281.034	17610.17
281.102	17607.04
281.171	17618.89
281.239	17674.99
281.307	17685.06
281.375	17692.72
281.443	17790.22
281.512	17815.8
281.58	17869.39
281.648	17861.78
281.716	17893.78
281.784	17932.33
281.852	17945.54
281.92	17978.11
281.989	18041.48
282.057	18035.51
282.125	18145.72
282.193	18175.36
282.261	18206.49
282.329	18219.06
282.397	18266.87
282.465	18322.48
282.533	18400.8
282.601	18413.9
282.67	18389.86
282.738	18400.22
282.806	18476.26
282.874	18476.6
282.942	18526.04
283.01	18540.6
283.078	18600.21
283.146	18627.77
283.214	18689.07
283.282	18735.19
283.35	18804.29
283.418	18816.2
283.486	18859.33
283.554	18820.68
283.622	18851.13
283.69	18888.82
283.758	18909.68
283.826	18962.74
283.894	19016.81
283.962	19103.21
284.03	19183.45
284.098	19230.48
284.165	19270.67
284.233	19296.55
284.301	19324.36
284.369	19327.92
284.437	19336.02
284.505	19356.74
284.573	19440.5
284.641	19442.52
284.709	19493.36
284.777	19484.78
284.845	19548.93
284.912	19596.49
284.98	19657.21
285.048	19680.97
285.116	19721.25
285.184	19793.97
285.252	19824.43
285.319	19820.43
285.387	19831.32
285.455	19814.12
285.523	19862.55
285.591	19889.68
285.659	19938.45
285.726	20007.22
285.794	20005.2
285.862	20043.65
285.93	20080.28
285.997	20095.89
286.065	20126.59
286.133	20136.28
286.201	20165.34
286.269	20159.07
286.336	20176.56
286.404	20187.41
286.472	20248.23
286.539	20236.61
286.607	20218.54
286.675	20265.14
286.743	20320.95
286.81	20343.94
286.878	20423.89
286.946	20441.43
287.013	20476.85
287.081	20492.9
287.149	20490.11
287.216	20590.88
287.284	20611.7
287.352	20648.42
287.419	20677.87
287.487	20759.71
287.555	20805.54
287.622	20835.23
287.69	20885.01
287.758	20954.27
287.825	20977.65
287.893	20982.18
287.96	21031.67
288.028	21111.1
288.096	21146.43
288.163	21193.13
288.231	21197.66
288.298	21231.02
288.366	21302.3
288.433	21325.77
288.501	21343.9
288.569	21380.04
288.636	21403.04
288.704	21482.47
288.771	21539.93
288.839	21555.25
288.906	21559.3
288.974	21631.03
289.041	21662.94
289.109	21678.99
289.176	21733.27
289.244	21786.1
289.311	21849.39
289.379	21922.75
289.446	21971.87
289.514	22013.57
289.581	22051.32
289.649	22102.08
289.716	22147.92
289.783	22164.6
289.851	22265.25
289.918	22308.78
289.986	22376.95
290.053	22418.6
290.121	22443.19
290.188	22492.61
290.255	22614.68
290.323	22644.09
290.39	22656.77
290.458	22715.77
290.525	22785.24
290.592	22804.72
290.66	22856.89
290.727	22888.18
290.794	22963.45
290.862	22991.85
290.929	23035.53
290.996	23065.62
291.064	23129.02
291.131	23187.95
291.198	23259.95
291.266	23283.67
291.333	23324.56
291.4	23375.24
291.468	23449.51
291.535	23477.19
291.602	23516.73
291.669	23520.69
291.737	23576.72
291.804	23615.88
291.871	23686.96
291.938	23742.14
292.006	23844.26
292.073	23903.34
292.14	23960.05
292.207	23962.9
292.275	24004.04
292.342	24059.22
292.409	24168.77
292.476	24260.38
292.543	24268.82
292.611	24296.94
292.678	24383.83
292.745	24488.5
292.812	24547.99
292.879	24565.6
292.946	24607.08
293.014	24676.4
293.081	24738.06
293.148	24804.2
293.215	24877
293.282	24904.69
293.349	24961.05
293.416	24952.51
293.484	25020.94
293.551	25091.67
293.618	25173.75
293.685	25273.3
293.752	25293.95
293.819	25321.08
293.886	25324.6
293.953	25384.67
294.02	25456.68
294.087	25502.82
294.154	25507.94
294.221	25574.22
294.288	25624.6
294.356	25718.33
294.423	25773.84
294.49	25786.92
294.557	25859.76
294.624	25878.49
294.691	25967.88
294.758	26013.31
294.825	26067.56
294.892	26087.26
294.959	26122.69
295.026	26187.87
295.093	26206.95
295.16	26246.38
295.226	26284.47
295.293	26390.86
295.36	26439.23
295.427	26497.08
295.494	26576.64
295.561	26653.26
295.628	26756.9
295.695	26834.46
295.762	26880.97
295.829	26955.12
295.896	27050.63
295.963	27117.53
296.03	27187.26
296.096	27238.27
296.163	27316.78
296.23	27406.53
296.297	27488.97
296.364	27535.68
296.431	27587.47
296.498	27621.43
296.564	27732.71
296.631	27781.26
296.698	27783.87
296.765	27888.67
296.832	27899.1
296.899	27894.9
296.965	27985.94
297.032	27962.69
297.099	28047.81
297.166	28111.06
297.233	28129.14
297.299	28145.66
297.366	28178.43
297.433	28226.61
297.5	28298.3
297.566	28331.07
297.633	28370.18
297.7	28402.95
297.767	28436.29
297.833	28484.49
297.9	28536.24
297.967	28534.99
298.033	28605.76
298.1	28725.19
298.167	28743.71
298.234	28814.23
298.3	28878.14
298.367	28893.03
298.434	28965.47
298.5	28980.22
298.567	29012.04
298.634	29048.88
298.7	29138.81
298.767	29183.2
298.834	29264.29
298.9	29288.62
298.967	29310.14
299.033	29366.98
299.1	29458.39
299.167	29537.26
299.233	29580.11
299.3	29648.93
299.366	29730.5
299.433	29814.6
299.5	29783.2
299.566	29837.47
299.633	29913.9
299.699	29986.42
299.766	30016.46
299.832	30068.92
299.899	30136.42
299.965	30201.79
300.032	30243.92
300.099	30311.96
300.165	30377.67
300.232	30398.87
300.298	30440.77
300.365	30519.3
300.431	30574.33
300.498	30602.16
300.564	30660.53
300.631	30716.33
300.697	30788.88
300.763	30825.76
300.83	30853.4
300.896	30928.56
300.963	30989.11
301.029	31039.99
301.096	31083.76
301.162	31161.34
301.229	31188.41
301.295	31199.35
301.361	31241.47
301.428	31286.67
301.494	31273.41
301.561	31314.32
301.627	31358.08
301.693	31408.67
301.76	31452.21
301.826	31473.22
301.892	31531.29
301.959	31594.53
302.025	31628.92
302.092	31658.51
302.158	31718.54
302.224	31759.81
302.291	31785.24
302.357	31811.14
302.423	31837.35
302.49	31856.67
302.556	31927.25
302.622	31965.71
302.688	32030.08
302.755	32105.17
302.821	32156.3
302.887	32226.86
302.954	32258.83
303.02	32330.96
303.086	32380.76
303.152	32411.66
303.219	32443.59
303.285	32496.65
303.351	32541.71
303.417	32580.95
303.483	32604.26
303.55	32626.49
303.616	32673.84
303.682	32713.75
303.748	32746.11
303.815	32820.02
303.881	32882.53
303.947	32886.26
304.013	32919.59
304.079	32944.5
304.145	32932.34
304.212	32965.28
304.278	32983.26
304.344	33017.23
304.41	33013.69
304.476	33024.35
304.542	33055.12
304.608	33111.82
304.674	33098.83
304.741	33126.22
304.807	33171.64
304.873	33223.49
304.939	33309.62
305.005	33299.69
305.071	33327.94
305.137	33359.49
305.203	33331.62
305.269	33368.46
305.335	33434.39
305.401	33472.79
305.467	33494.21
305.533	33555.05
305.599	33623.35
305.666	33677.15
305.732	33716.32
305.798	33789.86
305.864	33899.05
305.93	33954.03
305.996	33976.72
306.062	34019.86
306.128	34045.71
306.194	34055.84
306.259	34091.33
306.325	34097.1
306.391	34158.1
306.457	34211.81
306.523	34257
306.589	34352.67
306.655	34360.67
306.721	34342.68
306.787	34342.68
306.853	34418.92
306.919	34414.26
306.985	34420.22
307.051	34445.92
307.117	34453.34
307.183	34467.55
307.248	34420.65
307.314	34451.4
307.38	34503.59
307.446	34551.17
307.512	34559.07
307.578	34596.7
307.644	34600.39
307.709	34633.56
307.775	34639.28
307.841	34663.53
307.907	34694.33
307.973	34677.26
308.039	34708.88
308.104	34758.69
308.17	34807.43
308.236	34793.55
308.302	34832.35
308.368	34840.4
308.433	34864.85
308.499	34888.41
308.565	34898.12
308.631	34945.84
308.696	34916.74
308.762	34898.94
308.828	34910
308.894	34894.29
308.959	34872.95
309.025	34892.01
309.091	34913.84
309.156	34935.23
309.222	34972.49
309.288	34957.99
309.354	34932.38
309.419	34966.48
309.485	34952.42
309.551	34975.27
309.616	34977.98
309.682	34997.82
309.748	35002.58
309.813	35021.06
309.879	35032.46
309.945	35029.79
310.01	35047.98
310.076	35098.97
310.141	35116.38
310.207	35119.78
310.273	35168.18
310.338	35216.35
310.404	35203.25
310.469	35206.4
310.535	35216.01
310.601	35180.06
310.666	35246.67
310.732	35307.07
310.797	35303.09
310.863	35323.56
310.928	35343.06
310.994	35379.16
311.059	35398.32
311.125	35433.93
311.191	35490.22
311.256	35484.93
311.322	35533.06
311.387	35510.06
311.453	36384.14
311.518	36379.58
311.584	36402.24
311.649	36429.61
311.715	36433.49
311.78	36473.8
311.846	36477.39
311.911	36525.58
311.976	36560.8
312.042	36542.16
312.107	36532.65
312.173	36539.5
312.238	36566.52
312.304	36582.73
312.369	36583.8
312.434	36592.19
312.5	36595.88
312.565	36539.97
312.631	36594.41
312.696	36594.41
312.761	36623.96
312.827	35767.2
312.892	35873.92
312.958	35896.59
313.023	35917.02
313.088	35941.91
313.154	35940.84
313.219	35946.61
313.284	35929.53
313.35	35950.2
313.415	35950.83
313.48	35962.48
313.546	35996.11
313.611	36030.23
313.676	36029.5
313.741	36040.81
313.807	36082.74
313.872	36129.96
313.937	36173.14
314.003	36219.35
314.068	36253.52
314.133	36301.91
314.198	36321.22
314.264	36286.27
314.329	36280.93
314.394	36298.99
314.459	36312.77
314.525	36384.64
314.59	36413.32
314.655	36428.13
314.72	36464.38
314.785	36485.88
314.851	36509.95
314.916	36483.16
314.981	36460.54
315.046	36469.86
315.111	36463.21
315.176	36456.76
315.242	36485.83
315.307	36511.71
315.372	36484.28
315.437	36476.17
315.502	36470.25
315.567	36515.2
315.632	36506.47
315.698	36543.31
315.763	36546.12
315.828	36544.23
315.893	36541.41
315.958	36532.87
316.023	36520.16
316.088	36494.33
316.153	36475.12
316.218	36462.74
316.283	36433.05
316.348	36400.2
316.413	36394.81
316.479	36369.34
316.544	36275.93
316.609	36188.68
316.674	36092.79
316.739	36012.25
316.804	35925.16
316.869	35817.69
316.934	35699.87
316.999	35604.87
317.064	35446.48
317.129	35321.45
317.194	35209.25
317.259	35065.64
317.324	34912.05
317.389	34774.99
317.454	34646.5
317.518	34524.53
317.583	34432.57
317.648	34336.79
317.713	34229.68
317.778	34034.56
317.843	33917.8
317.908	33798.37
317.973	33668.58
318.038	33546.38
318.103	33412.51
318.168	33296.09
318.233	33173.57
318.297	33000.77
318.362	32872.97
318.427	32726.44
318.492	32607.09
318.557	32441.59
318.622	32321.57
318.687	32218.21
318.751	32061.76
318.816	31920.66
318.881	31776.79
318.946	31574.83
319.011	31390.41
319.075	31215.05
319.14	31070.05
319.205	30894.24
319.27	30745.46
319.335	30558.12
319.399	30399.96
319.464	30249.47
319.529	30042.55
319.594	29870.7
319.658	29734.15
319.723	29545.73
319.788	29414.92
319.853	29206.13
319.917	29052.83
319.982	28838.7
320.047	28665.02
320.112	28522.14
320.176	28317.14
320.241	28145.88
320.306	27983.46
320.37	27822.51
320.435	27654.13
320.5	27504.36
320.564	27326.69
320.629	27131.8
320.694	26976.95
320.758	26788.97
320.823	26598.12
320.888	26442.9
320.952	26249.01
321.017	26059.45
321.082	25867.96
321.146	25696.87
321.211	25527.8
321.275	25347.61
321.34	25160.82
321.405	24959.65
321.469	24759.12
321.534	24570.02
321.598	24358.24
321.663	24204.09
321.727	24032.74
321.792	23839.23
321.857	23641.48
321.921	23461.2
321.986	23257.58
322.05	23018.08
322.115	22833.45
322.179	22634.42
322.244	22406.24
322.308	22227.14
322.373	22020.71
322.437	21832.33
322.502	21682.19
322.566	21479.2
322.631	21285.2
322.695	21083.2
322.76	20882.65
322.824	20707.93
322.889	20503.78
322.953	20301.51
323.018	20030.02
323.082	19773.96
323.146	19538.59
323.211	19308.28
323.275	19099.36
323.34	18902.98
323.404	18724.77
323.468	18508.72
323.533	18297.06
323.597	18086.65
323.662	17856.67
323.726	17669.88
323.79	17454.36
323.855	17177.58
323.919	16952.95
323.983	16744.26
324.048	16435.06
324.112	16492.31
324.177	15834.79
324.241	14971.54
324.305	14118.65
324.37	13289.06
324.434	12475.32
324.498	12252.72
324.562	12002.65
324.627	11709.84
324.691	11421.4
324.755	11098.42
324.82	10731.16
324.884	10346.14
324.948	9957.78
325.012	9486.06
325.077	8890.02
