Data from 20250626_urea_1M_exp2_MAYP1162681_07-03-59-600.txt Node
Date: Fri Jun 27 07:03:59 BST 2025
User: adleo
Spectrometer: MAYP116268
Trigger mode: 0
Integration Time (sec): 3.000000E0
Scans to average: 1
Electric dark correction enabled: true
Nonlinearity correction enabled: true
Boxcar width: 10
XAxis mode: Wavelengths
Number of Pixels in Spectrum: 2068
>>>>>Begin Spectral Data<<<<<
179.565	2905.92
179.642	3062.91
179.718	3177.97
179.795	3290.59
179.871	3380.95
179.948	3432.15
180.024	3486.89
180.101	3547.49
180.177	3583.1
180.254	3639.57
180.33	3699.22
180.407	3897.02
180.483	4122.16
180.56	4352.63
180.636	4561.74
180.712	4529.9
180.789	4553.4
180.865	4588.7
180.942	4609.27
181.018	4636.59
181.095	4672.08
181.171	4682.22
181.248	4681.55
181.324	4721.35
181.4	4730.83
181.477	4756.54
181.553	4789.9
181.63	4842.71
181.706	4878.92
181.782	4906.95
181.859	4914.23
181.935	4927.93
182.011	4921.85
182.088	4964.04
182.164	5015.37
182.24	5054.63
182.317	5077.75
182.393	5071.95
182.469	5108.16
182.546	5146.29
182.622	5156.35
182.698	5144.85
182.775	5179.29
182.851	5215.7
182.927	5192.94
183.003	5185.14
183.08	5172.68
183.156	5193.71
183.232	5188.25
183.308	5162.62
183.385	5180.77
183.461	5223.37
183.537	5227.16
183.613	5256.96
183.69	5236.02
183.766	5208.59
183.842	5221.05
183.918	5240.75
183.995	5270.97
184.071	5281.57
184.147	5264.22
184.223	5235.69
184.299	5267.37
184.375	5235.85
184.452	5252.39
184.528	5359.19
184.604	5391
184.68	5422.33
184.756	5443.47
184.832	5456.61
184.908	5471.69
184.985	5471.93
185.061	5427.99
185.137	5452.97
185.213	5423.17
185.289	5423.5
185.365	5401.42
185.441	5397.63
185.517	5429.52
185.593	5416.25
185.669	5404.89
185.745	5433.16
185.822	5477.85
185.898	5455.8
185.974	5487.12
186.05	5462.34
186.126	5400.74
186.202	5374.34
186.278	5358.52
186.354	5331.05
186.43	5347.7
186.506	5340.13
186.582	5336.58
186.658	5352.25
186.734	5296.67
186.81	5309.07
186.886	5318.85
186.962	5347.98
187.038	5337.29
187.114	5316.19
187.19	5341.93
187.266	5316.83
187.341	5318.65
187.417	5303.6
187.493	5309.3
187.569	5314.15
187.645	5304.51
187.721	5271.29
187.797	5298.55
187.873	5314.23
187.949	5300.19
188.025	5278.09
188.101	5289.72
188.176	5302.09
188.252	5293.8
188.328	5317.12
188.404	5315.58
188.48	5305.48
188.556	5288.56
188.632	5292.78
188.707	5297.33
188.783	5286.26
188.859	5277.78
188.935	5243.28
189.011	5258.47
189.086	5237
189.162	5214.43
189.238	5208.45
189.314	5202.03
189.39	5185.83
189.465	5162.3
189.541	5204.62
189.617	5169.45
189.693	5154.8
189.768	5162.85
189.844	5222.97
189.92	5201.09
189.996	5222.13
190.071	5254
190.147	5255.15
190.223	5276.67
190.298	5254.62
190.374	5220.51
190.45	5251.98
190.526	5278.14
190.601	5265.59
190.677	5269.8
190.753	5341.74
190.828	5349.65
190.904	5393.41
190.98	5431.91
191.055	5461.09
191.131	5438.9
191.207	5490.99
191.282	5514.36
191.358	5490.31
191.433	5452.46
191.509	5488.05
191.585	5478.08
191.66	5477.6
191.736	5494.13
191.811	5469.55
191.887	5512.7
191.963	5577.65
192.038	5588.68
192.114	5589.93
192.189	5601.28
192.265	5591.85
192.34	5534.33
192.416	5531.79
192.491	5518.22
192.567	5527.14
192.642	5535.58
192.718	5537.02
192.793	5508.59
192.869	5496.56
192.944	5504.03
193.02	5523.93
193.095	5528.63
193.171	5545.55
193.246	5541.43
193.322	5539.85
193.397	5542.68
193.473	5505.46
193.548	5460.38
193.624	5477.51
193.699	5478.9
193.775	5517.99
193.85	5526.89
193.925	5550.29
194.001	5549.24
194.076	5530.11
194.152	5495.77
194.227	5473.29
194.302	5449.67
194.378	5454.65
194.453	5446.85
194.529	5479.64
194.604	5445.22
194.679	5431.61
194.755	5379.63
194.83	5413.5
194.905	5402.09
194.981	5426.54
195.056	5409.53
195.131	5427.5
195.207	5421.8
195.282	5391.89
195.357	5342.31
195.433	5380.17
195.508	5347.1
195.583	5365.12
195.659	5405.92
195.734	5429.71
195.809	5431.1
195.884	5452.7
195.96	5454.76
196.035	5499.24
196.11	5493.48
196.185	5522.72
196.261	5530.53
196.336	5613.31
196.411	5570
196.486	5584.14
196.561	5566.59
196.637	5588.2
196.712	5625.05
196.787	5631.96
196.862	5675.52
196.937	5698.96
197.013	5713.93
197.088	5739.43
197.163	5792.02
197.238	5831.97
197.313	5826.98
197.388	5861.94
197.464	5938.38
197.539	5972.43
197.614	5949.94
197.689	5973.31
197.764	6015.35
197.839	6066.39
197.914	6054.34
197.989	6116.38
198.065	6151.54
198.14	6284.24
198.215	6359.01
198.29	6390.47
198.365	6429.02
198.44	6454.31
198.515	6528.24
198.59	6566.89
198.665	6632.47
198.74	6657.45
198.815	6657.93
198.89	6719.71
198.965	6797.3
199.04	6788.99
199.115	6824.81
199.19	6939.57
199.265	6944.9
199.34	6969.69
199.415	7053.85
199.49	7104.8
199.565	7129.11
199.64	7192.28
199.715	7183.34
199.79	7191.07
199.865	7208.23
199.94	7199.78
200.015	7287.25
200.09	7298.84
200.165	7316.18
200.24	7332.57
200.315	7431.19
200.39	7470.6
200.464	7485.98
200.539	7485.26
200.614	7527.5
200.689	7594.04
200.764	7603.86
200.839	7651.65
200.914	7662.66
200.989	7636.74
201.063	7676.64
201.138	7628.71
201.213	7629.67
201.288	7578.91
201.363	7596.17
201.438	7590.74
201.512	7631.19
201.587	7573.88
201.662	7591.38
201.737	7620.9
201.812	7647.3
201.886	7565.75
201.961	7591.87
202.036	7555.88
202.111	7547.94
202.186	7468.84
202.26	7417.09
202.335	7366.66
202.41	7354.17
202.485	7310.12
202.559	7261.68
202.634	7188.2
202.709	7213.5
202.784	7159.39
202.858	7156.03
202.933	7105.39
203.008	7095.01
203.082	7045.67
203.157	7052.3
203.232	6936.29
203.306	6877.7
203.381	6791.45
203.456	6728
203.53	6665.64
203.605	6620.57
203.68	6563.06
203.754	6551.36
203.829	6506.07
203.904	6452.54
203.978	6420.51
204.053	6433.23
204.127	6397.38
204.202	6390.8
204.277	6347.61
204.351	6334.21
204.426	6313.32
204.5	6293.79
204.575	6198.93
204.65	6223.76
204.724	6197.24
204.799	6217.57
204.873	6206.05
204.948	6208.5
205.022	6177.99
205.097	6156.43
205.171	6191.12
205.246	6207.06
205.32	6201.21
205.395	6203.85
205.469	6180.74
205.544	6197.79
205.618	6151.23
205.693	6183.58
205.767	6149.9
205.842	6205.83
205.916	6190.18
205.991	6167.87
206.065	6177.32
206.14	6214.9
206.214	6197.42
206.289	6178.36
206.363	6209.6
206.438	6220.93
206.512	6234.71
206.586	6288.16
206.661	6307.95
206.735	6249.97
206.81	6258.76
206.884	6294.45
206.958	6260.44
207.033	6306.77
207.107	6317.2
207.181	6403.88
207.256	6391.25
207.33	6447.4
207.405	6478.11
207.479	6525.06
207.553	6547.9
207.628	6508.86
207.702	6545
207.776	6531.65
207.851	6541.64
207.925	6581.27
207.999	6567.68
208.073	6560.14
208.148	6565.28
208.222	6534.69
208.296	6617.75
208.371	6657.26
208.445	6691.31
208.519	6769.6
208.593	6799.14
208.668	6791.74
208.742	6796.26
208.816	6802.07
208.89	6833.45
208.965	6827.34
209.039	6852.52
209.113	6893.25
209.187	6946.85
209.261	6931.92
209.336	6982.78
209.41	7034.96
209.484	7039.82
209.558	7103.43
209.632	7145.08
209.707	7174.39
209.781	7233.1
209.855	7270.92
209.929	7314.41
210.003	7324.79
210.077	7323.98
210.151	7447.09
210.226	7539.76
210.3	7605.14
210.374	7666.84
210.448	7680.93
210.522	7709.69
210.596	7734.06
210.67	7760.41
210.744	7888.96
210.818	7971.57
210.892	8028.85
210.966	8015.1
211.041	8052.09
211.115	8042.33
211.189	8104.99
211.263	8147.07
211.337	8164.82
211.411	8205.61
211.485	8186.8
211.559	8221.46
211.633	8226.37
211.707	8144.64
211.781	8166.89
211.855	8076.64
211.929	8053.62
212.003	8006.95
212.077	8035.1
212.151	8061.7
212.225	8083.01
212.299	8048.11
212.373	8020.99
212.447	8007.33
212.52	8079.28
212.594	8088.67
212.668	8115.93
212.742	8071.05
212.816	8056.96
212.89	8039.5
212.964	8030.12
213.038	8038.78
213.112	8073.86
213.186	8110.31
213.26	8055.04
213.333	7928.12
213.407	7936.29
213.481	7947.63
213.555	7976.32
213.629	7941.48
213.703	7899.2
213.777	7890.83
213.85	7834.51
213.924	7920.2
213.998	7915.53
214.072	7891.28
214.146	7848.47
214.219	7832.84
214.293	7822.36
214.367	7825.97
214.441	7851.75
214.515	7815.67
214.588	7748.73
214.662	7645.89
214.736	7588.39
214.81	7601.46
214.883	7617.4
214.957	7585.93
215.031	7539.19
215.105	7468.93
215.178	7420.09
215.252	7389.38
215.326	7318.25
215.4	7261.62
215.473	7122.65
215.547	7058.86
215.621	7007.64
215.694	7005.53
215.768	6935.28
215.842	6883.26
215.915	6826.64
215.989	6732.74
216.063	6692.56
216.136	6677.48
216.21	6661.16
216.284	6666.54
216.357	6647.57
216.431	6618.9
216.504	6619.28
216.578	6661.99
216.652	6673.84
216.725	6655.4
216.799	6666.64
216.873	6645.37
216.946	6649.21
217.02	6618.84
217.093	6594.93
217.167	6524.98
217.24	6462.01
217.314	6432.22
217.387	6399.36
217.461	6365.84
217.535	6385.72
217.608	6341.22
217.682	6322.4
217.755	6330.22
217.829	6290.8
217.902	6274.19
217.976	6257.35
218.049	6217.32
218.123	6155.55
218.196	6150.42
218.27	6120.23
218.343	6063.09
218.417	6063.23
218.49	6045.67
218.563	6083.34
218.637	6089.92
218.71	6148.48
218.784	6169.41
218.857	6197.86
218.931	6216.03
219.004	6218.53
219.077	6233.66
219.151	6241.72
219.224	6229.24
219.298	6229.34
219.371	6256.85
219.444	6230.75
219.518	6237.95
219.591	6252.58
219.665	6331.07
219.738	6344.56
219.811	6335.69
219.885	6368.76
219.958	6396.75
220.031	6397.52
220.105	6404.62
220.178	6409.62
220.251	6384.69
220.325	6402.61
220.398	6412.98
220.471	6425.98
220.544	6455.51
220.618	6436.15
220.691	6459.82
220.764	6479.26
220.838	6498.08
220.911	6491.36
220.984	6556.59
221.057	6586.64
221.131	6606.18
221.204	6536.13
221.277	6587.14
221.35	6685.03
221.424	6680.85
221.497	6687.24
221.57	6707.63
221.643	6738.04
221.716	6768.07
221.79	6777.81
221.863	6783.67
221.936	6791.31
222.009	6804.13
222.082	6824.16
222.155	6834.29
222.229	6889.36
222.302	6910.49
222.375	6918.23
222.448	6947.97
222.521	6950.46
222.594	6950.13
222.667	6931.93
222.74	6972.76
222.814	6969.44
222.887	6951.89
222.96	6992.35
223.033	7025.99
223.106	7046.06
223.179	7065.91
223.252	7075.09
223.325	7097.86
223.398	7109.83
223.471	7134.28
223.544	7152.44
223.617	7163.3
223.69	7187.22
223.763	7150.21
223.837	7169.15
223.91	7190.44
223.983	7150.62
224.056	7128.81
224.129	7143.89
224.202	7182.84
224.275	7178.18
224.348	7153.29
224.42	7128.2
224.493	7085.25
224.566	7065.49
224.639	7081.25
224.712	7061.45
224.785	7056.11
224.858	7046.36
224.931	7038.09
225.004	7004.66
225.077	7001.82
225.15	6935.16
225.223	6930.79
225.296	6998.92
225.369	6953.24
225.442	6930.99
225.514	6944.77
225.587	6955.43
225.66	6963.79
225.733	6967.06
225.806	6971.82
225.879	6965.33
225.952	6937.77
226.025	6975.38
226.097	7016.83
226.17	7007.41
226.243	6958.18
226.316	6951.93
226.389	6949.92
226.461	6963.04
226.534	6976.58
226.607	6968.03
226.68	7027.39
226.753	7017.63
226.825	6952.67
226.898	6998.11
226.971	6997.06
227.044	7017.76
227.117	7026.46
227.189	7040.35
227.262	7070.25
227.335	7088.51
227.407	7087.31
227.48	7111.75
227.553	7119.78
227.626	7108.29
227.698	7120.2
227.771	7150.36
227.844	7136.85
227.916	7161.22
227.989	7133.11
228.062	7137.14
228.134	7205.4
228.207	7212.22
228.28	7211.98
228.352	7224.04
228.425	7235.77
228.498	7271.48
228.57	7259.42
228.643	7303.22
228.716	7303.94
228.788	7289.52
228.861	7280.82
228.934	7327.28
229.006	7340.4
229.079	7340.69
229.151	7327.37
229.224	7301.14
229.296	7326.37
229.369	7410.23
229.442	7450.05
229.514	7436.94
229.587	7474.61
229.659	7418.42
229.732	7422.07
229.804	7457.11
229.877	7512.07
229.949	7527.27
230.022	7569.07
230.094	7569.75
230.167	7562.24
230.239	7529.56
230.312	7521.97
230.384	7573.43
230.457	7578.91
230.529	7587.9
230.602	7590.54
230.674	7601.55
230.747	7633.55
230.819	7653.74
230.892	7563.11
230.964	7556.81
231.037	7580.15
231.109	7572.03
231.181	7606.58
231.254	7582.55
231.326	7570.2
231.399	7552.59
231.471	7530.81
231.544	7469.34
231.616	7505.82
231.688	7510.19
231.761	7505.97
231.833	7494.2
231.905	7428.03
231.978	7424.14
232.05	7406.4
232.122	7413.09
232.195	7390.59
232.267	7414.43
232.339	7395.35
232.412	7440.18
232.484	7418.25
232.556	7392.75
232.629	7447.87
232.701	7456.77
232.773	7465.9
232.846	7457.15
232.918	7464.51
232.99	7481.63
233.062	7514.08
233.135	7517.64
233.207	7491.39
233.279	7521.47
233.351	7554.39
233.424	7562.8
233.496	7539.82
233.568	7607.57
233.64	7578.1
233.713	7596.18
233.785	7596.03
233.857	7606.42
233.929	7569.03
234.001	7617.71
234.074	7674.36
234.146	7617.75
234.218	7615.1
234.29	7613.42
234.362	7602.76
234.434	7565.44
234.507	7538.18
234.579	7494.34
234.651	7478.09
234.723	7505.44
234.795	7518.76
234.867	7510.88
234.939	7552.9
235.012	7571.26
235.084	7572.61
235.156	7602.84
235.228	7586.74
235.3	7574.53
235.372	7580.15
235.444	7629.57
235.516	7573.53
235.588	7577.42
235.66	7581.36
235.732	7563.09
235.804	7720.19
235.876	7753.02
235.948	7806.55
236.02	7816.69
236.092	7832.79
236.164	7840.82
236.236	7835.1
236.308	7835.34
236.38	7859.81
236.452	7845.05
236.524	7857.74
236.596	7910.45
236.668	7934.93
236.74	7955.13
236.812	7971.43
236.884	8002.79
236.956	8015.83
237.028	8011.07
237.1	7997.56
237.172	8060.14
237.244	8124.84
237.316	8033.01
237.388	8024.93
237.46	8005.25
237.532	8056.43
237.604	8051.05
237.675	8111.37
237.747	8150.68
237.819	8141.73
237.891	8148.28
237.963	8142.46
238.035	8145.44
238.107	8063.14
238.178	8110.75
238.25	8115.6
238.322	8196.89
238.394	8163.27
238.466	8160.29
238.538	8196.59
238.609	8231.85
238.681	8196.04
238.753	8174.34
238.825	8188.59
238.897	8215.37
238.968	8277.56
239.04	8265.29
239.112	8349.23
239.184	8321.8
239.255	8315.31
239.327	8346.9
239.399	8356.24
239.471	8391.98
239.542	8417.81
239.614	8464.76
239.686	8401.72
239.758	8441.9
239.829	8408.14
239.901	8461.74
239.973	8479.3
240.044	8503.55
240.116	8506.34
240.188	8506.49
240.259	8517.46
240.331	8506.39
240.403	8532.32
240.474	8493.18
240.546	8480.2
240.618	8432.75
240.689	8432.7
240.761	8457.05
240.833	8504.12
240.904	8508.89
240.976	8514.61
241.048	8529.48
241.119	8561.31
241.191	8596.91
241.262	8651.27
241.334	8654.5
241.405	8650.89
241.477	8646.36
241.549	8652.52
241.62	8677.16
241.692	8719.95
241.763	8764.72
241.835	8785.85
241.906	8794.7
241.978	8774.88
242.049	8830.56
242.121	8883.64
242.192	8937.6
242.264	8906.46
242.335	8867.81
242.407	8908.39
242.478	8908.05
242.55	8919.75
242.621	8909.44
242.693	8910.74
242.764	8892.44
242.836	8896.97
242.907	8922.87
242.979	8949.48
243.05	8967.25
243.122	8982.65
243.193	8977.4
243.264	8924.65
243.336	8929.12
243.407	8957.86
243.479	9020.01
243.55	9029.64
243.622	9043.89
243.693	9036.81
243.764	9090.15
243.836	9074.13
243.907	9061.46
243.978	9071.81
244.05	9090.59
244.121	9053.19
244.192	9082.94
244.264	9051.93
244.335	9064.64
244.407	9027.39
244.478	9040.87
244.549	9036.73
244.62	9011.89
244.692	9015.26
244.763	9050.01
244.834	9038.98
244.906	9024.1
244.977	9043.42
245.048	9086
245.119	9069
245.191	9052.82
245.262	9002.18
245.333	9062.34
245.405	9077.8
245.476	9106.92
245.547	9121.23
245.618	9164.02
245.689	9171.53
245.761	9198.2
245.832	9192.42
245.903	9227.23
245.974	9249.91
246.045	9262.76
246.117	9325.46
246.188	9309.33
246.259	9299.94
246.33	9317.13
246.401	9323.68
246.473	9294.54
246.544	9289.29
246.615	9332.25
246.686	9344.81
246.757	9411.49
246.828	9397.48
246.899	9450.9
246.97	9420.57
247.042	9419.41
247.113	9454.04
247.184	9526.69
247.255	9529.68
247.326	9562.71
247.397	9577.11
247.468	9583.9
247.539	9593.82
247.61	9556.36
247.681	9594.1
247.752	9632.52
247.823	9608.26
247.894	9629.83
247.965	9604.51
248.037	9587.79
248.108	9546.19
248.179	9550.23
248.25	9538.29
248.321	9557.45
248.392	9520.4
248.463	9584.5
248.534	9581.85
248.605	9595.58
248.675	9575
248.746	9581.26
248.817	9586.32
248.888	9598.07
248.959	9556.9
249.03	9571.25
249.101	9580.98
249.172	9571.54
249.243	9520.26
249.314	9577.42
249.385	9576.46
249.456	9605.78
249.527	9603.51
249.598	9623.01
249.669	9620.32
249.739	9630.67
249.81	9644.25
249.881	9607.61
249.952	9596.92
250.023	9591.23
250.094	9554.82
250.165	9533.91
250.235	9533.09
250.306	9542.53
250.377	9518.02
250.448	9543.92
250.519	9501.45
250.59	9542.44
250.66	9539.75
250.731	9590.49
250.802	9594.01
250.873	9608.26
250.944	9627.29
251.014	9619.58
251.085	9689.53
251.156	9712.12
251.227	9752.54
251.297	9790.74
251.368	9839.18
251.439	9874.35
251.51	9917.27
251.58	9898.78
251.651	9893
251.722	9941.65
251.792	9901.34
251.863	9901.82
251.934	9940.74
252.005	10025.65
252.075	10036.69
252.146	10078.39
252.217	10120.69
252.287	10147.14
252.358	10155.81
252.429	10210.25
252.499	10209.19
252.57	10217.86
252.641	10250.67
252.711	10253.56
252.782	10220.18
252.852	10273.37
252.923	10271.01
252.994	10284.64
253.064	10323.8
253.135	10305.01
253.205	10286.17
253.276	10343.64
253.347	10399.61
253.417	10382.41
253.488	10373.4
253.558	10367.96
253.629	10372.24
253.699	10381.69
253.77	10406.5
253.841	10396.39
253.911	10405.26
253.982	10419.95
254.052	10447.9
254.123	10461.78
254.193	10464.47
254.264	10572.7
254.334	10551.64
254.405	10530.93
254.475	10494.79
254.546	10505.59
254.616	10557.37
254.687	10576.84
254.757	10592.88
254.827	10595.44
254.898	10615.53
254.968	10618.56
255.039	10602.52
255.109	10627.19
255.18	10607.19
255.25	10549.57
255.321	10579.1
255.391	10547.87
255.461	10619.57
255.532	10553.16
255.602	10545.02
255.673	10502.77
255.743	10468.45
255.813	10405.78
255.884	10445.34
255.954	10483.21
256.024	10535.3
256.095	10544.21
256.165	10525.42
256.235	10543.78
256.306	10519.36
256.376	10553.66
256.446	10579.01
256.517	10602.09
256.587	10636.01
256.657	10648.4
256.728	10669.16
256.798	10677.25
256.868	10675.86
256.938	10650.94
257.009	10688.29
257.079	10710.98
257.149	10787.35
257.219	10753.86
257.29	10786.8
257.36	10739.83
257.43	10769.37
257.5	10716.84
257.571	10707.98
257.641	10735.3
257.711	10710.43
257.781	10738.9
257.852	10756.83
257.922	10707.11
257.992	10708.31
258.062	10706.19
258.132	10741.85
258.202	10744.6
258.273	10752.31
258.343	10809.89
258.413	10795.82
258.483	10796.5
258.553	10779.49
258.623	10767.34
258.693	10781.08
258.764	10839.48
258.834	10896.62
258.904	10907.85
258.974	10899.76
259.044	10911.42
259.114	10938.89
259.184	10967.9
259.254	10987.03
259.324	10947.65
259.394	10989.91
259.464	11056.32
259.535	11055.16
259.605	11052.66
259.675	11049.28
259.745	11082.06
259.815	11061.72
259.885	11063.36
259.955	11149.93
260.025	11147.42
260.095	11153.64
260.165	11185.25
260.235	11228.53
260.305	11219.96
260.375	11198.46
260.445	11264.86
260.515	11309.2
260.585	11341.25
260.655	11346.26
260.725	11370.12
260.795	11389.68
260.865	11442.99
260.934	11417.78
261.004	11445.3
261.074	11449.93
261.144	11494.17
261.214	11515.66
261.284	11518.55
261.354	11550.12
261.424	11515.51
261.494	11561.91
261.564	11562.11
261.634	11580.18
261.703	11533.72
261.773	11548.22
261.843	11574.01
261.913	11575.94
261.983	11534.68
262.053	11548.18
262.123	11539.55
262.192	11511.07
262.262	11553.92
262.332	11520.71
262.402	11543.21
262.472	11551.55
262.541	11500.04
262.611	11541.2
262.681	11527.56
262.751	11560.38
262.821	11565.73
262.89	11539.95
262.96	11560.33
263.03	11625.69
263.1	11645.12
263.169	11661.27
263.239	11691.15
263.309	11746.63
263.379	11770.34
263.448	11791.74
263.518	11814.49
263.588	11830.35
263.657	11894.65
263.727	11919.42
263.797	11933.01
263.867	11937.74
263.936	11904.77
264.006	11955.7
264.076	11946.4
264.145	11941.58
264.215	11926.21
264.285	11957.87
264.354	11925.97
264.424	11917.77
264.494	11879.5
264.563	11868.32
264.633	11927.07
264.702	11945.58
264.772	11899.02
264.842	11899.55
264.911	11924.76
264.981	11890.97
265.05	11899.31
265.12	11887.93
265.19	11896.08
265.259	11927.36
265.329	11949.34
265.398	11970.5
265.468	12057.02
265.537	12053.5
265.607	12080.01
265.676	12119.97
265.746	12141.47
265.815	12192.32
265.885	12200.85
265.955	12196.42
266.024	12201.14
266.094	12151.35
266.163	12193.19
266.232	12247.61
266.302	12252.29
266.371	12274.65
266.441	12286.27
266.51	12327.05
266.58	12334.33
266.649	12329.56
266.719	12363.78
266.788	12391.98
266.858	12448.96
266.927	12391.88
266.996	12416.47
267.066	12448.81
267.135	12429.34
267.205	12461.44
267.274	12478.31
267.343	12525.12
267.413	12532.11
267.482	12579.83
267.552	12640.71
267.621	12608.17
267.69	12572.12
267.76	12588.12
267.829	12605.67
267.898	12628.32
267.968	12616.9
268.037	12647.17
268.106	12685.35
268.176	12671.27
268.245	12677.2
268.314	12676.91
268.384	12722.18
268.453	12737.07
268.522	12750.38
268.592	12799.21
268.661	12783.2
268.73	12805.72
268.799	12791.5
268.869	12862.94
268.938	12824.47
269.007	12809.91
269.076	12830.01
269.146	12878.46
269.215	12913.5
269.284	12968.65
269.353	12968.84
269.422	12977.91
269.492	12970.68
269.561	12903.19
269.63	12928.88
269.699	12934.33
269.768	12953.27
269.838	12965.62
269.907	12999.17
269.976	12980.95
270.045	12935.44
270.114	12965.76
270.183	12979.07
270.253	13004.28
270.322	12964.85
270.391	12988.03
270.46	13046.55
270.529	13083.77
270.598	13120.26
270.667	13116.84
270.736	13091.92
270.806	13123.64
270.875	13165.14
270.944	13181.34
271.013	13289.08
271.082	13311.59
271.151	13338.73
271.22	13297.32
271.289	13312.36
271.358	13315.3
271.427	13349.63
271.496	13380.48
271.565	13378.31
271.634	13391.81
271.703	13494.05
271.772	13544.81
271.841	13563.51
271.91	13533.24
271.979	13546.84
272.048	13520.9
272.117	13563.18
272.186	13567.8
272.255	13603.48
272.324	13646.28
272.393	13672.65
272.462	13667.21
272.531	13682.97
272.6	13686.83
272.669	13753.3
272.738	13758.89
272.807	13791.96
272.876	13781.46
272.945	13887.65
273.013	13939.47
273.082	13988.84
273.151	13916.43
273.22	13943.82
273.289	13961.99
273.358	14029.48
273.427	14036.37
273.496	14073.54
273.564	14098.17
273.633	14146.09
273.702	14133.07
273.771	14133.12
273.84	14153.7
273.909	14188.56
273.977	14220.71
274.046	14232.23
274.115	14278.51
274.184	14278.41
274.253	14291.67
274.322	14347.15
274.39	14302.61
274.459	14295.91
274.528	14257.2
274.597	14276.77
274.665	14304.93
274.734	14351.2
274.803	14360.27
274.872	14384.71
274.94	14388.61
275.009	14565.74
275.078	14557.64
275.147	14586.37
275.215	14621.08
275.284	14677.33
275.353	14683.11
275.421	14654
275.49	14726.21
275.559	14729.29
275.627	14759.66
275.696	14773.3
275.765	14813.12
275.833	14830.86
275.902	14870.92
275.971	14936.14
276.039	15006.37
276.108	15050.72
276.177	15085.33
276.245	15087.3
276.314	15109.48
276.383	15150.93
276.451	15021.34
276.52	15067.13
276.588	15131.72
276.657	15169.13
276.725	15172.31
276.794	15203.59
276.863	15275.27
276.931	15247.99
277	15300.86
277.068	15353.41
277.137	15438.05
277.205	15461.91
277.274	15538.02
277.342	15600.58
277.411	15586.07
277.48	15591.47
277.548	15591.66
277.617	15627.67
277.685	15655.19
277.754	15702.67
277.822	15724.02
277.89	15794.15
277.959	15808.95
278.027	15795.6
278.096	15796.95
278.164	15900.23
278.233	15914.16
278.301	15918.16
278.37	15968.24
278.438	15973.16
278.507	16013.74
278.575	15985.98
278.643	16003
278.712	15986.46
278.78	15978.32
278.849	16049.41
278.917	16112.65
278.985	16132.94
279.054	16164.85
279.122	16227.5
279.191	16257.58
279.259	16283.22
279.327	16266.06
279.396	16346.21
279.464	16376.53
279.532	16432.54
279.601	16465.69
279.669	16490.51
279.737	16562.18
279.806	16604.07
279.874	16661.85
279.942	16690.82
280.011	16708.8
280.079	16767.98
280.147	16848.08
280.215	16894.35
280.284	16915.65
280.352	16908.57
280.42	16970.88
280.488	16988.14
280.557	17004.52
280.625	17048.67
280.693	17086.02
280.761	17132.29
280.83	17116.14
280.898	17190.07
280.966	17169.45
281.034	17113.49
281.102	17111.33
281.171	17125.59
281.239	17184.24
281.307	17198.65
281.375	17201.88
281.443	17308.72
281.512	17328.14
281.58	17381.88
281.648	17376.58
281.716	17412.96
281.784	17445.11
281.852	17465.44
281.92	17494.99
281.989	17552.67
282.057	17534.89
282.125	17640.96
282.193	17667.56
282.261	17710.55
282.329	17722.4
282.397	17780.33
282.465	17824.38
282.533	17903.47
282.601	17910.16
282.67	17888.96
282.738	17898.26
282.806	17971.51
282.874	17964.48
282.942	18009.25
283.01	18032.23
283.078	18087.03
283.146	18102.54
283.214	18165.96
283.282	18202.78
283.35	18269.91
283.418	18292.17
283.486	18353.47
283.554	18317.72
283.622	18347.16
283.69	18375.88
283.758	18401.52
283.826	18451.93
283.894	18511.83
283.962	18597.85
284.03	18676.49
284.098	18717.16
284.165	18747.19
284.233	18780.29
284.301	18803.04
284.369	18817.74
284.437	18827.09
284.505	18853.3
284.573	18939.47
284.641	18941.73
284.709	18998.35
284.777	19001.15
284.845	19055.65
284.912	19106.06
284.98	19164.99
285.048	19187.88
285.116	19237.57
285.184	19312.07
285.252	19339.25
285.319	19334.91
285.387	19343.63
285.455	19340.69
285.523	19394.33
285.591	19422.42
285.659	19456.83
285.726	19524.68
285.794	19533.74
285.862	19567.81
285.93	19600.92
285.997	19618.75
286.065	19642.99
286.133	19644.44
286.201	19665.16
286.269	19663.81
286.336	19667.86
286.404	19679.81
286.472	19743.9
286.539	19726.36
286.607	19717.01
286.675	19756.14
286.743	19817.97
286.81	19841.1
286.878	19905.01
286.946	19918.31
287.013	19959.22
287.081	19987.41
287.149	19981.29
287.216	20059.46
287.284	20069.34
287.352	20098.01
287.419	20119.99
287.487	20208.95
287.555	20267.07
287.622	20299.55
287.69	20344.81
287.758	20414.3
287.825	20446.25
287.893	20450.54
287.96	20503.99
288.028	20567.46
288.096	20607.17
288.163	20658.74
288.231	20664.67
288.298	20693.44
288.366	20768.14
288.433	20799.8
288.501	20820.82
288.569	20875.61
288.636	20901.5
288.704	20977.64
288.771	21040.64
288.839	21060.01
288.906	21062.85
288.974	21112.6
289.041	21144.41
289.109	21163.25
289.176	21207.31
289.244	21251.69
289.311	21311.65
289.379	21377.63
289.446	21415.28
289.514	21454.32
289.581	21479.96
289.649	21524.59
289.716	21570.77
289.783	21586.44
289.851	21668.09
289.918	21717.64
289.986	21772.11
290.053	21818.82
290.121	21850.58
290.188	21893.92
290.255	22007.3
290.323	22031.98
290.39	22060.9
290.458	22119.56
290.525	22189.75
290.592	22217.52
290.66	22258.11
290.727	22295.32
290.794	22369.08
290.862	22408.81
290.929	22453.4
290.996	22489.99
291.064	22558.79
291.131	22620.12
291.198	22690.02
291.266	22725.07
291.333	22754.24
291.4	22802.94
291.468	22885.64
291.535	22920.16
291.602	22968.08
291.669	22984.72
291.737	23050.43
291.804	23077.72
291.871	23149.86
291.938	23204.06
292.006	23309.87
292.073	23372.31
292.14	23431.82
292.207	23444.21
292.275	23474.54
292.342	23537.62
292.409	23630.7
292.476	23728.95
292.543	23742.75
292.611	23774.29
292.678	23848.85
292.745	23953.26
292.812	24006.41
292.879	24017.36
292.946	24046.83
293.014	24108.08
293.081	24152.8
293.148	24206.96
293.215	24288.48
293.282	24299.91
293.349	24349.45
293.416	24326.92
293.484	24390.65
293.551	24450.81
293.618	24532.04
293.685	24633.98
293.752	24638.56
293.819	24677.12
293.886	24670.89
293.953	24725.55
294.02	24791.02
294.087	24841.88
294.154	24850.66
294.221	24925.17
294.288	24970.43
294.356	25065.23
294.423	25116.19
294.49	25139.16
294.557	25212.22
294.624	25222.16
294.691	25319.44
294.758	25364.51
294.825	25434.43
294.892	25450.4
294.959	25479.12
295.026	25527.48
295.093	25558.96
295.16	25614.49
295.226	25654.36
295.293	25756.32
295.36	25811.2
295.427	25874.58
295.494	25947.15
295.561	26015.88
295.628	26114.52
295.695	26188.14
295.762	26239.27
295.829	26309.18
295.896	26397.43
295.963	26463.25
296.03	26542.13
296.096	26592.78
296.163	26671.21
296.23	26760.79
296.297	26847.65
296.364	26893.95
296.431	26950.74
296.498	26984.01
296.564	27096.24
296.631	27144.58
296.698	27159.65
296.765	27254.85
296.832	27280.84
296.899	27287.84
296.965	27366.43
297.032	27343.91
297.099	27431.61
297.166	27488.32
297.233	27521.42
297.299	27545.28
297.366	27587.85
297.433	27629.54
297.5	27707.72
297.566	27741.01
297.633	27779.58
297.7	27826.16
297.767	27863.06
297.833	27922.74
297.9	27968.59
297.967	27953.66
298.033	28025.57
298.1	28133.42
298.167	28138.15
298.234	28185.31
298.3	28253.02
298.367	28282.93
298.434	28355.3
298.5	28363.52
298.567	28390.29
298.634	28422.19
298.7	28501.6
298.767	28536.4
298.834	28609.93
298.9	28626.22
298.967	28647.92
299.033	28701.02
299.1	28784.52
299.167	28858.76
299.233	28892.27
299.3	28958.65
299.366	29047.88
299.433	29119.27
299.5	29085.22
299.566	29144.16
299.633	29219.69
299.699	29285.46
299.766	29321.48
299.832	29371.41
299.899	29436.07
299.965	29502.76
300.032	29536.07
300.099	29588.89
300.165	29651.53
300.232	29671.65
300.298	29710.15
300.365	29786.42
300.431	29822.08
300.498	29833.64
300.564	29889.27
300.631	29946.5
300.697	30026.53
300.763	30059.86
300.83	30088.8
300.896	30168.57
300.963	30237.9
301.029	30291.14
301.096	30336.48
301.162	30398.75
301.229	30429.29
301.295	30441.87
301.361	30498.3
301.428	30548.22
301.494	30548.37
301.561	30590.18
301.627	30650.72
301.693	30694.71
301.76	30744.42
301.826	30781.4
301.892	30848.19
301.959	30914.56
302.025	30949.9
302.092	30962.24
302.158	31031.75
302.224	31070.38
302.291	31083.02
302.357	31106.4
302.423	31129.06
302.49	31135.06
302.556	31199.84
302.622	31223.76
302.688	31299.38
302.755	31371.74
302.821	31433.41
302.887	31509.55
302.954	31547.37
303.02	31600.01
303.086	31657.39
303.152	31693.56
303.219	31716.61
303.285	31761.9
303.351	31812.57
303.417	31858.67
303.483	31892.76
303.55	31900.56
303.616	31944.88
303.682	31992.67
303.748	32024.25
303.815	32098.07
303.881	32172.13
303.947	32186.85
304.013	32241.39
304.079	32251.61
304.145	32228.6
304.212	32271.66
304.278	32284.84
304.344	32311.48
304.41	32321.84
304.476	32333.81
304.542	32344.03
304.608	32397.41
304.674	32400.9
304.741	32428.81
304.807	32467.33
304.873	32508.47
304.939	32584.19
305.005	32573.09
305.071	32600.95
305.137	32626.77
305.203	32604.72
305.269	32629.29
305.335	32685.16
305.401	32716.13
305.467	32747.38
305.533	32809.16
305.599	32852.05
305.666	32915.62
305.732	32951.82
305.798	33005.61
305.864	33095.85
305.93	33156.91
305.996	33183.71
306.062	33221.36
306.128	33238.28
306.194	33239.44
306.259	33273.9
306.325	33295.28
306.391	33357.8
306.457	33404.61
306.523	33457.34
306.589	33547.36
306.655	33565.39
306.721	33557.24
306.787	33557.44
306.853	33629.57
306.919	33626.23
306.985	33637.62
307.051	33646.97
307.117	33658.03
307.183	33677.61
307.248	33643.04
307.314	33685.42
307.38	33724.79
307.446	33769.87
307.512	33777.19
307.578	33827.85
307.644	33853.26
307.709	33895.3
307.775	33917.94
307.841	33934.62
307.907	33959.83
307.973	33946.05
308.039	33977.57
308.104	34030.42
308.17	34069.68
308.236	34056.54
308.302	34096.39
308.368	34099.74
308.433	34133.92
308.499	34164.07
308.565	34174.84
308.631	34220.8
308.696	34193.11
308.762	34192.05
308.828	34218.24
308.894	34205.1
308.959	34177.03
309.025	34182.75
309.091	34183.86
309.156	34196.28
309.222	34240.75
309.288	34237.11
309.354	34215.19
309.419	34241.87
309.485	34220.48
309.551	34256.42
309.616	34269.17
309.682	34292.01
309.748	34309.08
309.813	34326.83
309.879	34334.39
309.945	34321.88
310.01	34340.8
310.076	34370.28
310.141	34401.42
310.207	34392.2
310.273	34423.66
310.338	34477.87
310.404	34466.43
310.469	34467.79
310.535	34461.49
310.601	34441.99
310.666	34491.85
310.732	34545.58
310.797	34546.3
310.863	34561.14
310.928	34565.36
310.994	34588.11
311.059	34610.81
311.125	34622.83
311.191	34681.39
311.256	34676.83
311.322	34731.15
311.387	34710.15
311.453	35386
311.518	35364.81
311.584	35379.31
311.649	35435.47
311.715	35433.29
311.78	35460.74
311.846	35457.93
311.911	35506.77
311.976	35540.72
312.042	35525.97
312.107	35514.38
312.173	35514.87
312.238	35524.81
312.304	35542.37
312.369	35550.03
312.434	35539.9
312.5	35579.67
312.565	35519.37
312.631	35560.2
312.696	35573.88
312.761	35611.52
312.827	34974.52
312.892	35074.22
312.958	35101.49
313.023	35108.37
313.088	35132.05
313.154	35144.85
313.219	35157.27
313.284	35157.51
313.35	35170.66
313.415	35169.35
313.48	35194.71
313.546	35230.91
313.611	35292.81
313.676	35301.73
313.741	35305.23
313.807	35354.52
313.872	35373.34
313.937	35423.55
314.003	35482.41
314.068	35503.76
314.133	35538.16
314.198	35533.31
314.264	35505.69
314.329	35507.15
314.394	35521.41
314.459	35541.11
314.525	35599.86
314.59	35622.71
314.655	35616.02
314.72	35658.52
314.785	35692.58
314.851	35692.68
314.916	35666.91
314.981	35643.43
315.046	35640.81
315.111	35638.29
315.176	35630.86
315.242	35668.62
315.307	35681.77
315.372	35663.18
315.437	35665.41
315.502	35666.92
315.567	35729.32
315.632	35712.68
315.698	35732.91
315.763	35753.39
315.828	35743.3
315.893	35740.58
315.958	35752.86
316.023	35754.65
316.088	35710.79
316.153	35667.86
316.218	35668.58
316.283	35648.4
316.348	35627.4
316.413	35635.41
316.479	35615.42
316.544	35527.24
316.609	35437.39
316.674	35339.26
316.739	35234.64
316.804	35143.06
316.869	35042.13
316.934	34927.15
316.999	34842.28
317.064	34700.81
317.129	34565.39
317.194	34460.12
317.259	34315.84
317.324	34154.88
317.389	34020.24
317.454	33897.09
317.518	33794.37
317.583	33704.33
317.648	33601.85
317.713	33476.2
317.778	33296.16
317.843	33179.39
317.908	33057.53
317.973	32916.12
318.038	32819.65
318.103	32688.12
318.168	32567.04
318.233	32441.13
318.297	32269.06
318.362	32124.95
318.427	31982.11
318.492	31866.29
318.557	31698.47
318.622	31587.47
318.687	31469.88
318.751	31319.88
318.816	31181.75
318.881	31039.72
318.946	30842.73
319.011	30674.15
319.075	30498.97
319.14	30344.86
319.205	30156.25
319.27	30006.87
319.335	29838.29
319.399	29661.22
319.464	29509.41
319.529	29314.04
319.594	29149.11
319.658	29008.7
319.723	28831.16
319.788	28691.41
319.853	28477.43
319.917	28328.83
319.982	28124.3
320.047	27963.13
320.112	27823.73
320.176	27618.96
320.241	27457.28
320.306	27293.41
320.37	27124.35
320.435	26972.35
320.5	26817.8
320.564	26658.83
320.629	26465.37
320.694	26311.78
320.758	26127.69
320.823	25951.3
320.888	25802.87
320.952	25601.99
321.017	25405.99
321.082	25220.55
321.146	25048.55
321.211	24886.53
321.275	24700.65
321.34	24505.99
321.405	24316.26
321.469	24111.77
321.534	23926.14
321.598	23711.79
321.663	23551.13
321.727	23380.93
321.792	23178.63
321.857	22990.8
321.921	22792.38
321.986	22603.11
322.05	22363.7
322.115	22186.81
322.179	21988.39
322.244	21756.43
322.308	21584.82
322.373	21386.91
322.437	21204.42
322.502	21053.4
322.566	20849.04
322.631	20665.79
322.695	20474.32
322.76	20269.63
322.824	20097
322.889	19908.09
322.953	19707.32
323.018	19453.05
323.082	19195.99
323.146	18968.09
323.211	18735.56
323.275	18547.71
323.34	18351.13
323.404	18177.16
323.468	17966.75
323.533	17766.56
323.597	17566.16
323.662	17340.23
323.726	17156.52
323.79	16949.62
323.855	16682.67
323.919	16471.71
323.983	16264.22
324.048	15958.87
324.112	16103.54
324.177	15452.99
324.241	14609.53
324.305	13780.32
324.37	12970.58
324.434	12184.3
324.498	11973.17
324.562	11734.28
324.627	11452.03
324.691	11176.64
324.755	10868.66
324.82	10516.79
324.884	10144.07
324.948	9766.1
325.012	9316.71
325.077	8760.48
