Data from 20250626_urea_1M_exp2_MAYP1162681_23-43-58-749.txt Node
Date: Thu Jun 26 23:43:58 BST 2025
User: adleo
Spectrometer: MAYP116268
Trigger mode: 0
Integration Time (sec): 3.000000E0
Scans to average: 1
Electric dark correction enabled: true
Nonlinearity correction enabled: true
Boxcar width: 10
XAxis mode: Wavelengths
Number of Pixels in Spectrum: 2068
>>>>>Begin Spectral Data<<<<<
179.565	2816.92
179.642	2964.6
179.718	3072.72
179.795	3182.54
179.871	3265.53
179.948	3318.87
180.024	3371.85
180.101	3431.49
180.177	3467.15
180.254	3526.67
180.33	3582.52
180.407	3774.14
180.483	3995.55
180.56	4218.71
180.636	4428.86
180.712	4402.16
180.789	4424.26
180.865	4452.66
180.942	4474.95
181.018	4504.13
181.095	4545.44
181.171	4554.77
181.248	4557.17
181.324	4603.08
181.4	4617.49
181.477	4647.27
181.553	4678.89
181.63	4732.31
181.706	4770.47
181.782	4796.68
181.859	4798.6
181.935	4813.53
182.011	4812.39
182.088	4854.09
182.164	4905.84
182.24	4936.05
182.317	4958.16
182.393	4950.26
182.469	4985.12
182.546	5013.27
182.622	5026.15
182.698	5014.94
182.775	5048.52
182.851	5084.63
182.927	5059.96
183.003	5046.17
183.08	5029.7
183.156	5051.3
183.232	5043.11
183.308	5015.53
183.385	5037.65
183.461	5077.02
183.537	5078.32
183.613	5102.94
183.69	5079.94
183.766	5049.03
183.842	5068.48
183.918	5083.38
183.995	5116.18
184.071	5124.9
184.147	5118.19
184.223	5090.81
184.299	5121.81
184.375	5094.18
184.452	5109.23
184.528	5215.48
184.604	5245.46
184.68	5277.4
184.756	5293.55
184.832	5305.77
184.908	5321.53
184.985	5318.6
185.061	5277.17
185.137	5300.99
185.213	5274.3
185.289	5276.56
185.365	5255.68
185.441	5249.4
185.517	5283.68
185.593	5279.6
185.669	5273.76
185.745	5295.27
185.822	5337.27
185.898	5315.32
185.974	5336.29
186.05	5316.35
186.126	5251.84
186.202	5234.02
186.278	5223.43
186.354	5204.64
186.43	5221.18
186.506	5218.21
186.582	5213.85
186.658	5232.96
186.734	5184.73
186.81	5192.01
186.886	5201.25
186.962	5234.11
187.038	5223.62
187.114	5205.82
187.19	5221.97
187.266	5194.68
187.341	5199.61
187.417	5178.92
187.493	5181.51
187.569	5191.71
187.645	5176.62
187.721	5147.15
187.797	5164.15
187.873	5172.54
187.949	5151.08
188.025	5134.21
188.101	5137.08
188.176	5147.38
188.252	5137.8
188.328	5156.71
188.404	5154.27
188.48	5142.53
188.556	5118.29
188.632	5116.76
188.707	5116.9
188.783	5112.69
188.859	5107.32
188.935	5075.94
189.011	5099.65
189.086	5081.93
189.162	5058.55
189.238	5052.95
189.314	5046.2
189.39	5035.8
189.465	5020.71
189.541	5061.96
189.617	5027.85
189.693	5017.08
189.768	5028.44
189.844	5088.64
189.92	5066
189.996	5086.27
190.071	5111.47
190.147	5119.46
190.223	5142.51
190.298	5123.58
190.374	5089.48
190.45	5119.26
190.526	5138.47
190.601	5121.61
190.677	5124.34
190.753	5201.98
190.828	5213.71
190.904	5250.8
190.98	5287.66
191.055	5313.87
191.131	5295.75
191.207	5347.21
191.282	5369.53
191.358	5347.54
191.433	5315.5
191.509	5352.61
191.585	5345.99
191.66	5350.5
191.736	5371.58
191.811	5348.2
191.887	5387.89
191.963	5447.17
192.038	5459.78
192.114	5465.15
192.189	5471.85
192.265	5470.18
192.34	5408.97
192.416	5406.19
192.491	5395.07
192.567	5403.41
192.642	5409.79
192.718	5409.7
192.793	5378.68
192.869	5366.23
192.944	5368.29
193.02	5383.34
193.095	5389.38
193.171	5410.04
193.246	5409.32
193.322	5400.16
193.397	5405.05
193.473	5368.61
193.548	5326.43
193.624	5338.6
193.699	5329.88
193.775	5374.71
193.85	5376.91
193.925	5396.86
194.001	5387.37
194.076	5371.51
194.152	5339.53
194.227	5323.66
194.302	5302.07
194.378	5312.61
194.453	5308.54
194.529	5341.46
194.604	5308.34
194.679	5298.71
194.755	5246.26
194.83	5273.21
194.905	5266.03
194.981	5287.16
195.056	5268.58
195.131	5285.35
195.207	5276.29
195.282	5254.06
195.357	5204.49
195.433	5242.34
195.508	5210.14
195.583	5239.79
195.659	5273.01
195.734	5291.56
195.809	5293
195.884	5313.35
195.96	5314.26
196.035	5355.86
196.11	5344.45
196.185	5372.96
196.261	5377.18
196.336	5457.5
196.411	5422.4
196.486	5435.96
196.561	5415.11
196.637	5441.51
196.712	5478.25
196.787	5490.19
196.862	5536.72
196.937	5560.34
197.013	5574.73
197.088	5604.01
197.163	5660.05
197.238	5702.77
197.313	5703.3
197.388	5731.35
197.464	5807.53
197.539	5835.68
197.614	5815.45
197.689	5846.57
197.764	5885.29
197.839	5938.91
197.914	5921.59
197.989	5983.29
198.065	6020.79
198.14	6152.49
198.215	6216.01
198.29	6243.81
198.365	6274.52
198.44	6300.96
198.515	6370.9
198.59	6407.76
198.665	6466.94
198.74	6482.26
198.815	6484.95
198.89	6545.19
198.965	6619.44
199.04	6613.58
199.115	6652.32
199.19	6758.32
199.265	6771.23
199.34	6799.33
199.415	6880.54
199.49	6938.88
199.565	6953.48
199.64	7015.11
199.715	7008.66
199.79	7022.02
199.865	7038.93
199.94	7037.68
200.015	7114.47
200.09	7133.31
200.165	7152.96
200.24	7174.15
200.315	7273.86
200.39	7316.25
200.464	7326.58
200.539	7329.94
200.614	7366.22
200.689	7420.29
200.764	7434.77
200.839	7478.43
200.914	7488.95
200.989	7465.92
201.063	7498.46
201.138	7456.88
201.213	7449.77
201.288	7399.93
201.363	7417.04
201.438	7421.6
201.512	7464.98
201.587	7419.41
201.662	7426.23
201.737	7453.83
201.812	7477.63
201.886	7387.1
201.961	7409.56
202.036	7376.51
202.111	7367.38
202.186	7293.66
202.26	7251.65
202.335	7202.72
202.41	7187.82
202.485	7139.89
202.559	7085.26
202.634	7017.22
202.709	7045.21
202.784	7000.77
202.858	7003.03
202.933	6952.54
203.008	6929.91
203.082	6880.92
203.157	6882.84
203.232	6775.12
203.306	6716.88
203.381	6629.02
203.456	6573.51
203.53	6513.03
203.605	6469.56
203.68	6410.72
203.754	6390.97
203.829	6355.48
203.904	6302.06
203.978	6266.62
204.053	6281.07
204.127	6251.85
204.202	6245.13
204.277	6199.49
204.351	6178.81
204.426	6154.08
204.5	6135.61
204.575	6047.5
204.65	6065.02
204.724	6037.79
204.799	6065.69
204.873	6055.32
204.948	6054.75
205.022	6025.74
205.097	6004.61
205.171	6035.88
205.246	6060.51
205.32	6064.15
205.395	6058.97
205.469	6036.35
205.544	6055.79
205.618	6010.83
205.693	6038.71
205.767	6007.72
205.842	6062.19
205.916	6048.57
205.991	6026.26
206.065	6037.68
206.14	6081.01
206.214	6070.15
206.289	6055.99
206.363	6074.47
206.438	6079.94
206.512	6105.09
206.586	6158.19
206.661	6181.05
206.735	6126.49
206.81	6130.66
206.884	6166.31
206.958	6131.87
207.033	6175.31
207.107	6186.6
207.181	6270.33
207.256	6259.01
207.33	6304.92
207.405	6338.61
207.479	6386.31
207.553	6405.46
207.628	6372.6
207.702	6401.83
207.776	6385.27
207.851	6390.12
207.925	6432
207.999	6425.51
208.073	6413.71
208.148	6416.35
208.222	6384.65
208.296	6464.47
208.371	6504.51
208.445	6530.58
208.519	6610.83
208.593	6639.39
208.668	6630.17
208.742	6634.07
208.816	6639.49
208.89	6676.72
208.965	6674.32
209.039	6699.06
209.113	6739.44
209.187	6783.82
209.261	6773.02
209.336	6822.96
209.41	6876.81
209.484	6881.52
209.558	6940.94
209.632	6976
209.707	7004.38
209.781	7062.99
209.855	7103.4
209.929	7141.64
210.003	7162.16
210.077	7157.12
210.151	7282.46
210.226	7369.77
210.3	7440.01
210.374	7496.98
210.448	7507.08
210.522	7524.53
210.596	7546.21
210.67	7573.8
210.744	7701.17
210.818	7785.79
210.892	7841.23
210.966	7823.79
211.041	7856.53
211.115	7847.83
211.189	7909.9
211.263	7953.22
211.337	7961.54
211.411	8002.23
211.485	7986.88
211.559	8011.69
211.633	8017.03
211.707	7932.29
211.781	7947.59
211.855	7852.75
211.929	7831.02
212.003	7787.64
212.077	7815.68
212.151	7845.79
212.225	7871.43
212.299	7837.21
212.373	7805.38
212.447	7793.06
212.52	7866.45
212.594	7876.79
212.668	7901.93
212.742	7863.6
212.816	7846.77
212.89	7836.43
212.964	7829.7
213.038	7840.52
213.112	7875.01
213.186	7910.01
213.26	7857.06
213.333	7742.4
213.407	7756.86
213.481	7764.69
213.555	7796.06
213.629	7762.92
213.703	7717.28
213.777	7706.26
213.85	7653.22
213.924	7733.22
213.998	7731.35
214.072	7711.67
214.146	7671.66
214.219	7661.51
214.293	7648.63
214.367	7649.01
214.441	7668.05
214.515	7631.21
214.588	7562.07
214.662	7462.28
214.736	7404.27
214.81	7416.57
214.883	7436.02
214.957	7399.51
215.031	7355.71
215.105	7280.76
215.178	7235.54
215.252	7212.19
215.326	7144.23
215.4	7087.9
215.473	6956.36
215.547	6889.84
215.621	6839.31
215.694	6839.5
215.768	6770.9
215.842	6724.36
215.915	6675.2
215.989	6590.02
216.063	6551.34
216.136	6534.44
216.21	6518.98
216.284	6530.46
216.357	6513.22
216.431	6479.85
216.504	6479.28
216.578	6523.08
216.652	6533.68
216.725	6514.42
216.799	6520.91
216.873	6498.16
216.946	6499.5
217.02	6465.88
217.093	6442.88
217.167	6370.83
217.24	6309.93
217.314	6281.1
217.387	6241.2
217.461	6206.93
217.535	6221.04
217.608	6169.31
217.682	6154.38
217.755	6166.18
217.829	6125.47
217.902	6115.63
217.976	6100.18
218.049	6061.8
218.123	6001.87
218.196	6000.91
218.27	5974.14
218.343	5916.67
218.417	5919.31
218.49	5904.39
218.563	5938.35
218.637	5949.3
218.71	6000.21
218.784	6016.63
218.857	6042.72
218.931	6066.45
219.004	6075.33
219.077	6093.24
219.151	6111.56
219.224	6100.24
219.298	6094.91
219.371	6122.94
219.444	6093.68
219.518	6097.33
219.591	6112.34
219.665	6195.87
219.738	6207.82
219.811	6197.27
219.885	6237.29
219.958	6260.43
220.031	6263.64
220.105	6279.44
220.178	6282.41
220.251	6265.32
220.325	6288.03
220.398	6298.35
220.471	6308
220.544	6330.61
220.618	6312.51
220.691	6336.17
220.764	6354.93
220.838	6375.58
220.911	6371.54
220.984	6432.97
221.057	6467.62
221.131	6492.39
221.204	6418.65
221.277	6474.55
221.35	6566.93
221.424	6555.89
221.497	6568.19
221.57	6589.59
221.643	6618.46
221.716	6657.89
221.79	6669.18
221.863	6677.49
221.936	6684.35
222.009	6698.56
222.082	6723.2
222.155	6732.23
222.229	6778.16
222.302	6803.23
222.375	6806.92
222.448	6832.82
222.521	6843.63
222.594	6840.79
222.667	6816.65
222.74	6863.13
222.814	6853.71
222.887	6842.51
222.96	6885.27
223.033	6915.35
223.106	6931.29
223.179	6953.3
223.252	6961.86
223.325	6978.53
223.398	6988.76
223.471	7016.33
223.544	7033.24
223.617	7043.95
223.69	7061.87
223.763	7033.75
223.837	7047.54
223.91	7075.36
223.983	7041.12
224.056	7016.19
224.129	7037.61
224.202	7085.53
224.275	7074.38
224.348	7051.13
224.42	7029.13
224.493	6987.53
224.566	6970.94
224.639	6984.54
224.712	6961.46
224.785	6943.68
224.858	6938.16
224.931	6924.08
225.004	6887.05
225.077	6884.21
225.15	6815.54
225.223	6810.6
225.296	6872.47
225.369	6825.12
225.442	6796.34
225.514	6809.88
225.587	6818.04
225.66	6826.35
225.733	6820.35
225.806	6818.91
225.879	6814.73
225.952	6786.55
226.025	6822.19
226.097	6855.98
226.17	6849.5
226.243	6794.9
226.316	6791.92
226.389	6798.02
226.461	6812.92
226.534	6826.02
226.607	6822.09
226.68	6877.64
226.753	6878.98
226.825	6819.03
226.898	6865.71
226.971	6870.42
227.044	6879.93
227.117	6885.88
227.189	6897.03
227.262	6928.37
227.335	6950.33
227.407	6951.82
227.48	6976.45
227.553	6987.89
227.626	6973.8
227.698	6980.23
227.771	7016.43
227.844	7008.74
227.916	7025.8
227.989	6999.95
228.062	7005.28
228.134	7070.07
228.207	7079.92
228.28	7069.6
228.352	7083.63
228.425	7092.04
228.498	7128.75
228.57	7122.32
228.643	7170.29
228.716	7171.78
228.788	7165.96
228.861	7159.28
228.934	7207.38
229.006	7214.73
229.079	7210.06
229.151	7200.35
229.224	7173.27
229.296	7192.63
229.369	7264.07
229.442	7304.23
229.514	7293.47
229.587	7332.87
229.659	7275.1
229.732	7281.73
229.804	7314.45
229.877	7367.3
229.949	7388.6
230.022	7423.56
230.094	7423.95
230.167	7413.03
230.239	7379.64
230.312	7362.53
230.384	7417.34
230.457	7413.35
230.529	7424.41
230.602	7427.72
230.674	7439.16
230.747	7476.53
230.819	7497.01
230.892	7412.55
230.964	7409.32
231.037	7423.15
231.109	7413.88
231.181	7448.86
231.254	7424.78
231.326	7414.59
231.399	7401.99
231.471	7378.58
231.544	7319
231.616	7346.96
231.688	7348.07
231.761	7342.83
231.833	7333.27
231.905	7266.83
231.978	7263.22
232.05	7248.66
232.122	7254
232.195	7236.46
232.267	7266.64
232.339	7250.59
232.412	7301.04
232.484	7275.36
232.556	7259.85
232.629	7309.92
232.701	7315.2
232.773	7324.04
232.846	7322.03
232.918	7319.57
232.99	7333.75
233.062	7370.82
233.135	7380.38
233.207	7357.17
233.279	7387.77
233.351	7414.82
233.424	7419.05
233.496	7403.72
233.568	7469.63
233.64	7438.49
233.713	7453.49
233.785	7447.28
233.857	7463.97
233.929	7421.92
234.001	7474.54
234.074	7526.58
234.146	7472.38
234.218	7477.67
234.29	7476.03
234.362	7466.14
234.434	7429.21
234.507	7408.83
234.579	7370.37
234.651	7360.23
234.723	7381.38
234.795	7394.69
234.867	7393.97
234.939	7440.36
235.012	7454.16
235.084	7454.83
235.156	7485.83
235.228	7466.36
235.3	7453.96
235.372	7457.61
235.444	7503.94
235.516	7444.59
235.588	7452.33
235.66	7466.37
235.732	7445.12
235.804	7590.44
235.876	7620.29
235.948	7672.51
236.02	7679.34
236.092	7685.44
236.164	7698.47
236.236	7699.43
236.308	7697.6
236.38	7717.36
236.452	7705.29
236.524	7719.33
236.596	7769.58
236.668	7797.09
236.74	7818.28
236.812	7839.49
236.884	7871.33
236.956	7879.22
237.028	7871.53
237.1	7851.43
237.172	7902.56
237.244	7957.1
237.316	7869.38
237.388	7862.36
237.46	7843.45
237.532	7888.13
237.604	7887.02
237.675	7938.11
237.747	7975.53
237.819	7963.32
237.891	7975.11
237.963	7965.63
238.035	7966.07
238.107	7883.83
238.178	7931.14
238.25	7939.7
238.322	8010.01
238.394	7972.83
238.466	7975.13
238.538	8009.66
238.609	8044.23
238.681	8004.87
238.753	7987.55
238.825	8002.13
238.897	8026.32
238.968	8090.28
239.04	8072.14
239.112	8148.86
239.184	8120.47
239.255	8112.1
239.327	8142.72
239.399	8149.46
239.471	8185.24
239.542	8209.38
239.614	8258.4
239.686	8193.3
239.758	8228.22
239.829	8195.73
239.901	8248.41
239.973	8262.69
240.044	8288.67
240.116	8296.42
240.188	8303.63
240.259	8318.98
240.331	8310.75
240.403	8336.87
240.474	8297.01
240.546	8296.77
240.618	8256.21
240.689	8256.07
240.761	8279.94
240.833	8330.36
240.904	8331.13
240.976	8329.07
241.048	8343.79
241.119	8371.85
241.191	8406.34
241.262	8458.53
241.334	8470.03
241.405	8471.72
241.477	8471.23
241.549	8479.51
241.62	8505.06
241.692	8545.53
241.763	8591.16
241.835	8607.19
241.906	8619.56
241.978	8600.21
242.049	8652.23
242.121	8695.49
242.192	8749.34
242.264	8720.52
242.335	8683.36
242.407	8713.59
242.478	8717.92
242.55	8727.83
242.621	8717.43
242.693	8722.44
242.764	8712.76
242.836	8705.44
242.907	8725.8
242.979	8755.45
243.05	8766.37
243.122	8784.09
243.193	8781.49
243.264	8728.06
243.336	8735.86
243.407	8764.7
243.479	8825.58
243.55	8838.05
243.622	8856.92
243.693	8856.58
243.764	8910.87
243.836	8902.36
243.907	8894.27
243.978	8896.87
244.05	8919.21
244.121	8882.54
244.192	8909.49
244.264	8875.94
244.335	8892.54
244.407	8856.64
244.478	8868.05
244.549	8867.8
244.62	8834.74
244.692	8831.75
244.763	8865.3
244.834	8852.73
244.906	8834.01
244.977	8837.18
245.048	8880.87
245.119	8863.73
245.191	8845.68
245.262	8794.95
245.333	8844.13
245.405	8861.94
245.476	8890.82
245.547	8908.01
245.618	8951.51
245.689	8966.44
245.761	8994.51
245.832	8994.7
245.903	9024.49
245.974	9041.2
246.045	9050.39
246.117	9112.88
246.188	9103.16
246.259	9092.04
246.33	9108.12
246.401	9114.91
246.473	9101.62
246.544	9086.06
246.615	9127.95
246.686	9128.96
246.757	9192.07
246.828	9176.71
246.899	9234.22
246.97	9215.49
247.042	9203.55
247.113	9229.26
247.184	9291.26
247.255	9285.53
247.326	9307.49
247.397	9316.01
247.468	9324.63
247.539	9332.77
247.61	9300.55
247.681	9336.7
247.752	9375.75
247.823	9356.93
247.894	9368.82
247.965	9344.94
248.037	9335.36
248.108	9292.94
248.179	9298.86
248.25	9286.72
248.321	9312.29
248.392	9268.5
248.463	9320.98
248.534	9318.48
248.605	9334.18
248.675	9313.08
248.746	9327.91
248.817	9340.82
248.888	9357
248.959	9316.41
249.03	9335.19
249.101	9339.43
249.172	9321.18
249.243	9267.84
249.314	9317.53
249.385	9329.28
249.456	9357.29
249.527	9352.04
249.598	9376.69
249.669	9379
249.739	9390.32
249.81	9398.55
249.881	9372.85
249.952	9369.43
250.023	9366.97
250.094	9329.21
250.165	9303.68
250.235	9298.29
250.306	9299.4
250.377	9273.73
250.448	9296.26
250.519	9250.86
250.59	9291.6
250.66	9303.54
250.731	9359.05
250.802	9358.9
250.873	9370.36
250.944	9380.72
251.014	9375.61
251.085	9435.34
251.156	9456.77
251.227	9489.86
251.297	9530.32
251.368	9563.54
251.439	9592.59
251.51	9637.67
251.58	9625.44
251.651	9630.59
251.722	9681.17
251.792	9649.29
251.863	9651.89
251.934	9693.45
252.005	9781.24
252.075	9796.66
252.146	9823.82
252.217	9863.17
252.287	9890.1
252.358	9890.87
252.429	9950.94
252.499	9944.44
252.57	9950.8
252.641	9984.85
252.711	9988.76
252.782	9953.01
252.852	10019.69
252.923	10022
252.994	10027.54
253.064	10075.5
253.135	10053.93
253.205	10024.45
253.276	10081.52
253.347	10136.95
253.417	10120.43
253.488	10102.94
253.558	10090.75
253.629	10092.92
253.699	10095.67
253.77	10125.44
253.841	10127.47
253.911	10135.66
253.982	10153.09
254.052	10177.81
254.123	10193.62
254.193	10199.01
254.264	10306.99
254.334	10276.97
254.405	10251.73
254.475	10229.52
254.546	10225.52
254.616	10272.87
254.687	10300.48
254.757	10313.68
254.827	10308.76
254.898	10330.54
254.968	10336.32
255.039	10319.7
255.109	10346.1
255.18	10328.61
255.25	10271.09
255.321	10290.21
255.391	10256.82
255.461	10320.8
255.532	10262.26
255.602	10245.44
255.673	10205.46
255.743	10176.4
255.813	10121.01
255.884	10156.28
255.954	10183.54
256.024	10229.26
256.095	10230.71
256.165	10209.13
256.235	10222.62
256.306	10220.84
256.376	10253.7
256.446	10280.73
256.517	10306.98
256.587	10348.27
256.657	10370.15
256.728	10388.5
256.798	10400.59
256.868	10400.83
256.938	10378.43
257.009	10418.13
257.079	10446.07
257.149	10524.46
257.219	10478.3
257.29	10509.31
257.36	10465.86
257.43	10500.12
257.5	10459.74
257.571	10456.95
257.641	10480.65
257.711	10462.97
257.781	10484.6
257.852	10495.92
257.922	10449.57
257.992	10457.09
258.062	10441.48
258.132	10468.27
258.202	10476.27
258.273	10487.11
258.343	10548.54
258.413	10531.49
258.483	10533.8
258.553	10512.02
258.623	10494.72
258.693	10519.01
258.764	10577.26
258.834	10636.03
258.904	10641.14
258.974	10638.15
259.044	10654.68
259.114	10685.42
259.184	10699.1
259.254	10706.77
259.324	10669.61
259.394	10707.38
259.464	10763.86
259.535	10778.66
259.605	10774.75
259.675	10758.52
259.745	10784.11
259.815	10765.12
259.885	10776.49
259.955	10857.56
260.025	10851.73
260.095	10862.91
260.165	10885.99
260.235	10927.11
260.305	10917.37
260.375	10900.55
260.445	10967.14
260.515	11007.29
260.585	11041.31
260.655	11054.08
260.725	11080.88
260.795	11110.32
260.865	11164.78
260.934	11138.75
261.004	11159.14
261.074	11162.65
261.144	11221.15
261.214	11247.85
261.284	11243.61
261.354	11270.2
261.424	11242.1
261.494	11300.98
261.564	11302.19
261.634	11327.01
261.703	11280.65
261.773	11297.46
261.843	11326.43
261.913	11320.6
261.983	11286.19
262.053	11295.44
262.123	11292.11
262.192	11261.23
262.262	11291.01
262.332	11255.87
262.402	11292.26
262.472	11295.54
262.541	11250.63
262.611	11280.51
262.681	11266.63
262.751	11299.45
262.821	11303.26
262.89	11275.4
262.96	11298.49
263.03	11362.83
263.1	11380.38
263.169	11396.52
263.239	11417.83
263.309	11467.91
263.379	11488.44
263.448	11503.47
263.518	11529.79
263.588	11546.95
263.657	11610.71
263.727	11643.77
263.797	11656.5
263.867	11648.21
263.936	11619.05
264.006	11668
264.076	11666.27
264.145	11665.02
264.215	11654.61
264.285	11686.9
264.354	11653.5
264.424	11636.82
264.494	11597.83
264.563	11584.09
264.633	11645.98
264.702	11663.62
264.772	11619.42
264.842	11621.06
264.911	11644.34
264.981	11616.86
265.05	11625.82
265.12	11620.86
265.19	11626.69
265.259	11666.31
265.329	11694.17
265.398	11721.79
265.468	11801.27
265.537	11800.4
265.607	11825.37
265.676	11867.98
265.746	11891.07
265.815	11938.01
265.885	11946.39
265.955	11932.71
266.024	11940.9
266.094	11885.47
266.163	11938.4
266.232	11989.01
266.302	11998.5
266.371	12019.81
266.441	12027.38
266.51	12066.23
266.58	12070.13
266.649	12064.2
266.719	12102.33
266.788	12131.4
266.858	12180.52
266.927	12126.29
266.996	12149.23
267.066	12179.12
267.135	12150.82
267.205	12183.41
267.274	12205.78
267.343	12247.57
267.413	12268.68
267.482	12317.8
267.552	12379.54
267.621	12345.03
267.69	12312.73
267.76	12328.21
267.829	12348.16
267.898	12368.89
267.968	12356.84
268.037	12389.81
268.106	12431.46
268.176	12408.13
268.245	12410.59
268.314	12410.49
268.384	12467.08
268.453	12483.76
268.522	12499.57
268.592	12550.42
268.661	12542.86
268.73	12562.91
268.799	12554.13
268.869	12613.96
268.938	12580.07
269.007	12567.78
269.076	12593.66
269.146	12644.66
269.215	12677.25
269.284	12732.88
269.353	12739.14
269.422	12746.23
269.492	12738.9
269.561	12677.92
269.63	12706.8
269.699	12709.5
269.768	12728.15
269.838	12736.4
269.907	12775.4
269.976	12747.63
270.045	12708.58
270.114	12733.84
270.183	12747.73
270.253	12768.5
270.322	12740.4
270.391	12762.19
270.46	12821.92
270.529	12855.42
270.598	12884.92
270.667	12892.97
270.736	12863.47
270.806	12880.49
270.875	12928.16
270.944	12937.85
271.013	13042.26
271.082	13058.65
271.151	13084.64
271.22	13060.15
271.289	13075.09
271.358	13070.37
271.427	13107.39
271.496	13136.07
271.565	13134.53
271.634	13153.57
271.703	13254.56
271.772	13301.51
271.841	13316.7
271.91	13287.73
271.979	13300.98
272.048	13285.61
272.117	13315.83
272.186	13326.68
272.255	13371.8
272.324	13408.97
272.393	13444.45
272.462	13439.96
272.531	13467.1
272.6	13480.22
272.669	13535.36
272.738	13539.27
272.807	13576.29
272.876	13572.72
272.945	13675.88
273.013	13726.31
273.082	13769.31
273.151	13705.24
273.22	13733.97
273.289	13751.76
273.358	13822.67
273.427	13838.24
273.496	13879.46
273.564	13920.29
273.633	13967.58
273.702	13959.39
273.771	13961.94
273.84	13986.62
273.909	14014.97
273.977	14038.06
274.046	14049.97
274.115	14104.58
274.184	14107.14
274.253	14115
274.322	14173.86
274.39	14132.49
274.459	14132.93
274.528	14109.55
274.597	14130.42
274.665	14154.81
274.734	14207.21
274.803	14214.78
274.872	14236.14
274.94	14235.7
275.009	14333.21
275.078	14328.63
275.147	14360.06
275.215	14389.9
275.284	14442.25
275.353	14456.91
275.421	14437.29
275.49	14514.75
275.559	14514.13
275.627	14545.36
275.696	14570.04
275.765	14603.59
275.833	14621.48
275.902	14658.79
275.971	14720.68
276.039	14795.4
276.108	14833.34
276.177	14872
276.245	14881.78
276.314	14903.47
276.383	14954.04
276.451	14903.05
276.52	14956.31
276.588	15018.93
276.657	15070.21
276.725	15081.3
276.794	15106.75
276.863	15179.78
276.931	15151.05
277	15206.87
277.068	15261
277.137	15341.59
277.205	15362.76
277.274	15447.16
277.342	15503.22
277.411	15492.8
277.48	15499.6
277.548	15514.16
277.617	15549.15
277.685	15574.65
277.754	15630.8
277.822	15649.5
277.89	15714.62
277.959	15731.78
278.027	15727.25
278.096	15725.9
278.164	15828.9
278.233	15849.19
278.301	15857.48
278.37	15911.27
278.438	15907.56
278.507	15941.2
278.575	15918.41
278.643	15951.33
278.712	15932.72
278.78	15936.87
278.849	15997.89
278.917	16057.61
278.985	16083.68
279.054	16113.66
279.122	16169.57
279.191	16189.81
279.259	16211.65
279.327	16186.1
279.396	16261.63
279.464	16291.51
279.532	16343.42
279.601	16359.28
279.669	16391.04
279.737	16458.37
279.806	16503.58
279.874	16573.56
279.942	16612.26
280.011	16633.9
280.079	16686.24
280.147	16769.14
280.215	16814.15
280.284	16841.39
280.352	16837.1
280.42	16898.26
280.488	16916.86
280.557	16938.93
280.625	16982.98
280.693	17021.73
280.761	17069.73
280.83	17064.87
280.898	17123.81
280.966	17116.72
281.034	17072.77
281.102	17074.22
281.171	17090.12
281.239	17139.37
281.307	17151.18
281.375	17169.98
281.443	17269.11
281.512	17300.15
281.58	17352.53
281.648	17349.49
281.716	17385.83
281.784	17422.99
281.852	17434.46
281.92	17471.09
281.989	17526.51
282.057	17518.22
282.125	17628.82
282.193	17664.57
282.261	17693.97
282.329	17717.59
282.397	17771.32
282.465	17824.48
282.533	17904
282.601	17913.97
282.67	17894.6
282.738	17916.09
282.806	17974.16
282.874	17969.15
282.942	18019.46
283.01	18036.76
283.078	18088.52
283.146	18117.72
283.214	18181.82
283.282	18233.96
283.35	18301.96
283.418	18320.32
283.486	18383.4
283.554	18350.53
283.622	18386.1
283.69	18432.84
283.758	18468.41
283.826	18510.72
283.894	18576.4
283.962	18655.05
284.03	18731.86
284.098	18784.97
284.165	18809.5
284.233	18838.8
284.301	18870.51
284.369	18881.73
284.437	18901.06
284.505	18930.84
284.573	19008.62
284.641	19008.04
284.709	19058.83
284.777	19046.25
284.845	19116.76
284.912	19160.56
284.98	19212.85
285.048	19240.65
285.116	19285.61
285.184	19353.66
285.252	19400.06
285.319	19394.57
285.387	19411.92
285.455	19410.96
285.523	19456.64
285.591	19486.95
285.659	19534.23
285.726	19607.62
285.794	19607.81
285.862	19634.37
285.93	19672.68
285.997	19691.81
286.065	19721.25
286.133	19732.34
286.201	19779.95
286.269	19775.85
286.336	19792.33
286.404	19814.5
286.472	19874.74
286.539	19860.09
286.607	19851.8
286.675	19890.21
286.743	19947.32
286.81	19960.04
286.878	20027.94
286.946	20046.01
287.013	20087.07
287.081	20116.71
287.149	20100.52
287.216	20187.46
287.284	20212.08
287.352	20243.84
287.419	20276.61
287.487	20353.67
287.555	20406.78
287.622	20429.09
287.69	20479.89
287.758	20549.58
287.825	20569.72
287.893	20572.13
287.96	20629.58
288.028	20690.25
288.096	20730.83
288.163	20781.63
288.231	20798.45
288.298	20835.52
288.366	20906.12
288.433	20933.01
288.501	20955.76
288.569	21004.68
288.636	21037.55
288.704	21114.62
288.771	21182.48
288.839	21198.87
288.906	21214.63
288.974	21271.31
289.041	21307.27
289.109	21327.66
289.176	21379.72
289.244	21435.87
289.311	21509.18
289.379	21574.73
289.446	21612.66
289.514	21652.04
289.581	21675.04
289.649	21709.83
289.716	21755.24
289.783	21773.46
289.851	21865.29
289.918	21902.35
289.986	21976.06
290.053	22014.91
290.121	22050.25
290.188	22093.44
290.255	22209.48
290.323	22237.29
290.39	22258.07
290.458	22309.02
290.525	22389.05
290.592	22415.57
290.66	22453.17
290.727	22481.8
290.794	22546.46
290.862	22596.64
290.929	22640.85
290.996	22682.84
291.064	22763.16
291.131	22824.45
291.198	22905.74
291.266	22938.77
291.333	22978.15
291.4	23028.06
291.468	23109.85
291.535	23135.69
291.602	23174.31
291.669	23185.36
291.737	23239.64
291.804	23279.57
291.871	23358.75
291.938	23398.29
292.006	23492.06
292.073	23558.6
292.14	23622.55
292.207	23646.32
292.275	23678.2
292.342	23736.12
292.409	23835.91
292.476	23923.07
292.543	23946.8
292.611	23979.31
292.678	24064.21
292.745	24170.22
292.812	24229.79
292.879	24244.75
292.946	24297.61
293.014	24370.16
293.081	24426.31
293.148	24498.75
293.215	24573.53
293.282	24599.05
293.349	24658.29
293.416	24653.18
293.484	24740.7
293.551	24799.56
293.618	24883.99
293.685	24991.2
293.752	25021.84
293.819	25060.73
293.886	25068.79
293.953	25121.72
294.02	25192.71
294.087	25237.59
294.154	25257.66
294.221	25326.35
294.288	25373.97
294.356	25448.62
294.423	25505.77
294.49	25533.57
294.557	25611.37
294.624	25622.81
294.691	25707.89
294.758	25754.08
294.825	25820.16
294.892	25832.85
294.959	25871.71
295.026	25920.71
295.093	25938.19
295.16	25981.43
295.226	26016.91
295.293	26123.38
295.36	26174.35
295.427	26244.76
295.494	26313.62
295.561	26379.42
295.628	26483.1
295.695	26569.67
295.762	26630.71
295.829	26689.34
295.896	26772.29
295.963	26824.4
296.03	26916.05
296.096	26971.1
296.163	27045.43
296.23	27128.27
296.297	27210.47
296.364	27259.48
296.431	27322.81
296.498	27358.07
296.564	27462.53
296.631	27523.44
296.698	27530.01
296.765	27627.99
296.832	27648.18
296.899	27670.79
296.965	27759.94
297.032	27751.04
297.099	27837.56
297.166	27898.15
297.233	27936.9
297.299	27951.25
297.366	27996.53
297.433	28036.15
297.5	28120.45
297.566	28159.98
297.633	28193.33
297.7	28240.55
297.767	28270.89
297.833	28325.66
297.9	28377.45
297.967	28378.66
298.033	28449.82
298.1	28566.97
298.167	28584.56
298.234	28634.93
298.3	28698.35
298.367	28717.3
298.434	28777.21
298.5	28784.76
298.567	28811.01
298.634	28844.27
298.7	28943.27
298.767	28992.49
298.834	29065.12
298.9	29079.92
298.967	29105.69
299.033	29174.12
299.1	29260.6
299.167	29347.19
299.233	29372.63
299.3	29451.2
299.366	29538.38
299.433	29610.28
299.5	29585.27
299.566	29628.26
299.633	29709.77
299.699	29774.35
299.766	29812.8
299.832	29856.74
299.899	29934.54
299.965	30005.26
300.032	30047.58
300.099	30103.95
300.165	30163.26
300.232	30198.63
300.298	30243.1
300.365	30315.42
300.431	30371.61
300.498	30380.85
300.564	30439.5
300.631	30511.94
300.697	30593.31
300.763	30630.56
300.83	30692.64
300.896	30769.24
300.963	30847.84
301.029	30898.48
301.096	30956.52
301.162	31028.25
301.229	31067.84
301.295	31082.46
301.361	31129.23
301.428	31182.36
301.494	31187.15
301.561	31232.13
301.627	31289.25
301.693	31339.55
301.76	31396.83
301.826	31415.71
301.892	31488.73
301.959	31558.8
302.025	31594.15
302.092	31606.89
302.158	31661.4
302.224	31670.12
302.291	31676.51
302.357	31703.83
302.423	31728.72
302.49	31748.14
302.556	31817.12
302.622	31841.86
302.688	31907.1
302.755	31989.02
302.821	32052.8
302.887	32117.39
302.954	32159.92
303.02	32206.28
303.086	32264.26
303.152	32299.09
303.219	32327.67
303.285	32376.07
303.351	32419.78
303.417	32461.74
303.483	32488.62
303.55	32522.24
303.616	32564.68
303.682	32622.46
303.748	32640.58
303.815	32714.43
303.881	32772.53
303.947	32788.76
304.013	32845.94
304.079	32857.37
304.145	32841.72
304.212	32882.42
304.278	32906.55
304.344	32927.82
304.41	32936.25
304.476	32931.26
304.542	32959.03
304.608	33011.99
304.674	33007.92
304.741	33021.15
304.807	33059.54
304.873	33112.36
304.939	33187.83
305.005	33182.54
305.071	33224.41
305.137	33285.86
305.203	33270.45
305.269	33297.16
305.335	33351.6
305.401	33378.55
305.467	33416.11
305.533	33473.16
305.599	33522.32
305.666	33574.33
305.732	33615.09
305.798	33673.6
305.864	33783.12
305.93	33824.61
305.996	33856.46
306.062	33895.53
306.128	33919.24
306.194	33923.8
306.259	33958.41
306.325	33960.6
306.391	34032.2
306.457	34072.1
306.523	34093.14
306.589	34175.68
306.655	34190.56
306.721	34179.94
306.787	34193.66
306.853	34258.35
306.919	34251.81
306.985	34250.79
307.051	34263.49
307.117	34273.97
307.183	34300.4
307.248	34270.66
307.314	34321.2
307.38	34361.65
307.446	34415.53
307.512	34430.95
307.578	34479.29
307.644	34502.08
307.709	34535.21
307.775	34548.11
307.841	34572.55
307.907	34610.67
307.973	34595.78
308.039	34628.22
308.104	34674.68
308.17	34703.49
308.236	34704.75
308.302	34746.65
308.368	34762.75
308.433	34805.28
308.499	34825.84
308.565	34838.07
308.631	34873.08
308.696	34835.06
308.762	34841.7
308.828	34857.66
308.894	34845.88
308.959	34833.81
309.025	34834.44
309.091	34858.55
309.156	34878.43
309.222	34917.19
309.288	34918.75
309.354	34895.85
309.419	34927.68
309.485	34929.47
309.551	34975.56
309.616	34961.98
309.682	34978.03
309.748	34992.39
309.813	35004.76
309.879	35025.47
309.945	35023.82
310.01	35045.41
310.076	35091.97
310.141	35107.3
310.207	35089.89
310.273	35145.18
310.338	35184.18
310.404	35180.25
310.469	35180.01
310.535	35187.77
310.601	35157.4
310.666	35194.9
310.732	35250.2
310.797	35237.39
310.863	35237.49
310.928	35237
310.994	35274.79
311.059	35305.5
311.125	35325.54
311.191	35378.72
311.256	35371.49
311.322	35414.77
311.387	35391.09
311.453	36259.87
311.518	36256.14
311.584	36290
311.649	36307.47
311.715	36314.41
311.78	36352.05
311.846	36346.13
311.911	36381.55
311.976	36421.43
312.042	36414.25
312.107	36408.82
312.173	36424.2
312.238	36445.2
312.304	36473.2
312.369	36489.56
312.434	36488.54
312.5	36504.16
312.565	36450.3
312.631	36493.96
312.696	36504.83
312.761	36538.98
312.827	35707.61
312.892	35802.35
312.958	35832.39
313.023	35863.84
313.088	35891.59
313.154	35882.62
313.219	35894.16
313.284	35889.7
313.35	35898.29
313.415	35902.02
313.48	35917.69
313.546	35952.68
313.611	36005.19
313.676	35995.05
313.741	35988.89
313.807	36030.33
313.872	36069.59
313.937	36117.19
314.003	36172.04
314.068	36189.56
314.133	36228.57
314.198	36235.13
314.264	36206.68
314.329	36201.24
314.394	36220.46
314.459	36233.62
314.525	36308.88
314.59	36341.01
314.655	36357.36
314.72	36412.89
314.785	36453.65
314.851	36459.87
314.916	36450.6
314.981	36441.71
315.046	36462.48
315.111	36475.1
315.176	36479.52
315.242	36507.24
315.307	36528.35
315.372	36509.81
315.437	36515.19
315.502	36521.31
315.567	36571.06
315.632	36550.73
315.698	36580.34
315.763	36581.55
315.828	36582.33
315.893	36587.04
315.958	36586.74
316.023	36580.77
316.088	36537.72
316.153	36487.78
316.218	36491.38
316.283	36450.47
316.348	36399.28
316.413	36385.25
316.479	36352.59
316.544	36269.52
316.609	36187.26
316.674	36084.84
316.739	35984.21
316.804	35896.54
316.869	35791.98
316.934	35678.18
316.999	35586.05
317.064	35432.41
317.129	35300.11
317.194	35184.37
317.259	35036.78
317.324	34876.31
317.389	34715.59
317.454	34575.18
317.518	34456.72
317.583	34353.07
317.648	34249.49
317.713	34130.16
317.778	33937.48
317.843	33814.71
317.908	33673.13
317.973	33528.61
318.038	33415.53
318.103	33276.79
318.168	33146.17
318.233	33015.76
318.297	32837.91
318.362	32698.64
318.427	32559.04
318.492	32444.34
318.557	32280.04
318.622	32154.51
318.687	32051.94
318.751	31905.38
318.816	31774.23
318.881	31635.93
318.946	31445.27
319.011	31266.71
319.075	31101.88
319.14	30963.75
319.205	30785.28
319.27	30633.19
319.335	30459.08
319.399	30293.24
319.464	30158.06
319.529	29963.34
319.594	29800.59
319.658	29646.3
319.723	29466.96
319.788	29312.22
319.853	29098.69
319.917	28938.53
319.982	28726.65
320.047	28552.74
320.112	28415.33
320.176	28204.93
320.241	28029.2
320.306	27863.68
320.37	27690.33
320.435	27524.56
320.5	27361.7
320.564	27183.51
320.629	27001.82
320.694	26839.06
320.758	26645.8
320.823	26440.72
320.888	26280.05
320.952	26065.99
321.017	25881.82
321.082	25688.32
321.146	25511.57
321.211	25337.93
321.275	25150.46
321.34	24947.87
321.405	24743.48
321.469	24530.12
321.534	24340.31
321.598	24130.09
321.663	23966.35
321.727	23790.92
321.792	23589.27
321.857	23386.03
321.921	23192.32
321.986	22989.23
322.05	22752.78
322.115	22563.73
322.179	22363.08
322.244	22128.98
322.308	21956.45
322.373	21745.21
322.437	21556.11
322.502	21397.84
322.566	21194.05
322.631	21009.35
322.695	20825.29
322.76	20620.12
322.824	20439.82
322.889	20239.43
322.953	20030.56
323.018	19768.18
323.082	19513.86
323.146	19283.45
323.211	19058.4
323.275	18853.24
323.34	18641.01
323.404	18449.2
323.468	18237.49
323.533	18029.93
323.597	17824
323.662	17587.12
323.726	17407.22
323.79	17189.96
323.855	16923.88
323.919	16703.39
323.983	16473.01
324.048	16155.66
324.112	16259.51
324.177	15595.63
324.241	14741.19
324.305	13902.53
324.37	13075.73
324.434	12275.2
324.498	12046.98
324.562	11797.73
324.627	11513.09
324.691	11232.22
324.755	10923.2
324.82	10567.25
324.884	10192.98
324.948	9803.88
325.012	9348.32
325.077	8757.3
