Data from 20250626_urea_1M_exp2_MAYP1162681_01-13-58-276.txt Node
Date: Fri Jun 27 01:13:58 BST 2025
User: adleo
Spectrometer: MAYP116268
Trigger mode: 0
Integration Time (sec): 3.000000E0
Scans to average: 1
Electric dark correction enabled: true
Nonlinearity correction enabled: true
Boxcar width: 10
XAxis mode: Wavelengths
Number of Pixels in Spectrum: 2068
>>>>>Begin Spectral Data<<<<<
179.565	2780.38
179.642	2921.6
179.718	3025.49
179.795	3131.47
179.871	3216.16
179.948	3265.09
180.024	3316.77
180.101	3372.86
180.177	3406.61
180.254	3463.9
180.33	3516.46
180.407	3705.78
180.483	3922.74
180.56	4141.01
180.636	4340.5
180.712	4313.03
180.789	4329.68
180.865	4365.05
180.942	4392.03
181.018	4416.71
181.095	4450.31
181.171	4464.28
181.248	4468.68
181.324	4511.09
181.4	4525.69
181.477	4552.49
181.553	4579.8
181.63	4636.52
181.706	4676.01
181.782	4704.9
181.859	4707.34
181.935	4727.44
182.011	4718.4
182.088	4756.46
182.164	4804.31
182.24	4836.85
182.317	4859.34
182.393	4854.6
182.469	4884.57
182.546	4915.65
182.622	4929.1
182.698	4924.45
182.775	4960.61
182.851	4996
182.927	4979.05
183.003	4968.08
183.08	4953.43
183.156	4983.94
183.232	4971.81
183.308	4944.76
183.385	4960.7
183.461	4998.44
183.537	4998.49
183.613	5033.21
183.69	5012.67
183.766	4987.03
183.842	5009.06
183.918	5024.01
183.995	5060.45
184.071	5071.37
184.147	5055.76
184.223	5027.86
184.299	5052.72
184.375	5017.67
184.452	5031.95
184.528	5135.99
184.604	5165.63
184.68	5193.31
184.756	5209.84
184.832	5220.91
184.908	5234.46
184.985	5234.26
185.061	5198.73
185.137	5221.25
185.213	5192.36
185.289	5197.53
185.365	5183.02
185.441	5183.12
185.517	5212.65
185.593	5201.01
185.669	5192.09
185.745	5219.83
185.822	5262.05
185.898	5242.03
185.974	5270.8
186.05	5250.63
186.126	5185.16
186.202	5163.42
186.278	5153.5
186.354	5131.93
186.43	5147.66
186.506	5141.72
186.582	5138.99
186.658	5153.4
186.734	5107.86
186.81	5111.93
186.886	5114.75
186.962	5141.09
187.038	5129.74
187.114	5109.08
187.19	5128.29
187.266	5105.83
187.341	5104.59
187.417	5085.96
187.493	5086.43
187.569	5095.3
187.645	5083.47
187.721	5056.78
187.797	5080.82
187.873	5092.08
187.949	5071.73
188.025	5053.85
188.101	5070.18
188.176	5084.64
188.252	5074.59
188.328	5092.15
188.404	5093.54
188.48	5087.79
188.556	5067.44
188.632	5065.04
188.707	5070.03
188.783	5061.97
188.859	5050.78
188.935	5026.1
189.011	5048.23
189.086	5035.83
189.162	5007.66
189.238	4998.13
189.314	4988.56
189.39	4974.42
189.465	4959.81
189.541	5001.82
189.617	4965.1
189.693	4941.26
189.768	4951.03
189.844	5010.99
189.92	4989.74
189.996	5011.92
190.071	5037.16
190.147	5037.16
190.223	5058.05
190.298	5038.45
190.374	5006.08
190.45	5036.14
190.526	5052.67
190.601	5042.46
190.677	5039.69
190.753	5114.48
190.828	5126.59
190.904	5165.69
190.98	5195.26
191.055	5218.4
191.131	5197.41
191.207	5251.34
191.282	5277.38
191.358	5252.52
191.433	5217.23
191.509	5249.4
191.585	5241.07
191.66	5245.28
191.736	5271.2
191.811	5247.72
191.887	5287.08
191.963	5344.14
192.038	5357.75
192.114	5363.26
192.189	5370.4
192.265	5367.67
192.34	5313.04
192.416	5309.36
192.491	5298.23
192.567	5310.17
192.642	5319.28
192.718	5320.05
192.793	5295.03
192.869	5289.33
192.944	5293.21
193.02	5314.49
193.095	5323.02
193.171	5336.97
193.246	5334.04
193.322	5319.67
193.397	5323.74
193.473	5290.04
193.548	5249.44
193.624	5260.56
193.699	5254.14
193.775	5288.9
193.85	5290.38
193.925	5308.84
194.001	5308.55
194.076	5291.49
194.152	5261.67
194.227	5243.32
194.302	5217.7
194.378	5222.49
194.453	5212.77
194.529	5243.44
194.604	5209.99
194.679	5198.44
194.755	5150.31
194.83	5181.1
194.905	5177.08
194.981	5197.54
195.056	5181.49
195.131	5195.77
195.207	5191.88
195.282	5166.26
195.357	5122.21
195.433	5162.69
195.508	5132.12
195.583	5150.8
195.659	5182.34
195.734	5200.65
195.809	5197.77
195.884	5219.99
195.96	5219.79
196.035	5256.59
196.11	5249.25
196.185	5273.45
196.261	5275.89
196.336	5353.52
196.411	5312.53
196.486	5328.24
196.561	5309.79
196.637	5331.87
196.712	5372.25
196.787	5380.5
196.862	5419.06
196.937	5442.2
197.013	5456.4
197.088	5481.6
197.163	5531.19
197.238	5577.08
197.313	5576.93
197.388	5611.83
197.464	5692.66
197.539	5723.72
197.614	5707.33
197.689	5732.7
197.764	5773.04
197.839	5826.7
197.914	5816.96
197.989	5879.69
198.065	5913.64
198.14	6040.04
198.215	6107.73
198.29	6141.77
198.365	6176.08
198.44	6203.99
198.515	6274.3
198.59	6312.7
198.665	6379.27
198.74	6405.34
198.815	6406.78
198.89	6466.24
198.965	6540.44
199.04	6523.25
199.115	6558.62
199.19	6668.06
199.265	6683.28
199.34	6708.92
199.415	6795.6
199.49	6843.27
199.565	6868.25
199.64	6930.44
199.715	6927.37
199.79	6939.37
199.865	6944.8
199.94	6940.29
200.015	7021.48
200.09	7040.46
200.165	7052.76
200.24	7071.21
200.315	7168.12
200.39	7207.14
200.464	7222.85
200.539	7221.41
200.614	7266.18
200.689	7324.33
200.764	7338.27
200.839	7375.44
200.914	7380.63
200.989	7347.79
201.063	7382.87
201.138	7334.19
201.213	7333.9
201.288	7285.32
201.363	7297.14
201.438	7298.72
201.512	7337.77
201.587	7294.75
201.662	7300.14
201.737	7337.63
201.812	7358.44
201.886	7278.88
201.961	7302.49
202.036	7271.61
202.111	7266.13
202.186	7190.36
202.26	7149.17
202.335	7095
202.41	7085.01
202.485	7050.34
202.559	7003.12
202.634	6936.3
202.709	6958.85
202.784	6913.36
202.858	6911.1
202.933	6864.9
203.008	6853.76
203.082	6808.52
203.157	6803.18
203.232	6691.35
203.306	6628.74
203.381	6545.26
203.456	6484.51
203.53	6420.68
203.605	6368.82
203.68	6309.03
203.754	6295.08
203.829	6255.13
203.904	6200.52
203.978	6164.32
204.053	6174.31
204.127	6141.01
204.202	6139.43
204.277	6098.02
204.351	6078.97
204.426	6054.97
204.5	6035.44
204.575	5946.67
204.65	5966.97
204.724	5948.2
204.799	5971.73
204.873	5967.02
204.948	5962.71
205.022	5931.54
205.097	5914.16
205.171	5953.54
205.246	5979.22
205.32	5975.67
205.395	5971.16
205.469	5957.45
205.544	5977.37
205.618	5926.09
205.693	5960.06
205.767	5929.6
205.842	5985.27
205.916	5967.47
205.991	5946.94
206.065	5960.76
206.14	5998.85
206.214	5985.07
206.289	5964.49
206.363	5994.13
206.438	5998.02
206.512	6021.2
206.586	6072.52
206.661	6091.63
206.735	6031.89
206.81	6029.87
206.884	6068.91
206.958	6040.09
207.033	6075.62
207.107	6084.7
207.181	6170.76
207.256	6156.26
207.33	6208.8
207.405	6237.49
207.479	6282.88
207.553	6300.3
207.628	6260.83
207.702	6287.74
207.776	6270.85
207.851	6281.79
207.925	6318.58
207.999	6309.02
208.073	6296.07
208.148	6299.43
208.222	6272.25
208.296	6353.26
208.371	6398.33
208.445	6422.43
208.519	6494.27
208.593	6525.13
208.668	6518.6
208.742	6525.72
208.816	6530.18
208.89	6555.4
208.965	6553.09
209.039	6576.68
209.113	6619.7
209.187	6672.8
209.261	6666.27
209.336	6722.45
209.41	6774.71
209.484	6780.71
209.558	6837.05
209.632	6872.05
209.707	6892.27
209.781	6950.53
209.855	6984.5
209.929	7026.49
210.003	7040.71
210.077	7042.83
210.151	7156.99
210.226	7246.36
210.3	7315.1
210.374	7370.23
210.448	7378.16
210.522	7396.96
210.596	7417.53
210.67	7442.96
210.744	7564.75
210.818	7648.15
210.892	7695.71
210.966	7678.55
211.041	7711.19
211.115	7704.99
211.189	7764.46
211.263	7817
211.337	7829.31
211.411	7872.01
211.485	7852.77
211.559	7891.7
211.633	7895.11
211.707	7823.52
211.781	7842.82
211.855	7750.39
211.929	7733
212.003	7692.5
212.077	7722.04
212.151	7758.4
212.225	7779.84
212.299	7746.54
212.373	7717.64
212.447	7701.1
212.52	7772.84
212.594	7779.24
212.668	7810.49
212.742	7778.46
212.816	7765.67
212.89	7750.57
212.964	7746
213.038	7756.54
213.112	7779.43
213.186	7816.26
213.26	7767.82
213.333	7644.08
213.407	7654.55
213.481	7660.7
213.555	7683.81
213.629	7649.32
213.703	7597.87
213.777	7591.18
213.85	7539.06
213.924	7618.04
213.998	7616.6
214.072	7597.06
214.146	7566.63
214.219	7551.05
214.293	7534.95
214.367	7533.41
214.441	7555.96
214.515	7517.34
214.588	7447.68
214.662	7354.88
214.736	7293.17
214.81	7298.5
214.883	7320.16
214.957	7287.31
215.031	7245.96
215.105	7180.78
215.178	7134.27
215.252	7111.49
215.326	7043.26
215.4	6984.44
215.473	6849.17
215.547	6789.78
215.621	6740.64
215.694	6734.49
215.768	6664.41
215.842	6615.24
215.915	6560.32
215.989	6472.07
216.063	6433.69
216.136	6424.56
216.21	6410.21
216.284	6421.45
216.357	6405.51
216.431	6373.92
216.504	6368.69
216.578	6411.62
216.652	6422.32
216.725	6407.19
216.799	6412.19
216.873	6390.55
216.946	6396.64
217.02	6370.6
217.093	6350.58
217.167	6278.01
217.24	6213.1
217.314	6182.45
217.387	6149.51
217.461	6113.8
217.535	6129.54
217.608	6083.19
217.682	6064.32
217.755	6075.7
217.829	6036.43
217.902	6021.32
217.976	6008.41
218.049	5979.96
218.123	5918.7
218.196	5917.74
218.27	5892.41
218.343	5839.09
218.417	5845.23
218.49	5825.75
218.563	5855.63
218.637	5861.83
218.71	5921.61
218.784	5944.65
218.857	5970.78
218.931	5986.89
219.004	5994.85
219.077	6013.63
219.151	6028.35
219.224	6020.14
219.298	6011.99
219.371	6044.67
219.444	6017.58
219.518	6025.11
219.591	6038.92
219.665	6117.24
219.738	6124.3
219.811	6110.82
219.885	6143.21
219.958	6168.7
220.031	6176.56
220.105	6190.91
220.178	6197.78
220.251	6171.66
220.325	6193.8
220.398	6208.19
220.471	6227.04
220.544	6253.92
220.618	6231.21
220.691	6250.41
220.764	6255.97
220.838	6275.61
220.911	6260.77
220.984	6325.31
221.057	6352.47
221.131	6368.88
221.204	6297.66
221.277	6353.45
221.35	6448.94
221.424	6444.14
221.497	6450.77
221.57	6466.51
221.643	6492.11
221.716	6521.5
221.79	6529.52
221.863	6536.14
221.936	6542.14
222.009	6549.49
222.082	6578.6
222.155	6592.9
222.229	6639.45
222.302	6668.92
222.375	6674.64
222.448	6707.53
222.521	6712.91
222.594	6714.69
222.667	6697.7
222.74	6745.81
222.814	6737.64
222.887	6720.96
222.96	6764.43
223.033	6796.53
223.106	6816.16
223.179	6838.03
223.252	6850.14
223.325	6870.35
223.398	6881.98
223.471	6907.05
223.544	6923.8
223.617	6927.26
223.69	6942.54
223.763	6915.63
223.837	6934.7
223.91	6961.12
223.983	6929.29
224.056	6904.75
224.129	6916.18
224.202	6955.73
224.275	6943.96
224.348	6925.76
224.42	6903.37
224.493	6858.99
224.566	6844.09
224.639	6858.45
224.712	6839.37
224.785	6823.66
224.858	6820.11
224.931	6806.22
225.004	6770.74
225.077	6774.82
225.15	6706.69
225.223	6704.67
225.296	6763.65
225.369	6717.69
225.442	6691.61
225.514	6698.13
225.587	6710.95
225.66	6724.16
225.733	6724.64
225.806	6729.35
225.879	6724.21
225.952	6698.29
226.025	6736.47
226.097	6771.37
226.17	6760.08
226.243	6712.07
226.316	6715.82
226.389	6717.98
226.461	6729.6
226.534	6745.25
226.607	6735.79
226.68	6797.92
226.753	6793.74
226.825	6731.69
226.898	6771.83
226.971	6769.57
227.044	6791.86
227.117	6797
227.189	6814.01
227.262	6845.58
227.335	6862.68
227.407	6859.13
227.48	6885.97
227.553	6893.9
227.626	6880.34
227.698	6892.06
227.771	6925.18
227.844	6904.05
227.916	6917.69
227.989	6892.52
228.062	6894.97
228.134	6961.96
228.207	6960.66
228.28	6958.64
228.352	6969.02
228.425	6981.32
228.498	7022.11
228.57	7004.87
228.643	7055.77
228.716	7049.76
228.788	7038.17
228.861	7033.75
228.934	7086.79
229.006	7091.59
229.079	7094.28
229.151	7086.16
229.224	7059.7
229.296	7076.71
229.369	7158.91
229.442	7200.01
229.514	7191.7
229.587	7228.99
229.659	7170.54
229.732	7180.25
229.804	7203.41
229.877	7268.98
229.949	7292.16
230.022	7327.6
230.094	7329.23
230.167	7315.67
230.239	7282.86
230.312	7268.54
230.384	7321.72
230.457	7313.98
230.529	7328.44
230.602	7330.51
230.674	7330.36
230.747	7358.65
230.819	7378.6
230.892	7288.47
230.964	7280.54
231.037	7294.66
231.109	7286.58
231.181	7318.24
231.254	7296.86
231.326	7293.55
231.399	7273.49
231.471	7247.38
231.544	7188.2
231.616	7218.9
231.688	7221.3
231.761	7215.25
231.833	7215.25
231.905	7144.78
231.978	7144.78
232.05	7124.07
232.122	7124.07
232.195	7108.98
232.267	7143.3
232.339	7126.24
232.412	7176.87
232.484	7163.7
232.556	7147.04
232.629	7194.74
232.701	7203.05
232.773	7210.21
232.846	7199.21
232.918	7206.76
232.99	7220.08
233.062	7256.17
233.135	7269.34
233.207	7244.21
233.279	7279.37
233.351	7300.32
233.424	7311.22
233.496	7293.92
233.568	7364.2
233.64	7334.98
233.713	7348.06
233.785	7339.16
233.857	7351.66
233.929	7312.21
234.001	7362.57
234.074	7412.63
234.146	7362.04
234.218	7365.6
234.29	7365.6
234.362	7361.47
234.434	7319.35
234.507	7299.02
234.579	7255.53
234.651	7240.48
234.723	7266.73
234.795	7276.29
234.867	7271.53
234.939	7317.15
235.012	7330.46
235.084	7326.08
235.156	7360.59
235.228	7348.24
235.3	7342.18
235.372	7351.26
235.444	7399.66
235.516	7337.66
235.588	7343.62
235.66	7354.05
235.732	7335.88
235.804	7487.03
235.876	7516.48
235.948	7567.59
236.02	7575.71
236.092	7588.25
236.164	7597.86
236.236	7593.2
236.308	7594.84
236.38	7617.05
236.452	7600.65
236.524	7619.3
236.596	7672.19
236.668	7694.84
236.74	7714.49
236.812	7728.92
236.884	7752.87
236.956	7759.41
237.028	7755.47
237.1	7742.82
237.172	7790.39
237.244	7849.92
237.316	7755.27
237.388	7740.47
237.46	7721.04
237.532	7765.76
237.604	7762.2
237.675	7816.12
237.747	7851.03
237.819	7836.14
237.891	7837.96
237.963	7828.44
238.035	7822.19
238.107	7739.68
238.178	7782.7
238.25	7789.24
238.322	7857.61
238.394	7826.21
238.466	7827.6
238.538	7860.73
238.609	7890.73
238.681	7855.04
238.753	7835.46
238.825	7850.56
238.897	7882.19
238.968	7939.4
239.04	7926.32
239.112	8008.7
239.184	7977.43
239.255	7970.6
239.327	8002.95
239.399	8018.78
239.471	8054.12
239.542	8079.75
239.614	8125.87
239.686	8068.86
239.758	8110.81
239.829	8078.13
239.901	8127.43
239.973	8136.42
240.044	8160.14
240.116	8171.01
240.188	8186.4
240.259	8195.59
240.331	8190.77
240.403	8215.21
240.474	8181.71
240.546	8171.28
240.618	8126.72
240.689	8130.91
240.761	8153.72
240.833	8205.63
240.904	8210.15
240.976	8210.11
241.048	8220.4
241.119	8251.78
241.191	8282.23
241.262	8326.81
241.334	8338.26
241.405	8335.28
241.477	8338.74
241.549	8344.37
241.62	8364.63
241.692	8396.38
241.763	8443.88
241.835	8458.18
241.906	8472.56
241.978	8457.12
242.049	8511.68
242.121	8558.01
242.192	8606.47
242.264	8575
242.335	8532.08
242.407	8562.06
242.478	8564.27
242.55	8581.36
242.621	8568.17
242.693	8569.08
242.764	8562.53
242.836	8562.63
242.907	8589.44
242.979	8613.16
243.05	8628.9
243.122	8647.67
243.193	8646.22
243.264	8589
243.336	8589.53
243.407	8613.74
243.479	8673.95
243.55	8685.69
243.622	8697.2
243.693	8694.17
243.764	8752.15
243.836	8739.26
243.907	8734.6
243.978	8737.87
244.05	8761.21
244.121	8728.11
244.192	8761.89
244.264	8722.52
244.335	8738.79
244.407	8701.73
244.478	8714.29
244.549	8706.93
244.62	8674.49
244.692	8670.79
244.763	8710.44
244.834	8704.28
244.906	8683
244.977	8690.46
245.048	8736.17
245.119	8721.87
245.191	8709.07
245.262	8659.35
245.333	8716.18
245.405	8725.27
245.476	8757.37
245.547	8764.4
245.618	8804.29
245.689	8808.05
245.761	8831.78
245.832	8830.38
245.903	8866.72
245.974	8879.33
246.045	8894.25
246.117	8959.77
246.188	8953.32
246.259	8935.95
246.33	8947.16
246.401	8958.42
246.473	8932.66
246.544	8921.59
246.615	8961.84
246.686	8959.57
246.757	9019.16
246.828	9007.32
246.899	9058.8
246.97	9027.27
247.042	9022.07
247.113	9053.52
247.184	9126.3
247.255	9126.87
247.326	9147.48
247.397	9148.68
247.468	9164.09
247.539	9169
247.61	9133.42
247.681	9165.57
247.752	9208.89
247.823	9195.56
247.894	9209.28
247.965	9192.44
248.037	9175.92
248.108	9135.19
248.179	9145.54
248.25	9135.86
248.321	9154.01
248.392	9120.87
248.463	9187.45
248.534	9183.98
248.605	9198.48
248.675	9179.49
248.746	9192.97
248.817	9202.27
248.888	9222.06
248.959	9182.44
249.03	9203.53
249.101	9200.11
249.172	9188.89
249.243	9137.44
249.314	9186.15
249.385	9195.06
249.456	9220.24
249.527	9215.28
249.598	9238.05
249.669	9232.51
249.739	9238.58
249.81	9245.12
249.881	9219.32
249.952	9209.88
250.023	9208.73
250.094	9169.96
250.165	9139.66
250.235	9134.94
250.306	9146.6
250.377	9122.62
250.448	9150.73
250.519	9102.11
250.59	9150.46
250.66	9149.01
250.731	9198.93
250.802	9197.24
250.873	9213.71
250.944	9226.23
251.014	9219.2
251.085	9278.25
251.156	9309.26
251.227	9351.88
251.297	9394.55
251.368	9428.97
251.439	9458.64
251.51	9500.97
251.58	9493.8
251.651	9491.73
251.722	9534.4
251.792	9494.91
251.863	9493.23
251.934	9524.48
252.005	9611.74
252.075	9627.05
252.146	9666.92
252.217	9704.34
252.287	9738.74
252.358	9738.25
252.429	9796.06
252.499	9795.24
252.57	9803.81
252.641	9833.91
252.711	9841.86
252.782	9808.24
252.852	9863.4
252.923	9867.35
252.994	9882.57
253.064	9916.57
253.135	9908.91
253.205	9889.31
253.276	9942.86
253.347	9993.86
253.417	9981.53
253.488	9965.92
253.558	9953.78
253.629	9952.09
253.699	9955.75
253.77	9978.54
253.841	9970.79
253.911	9973.25
253.982	9981.48
254.052	10006.44
254.123	10007.69
254.193	10000.08
254.264	10107.67
254.334	10087.34
254.405	10054.97
254.475	10020.24
254.546	10027.08
254.616	10070.72
254.687	10097.07
254.757	10110.65
254.827	10114.7
254.898	10137.82
254.968	10142.39
255.039	10123.13
255.109	10151.11
255.18	10131.32
255.25	10072.06
255.321	10096.63
255.391	10072.25
255.461	10144.17
255.532	10083.22
255.602	10083.66
255.673	10050.18
255.743	10016.59
255.813	9959.86
255.884	10006.97
255.954	10040.54
256.024	10094.26
256.095	10094.02
256.165	10072.58
256.235	10092.82
256.306	10078.9
256.376	10117.68
256.446	10154.21
256.517	10180.31
256.587	10212.3
256.657	10229.84
256.728	10249.2
256.798	10260.42
256.868	10257.58
256.938	10230.31
257.009	10270.63
257.079	10289.04
257.149	10366.79
257.219	10327.14
257.29	10356.51
257.36	10312.44
257.43	10337.44
257.5	10280.45
257.571	10282.47
257.641	10308.63
257.711	10277.12
257.781	10302.89
257.852	10311.37
257.922	10262.33
257.992	10268.11
258.062	10262.13
258.132	10290.8
258.202	10297.78
258.273	10309.3
258.343	10364.37
258.413	10355.46
258.483	10357.34
258.553	10342.74
258.623	10319.32
258.693	10337.53
258.764	10394.77
258.834	10448.29
258.904	10459.51
258.974	10450.03
259.044	10453.54
259.114	10478.65
259.184	10505.24
259.254	10513.63
259.324	10477.73
259.394	10509.57
259.464	10568.65
259.535	10576.65
259.605	10575.06
259.675	10566.77
259.745	10593.8
259.815	10577.76
259.885	10581.42
259.955	10667.5
260.025	10668.17
260.095	10684.65
260.165	10713.28
260.235	10750.05
260.305	10732.65
260.375	10715.11
260.445	10798.27
260.515	10838.36
260.585	10872
260.655	10884.53
260.725	10912.14
260.795	10936.76
260.865	10993
260.934	10969.96
261.004	10991.12
261.074	11000.52
261.144	11048.5
261.214	11076.31
261.284	11080.89
261.354	11110.66
261.424	11077.21
261.494	11124.67
261.564	11119.51
261.634	11133.68
261.703	11089.64
261.773	11116.18
261.843	11142.26
261.913	11132.09
261.983	11100.33
262.053	11118.6
262.123	11114.65
262.192	11093.49
262.262	11117.92
262.332	11081.3
262.402	11107.18
262.472	11117.06
262.541	11071.24
262.611	11111.82
262.681	11089.16
262.751	11117.41
262.821	11126.18
262.89	11102.75
262.96	11125.36
263.03	11187.24
263.1	11213.8
263.169	11228.59
263.239	11256.73
263.309	11314.72
263.379	11333.37
263.448	11350.52
263.518	11370.43
263.588	11383.2
263.657	11436.12
263.727	11466
263.797	11479.01
263.867	11477.28
263.936	11449.23
264.006	11492.11
264.076	11480.25
264.145	11483.48
264.215	11469.7
264.285	11498.66
264.354	11466.52
264.424	11455.39
264.494	11415.43
264.563	11403.91
264.633	11465.75
264.702	11476.49
264.772	11432.92
264.842	11436.1
264.911	11464.63
264.981	11428.05
265.05	11442.22
265.12	11439.42
265.19	11450.85
265.259	11485.31
265.329	11515.96
265.398	11536.39
265.468	11620.02
265.537	11616.02
265.607	11643.4
265.676	11683.4
265.746	11700.94
265.815	11747.35
265.885	11756.08
265.955	11754.58
266.024	11756.75
266.094	11707.06
266.163	11757.72
266.232	11807.7
266.302	11819.22
266.371	11833.3
266.441	11857.78
266.51	11891.96
266.58	11898.56
266.649	11893.21
266.719	11927.05
266.788	11952.6
266.858	12007.06
266.927	11952.55
266.996	11981.42
267.066	12005.9
267.135	11983.68
267.205	12014.39
267.274	12030.01
267.343	12071.31
267.413	12087.51
267.482	12135.86
267.552	12189.02
267.621	12157.01
267.69	12118.79
267.76	12136.91
267.829	12157.98
267.898	12168.87
267.968	12163.18
268.037	12191.77
268.106	12232.59
268.176	12207.72
268.245	12212.69
268.314	12213.41
268.384	12258.67
268.453	12273.66
268.522	12292.37
268.592	12340.47
268.661	12329.58
268.73	12354.06
268.799	12342.25
268.869	12411.47
268.938	12375.75
269.007	12370.93
269.076	12385.59
269.146	12435.14
269.215	12468.06
269.284	12523.16
269.353	12522.87
269.422	12526.49
269.492	12520.61
269.561	12454.86
269.63	12494.24
269.699	12493.33
269.768	12508.08
269.838	12529
269.907	12557.97
269.976	12539.7
270.045	12497.38
270.114	12526.83
270.183	12532.47
270.253	12562.7
270.322	12519.36
270.391	12536.86
270.46	12585.3
270.529	12629.7
270.598	12657.03
270.667	12653.13
270.736	12632.01
270.806	12652.79
270.875	12699.21
270.944	12712.95
271.013	12818.47
271.082	12831.34
271.151	12857.28
271.22	12829.99
271.289	12838.91
271.358	12853.52
271.427	12890.39
271.496	12925.92
271.565	12929.68
271.634	12958.7
271.703	13054.68
271.772	13110.21
271.841	13125.68
271.91	13107.6
271.979	13128.82
272.048	13111.99
272.117	13149.64
272.186	13154.8
272.255	13205.42
272.324	13233.86
272.393	13258.44
272.462	13255.16
272.531	13279.27
272.6	13295.32
272.669	13353.7
272.738	13369.27
272.807	13398.53
272.876	13383.78
272.945	13484.91
273.013	13528.73
273.082	13569.47
273.151	13503.38
273.22	13533.36
273.289	13558.14
273.358	13622.06
273.427	13621.68
273.496	13667.96
273.564	13699.82
273.633	13746.92
273.702	13741.37
273.771	13756.08
273.84	13785.82
273.909	13814.41
273.977	13841.55
274.046	13850.8
274.115	13896.89
274.184	13895.06
274.253	13905.42
274.322	13973.2
274.39	13934.25
274.459	13935.31
274.528	13904.55
274.597	13925.23
274.665	13944.08
274.734	13992
274.803	13998.8
274.872	14020.87
274.94	14015.67
275.009	14183.11
275.078	14174.39
275.147	14199.31
275.215	14223.07
275.284	14273.84
275.353	14291.48
275.421	14270.7
275.49	14345.61
275.559	14346.19
275.627	14369.09
275.696	14389.09
275.765	14414.93
275.833	14423.9
275.902	14462.8
275.971	14527.35
276.039	14607.17
276.108	14644.34
276.177	14682.85
276.245	14690.28
276.314	14714.57
276.383	14760.8
276.451	14641.71
276.52	14696.76
276.588	14758.65
276.657	14803.91
276.725	14814.95
276.794	14844.36
276.863	14914.11
276.931	14888.71
277	14946.12
277.068	15004.59
277.137	15079.64
277.205	15111.31
277.274	15196.63
277.342	15251.14
277.411	15242.71
277.48	15239.38
277.548	15250.32
277.617	15283.44
277.685	15305.08
277.754	15346.78
277.822	15367.89
277.89	15437.44
277.959	15458.7
278.027	15458.07
278.096	15464.77
278.164	15564.98
278.233	15579.1
278.301	15589.56
278.37	15643.88
278.438	15647.02
278.507	15691.75
278.575	15662.54
278.643	15693.77
278.712	15678.4
278.78	15682.54
278.849	15746.5
278.917	15805.89
278.985	15832.64
279.054	15872.45
279.122	15943.74
279.191	15980.42
279.259	16003.84
279.327	15982.63
279.396	16057.24
279.464	16080.33
279.532	16132.87
279.601	16156.92
279.669	16181.31
279.737	16248.06
279.806	16286.71
279.874	16348.16
279.942	16372.79
280.011	16405.18
280.079	16449.04
280.147	16528.04
280.215	16572.91
280.284	16591.47
280.352	16585.92
280.42	16646.27
280.488	16669.54
280.557	16681.69
280.625	16727.33
280.693	16770.03
280.761	16814.61
280.83	16804.11
280.898	16875.2
280.966	16861.8
281.034	16819.63
281.102	16823.39
281.171	16842.14
281.239	16895.29
281.307	16905.17
281.375	16920.59
281.443	17011.73
281.512	17041.22
281.58	17096.36
281.648	17095.39
281.716	17131.59
281.784	17170.53
281.852	17187.4
281.92	17217.85
281.989	17281.76
282.057	17273.32
282.125	17383.92
282.193	17424.16
282.261	17456.36
282.329	17471.39
282.397	17527.2
282.465	17571.73
282.533	17650.68
282.601	17658.24
282.67	17640.6
282.738	17655.74
282.806	17723.21
282.874	17733.76
282.942	17774.96
283.01	17802.14
283.078	17857.61
283.146	17892.21
283.214	17951.01
283.282	17990.52
283.35	18049.7
283.418	18073.46
283.486	18123.92
283.554	18084.11
283.622	18101.8
283.69	18144.45
283.758	18178.37
283.826	18220.3
283.894	18285.4
283.962	18369.78
284.03	18447.37
284.098	18498.12
284.165	18526.74
284.233	18547.85
284.301	18564.04
284.369	18580.38
284.437	18583.17
284.505	18610.93
284.573	18683.26
284.641	18693.67
284.709	18758.3
284.777	18753.96
284.845	18804.65
284.912	18848.89
284.98	18906.67
285.048	18943.54
285.116	18980.93
285.184	19044.83
285.252	19085.75
285.319	19083.53
285.387	19105.12
285.455	19104.97
285.523	19155.28
285.591	19188.39
285.659	19234.46
285.726	19306.7
285.794	19317.3
285.862	19354.16
285.93	19384.72
285.997	19408.71
286.065	19437.24
286.133	19442.74
286.201	19485
286.269	19487.07
286.336	19505.87
286.404	19525.77
286.472	19583.93
286.539	19580.75
286.607	19577.48
286.675	19611.64
286.743	19664.32
286.81	19679.98
286.878	19745.32
286.946	19760.22
287.013	19806.38
287.081	19839.59
287.149	19844.4
287.216	19929.7
287.284	19955.73
287.352	19995.39
287.419	20028.01
287.487	20098.13
287.555	20149.8
287.622	20169.65
287.69	20219
287.758	20292.83
287.825	20317.94
287.893	20321.46
287.96	20370.75
288.028	20434.37
288.096	20476.2
288.163	20521.55
288.231	20527.72
288.298	20557.99
288.366	20630.9
288.433	20660.74
288.501	20670.71
288.569	20705.75
288.636	20718.86
288.704	20791.83
288.771	20850.14
288.839	20862
288.906	20880.02
288.974	20940.08
289.041	20974.83
289.109	20987.6
289.176	21038.4
289.244	21086.69
289.311	21159.81
289.379	21226.9
289.446	21269.46
289.514	21307.49
289.581	21347.78
289.649	21393.62
289.716	21434.68
289.783	21452.08
289.851	21540.68
289.918	21591.43
289.986	21656.55
290.053	21698.48
290.121	21719.83
290.188	21755.41
290.255	21873.32
290.323	21910.34
290.39	21932.51
290.458	22002.65
290.525	22084.25
290.592	22112.75
290.66	22160.9
290.727	22187.75
290.794	22260.93
290.862	22294.68
290.929	22342.26
290.996	22380.3
291.064	22443.83
291.131	22513.35
291.198	22582.73
291.266	22611.03
291.333	22653.6
291.4	22712.08
291.468	22813.87
291.535	22854.22
291.602	22908.41
291.669	22917.38
291.737	22962.99
291.804	22997.8
291.871	23058.27
291.938	23103.79
292.006	23203.67
292.073	23267.46
292.14	23322.67
292.207	23343.16
292.275	23385.79
292.342	23445.05
292.409	23542.47
292.476	23633.87
292.543	23650.6
292.611	23698.78
292.678	23782.85
292.745	23892.61
292.812	23946.73
292.879	23961.54
292.946	24007.79
293.014	24078.16
293.081	24141.59
293.148	24204.19
293.215	24282.77
293.282	24308.23
293.349	24371.33
293.416	24359.99
293.484	24435.73
293.551	24504.66
293.618	24587.69
293.685	24685.57
293.752	24709.35
293.819	24745.69
293.886	24762.58
293.953	24822.15
294.02	24875.37
294.087	24917.98
294.154	24925.56
294.221	24996.83
294.288	25027.71
294.356	25110.27
294.423	25157.51
294.49	25186.51
294.557	25264.44
294.624	25277.09
294.691	25372.78
294.758	25430.93
294.825	25496.13
294.892	25511.72
294.959	25554.53
295.026	25598.5
295.093	25626.5
295.16	25675.43
295.226	25710.86
295.293	25808.57
295.36	25858.33
295.427	25925.82
295.494	25999.16
295.561	26067.31
295.628	26168.17
295.695	26251.05
295.762	26299.77
295.829	26376.21
295.896	26455.38
295.963	26521.2
296.03	26600.09
296.096	26647.51
296.163	26714.01
296.23	26794.18
296.297	26865.44
296.364	26908.42
296.431	26969.22
296.498	27010.99
296.564	27111.33
296.631	27163.97
296.698	27158.95
296.765	27257.09
296.832	27274.91
296.899	27293.8
296.965	27384.57
297.032	27367.37
297.099	27458.16
297.166	27522.75
297.233	27551.59
297.299	27572.9
297.366	27610.1
297.433	27658.26
297.5	27727.94
297.566	27761.77
297.633	27797.53
297.7	27863.82
297.767	27902.81
297.833	27959.79
297.9	28006.17
297.967	28020.08
298.033	28097.75
298.1	28218.82
298.167	28230.37
298.234	28288.94
298.3	28352.01
298.367	28374.1
298.434	28440.18
298.5	28450.77
298.567	28479.67
298.634	28509.06
298.7	28601.48
298.767	28646.97
298.834	28712.95
298.9	28739.11
298.967	28755.5
299.033	28816.81
299.1	28878.36
299.167	28945.6
299.233	28974.22
299.3	29050.32
299.366	29125.98
299.433	29199.89
299.5	29169.43
299.566	29230.45
299.633	29300.81
299.699	29368.18
299.766	29404.93
299.832	29454.28
299.899	29518.12
299.965	29595.22
300.032	29640.19
300.099	29683.19
300.165	29743.17
300.232	29780.23
300.298	29820.66
300.365	29902.45
300.431	29948.9
300.498	29979.53
300.564	30040.14
300.631	30110.05
300.697	30181.67
300.763	30209.92
300.83	30254.5
300.896	30341.05
300.963	30408.41
301.029	30468.46
301.096	30523.3
301.162	30594.29
301.229	30615.63
301.295	30634.84
301.361	30683.2
301.428	30739.95
301.494	30752.97
301.561	30803.55
301.627	30843.72
301.693	30892.89
301.76	30932.48
301.826	30953.2
301.892	31025.04
301.959	31092.09
302.025	31125.79
302.092	31145.78
302.158	31224.15
302.224	31257.28
302.291	31274.56
302.357	31302.2
302.423	31337.21
302.49	31343.41
302.556	31404.19
302.622	31463.74
302.688	31534.77
302.755	31599.19
302.821	31649.49
302.887	31715.34
302.954	31755.78
303.02	31824.35
303.086	31889.92
303.152	31916.65
303.219	31957.91
303.285	32005.53
303.351	32060.03
303.417	32099.31
303.483	32124.93
303.55	32136.46
303.616	32177.98
303.682	32223.16
303.748	32240.4
303.815	32311.19
303.881	32378.91
303.947	32394.12
304.013	32430.94
304.079	32453.66
304.145	32445.42
304.212	32489.17
304.278	32508.88
304.344	32531.75
304.41	32535.62
304.476	32543.86
304.542	32580.87
304.608	32642.3
304.674	32633.77
304.741	32659.66
304.807	32704.14
304.873	32757.44
304.939	32836.61
305.005	32818.49
305.071	32853.03
305.137	32906.37
305.203	32881.03
305.269	32909.87
305.335	32965.51
305.401	32999.28
305.467	33020.8
305.533	33081.67
305.599	33125.68
305.666	33184.51
305.732	33216.64
305.798	33278.43
305.864	33366.51
305.93	33428.11
305.996	33446.09
306.062	33485.83
306.128	33497.81
306.194	33493.2
306.259	33517.92
306.325	33521.12
306.391	33581.85
306.457	33631.39
306.523	33664.11
306.589	33748.36
306.655	33766.69
306.721	33760.58
306.787	33752.53
306.853	33829.52
306.919	33811.83
306.985	33827.98
307.051	33832.39
307.117	33838.79
307.183	33851.34
307.248	33826.18
307.314	33863.95
307.38	33899.2
307.446	33942.64
307.512	33954.62
307.578	34009.4
307.644	34027.63
307.709	34066.18
307.775	34082.81
307.841	34104.43
307.907	34138.03
307.973	34113.74
308.039	34142.3
308.104	34183.37
308.17	34225.79
308.236	34209.78
308.302	34256.28
308.368	34261.03
308.433	34292.74
308.499	34326.87
308.565	34343.46
308.631	34374.34
308.696	34349.71
308.762	34367.75
308.828	34389.19
308.894	34383.71
308.959	34352.34
309.025	34370.53
309.091	34386.38
309.156	34407.48
309.222	34447.35
309.288	34441
309.354	34433.63
309.419	34456.52
309.485	34452.25
309.551	34499.78
309.616	34499.64
309.682	34525.78
309.748	34536.49
309.813	34565.89
309.879	34579.9
309.945	34577.28
310.01	34606.97
310.076	34633.11
310.141	34645.09
310.207	34636.4
310.273	34662.93
310.338	34708.02
310.404	34696.77
310.469	34698.52
310.535	34714.18
310.601	34671.26
310.666	34710.01
310.732	34760.94
310.797	34766.95
310.863	34773.45
310.928	34785.34
310.994	34821.08
311.059	34838.06
311.125	34868.86
311.191	34910.92
311.256	34915.72
311.322	34953.07
311.387	34933.37
311.453	36033.29
311.518	36028.49
311.584	36062.54
311.649	36112.99
311.715	36127.64
311.78	36157.41
311.846	36175.65
311.911	36203.31
311.976	36249.63
312.042	36250.06
312.107	36236.53
312.173	36239.88
312.238	36261.07
312.304	36271.55
312.369	36286.79
312.434	36287.22
312.5	36297.21
312.565	36257.92
312.631	36287.6
312.696	36305.8
312.761	36338.49
312.827	35275.15
312.892	35362.16
312.958	35380.69
313.023	35405.68
313.088	35432.07
313.154	35424.94
313.219	35415.34
313.284	35420.92
313.35	35438.43
313.415	35438.67
313.48	35464.14
313.546	35504.94
313.611	35554.87
313.676	35555.16
313.741	35551.38
313.807	35592.52
313.872	35627.99
313.937	35670.35
314.003	35721.01
314.068	35747.45
314.133	35781.9
314.198	35791.9
314.264	35768.02
314.329	35776.03
314.394	35785.68
314.459	35797.96
314.525	35879.72
314.59	35903.25
314.655	35899.61
314.72	35945.95
314.785	35980.69
314.851	35999.81
314.916	35972.88
314.981	35948.95
315.046	35956.43
315.111	35963.85
315.176	35967.83
315.242	36007.87
315.307	36022.23
315.372	36006.12
315.437	36007.43
315.502	36011.27
315.567	36056.35
315.632	36041.45
315.698	36061.84
315.763	36069.31
315.828	36074.89
315.893	36082.17
315.958	36091.73
316.023	36095.81
316.088	36060.91
316.153	36021.76
316.218	36016.81
316.283	35992.84
316.348	35978.05
316.413	35963.88
316.479	35935.21
316.544	35851.47
316.609	35761.56
316.674	35660.22
316.739	35565
316.804	35481.7
316.869	35366.01
316.934	35264.85
316.999	35177.05
317.064	35034.44
317.129	34900.66
317.194	34785.24
317.259	34628.17
317.324	34472.34
317.389	34328.22
317.454	34198.6
317.518	34080.74
317.583	33980.74
317.648	33873.54
317.713	33742.16
317.778	33560.96
317.843	33441.7
317.908	33297.59
317.973	33159.35
318.038	33061.4
318.103	32923.18
318.168	32790.3
318.233	32671.89
318.297	32486.77
318.362	32339.64
318.427	32189.93
318.492	32085.48
318.557	31921.9
318.622	31805.12
318.687	31687.28
318.751	31531.4
318.816	31391.74
318.881	31252.27
318.946	31053.94
319.011	30886.84
319.075	30715.41
319.14	30570.35
319.205	30391.29
319.27	30243.69
319.335	30066.47
319.399	29884.3
319.464	29756.4
319.529	29554.09
319.594	29389.2
319.658	29259.89
319.723	29089.82
319.788	28935.51
319.853	28719.31
319.917	28566.76
319.982	28352.65
320.047	28191.94
320.112	28048.76
320.176	27840.43
320.241	27668.36
320.306	27506.79
320.37	27326.84
320.435	27173.04
320.5	27028.32
320.564	26858.51
320.629	26680.77
320.694	26516.98
320.758	26325.26
320.823	26123.87
320.888	25976.36
320.952	25771.45
321.017	25573.45
321.082	25381.27
321.146	25213.62
321.211	25033.2
321.275	24845.89
321.34	24655.05
321.405	24459.17
321.469	24261.92
321.534	24072.46
321.598	23861.54
321.663	23692.66
321.727	23525.21
321.792	23307.37
321.857	23100.58
321.921	22905.48
321.986	22714.12
322.05	22485.16
322.115	22314.3
322.179	22113.27
322.244	21878.27
322.308	21703.38
322.373	21499.72
322.437	21308.03
322.502	21152.13
322.566	20955.92
322.631	20774.5
322.695	20585.91
322.76	20379.59
322.824	20193.8
322.889	19991.82
322.953	19778.72
323.018	19522.66
323.082	19265.6
323.146	19047
323.211	18821.75
323.275	18617.95
323.34	18405.18
323.404	18225.04
323.468	18005.86
323.533	17795.98
323.597	17591.25
323.662	17367.39
323.726	17176.73
323.79	16959.76
323.855	16699.07
323.919	16473.95
323.983	16257.55
324.048	15945.07
324.112	16004.82
324.177	15351.66
324.241	14512.64
324.305	13693.93
324.37	12882.64
324.434	12093.63
324.498	11870.89
324.562	11622.09
324.627	11337.38
324.691	11054.37
324.755	10731.23
324.82	10376.95
324.884	10004.09
324.948	9620.82
325.012	9152.16
325.077	8579.7
