Data from 20250626_urea_1M_exp2_MAYP1162681_02-03-58-068.txt Node
Date: Fri Jun 27 02:03:58 BST 2025
User: adleo
Spectrometer: MAYP116268
Trigger mode: 0
Integration Time (sec): 3.000000E0
Scans to average: 1
Electric dark correction enabled: true
Nonlinearity correction enabled: true
Boxcar width: 10
XAxis mode: Wavelengths
Number of Pixels in Spectrum: 2068
>>>>>Begin Spectral Data<<<<<
179.565	2775.63
179.642	2919.08
179.718	3025.01
179.795	3128
179.871	3207.74
179.948	3252.87
180.024	3306.97
180.101	3362.37
180.177	3394.02
180.254	3451.73
180.33	3508.97
180.407	3699.34
180.483	3916.74
180.56	4135.01
180.636	4334.27
180.712	4306.46
180.789	4320.33
180.865	4355.28
180.942	4374.36
181.018	4405.69
181.095	4440.05
181.171	4449.81
181.248	4452.97
181.324	4493.85
181.4	4510.07
181.477	4535.91
181.553	4565.56
181.63	4615.1
181.706	4655.83
181.782	4680.89
181.859	4685.39
181.935	4700.13
182.011	4689.17
182.088	4729.05
182.164	4778.01
182.24	4813.47
182.317	4833.8
182.393	4832.7
182.469	4858.89
182.546	4897.29
182.622	4905.42
182.698	4899.25
182.775	4934.15
182.851	4968.39
182.927	4951.1
183.003	4934.35
183.08	4923.63
183.156	4952.07
183.232	4945.46
183.308	4920.51
183.385	4938.32
183.461	4975.82
183.537	4977.11
183.613	5007.33
183.69	4982.76
183.766	4957.65
183.842	4973.21
183.918	4989.06
183.995	5019.42
184.071	5032.02
184.147	5013.82
184.223	4984.63
184.299	5011.41
184.375	4981.39
184.452	4994.18
184.528	5095.72
184.604	5128.8
184.68	5156.48
184.756	5171.81
184.832	5181.49
184.908	5193.79
184.985	5195.9
185.061	5155.38
185.137	5179.29
185.213	5155.87
185.289	5158.27
185.365	5137.87
185.441	5134.85
185.517	5167.35
185.593	5159.11
185.669	5156.09
185.745	5179.66
185.822	5220.63
185.898	5197.78
185.974	5225.21
186.05	5208.63
186.126	5144.99
186.202	5125.17
186.278	5116.74
186.354	5091.92
186.43	5108.65
186.506	5105.68
186.582	5106.3
186.658	5127.08
186.734	5077.32
186.81	5082.25
186.886	5091.35
186.962	5115.72
187.038	5102.46
187.114	5083.47
187.19	5100.24
187.266	5071.56
187.341	5081.29
187.417	5066.49
187.493	5069.12
187.569	5074.49
187.645	5055.81
187.721	5026.68
187.797	5047.89
187.873	5058.09
187.949	5044.5
188.025	5030.36
188.101	5033.33
188.176	5040.99
188.252	5027.58
188.328	5047.11
188.404	5043.95
188.48	5034.76
188.556	5022.01
188.632	5025.18
188.707	5022.35
188.783	5020.19
188.859	5014.26
188.935	4982.2
189.011	4998.25
189.086	4984.6
189.162	4963
189.238	4963.24
189.314	4959.02
189.39	4943.94
189.465	4925.93
189.541	4968.56
189.617	4929.39
189.693	4918.33
189.768	4934.48
189.844	4990.11
189.92	4966
189.996	4989.7
190.071	5013.65
190.147	5010.25
190.223	5031.04
190.298	5014.71
190.374	4982.38
190.45	5011.68
190.526	5029.74
190.601	5019.87
190.677	5021.02
190.753	5092.36
190.828	5099.11
190.904	5134.81
190.98	5167.34
191.055	5186.83
191.131	5162.78
191.207	5213.64
191.282	5235.86
191.358	5205.92
191.433	5174.71
191.509	5211.76
191.585	5204.81
191.66	5208.17
191.736	5230.25
191.811	5209.36
191.887	5249.67
191.963	5303.48
192.038	5312.58
192.114	5316.37
192.189	5327.19
192.265	5322.22
192.34	5262.13
192.416	5260.69
192.491	5246.5
192.567	5260.31
192.642	5277.14
192.718	5286.77
192.793	5259.12
192.869	5244.42
192.944	5251.22
193.02	5268.86
193.095	5274.13
193.171	5289.32
193.246	5292.53
193.322	5286.2
193.397	5288.93
193.473	5255.18
193.548	5212.34
193.624	5225.23
193.699	5219.68
193.775	5256.35
193.85	5261.76
193.925	5284.76
194.001	5282.18
194.076	5266.32
194.152	5235.64
194.227	5214.7
194.302	5185.15
194.378	5191.38
194.453	5192.29
194.529	5222.23
194.604	5186.11
194.679	5175.57
194.755	5127.58
194.83	5156.59
194.905	5151.32
194.981	5172.41
195.056	5152.92
195.131	5169.59
195.207	5160.86
195.282	5138.78
195.357	5089.99
195.433	5124.43
195.508	5096.64
195.583	5117.91
195.659	5154.76
195.734	5170.77
195.809	5169.29
195.884	5190.93
195.96	5191.17
196.035	5223.74
196.11	5219.91
196.185	5251.67
196.261	5256.37
196.336	5334.76
196.411	5293.57
196.486	5302.39
196.561	5286.77
196.637	5313.73
196.712	5353.82
196.787	5365.56
196.862	5406.96
196.937	5431.73
197.013	5446.74
197.088	5467.72
197.163	5515.68
197.238	5552.06
197.313	5556.33
197.388	5592.19
197.464	5670.23
197.539	5700.91
197.614	5685.67
197.689	5713.48
197.764	5753.15
197.839	5805.75
197.914	5784.22
197.989	5842.58
198.065	5879.02
198.14	6006.77
198.215	6068.03
198.29	6096.21
198.365	6133.15
198.44	6160.98
198.515	6232.48
198.59	6267.28
198.665	6336.67
198.74	6357.36
198.815	6363.22
198.89	6423.26
198.965	6492.22
199.04	6476.42
199.115	6516.97
199.19	6624.82
199.265	6629.96
199.34	6650.8
199.415	6729.31
199.49	6790.84
199.565	6813.94
199.64	6880.07
199.715	6867.66
199.79	6880.82
199.865	6892.4
199.94	6886.98
200.015	6961.73
200.09	6970.48
200.165	6988.06
200.24	6998.72
200.315	7095.33
200.39	7134.87
200.464	7142.56
200.539	7147.94
200.614	7190.6
200.689	7250.82
200.764	7265.72
200.839	7311.78
200.914	7322.63
200.989	7296.43
201.063	7328.73
201.138	7288.54
201.213	7282.87
201.288	7234.1
201.363	7249.96
201.438	7255.97
201.512	7291.79
201.587	7245.56
201.662	7259.35
201.737	7293.43
201.812	7324.14
201.886	7249.21
201.961	7277.96
202.036	7249.63
202.111	7240.49
202.186	7162.24
202.26	7112.39
202.335	7057.95
202.41	7043.2
202.485	7004.3
202.559	6957.75
202.634	6889.73
202.709	6907.78
202.784	6859.51
202.858	6864.21
202.933	6817.86
203.008	6799.32
203.082	6755.53
203.157	6756.63
203.232	6648.45
203.306	6589.74
203.381	6502.99
203.456	6441.72
203.53	6376.73
203.605	6327.56
203.68	6271.09
203.754	6260.73
203.829	6226.5
203.904	6178.42
203.978	6144.66
204.053	6157.53
204.127	6129.41
204.202	6120.06
204.277	6078.85
204.351	6059.13
204.426	6036.08
204.5	6015.36
204.575	5925.11
204.65	5942.73
204.724	5919.44
204.799	5943.98
204.873	5938.12
204.948	5938.74
205.022	5909.11
205.097	5887.22
205.171	5924.05
205.246	5944.93
205.32	5941.34
205.395	5939.85
205.469	5919.1
205.544	5937.15
205.618	5888.26
205.693	5913.98
205.767	5886.45
205.842	5938.95
205.916	5926.91
205.991	5902.64
206.065	5916.55
206.14	5956.22
206.214	5947.58
206.289	5927.47
206.363	5952.32
206.438	5953.38
206.512	5968.25
206.586	6014.96
206.661	6035.51
206.735	5978.75
206.81	5977.98
206.884	6020.33
206.958	5981.92
207.033	6022
207.107	6034.49
207.181	6114.78
207.256	6102.31
207.33	6154.94
207.405	6180.49
207.479	6226.36
207.553	6245.5
207.628	6205.51
207.702	6235.54
207.776	6223.06
207.851	6235.3
207.925	6280.73
207.999	6273.1
208.073	6264.32
208.148	6269.36
208.222	6240.36
208.296	6319.79
208.371	6362.59
208.445	6384.49
208.519	6458.81
208.593	6487.7
208.668	6475.94
208.742	6484.25
208.816	6489.39
208.89	6518.83
208.965	6517.15
209.039	6537.61
209.113	6581.59
209.187	6635.12
209.261	6626.62
209.336	6673.49
209.41	6723.24
209.484	6720.79
209.558	6779.24
209.632	6812.51
209.707	6839.45
209.781	6892.61
209.855	6933.94
209.929	6976.02
210.003	6990.81
210.077	6990.57
210.151	7109.84
210.226	7201.66
210.3	7268.13
210.374	7321.48
210.448	7331.82
210.522	7359.27
210.596	7381.47
210.67	7403.58
210.744	7521.51
210.818	7603.08
210.892	7655.25
210.966	7644.34
211.041	7678.37
211.115	7670.78
211.189	7732.21
211.263	7775.14
211.337	7794.12
211.411	7825.96
211.485	7810.52
211.559	7844.31
211.633	7849.64
211.707	7771.94
211.781	7785.7
211.855	7699.62
211.929	7679.68
212.003	7636.11
212.077	7664.83
212.151	7700.42
212.225	7726.43
212.299	7694.09
212.373	7661.98
212.447	7645.39
212.52	7709.87
212.594	7720.88
212.668	7746.22
212.742	7712.46
212.816	7697.7
212.89	7685.25
212.964	7684.24
213.038	7689.24
213.112	7715.07
213.186	7748.95
213.26	7695.53
213.333	7578.19
213.407	7589.34
213.481	7601.54
213.555	7628.58
213.629	7596.74
213.703	7546.59
213.777	7541.59
213.85	7488.94
213.924	7568.05
213.998	7565.07
214.072	7547.9
214.146	7501.84
214.219	7491.45
214.293	7483
214.367	7486.12
214.441	7503.24
214.515	7465.05
214.588	7398.67
214.662	7301.64
214.736	7244.71
214.81	7253.59
214.883	7273.56
214.957	7237.78
215.031	7196
215.105	7128.13
215.178	7076.86
215.252	7054.71
215.326	6980.86
215.4	6925.74
215.473	6794.1
215.547	6738.93
215.621	6685.95
215.694	6690.76
215.768	6619.29
215.842	6566.13
215.915	6511.6
215.989	6428.98
216.063	6385.22
216.136	6377.1
216.21	6364.15
216.284	6372.93
216.357	6357.43
216.431	6323.2
216.504	6319.27
216.578	6359.22
216.652	6367.09
216.725	6355.47
216.799	6362
216.873	6346.45
216.946	6352.83
217.02	6326.17
217.093	6301.98
217.167	6237.38
217.24	6175.01
217.314	6148.92
217.387	6115.16
217.461	6082.72
217.535	6098.37
217.608	6057.2
217.682	6035.94
217.755	6045.82
217.829	6006.09
217.902	5993.46
217.976	5980.9
218.049	5946.17
218.123	5889.95
218.196	5893.59
218.27	5864.95
218.343	5812.92
218.417	5815.22
218.49	5792.87
218.563	5825.92
218.637	5830.96
218.71	5882.54
218.784	5907.49
218.857	5934.59
218.931	5950.5
219.004	5956.88
219.077	5970.85
219.151	5985.77
219.224	5975.26
219.298	5969.45
219.371	6002.95
219.444	5977.68
219.518	5983.48
219.591	5999.31
219.665	6074.12
219.738	6080.31
219.811	6067.27
219.885	6101.82
219.958	6123.37
220.031	6131.62
220.105	6149.09
220.178	6156.58
220.251	6138.14
220.325	6155.19
220.398	6160.03
220.471	6174.33
220.544	6202.07
220.618	6184.59
220.691	6203.11
220.764	6218.23
220.838	6242.28
220.911	6232.29
220.984	6298.13
221.057	6328.12
221.131	6341.89
221.204	6273.79
221.277	6328.04
221.35	6422.86
221.424	6416.95
221.497	6422.09
221.57	6440.27
221.643	6462.03
221.716	6495.02
221.79	6500.97
221.863	6506.83
221.936	6518.5
222.009	6533.95
222.082	6558.78
222.155	6568.72
222.229	6615.26
222.302	6638.78
222.375	6642.19
222.448	6671.63
222.521	6674.17
222.594	6675.85
222.667	6661.7
222.74	6704.09
222.814	6696.98
222.887	6680.06
222.96	6717.86
223.033	6752.12
223.106	6768.82
223.179	6796.36
223.252	6806.26
223.325	6828.64
223.398	6840.17
223.471	6868.12
223.544	6883.29
223.617	6893.24
223.69	6910.86
223.763	6885.78
223.837	6901.73
223.91	6923.3
223.983	6888.96
224.056	6865.43
224.129	6883.68
224.202	6919.25
224.275	6909.64
224.348	6885.53
224.42	6861.8
224.493	6824.72
224.566	6804.83
224.639	6822.36
224.712	6795.06
224.785	6783.72
224.858	6781.03
224.931	6766.28
225.004	6732.18
225.077	6727.38
225.15	6661.32
225.223	6661.6
225.296	6722.31
225.369	6681.06
225.442	6657.19
225.514	6670.92
225.587	6680.09
225.66	6687.83
225.733	6690.18
225.806	6697.14
225.879	6696.76
225.952	6672.09
226.025	6702.77
226.097	6741.23
226.17	6732.44
226.243	6683.61
226.316	6676.02
226.389	6672.56
226.461	6690.44
226.534	6705.08
226.607	6699.46
226.68	6756.69
226.753	6751.55
226.825	6690.93
226.898	6733.82
226.971	6741.6
227.044	6754.95
227.117	6764.17
227.189	6777.72
227.262	6806.78
227.335	6819.95
227.407	6817.21
227.48	6845.44
227.553	6850.05
227.626	6836.69
227.698	6847.78
227.771	6880.47
227.844	6865.24
227.916	6879.7
227.989	6852.13
228.062	6851.94
228.134	6916.8
228.207	6922.28
228.28	6913.3
228.352	6918.1
228.425	6929.59
228.498	6960.87
228.57	6951.84
228.643	6993.12
228.716	6993.27
228.788	6987.88
228.861	6983.75
228.934	7035.59
229.006	7040.82
229.079	7054.62
229.151	7046.3
229.224	7018.69
229.296	7033.1
229.369	7116.16
229.442	7160.14
229.514	7145.88
229.587	7182.64
229.659	7126.65
229.732	7136.6
229.804	7169.6
229.877	7229.26
229.949	7246.81
230.022	7285.13
230.094	7283.4
230.167	7277.68
230.239	7243.96
230.312	7230.17
230.384	7283.25
230.457	7280.12
230.529	7283.2
230.602	7270.65
230.674	7275.31
230.747	7305.23
230.819	7332.62
230.892	7238.81
230.964	7231.02
231.037	7251.95
231.109	7239.17
231.181	7272.61
231.254	7241.14
231.326	7233.69
231.399	7220.99
231.471	7201.28
231.544	7141.18
231.616	7173.8
231.688	7178.61
231.761	7168.19
231.833	7163.77
231.905	7101.23
231.978	7096.71
232.05	7087.97
232.122	7099.12
232.195	7080.91
232.267	7108.73
232.339	7091
232.412	7145.13
232.484	7129.36
232.556	7109.34
232.629	7161.8
232.701	7173.67
232.773	7184
232.846	7172.52
232.918	7170.69
232.99	7182.8
233.062	7215.44
233.135	7224.38
233.207	7197.94
233.279	7236.46
233.351	7263.03
233.424	7264.14
233.496	7248.52
233.568	7316.01
233.64	7287.9
233.713	7300.44
233.785	7300.63
233.857	7314.18
233.929	7276.75
234.001	7326.58
234.074	7377.02
234.146	7321.83
234.218	7319.04
234.29	7317.36
234.362	7313.08
234.434	7280.83
234.507	7254.39
234.579	7213.64
234.651	7197.59
234.723	7219.55
234.795	7230.85
234.867	7225.08
234.939	7269.64
235.012	7280.07
235.084	7280.74
235.156	7308.22
235.228	7293.28
235.3	7279.68
235.372	7290.3
235.444	7334.85
235.516	7274.39
235.588	7276.65
235.66	7295.25
235.732	7273.34
235.804	7422.06
235.876	7456.37
235.948	7507.58
236.02	7516.27
236.092	7530.25
236.164	7544.24
236.236	7543.32
236.308	7541.45
236.38	7556.3
236.452	7540.29
236.524	7560.29
236.596	7609.71
236.668	7637.75
236.74	7659.18
236.812	7678.74
236.884	7697.55
236.956	7706.15
237.028	7699.62
237.1	7684.19
237.172	7731.9
237.244	7794.99
237.316	7708.38
237.388	7692.85
237.46	7674.72
237.532	7721.45
237.604	7719.1
237.675	7770.7
237.747	7806.97
237.819	7797.11
237.891	7803.99
237.963	7799.95
238.035	7792.98
238.107	7712.44
238.178	7756.13
238.25	7763.87
238.322	7832.68
238.394	7801.04
238.466	7798.59
238.538	7833.25
238.609	7870.36
238.681	7835.44
238.753	7817.54
238.825	7831.98
238.897	7856.25
238.968	7918.61
239.04	7905.29
239.112	7985.75
239.184	7957.12
239.255	7950.58
239.327	7974.37
239.399	7991.35
239.471	8026.65
239.542	8053.53
239.614	8098.98
239.686	8040.04
239.758	8084.05
239.829	8055.7
239.901	8105.77
239.973	8122.12
240.044	8144.06
240.116	8152.43
240.188	8159.49
240.259	8170.75
240.331	8160.5
240.403	8187.58
240.474	8147.44
240.546	8143.45
240.618	8099.72
240.689	8099.67
240.761	8114.05
240.833	8163.12
240.904	8161.68
240.976	8158.51
241.048	8169.96
241.119	8195.37
241.191	8225
241.262	8265.77
241.334	8272.84
241.405	8276.93
241.477	8274.62
241.549	8285.11
241.62	8309.75
241.692	8348.48
241.763	8390.78
241.835	8404.01
241.906	8416.72
241.978	8398.48
242.049	8450.4
242.121	8496.2
242.192	8545.04
242.264	8520.07
242.335	8489.37
242.407	8527.05
242.478	8534.79
242.55	8553.37
242.621	8538.44
242.693	8543.21
242.764	8537.62
242.836	8539.88
242.907	8568.86
242.979	8595.52
243.05	8608.7
243.122	8624.15
243.193	8617.8
243.264	8566.65
243.336	8576.46
243.407	8601.59
243.479	8657.89
243.55	8666.7
243.622	8673.82
243.693	8674.5
243.764	8730.12
243.836	8711.61
243.907	8702.13
243.978	8706.41
244.05	8724.27
244.121	8694
244.192	8723.7
244.264	8687.41
244.335	8690.15
244.407	8643.27
244.478	8653.96
244.549	8646.64
244.62	8612.57
244.692	8608.62
244.763	8641.15
244.834	8622.24
244.906	8607.75
244.977	8625.95
245.048	8668.52
245.119	8650.86
245.191	8632.28
245.262	8583.38
245.333	8641.17
245.405	8650.31
245.476	8675.96
245.547	8687.81
245.618	8732.94
245.689	8739.78
245.761	8760.96
245.832	8768.32
245.903	8801.91
245.974	8823.43
246.045	8834.16
246.117	8894.52
246.188	8887.06
246.259	8875.71
246.33	8902.42
246.401	8912.04
246.473	8882.24
246.544	8867.31
246.615	8913.09
246.686	8923.78
246.757	8986.78
246.828	8966.81
246.899	9025.31
246.97	8999.9
247.042	8989.26
247.113	9020.41
247.184	9082.5
247.255	9084.62
247.326	9104.89
247.397	9118.22
247.468	9125.97
247.539	9140.61
247.61	9108.45
247.681	9146.04
247.752	9180.02
247.823	9156.63
247.894	9166.01
247.965	9145.03
248.037	9132.94
248.108	9090.77
248.179	9091.25
248.25	9074.3
248.321	9103.33
248.392	9065.33
248.463	9127.62
248.534	9128.92
248.605	9143.32
248.675	9132
248.746	9148.27
248.817	9163.64
248.888	9180.78
248.959	9139.62
249.03	9153.87
249.101	9161.24
249.172	9148.09
249.243	9098.47
249.314	9149.21
249.385	9160.19
249.456	9190.03
249.527	9187.77
249.598	9208.08
249.669	9210.15
249.739	9217.57
249.81	9220.6
249.881	9192.24
249.952	9181.6
250.023	9172.65
250.094	9135.47
250.165	9110.62
250.235	9104.12
250.306	9105.8
250.377	9081.39
250.448	9105.31
250.519	9059.92
250.59	9100.17
250.66	9099.4
250.731	9150.13
250.802	9144.4
250.873	9154.8
250.944	9167.13
251.014	9160.43
251.085	9228.3
251.156	9245.48
251.227	9295.57
251.297	9339.35
251.368	9375.74
251.439	9414.08
251.51	9460.36
251.58	9450.49
251.651	9446.35
251.722	9489.21
251.792	9446.21
251.863	9441.93
251.934	9482.81
252.005	9568.43
252.075	9576.38
252.146	9611.96
252.217	9653.47
252.287	9683.43
252.358	9689.5
252.429	9748.5
252.499	9743.59
252.57	9751.25
252.641	9787.8
252.711	9788.53
252.782	9754.57
252.852	9813.44
252.923	9805.2
252.994	9813.19
253.064	9844.35
253.135	9826.77
253.205	9807.6
253.276	9870.83
253.347	9924.66
253.417	9909.16
253.488	9895.47
253.558	9890.42
253.629	9894.56
253.699	9903.81
253.77	9924.57
253.841	9917.97
253.911	9925.59
253.982	9940.27
254.052	9963.55
254.123	9974.34
254.193	9975.16
254.264	10076.14
254.334	10047.04
254.405	10023.39
254.475	9999.26
254.546	10003.06
254.616	10054.12
254.687	10078.2
254.757	10088.37
254.827	10085.23
254.898	10107.97
254.968	10111.25
255.039	10092.51
255.109	10115.05
255.18	10097.9
255.25	10052.57
255.321	10080.22
255.391	10046.79
255.461	10113.65
255.532	10049.81
255.602	10038.15
255.673	9997.16
255.743	9974.56
255.813	9924.53
255.884	9960.7
255.954	9989.55
256.024	10046.64
256.095	10049.48
256.165	10033.01
256.235	10049.63
256.306	10038.65
256.376	10075.7
256.446	10115.79
256.517	10147.77
256.587	10182.07
256.657	10195.37
256.728	10214.78
256.798	10213.96
256.868	10211.41
256.938	10191.22
257.009	10229.52
257.079	10253.46
257.149	10328.13
257.219	10284.47
257.29	10316.64
257.36	10274.01
257.43	10308.61
257.5	10261.83
257.571	10255.13
257.641	10276.85
257.711	10255.46
257.781	10279.31
257.852	10291.31
257.922	10241.92
257.992	10240.53
258.062	10237.15
258.132	10266.25
258.202	10266.78
258.273	10288.22
258.343	10347.1
258.413	10332.99
258.483	10339.11
258.553	10315.6
258.623	10293.14
258.693	10307.93
258.764	10356.83
258.834	10415.16
258.904	10422.05
258.974	10405.05
259.044	10410.54
259.114	10430.88
259.184	10450.78
259.254	10463.01
259.324	10419.89
259.394	10450.05
259.464	10514.57
259.535	10521.6
259.605	10522.71
259.675	10518.33
259.745	10538.71
259.815	10518.33
259.885	10525.5
259.955	10612.88
260.025	10611.78
260.095	10625.99
260.165	10652.01
260.235	10697.22
260.305	10687.15
260.375	10665.75
260.445	10743.56
260.515	10785.81
260.585	10822.63
260.655	10834.25
260.725	10862.15
260.795	10892.89
260.865	10946.52
260.934	10920.26
261.004	10942.42
261.074	10939.77
261.144	10984.53
261.214	11013.01
261.284	11016.44
261.354	11046.31
261.424	11009.29
261.494	11062.86
261.564	11068.45
261.634	11088.21
261.703	11041.37
261.773	11060.02
261.843	11087.2
261.913	11082.38
261.983	11052.16
262.053	11071.3
262.123	11065.61
262.192	11039.88
262.262	11062.14
262.332	11024.6
262.402	11050.29
262.472	11062.24
262.541	11021.63
262.611	11058.54
262.681	11038.83
262.751	11070.25
262.821	11077.14
262.89	11051.07
262.96	11068.42
263.03	11126.35
263.1	11149.29
263.169	11169.39
263.239	11190.4
263.309	11241.2
263.379	11267.75
263.448	11288.28
263.518	11307.61
263.588	11323.03
263.657	11376.52
263.727	11410.69
263.797	11424.19
263.867	11426.84
263.936	11392.33
264.006	11438.58
264.076	11430.63
264.145	11436.66
264.215	11421.76
264.285	11452.7
264.354	11421.67
264.424	11416.8
264.494	11377.96
264.563	11369.14
264.633	11418.25
264.702	11437.58
264.772	11399.59
264.842	11391.93
264.911	11415.79
264.981	11385.03
265.05	11392.07
265.12	11396.99
265.19	11408.6
265.259	11444.08
265.329	11464.46
265.398	11481.81
265.468	11560.09
265.537	11560.09
265.607	11581.29
265.676	11619.9
265.746	11632.96
265.815	11682.94
265.885	11693.15
265.955	11689.63
266.024	11696.48
266.094	11652.91
266.163	11695.42
266.232	11749.94
266.302	11764.06
266.371	11776.64
266.441	11792.79
266.51	11838.33
266.58	11841.27
266.649	11829.95
266.719	11870.44
266.788	11900.95
266.858	11959.27
266.927	11910.01
266.996	11929.43
267.066	11963.08
267.135	11943.65
267.205	11971.47
267.274	11988.1
267.343	12027.33
267.413	12038.13
267.482	12080.64
267.552	12133.56
267.621	12104.35
267.69	12065.94
267.76	12085.94
267.829	12109.56
267.898	12119.87
267.968	12099.92
268.037	12122.52
268.106	12160.12
268.176	12133.27
268.245	12136.7
268.314	12131.3
268.384	12175.98
268.453	12197.57
268.522	12208.03
268.592	12261.44
268.661	12257.2
268.73	12287.13
268.799	12279.61
268.869	12344.54
268.938	12312.97
269.007	12303.62
269.076	12323.24
269.146	12371.29
269.215	12392.94
269.284	12449.96
269.353	12454.93
269.422	12460.04
269.492	12458.11
269.561	12402.39
269.63	12434.88
269.699	12437.14
269.768	12456.18
269.838	12481.97
269.907	12513.69
269.976	12489.49
270.045	12446.16
270.114	12478.94
270.183	12478.84
270.253	12504.54
270.322	12473.64
270.391	12497.26
270.46	12554.77
270.529	12590.82
270.598	12623.99
270.667	12628.71
270.736	12603.89
270.806	12633.97
270.875	12681.4
270.944	12696.87
271.013	12791.16
271.082	12814.11
271.151	12842.74
271.22	12817.29
271.289	12821.19
271.358	12833.39
271.427	12866.84
271.496	12889.4
271.565	12886.12
271.634	12906.52
271.703	13002.88
271.772	13048.96
271.841	13060.73
271.91	13045.59
271.979	13059.28
272.048	13044.05
272.117	13083.48
272.186	13089.46
272.255	13127.54
272.324	13163.5
272.393	13188.04
272.462	13185.63
272.531	13201.44
272.6	13217.25
272.669	13276.45
272.738	13283.39
272.807	13307.15
272.876	13303.3
272.945	13412.24
273.013	13463.97
273.082	13515.5
273.151	13454.23
273.22	13482.58
273.289	13500.37
273.358	13566.07
273.427	13579.38
273.496	13613.65
273.564	13643.06
273.633	13687.94
273.702	13684.42
273.771	13698.25
273.84	13719.71
273.909	13754.8
273.977	13783.68
274.046	13789.12
274.115	13835.06
274.184	13831.59
274.253	13848.56
274.322	13906.31
274.39	13860.47
274.459	13856.37
274.528	13828.31
274.597	13846.2
274.665	13869.82
274.734	13926.03
274.803	13928.29
274.872	13941.6
274.94	13950.37
275.009	14119.6
275.078	14118.44
275.147	14143.22
275.215	14162.6
275.284	14224.5
275.353	14238.72
275.421	14221.03
275.49	14292.95
275.559	14295.31
275.627	14326.45
275.696	14346.55
275.765	14381.74
275.833	14406.04
275.902	14442.72
275.971	14505.1
276.039	14575.38
276.108	14618.04
276.177	14645.42
276.245	14655.88
276.314	14689.1
276.383	14729.88
276.451	14614.69
276.52	14666.75
276.588	14725.22
276.657	14775.07
276.725	14779.55
276.794	14812.13
276.863	14871.91
276.931	14851.23
277	14909.75
277.068	14968.85
277.137	15041.1
277.205	15073.16
277.274	15146.47
277.342	15207.5
277.411	15196.84
277.48	15200.8
277.548	15206.34
277.617	15245.48
277.685	15265.15
277.754	15312.82
277.822	15335.62
277.89	15391.77
277.959	15398.91
278.027	15398.42
278.096	15402.33
278.164	15503.74
278.233	15520.13
278.301	15534.97
278.37	15589.54
278.438	15581.25
278.507	15618.75
278.575	15589.88
278.643	15615.09
278.712	15609.45
278.78	15605.25
278.849	15663.1
278.917	15721.85
278.985	15757.66
279.054	15797.62
279.122	15863.8
279.191	15899.13
279.259	15921.44
279.327	15903.13
279.396	15979.24
279.464	16008.35
279.532	16072.89
279.601	16092.84
279.669	16119.59
279.737	16190.82
279.806	16231.74
279.874	16304.14
279.942	16339.95
280.011	16370.41
280.079	16417.55
280.147	16495.05
280.215	16538.43
280.284	16561.18
280.352	16562.77
280.42	16615.06
280.488	16629.23
280.557	16649.62
280.625	16698
280.693	16731.45
280.761	16780.71
280.83	16773.48
280.898	16841.24
280.966	16822.74
281.034	16783.75
281.102	16783.22
281.171	16799.65
281.239	16847.7
281.307	16854.45
281.375	16862.59
281.443	16964.52
281.512	16990.79
281.58	17036.57
281.648	17042.4
281.716	17076.96
281.784	17110.45
281.852	17123.8
281.92	17156.09
281.989	17211.42
282.057	17193.3
282.125	17304.48
282.193	17339.08
282.261	17376.24
282.329	17395.27
282.397	17440.67
282.465	17481.73
282.533	17560.39
282.601	17564.48
282.67	17549.69
282.738	17563.47
282.806	17626.22
282.874	17625.26
282.942	17669.35
283.01	17693.88
283.078	17740.58
283.146	17773.49
283.214	17830.55
283.282	17884.24
283.35	17948.19
283.418	17962.98
283.486	18017.15
283.554	17989.97
283.622	18021.1
283.69	18064.09
283.758	18087.85
283.826	18139.99
283.894	18204.13
283.962	18281.67
284.03	18360.85
284.098	18415.88
284.165	18455.73
284.233	18493.13
284.301	18515.59
284.369	18536.74
284.437	18549.46
284.505	18570.62
284.573	18648.11
284.641	18661.75
284.709	18713.31
284.777	18709.94
284.845	18773.84
284.912	18822.6
284.98	18875.66
285.048	18904.53
285.116	18956.19
285.184	19030.98
285.252	19074.25
285.319	19072.95
285.387	19093.91
285.455	19092.03
285.523	19135.36
285.591	19165.43
285.659	19208.32
285.726	19273.76
285.794	19273.57
285.862	19307.93
285.93	19351.54
285.997	19379.73
286.065	19406.57
286.133	19410.43
286.201	19441.12
286.269	19443.53
286.336	19460.16
286.404	19475.1
286.472	19532.2
286.539	19519.72
286.607	19511.82
286.675	19549.5
286.743	19605.79
286.81	19627.67
286.878	19687.76
286.946	19702.31
287.013	19739.76
287.081	19764.72
287.149	19767.56
287.216	19856.57
287.284	19887.27
287.352	19921.53
287.419	19947.22
287.487	20025.87
287.555	20072.13
287.622	20108.81
287.69	20158.73
287.758	20223.99
287.825	20248.03
287.893	20259.55
287.96	20303.79
288.028	20381.24
288.096	20418.88
288.163	20467.84
288.231	20479.41
288.298	20520.71
288.366	20592.37
288.433	20614.16
288.501	20633.05
288.569	20683.41
288.636	20704.47
288.704	20765.87
288.771	20837.88
288.839	20857.97
288.906	20870.31
288.974	20936.87
289.041	20967.04
289.109	20972.2
289.176	21025.89
289.244	21078.23
289.311	21145.28
289.379	21214.44
289.446	21249.87
289.514	21295.99
289.581	21324.82
289.649	21372.29
289.716	21415.28
289.783	21438.61
289.851	21541.66
289.918	21587.88
289.986	21645.19
290.053	21693.06
290.121	21727.52
290.188	21765.31
290.255	21869.39
290.323	21894.89
290.39	21922.51
290.458	21979.19
290.525	22058.63
290.592	22080.13
290.66	22127.56
290.727	22150.7
290.794	22225.67
290.862	22258.98
290.929	22292
290.996	22347.2
291.064	22404.61
291.131	22463.09
291.198	22532.71
291.266	22557.2
291.333	22596.49
291.4	22648.08
291.468	22729.76
291.535	22758.3
291.602	22811.14
291.669	22831.39
291.737	22882.25
291.804	22919.38
291.871	23003.42
291.938	23057.57
292.006	23164.44
292.073	23227.6
292.14	23296.65
292.207	23310.78
292.275	23344.73
292.342	23408.43
292.409	23500.45
292.476	23591.84
292.543	23607.37
292.611	23639.06
292.678	23717.86
292.745	23823.67
292.812	23876.72
292.879	23896.25
292.946	23941.82
293.014	23997.05
293.081	24047.12
293.148	24122.83
293.215	24203.15
293.282	24214.87
293.349	24275.31
293.416	24267.49
293.484	24334.55
293.551	24399.67
293.618	24483.46
293.685	24595.83
293.752	24616.23
293.819	24644.36
293.886	24661.83
293.953	24728.97
294.02	24793.48
294.087	24839.61
294.154	24855.14
294.221	24944.52
294.288	24991.42
294.356	25072.32
294.423	25123.04
294.49	25151.07
294.557	25219.5
294.624	25228.57
294.691	25324.01
294.758	25356.97
294.825	25412.51
294.892	25434.23
294.959	25465.26
295.026	25520.19
295.093	25530.86
295.16	25578.92
295.226	25619.08
295.293	25717.75
295.36	25764.28
295.427	25837.66
295.494	25915.97
295.561	25985.33
295.628	26074.5
295.695	26146.82
295.762	26204.31
295.829	26272.15
295.896	26347.84
295.963	26413.27
296.03	26486.31
296.096	26541.26
296.163	26623.74
296.23	26705.63
296.297	26787.71
296.364	26827.4
296.431	26884.73
296.498	26923.31
296.564	27026.54
296.631	27084.35
296.698	27080.1
296.765	27172.97
296.832	27190.31
296.899	27205.62
296.965	27294.7
297.032	27270.35
297.099	27368.19
297.166	27438.19
297.233	27480.95
297.299	27518.09
297.366	27569.41
297.433	27624.34
297.5	27688.22
297.566	27732.62
297.633	27781.62
297.7	27830.66
297.767	27878.44
297.833	27931.31
297.9	27975.65
297.967	27975.7
298.033	28043.02
298.1	28162.69
298.167	28182.65
298.234	28241.46
298.3	28300.37
298.367	28317.86
298.434	28387.86
298.5	28391.53
298.567	28414.73
298.634	28453.64
298.7	28539.15
298.767	28578.74
298.834	28642.84
298.9	28666.82
298.967	28682.24
299.033	28737.31
299.1	28805.93
299.167	28885.64
299.233	28920.11
299.3	29006.6
299.366	29103.38
299.433	29186.28
299.5	29173.95
299.566	29226.12
299.633	29304.51
299.699	29367.82
299.766	29415.25
299.832	29468.85
299.899	29534.15
299.965	29610.08
300.032	29640.49
300.099	29687.95
300.165	29745.56
300.232	29779.23
300.298	29825.76
300.365	29909.72
300.431	29954.96
300.498	29974.07
300.564	30031.35
300.631	30094.68
300.697	30161.74
300.763	30186.13
300.83	30226.93
300.896	30298.49
300.963	30379.44
301.029	30426.87
301.096	30478.8
301.162	30535.8
301.229	30562.37
301.295	30580.61
301.361	30624.7
301.428	30683.15
301.494	30702.36
301.561	30742.34
301.627	30797.37
301.693	30836.18
301.76	30884.2
301.826	30915.22
301.892	30995.48
301.959	31045.78
302.025	31088.48
302.092	31111.28
302.158	31181.76
302.224	31209.46
302.291	31223.45
302.357	31243.3
302.423	31272.16
302.49	31295.69
302.556	31369.05
302.622	31403.76
302.688	31473.49
302.755	31546.23
302.821	31600.6
302.887	31666.35
302.954	31698.85
303.02	31754.59
303.086	31819.18
303.152	31849.59
303.219	31877.87
303.285	31917.98
303.351	31969.23
303.417	32017.33
303.483	32045.42
303.55	32067.45
303.616	32111.83
303.682	32156.57
303.748	32182.05
303.815	32250.16
303.881	32323.75
303.947	32333.25
304.013	32379.65
304.079	32397.28
304.145	32390.64
304.212	32429.73
304.278	32432.74
304.344	32469.02
304.41	32474.06
304.476	32483.12
304.542	32504.82
304.608	32565.77
304.674	32561.16
304.741	32582.15
304.807	32610.88
304.873	32652.06
304.939	32725.72
305.005	32710.41
305.071	32733.8
305.137	32769.17
305.203	32752.06
305.269	32769.12
305.335	32818.95
305.401	32851.12
305.467	32883.15
305.533	32934.72
305.599	32981.77
305.666	33045.74
305.732	33081.69
305.798	33133.45
305.864	33239.75
305.93	33288.31
305.996	33319.57
306.062	33370.7
306.128	33407.06
306.194	33415.64
306.259	33445.49
306.325	33455.77
306.391	33519.94
306.457	33581.39
306.523	33625.31
306.589	33718.87
306.655	33736.37
306.721	33728.52
306.787	33719.36
306.853	33794.94
306.919	33775.07
306.985	33787.53
307.051	33806.19
307.117	33822.43
307.183	33848.52
307.248	33811.57
307.314	33860.2
307.38	33880.51
307.446	33927.84
307.512	33925.07
307.578	33962.74
307.644	33989.7
307.709	34030.04
307.775	34049.78
307.841	34069.61
307.907	34099.81
307.973	34069.7
308.039	34093.75
308.104	34146.55
308.17	34208.94
308.236	34197.25
308.302	34255.82
308.368	34265.03
308.433	34288.59
308.499	34307.6
308.565	34318.27
308.631	34342.51
308.696	34316.86
308.762	34325.44
308.828	34342.18
308.894	34333.5
308.959	34314.35
309.025	34327.88
309.091	34345.43
309.156	34363.91
309.222	34402.91
309.288	34412.27
309.354	34394.62
309.419	34425.51
309.485	34417.46
309.551	34449.28
309.616	34445.59
309.682	34463.54
309.748	34472.27
309.813	34497
309.879	34515.33
309.945	34512.08
310.01	34532.94
310.076	34572.7
310.141	34591.52
310.207	34583.18
310.273	34622.16
310.338	34669.2
310.404	34666.67
310.469	34653.87
310.535	34654.16
310.601	34633.98
310.666	34672.35
310.732	34739.47
310.797	34751.98
310.863	34763.19
310.928	34777.45
310.994	34801.94
311.059	34821.1
311.125	34850.4
311.191	34910.61
311.256	34905.85
311.322	34953.24
311.387	34941.21
311.453	36020.7
311.518	36025.55
311.584	36052.33
311.649	36099.04
311.715	36101.95
311.78	36127.9
311.846	36129.69
311.911	36172.28
311.976	36197.7
312.042	36188.39
312.107	36175.09
312.173	36168.06
312.238	36182.37
312.304	36199.3
312.369	36220.55
312.434	36216.09
312.5	36226.13
312.565	36173.63
312.631	36210.93
312.696	36220.24
312.761	36256.38
312.827	35205.22
312.892	35295.91
312.958	35307.7
313.023	35326.92
313.088	35344.38
313.154	35341.66
313.219	35362.62
313.284	35367.86
313.35	35376.79
313.415	35373.88
313.48	35391.44
313.546	35431.42
313.611	35482.75
313.676	35479.3
313.741	35472.12
313.807	35511.86
313.872	35540.48
313.937	35580.32
314.003	35635.78
314.068	35667.13
314.133	35707.35
314.198	35713.17
314.264	35679.88
314.329	35689.58
314.394	35703.36
314.459	35728.83
314.525	35795.6
314.59	35813.94
314.655	35811.66
314.72	35852.76
314.785	35891.91
314.851	35906.17
314.916	35888.9
314.981	35862.11
315.046	35874.83
315.111	35899.09
315.176	35902.82
315.242	35941.16
315.307	35961.88
315.372	35939.41
315.437	35935.05
315.502	35936.99
315.567	35979.25
315.632	35973.77
315.698	36003.66
315.763	36008.42
315.828	36010.46
315.893	36007.93
315.958	36009.83
316.023	36004.54
316.088	35973.38
316.153	35937.34
316.218	35925.64
316.283	35895.52
316.348	35875.53
316.413	35869.71
316.479	35824.54
316.544	35741.73
316.609	35653.91
316.674	35563.63
316.739	35464.29
316.804	35374.45
316.869	35271.61
316.934	35174.63
316.999	35071.41
317.064	34914.8
317.129	34791.69
317.194	34663.76
317.259	34523.11
317.324	34374.69
317.389	34236.45
317.454	34109.46
317.518	33993.87
317.583	33905.28
317.648	33797.5
317.713	33672.96
317.778	33479.83
317.843	33358.5
317.908	33232.36
317.973	33100.58
318.038	32981.16
318.103	32848.13
318.168	32726.55
318.233	32601.49
318.297	32425.33
318.362	32289.69
318.427	32156.71
318.492	32037.34
318.557	31886.36
318.622	31769.73
318.687	31653.05
318.751	31499.45
318.816	31356.47
318.881	31208.18
318.946	31009.18
319.011	30837.15
319.075	30663.84
319.14	30528.26
319.205	30357.68
319.27	30204.8
319.335	30026.46
319.399	29853.93
319.464	29715.02
319.529	29518.03
319.594	29345.4
319.658	29194.63
319.723	29020.12
319.788	28867.78
319.853	28655.86
319.917	28510.27
319.982	28298.25
320.047	28122.51
320.112	27984.98
320.176	27795.36
320.241	27632.8
320.306	27469.46
320.37	27297.24
320.435	27131.47
320.5	26964.64
320.564	26788.32
320.629	26601.11
320.694	26441
320.758	26254.87
320.823	26064.6
320.888	25908.35
320.952	25711.37
321.017	25528.82
321.082	25349.92
321.146	25172.33
321.211	25004.65
321.275	24811.79
321.34	24625.24
321.405	24429.87
321.469	24219.44
321.534	24027.28
321.598	23802.65
321.663	23640.58
321.727	23475.58
321.792	23274.11
321.857	23079.53
321.921	22901.36
321.986	22707.3
322.05	22474.1
322.115	22282.46
322.179	22084.52
322.244	21859.11
322.308	21683.55
322.373	21475.51
322.437	21271.18
322.502	21122.18
322.566	20915.55
322.631	20730.38
322.695	20536.63
322.76	20338.41
322.824	20157.63
322.889	19945.78
322.953	19743.76
323.018	19483.94
323.082	19224.23
323.146	19004.08
323.211	18779.7
323.275	18562.02
323.34	18347.51
323.404	18162.65
323.468	17952.67
323.533	17736.87
323.597	17525.53
323.662	17290.15
323.726	17110.34
323.79	16894.43
323.855	16626.56
323.919	16408.81
323.983	16193.08
324.048	15880.98
324.112	15984.74
324.177	15334.32
324.241	14501.66
324.305	13678.85
324.37	12868.87
324.434	12079.71
324.498	11858.61
324.562	11611.47
324.627	11331.35
324.691	11059.19
324.755	10748.45
324.82	10401.94
324.884	10039.05
324.948	9659.02
325.012	9211.19
325.077	8632.43
