Data from 20250626_urea_1M_exp2_MAYP1162681_03-14-00-692.txt Node
Date: Fri Jun 27 03:14:00 BST 2025
User: adleo
Spectrometer: MAYP116268
Trigger mode: 0
Integration Time (sec): 3.000000E0
Scans to average: 1
Electric dark correction enabled: true
Nonlinearity correction enabled: true
Boxcar width: 10
XAxis mode: Wavelengths
Number of Pixels in Spectrum: 2068
>>>>>Begin Spectral Data<<<<<
179.565	2741.46
179.642	2879.68
179.718	2987.2
179.795	3088.12
179.871	3171.5
179.948	3219.61
180.024	3277.64
180.101	3337.15
180.177	3372.91
180.254	3427.48
180.33	3481.02
180.407	3668.61
180.483	3879.84
180.56	4097.87
180.636	4296.03
180.712	4263
180.789	4283.77
180.865	4321
180.942	4345.82
181.018	4375.47
181.095	4411.08
181.171	4422.08
181.248	4426.96
181.324	4471.05
181.4	4484.69
181.477	4511.68
181.553	4541.95
181.63	4588.95
181.706	4623.75
181.782	4646.94
181.859	4654.31
181.935	4675.71
182.011	4667.47
182.088	4710.17
182.164	4755.82
182.24	4784.57
182.317	4810.7
182.393	4807.68
182.469	4835.83
182.546	4867.28
182.622	4881.02
182.698	4869.77
182.775	4905.2
182.851	4940.25
182.927	4917.26
183.003	4908.65
183.08	4893.48
183.156	4916.6
183.232	4913.58
183.308	4890.22
183.385	4906.2
183.461	4943.32
183.537	4939.34
183.613	4971.24
183.69	4947.92
183.766	4923.53
183.842	4945.41
183.918	4960.31
183.995	4988.6
184.071	5001.87
184.147	4987.75
184.223	4956.31
184.299	4985.91
184.375	4955.17
184.452	4972.04
184.528	5076.69
184.604	5108.24
184.68	5136.77
184.756	5157.76
184.832	5165.04
184.908	5176.39
184.985	5177.44
185.061	5136.31
185.137	5155.95
185.213	5125.3
185.289	5128.07
185.365	5106.67
185.441	5105.14
185.517	5135.58
185.593	5128.15
185.669	5118.66
185.745	5141.61
185.822	5182.2
185.898	5162.46
185.974	5185.15
186.05	5158.65
186.126	5091.9
186.202	5071.59
186.278	5065.51
186.354	5039.68
186.43	5053.77
186.506	5051
186.582	5048.94
186.658	5068.42
186.734	5022.75
186.81	5030.69
186.886	5040.41
186.962	5072.59
187.038	5061.43
187.114	5039.43
187.19	5056.53
187.266	5032.64
187.341	5034.94
187.417	5018.61
187.493	5020.38
187.569	5028.76
187.645	5018.04
187.721	4991.64
187.797	5011.56
187.873	5021.38
187.949	5006.39
188.025	4990.15
188.101	4992.59
188.176	5005.37
188.252	4991.06
188.328	5010.39
188.404	5008.24
188.48	4996.13
188.556	4974.28
188.632	4974.43
188.707	4979.41
188.783	4975.77
188.859	4964.43
188.935	4937.27
189.011	4958.77
189.086	4944.7
189.162	4924.29
189.238	4924.34
189.314	4916.49
189.39	4896.66
189.465	4879.99
189.541	4923.34
189.617	4888.68
189.693	4879.06
189.768	4891.37
189.844	4952.42
189.92	4934.19
189.996	4959.43
190.071	4988.21
190.147	4991.03
190.223	5011.87
190.298	4992.23
190.374	4956.32
190.45	4986.47
190.526	5006.35
190.601	4989.34
190.677	4988.34
190.753	5061.74
190.828	5067.24
190.904	5103.85
190.98	5146.53
191.055	5173.46
191.131	5150.12
191.207	5200.94
191.282	5223.73
191.358	5194.46
191.433	5161.62
191.509	5193.02
191.585	5180.47
191.66	5184.31
191.736	5201.31
191.811	5177.93
191.887	5212.87
191.963	5277.17
192.038	5287.66
192.114	5291.87
192.189	5308.49
192.265	5299.45
192.34	5240.37
192.416	5237.64
192.491	5229.92
192.567	5239.23
192.642	5241.48
192.718	5241.05
192.793	5211.29
192.869	5201.43
192.944	5210.67
193.02	5230.99
193.095	5241.77
193.171	5261.46
193.246	5258.54
193.322	5252.84
193.397	5256.28
193.473	5228.1
193.548	5183.14
193.624	5202.17
193.699	5196.28
193.775	5231.37
193.85	5239.32
193.925	5261.7
194.001	5257.15
194.076	5237.22
194.152	5206.88
194.227	5189.29
194.302	5167.07
194.378	5176.6
194.453	5167.17
194.529	5198.13
194.604	5160.99
194.679	5149.83
194.755	5102.42
194.83	5133.49
194.905	5130.23
194.981	5156.3
195.056	5136
195.131	5148.26
195.207	5142.07
195.282	5114.68
195.357	5066.13
195.433	5108.57
195.508	5074.99
195.583	5096.68
195.659	5134.02
195.734	5149.11
195.809	5144.18
195.884	5166.68
195.96	5165.34
196.035	5206.2
196.11	5196.13
196.185	5223.34
196.261	5226.89
196.336	5299.95
196.411	5258.53
196.486	5269.84
196.561	5247.56
196.637	5274.81
196.712	5312.68
196.787	5317.19
196.862	5360.44
196.937	5382.58
197.013	5393.8
197.088	5418.81
197.163	5470.55
197.238	5510.96
197.313	5512.16
197.388	5549.45
197.464	5627.87
197.539	5655.72
197.614	5636.84
197.689	5666.04
197.764	5706.04
197.839	5757.97
197.914	5747.13
197.989	5808.13
198.065	5843.09
198.14	5970.29
198.215	6035.82
198.29	6071.29
198.365	6107.13
198.44	6134.76
198.515	6203.38
198.59	6237.45
198.665	6307.99
198.74	6327.15
198.815	6325.51
198.89	6382.14
198.965	6449.55
199.04	6433.7
199.115	6476.08
199.19	6585.6
199.265	6592.99
199.34	6615.75
199.415	6694.59
199.49	6746.24
199.565	6771.6
199.64	6827.25
199.715	6820.33
199.79	6829.21
199.865	6835.02
199.94	6830.56
200.015	6908.53
200.09	6924.77
200.165	6939.9
200.24	6953.45
200.315	7054.04
200.39	7090.03
200.464	7106.17
200.539	7112.94
200.614	7159.06
200.689	7213.94
200.764	7228.55
200.839	7273.59
200.914	7282.96
200.989	7258.35
201.063	7295.35
201.138	7246.48
201.213	7253.88
201.288	7205.79
201.363	7220.54
201.438	7227.65
201.512	7267.41
201.587	7224.25
201.662	7236.07
201.737	7270.92
201.812	7296.39
201.886	7213.48
201.961	7242.95
202.036	7214.04
202.111	7210.72
202.186	7129.06
202.26	7082.24
202.335	7025.78
202.41	7009.64
202.485	6971.66
202.559	6920.12
202.634	6853.3
202.709	6879.55
202.784	6824.55
202.858	6820.81
202.933	6772.98
203.008	6751.84
203.082	6700.08
203.157	6697.73
203.232	6590.21
203.306	6530.26
203.381	6444.81
203.456	6387.92
203.53	6327.69
203.605	6273.59
203.68	6212.55
203.754	6198.26
203.829	6161.88
203.904	6114.28
203.978	6085.9
204.053	6096.56
204.127	6069.36
204.202	6060.34
204.277	6017.21
204.351	6000.22
204.426	5982.32
204.5	5962.99
204.575	5872.66
204.65	5899.54
204.724	5878.7
204.799	5895.04
204.873	5883.91
204.948	5877.96
205.022	5847.99
205.097	5824.76
205.171	5862.64
205.246	5885.25
205.32	5888.41
205.395	5888.84
205.469	5869.19
205.544	5878.6
205.618	5832.93
205.693	5860.95
205.767	5828.97
205.842	5882.61
205.916	5869.04
205.991	5842.47
206.065	5854.94
206.14	5896.95
206.214	5885.14
206.289	5862.59
206.363	5894.01
206.438	5909.51
206.512	5935.18
206.586	5984.15
206.661	6008.49
206.735	5950.82
206.81	5951.92
206.884	5985.11
206.958	5952.6
207.033	5992.39
207.107	6008.38
207.181	6087.33
207.256	6073.13
207.33	6122.91
207.405	6152.41
207.479	6202.41
207.553	6229.22
207.628	6188.61
207.702	6218.98
207.776	6197.48
207.851	6209.23
207.925	6246.74
207.999	6227.35
208.073	6213.24
208.148	6219.33
208.222	6186.21
208.296	6266.63
208.371	6304.92
208.445	6328.3
208.519	6402.72
208.593	6431.57
208.668	6424.6
208.742	6430.71
208.816	6436.8
208.89	6470.76
208.965	6466.77
209.039	6486.99
209.113	6520.98
209.187	6575.12
209.261	6574.69
209.336	6629.13
209.41	6679.56
209.484	6684.31
209.558	6747.8
209.632	6784.1
209.707	6814.55
209.781	6872.41
209.855	6913.59
209.929	6956.96
210.003	6977.9
210.077	6971.71
210.151	7093.71
210.226	7180.43
210.3	7245.93
210.374	7302.89
210.448	7315.25
210.522	7339.09
210.596	7363.65
210.67	7391.37
210.744	7518.97
210.818	7591.18
210.892	7642.81
210.966	7632.39
211.041	7667.14
211.115	7656.04
211.189	7719.2
211.263	7759.44
211.337	7772.8
211.411	7809.93
211.485	7792.47
211.559	7821.16
211.633	7831.97
211.707	7748.98
211.781	7764.76
211.855	7683.74
211.929	7660.77
212.003	7613.6
212.077	7643.52
212.151	7668.86
212.225	7689.78
212.299	7655.9
212.373	7628.16
212.447	7612.53
212.52	7682.01
212.594	7690.14
212.668	7719.94
212.742	7677.92
212.816	7663.49
212.89	7651.95
212.964	7641.61
213.038	7651.86
213.112	7680.62
213.186	7708.4
213.26	7656.76
213.333	7537.17
213.407	7547.83
213.481	7555.86
213.555	7584.53
213.629	7547.01
213.703	7504.99
213.777	7498.21
213.85	7442.58
213.924	7518.13
213.998	7512.84
214.072	7488.84
214.146	7445.57
214.219	7432.83
214.293	7423.41
214.367	7420.19
214.441	7436.58
214.515	7403.6
214.588	7335.15
214.662	7246.62
214.736	7196.27
214.81	7207.07
214.883	7229.06
214.957	7193.37
215.031	7154.81
215.105	7088.34
215.178	7044.18
215.252	7018.29
215.326	6949.39
215.4	6891.59
215.473	6764.03
215.547	6705.03
215.621	6655.51
215.694	6663.44
215.768	6592.46
215.842	6543.01
215.915	6491.55
215.989	6409.33
216.063	6368.69
216.136	6358.03
216.21	6338.25
216.284	6342.05
216.357	6325.92
216.431	6296.54
216.504	6294.09
216.578	6333.57
216.652	6342.77
216.725	6323.86
216.799	6331.11
216.873	6314.41
216.946	6323.14
217.02	6294.99
217.093	6275.41
217.167	6208.08
217.24	6136.6
217.314	6112.33
217.387	6082.22
217.461	6053.47
217.535	6072.91
217.608	6025.6
217.682	6003.72
217.755	6008.76
217.829	5971.61
217.902	5956.4
217.976	5941.44
218.049	5906.22
218.123	5844.92
218.196	5840.99
218.27	5814.32
218.343	5760.57
218.417	5762.73
218.49	5739.75
218.563	5771.93
218.637	5776.06
218.71	5829.32
218.784	5854.93
218.857	5875.99
218.931	5888.79
219.004	5892
219.077	5902.94
219.151	5920.01
219.224	5915.51
219.298	5915.51
219.371	5945.59
219.444	5918.41
219.518	5922.92
219.591	5931.16
219.665	6011.73
219.738	6021.85
219.811	6010.54
219.885	6047.82
219.958	6071.19
220.031	6074.02
220.105	6090.34
220.178	6099.31
220.251	6080.3
220.325	6102.92
220.398	6113.86
220.471	6128.29
220.544	6153.44
220.618	6141.63
220.691	6163.22
220.764	6173.83
220.838	6198.98
220.911	6190.34
220.984	6251.36
221.057	6284.42
221.131	6302.65
221.204	6232.83
221.277	6286.74
221.35	6382.75
221.424	6373.05
221.497	6380.16
221.57	6399.01
221.643	6420
221.716	6451.21
221.79	6459.61
221.863	6462.25
221.936	6472
222.009	6485.14
222.082	6507.43
222.155	6515.39
222.229	6560.35
222.302	6586.32
222.375	6585.5
222.448	6614.07
222.521	6621.9
222.594	6623.39
222.667	6607.7
222.74	6652.11
222.814	6646.73
222.887	6632.02
222.96	6672.12
223.033	6705.65
223.106	6732.29
223.179	6755.89
223.252	6760.5
223.325	6778.75
223.398	6783.84
223.471	6808.14
223.544	6823.74
223.617	6833.25
223.69	6853.13
223.763	6826.52
223.837	6843.96
223.91	6865.62
223.983	6834.07
224.056	6811.65
224.129	6822.45
224.202	6868.63
224.275	6859.12
224.348	6837.75
224.42	6816.99
224.493	6778.24
224.566	6760.84
224.639	6765.21
224.712	6745.6
224.785	6739.07
224.858	6735.23
224.931	6726.01
225.004	6692.92
225.077	6693.5
225.15	6623.61
225.223	6617.36
225.296	6677.49
225.369	6630.92
225.442	6609.54
225.514	6619.86
225.587	6635.42
225.66	6641.09
225.733	6636.28
225.806	6642.91
225.879	6636.24
225.952	6609.35
226.025	6647.05
226.097	6685.02
226.17	6683.82
226.243	6632.41
226.316	6630.97
226.389	6629.48
226.461	6648.89
226.534	6668.95
226.607	6664.77
226.68	6732.17
226.753	6732.31
226.825	6674.06
226.898	6719.29
226.971	6718.42
227.044	6730.23
227.117	6736.86
227.189	6749.31
227.262	6778.42
227.335	6795.28
227.407	6798.64
227.48	6822.07
227.553	6828.75
227.626	6813.89
227.698	6819.56
227.771	6856.52
227.844	6844.94
227.916	6865.31
227.989	6838.94
228.062	6840.14
228.134	6902.27
228.207	6900.2
228.28	6890.6
228.352	6901.26
228.425	6915.3
228.498	6956.52
228.57	6946.1
228.643	6989.21
228.716	6999.4
228.788	6993.05
228.861	6985.56
228.934	7030.52
229.006	7037.1
229.079	7036.33
229.151	7027.53
229.224	7004.58
229.296	7019.81
229.369	7092.01
229.442	7130.7
229.514	7119.09
229.587	7149.3
229.659	7098.07
229.732	7109.32
229.804	7142.75
229.877	7194.86
229.949	7209.33
230.022	7240.21
230.094	7242.65
230.167	7231.6
230.239	7196.38
230.312	7182.11
230.384	7236.68
230.457	7233.08
230.529	7245.23
230.602	7248.02
230.674	7256.04
230.747	7283.8
230.819	7305.04
230.892	7221.56
230.964	7217.14
231.037	7236.77
231.109	7230.77
231.181	7260.27
231.254	7234.61
231.326	7217.31
231.399	7206.15
231.471	7183.04
231.544	7128.71
231.616	7163.06
231.688	7167.24
231.761	7158.21
231.833	7160.66
231.905	7096.1
231.978	7097.21
232.05	7076.55
232.122	7077.42
232.195	7056.85
232.267	7082.75
232.339	7066.41
232.412	7113.63
232.484	7090.22
232.556	7073.94
232.629	7125.1
232.701	7133.08
232.773	7139.28
232.846	7134.86
232.918	7134.62
232.99	7150.67
233.062	7185.23
233.135	7196.81
233.207	7172.2
233.279	7205.63
233.351	7227.11
233.424	7232.49
233.496	7211.69
233.568	7278.44
233.64	7255.76
233.713	7267.3
233.785	7272.2
233.857	7287
233.929	7243.86
234.001	7297.68
234.074	7346.05
234.146	7289.65
234.218	7287.35
234.29	7290.81
234.362	7285.76
234.434	7251.97
234.507	7229.72
234.579	7185.12
234.651	7168.78
234.723	7190.41
234.795	7203.53
234.867	7194.64
234.939	7232.22
235.012	7247.6
235.084	7250.24
235.156	7275.71
235.228	7259.28
235.3	7243.32
235.372	7250.29
235.444	7298.72
235.516	7241.01
235.588	7242.84
235.66	7253.26
235.732	7235.43
235.804	7383.2
235.876	7416.35
235.948	7463.51
236.02	7467.69
236.092	7484.65
236.164	7491.86
236.236	7495.37
236.308	7496.52
236.38	7521.76
236.452	7513.59
236.524	7525.65
236.596	7572.67
236.668	7602.43
236.74	7626.26
236.812	7645.59
236.884	7671.51
236.956	7683.82
237.028	7671.52
237.1	7657.67
237.172	7714.13
237.244	7768.51
237.316	7678.53
237.388	7667.67
237.46	7645.36
237.532	7694.2
237.604	7687.62
237.675	7740.23
237.747	7767.5
237.819	7757.02
237.891	7757.17
237.963	7747.41
238.035	7746.54
238.107	7664.52
238.178	7704.46
238.25	7708.07
238.322	7775.18
238.394	7745.13
238.466	7740.8
238.538	7778.24
238.609	7808.67
238.681	7771.15
238.753	7754.37
238.825	7769.67
238.897	7792.36
238.968	7858.17
239.04	7846.97
239.112	7929.25
239.184	7900.29
239.255	7901.25
239.327	7921.87
239.399	7937.21
239.471	7972.89
239.542	7999.34
239.614	8048.78
239.686	7991.43
239.758	8029.18
239.829	7997.08
239.901	8045.08
239.973	8055.47
240.044	8074.42
240.116	8086.73
240.188	8093.85
240.259	8104.48
240.331	8093.8
240.403	8116.98
240.474	8079.3
240.546	8068.19
240.618	8025.47
240.689	8026
240.761	8039.52
240.833	8093.11
240.904	8092.39
240.976	8086.47
241.048	8098.11
241.119	8129.83
241.191	8167.39
241.262	8220.87
241.334	8226.79
241.405	8222.94
241.477	8230.2
241.549	8240.64
241.62	8260.32
241.692	8296.21
241.763	8342.36
241.835	8362.76
241.906	8380.23
241.978	8363.73
242.049	8413.81
242.121	8457.73
242.192	8512.97
242.264	8487.57
242.335	8450.13
242.407	8481.7
242.478	8490.26
242.55	8502.72
242.621	8489.53
242.693	8484.82
242.764	8480.72
242.836	8479.09
242.907	8501.32
242.979	8528.55
243.05	8543.86
243.122	8560.65
243.193	8558.1
243.264	8505.65
243.336	8505.89
243.407	8530.97
243.479	8588.13
243.55	8602.48
243.622	8608.21
243.693	8598.92
243.764	8651.41
243.836	8636.65
243.907	8630.97
243.978	8629.72
244.05	8652.25
244.121	8616.69
244.192	8648.64
244.264	8607.34
244.335	8622.22
244.407	8588.77
244.478	8593.68
244.549	8588.67
244.62	8561.39
244.692	8557.68
244.763	8596.51
244.834	8583.71
244.906	8569.94
244.977	8584.87
245.048	8621.61
245.119	8614.44
245.191	8599.28
245.262	8550.58
245.333	8609.57
245.405	8622.22
245.476	8648.64
245.547	8658.17
245.618	8696.47
245.689	8704.03
245.761	8730.45
245.832	8733.54
245.903	8768.23
245.974	8792.4
246.045	8801.93
246.117	8860.99
246.188	8851.22
246.259	8838.9
246.33	8859.6
246.401	8859.93
246.473	8829.12
246.544	8823.39
246.615	8859.79
246.686	8870.95
246.757	8928.8
246.828	8913.06
246.899	8970.84
246.97	8946.26
247.042	8950.01
247.113	8985.11
247.184	9055.48
247.255	9053.7
247.326	9074.83
247.397	9076.23
247.468	9076.9
247.539	9090.05
247.61	9048.98
247.681	9085.36
247.752	9123.73
247.823	9105.87
247.894	9119.93
247.965	9109.29
248.037	9099.52
248.108	9065.48
248.179	9062.88
248.25	9051.57
248.321	9073.71
248.392	9038.45
248.463	9104.78
248.534	9095.88
248.605	9109.89
248.675	9084.5
248.746	9097.26
248.817	9103.37
248.888	9120.08
248.959	9081.14
249.03	9095.82
249.101	9106.41
249.172	9091.93
249.243	9034.31
249.314	9083.95
249.385	9090.83
249.456	9106.28
249.527	9096.94
249.598	9110.27
249.669	9110.51
249.739	9121.92
249.81	9128.81
249.881	9100.55
249.952	9090.87
250.023	9085.19
250.094	9047.34
250.165	9022.58
250.235	9014.74
250.306	9025.28
250.377	9002.13
250.448	9027.49
250.519	8983.2
250.59	9031.69
250.66	9030.68
250.731	9083.14
250.802	9086.13
250.873	9100.38
250.944	9119.54
251.014	9113.96
251.085	9174.88
251.156	9197.69
251.227	9243.45
251.297	9285.97
251.368	9320.97
251.439	9355.7
251.51	9390.27
251.58	9379.49
251.651	9380.5
251.722	9428.27
251.792	9398.61
251.863	9404.1
251.934	9447.77
252.005	9526.02
252.075	9524.14
252.146	9560.68
252.217	9600.84
252.287	9629.74
252.358	9632.49
252.429	9680.99
252.499	9675.02
252.57	9691.11
252.641	9730.21
252.711	9731.37
252.782	9694.43
252.852	9750.79
252.923	9751.22
252.994	9772.37
253.064	9806.89
253.135	9791.14
253.205	9770.38
253.276	9820.47
253.347	9868.67
253.417	9851.81
253.488	9837.17
253.558	9835.77
253.629	9838.42
253.699	9850.66
253.77	9865.98
253.841	9864.15
253.911	9875.42
253.982	9888.37
254.052	9912.37
254.123	9913.67
254.193	9916.95
254.264	10015.61
254.334	9987.38
254.405	9957.76
254.475	9924.91
254.546	9929.78
254.616	9971
254.687	9995.81
254.757	10008.86
254.827	10009.34
254.898	10026.92
254.968	10039.4
255.039	10024.28
255.109	10047.83
255.18	10019.55
255.25	9966.09
255.321	9993.83
255.391	9971.62
255.461	10037.37
255.532	9973.72
255.602	9976.66
255.673	9932.69
255.743	9907.63
255.813	9852.59
255.884	9896.81
255.954	9928.74
256.024	9983.08
256.095	9990.79
256.165	9963.77
256.235	9982.75
256.306	9969.26
256.376	10008.24
256.446	10034.69
256.517	10059.06
256.587	10093.8
256.657	10111.57
256.728	10131.12
256.798	10124.76
256.868	10113.73
256.938	10095.91
257.009	10135.36
257.079	10150.92
257.149	10225.35
257.219	10192.15
257.29	10223.69
257.36	10176.19
257.43	10211.85
257.5	10159.53
257.571	10147.73
257.641	10181.97
257.711	10152.97
257.781	10176.62
257.852	10186.16
257.922	10146.56
257.992	10149.26
258.062	10141.65
258.132	10176.14
258.202	10180.72
258.273	10202.21
258.343	10267.63
258.413	10249.04
258.483	10246.63
258.553	10226.11
258.623	10207.65
258.693	10220.81
258.764	10270.86
258.834	10328.37
258.904	10337.53
258.974	10330.35
259.044	10343.79
259.114	10361.76
259.184	10391.92
259.254	10401.66
259.324	10363.06
259.394	10395.39
259.464	10450.36
259.535	10462.94
259.605	10458.8
259.675	10456.44
259.745	10493.44
259.815	10468.05
259.885	10473.78
259.955	10560.77
260.025	10562.07
260.095	10574.89
260.165	10597.1
260.235	10645.2
260.305	10634.5
260.375	10616.72
260.445	10690.53
260.515	10735.39
260.585	10770.13
260.655	10777.75
260.725	10814.37
260.795	10849.54
260.865	10908.33
260.934	10889.39
261.004	10915.03
261.074	10922.84
261.144	10960.7
261.214	10977.04
261.284	10976.7
261.354	11013.75
261.424	10983.29
261.494	11035.61
261.564	11039.28
261.634	11066.94
261.703	11020.24
261.773	11038.02
261.843	11059.95
261.913	11050.41
261.983	11014.51
262.053	11036
262.123	11029.64
262.192	10996.01
262.262	11027.19
262.332	10986.61
262.402	11012.54
262.472	11017.93
262.541	10975
262.611	11019.87
262.681	11003.92
262.751	11039.48
262.821	11041.07
262.89	11011.05
262.96	11038.57
263.03	11097.32
263.1	11111.58
263.169	11127.53
263.239	11148.25
263.309	11200.6
263.379	11228.65
263.448	11247.39
263.518	11264.6
263.588	11277.85
263.657	11334.09
263.727	11359.29
263.797	11376.64
263.867	11376.98
263.936	11343.97
264.006	11387.72
264.076	11379.43
264.145	11379.91
264.215	11366.66
264.285	11397.5
264.354	11370.27
264.424	11357.98
264.494	11319.13
264.563	11308.1
264.633	11360.63
264.702	11388.54
264.772	11351.47
264.842	11350.99
264.911	11381.01
264.981	11347.66
265.05	11362.41
265.12	11359.32
265.19	11368.24
265.259	11397.25
265.329	11426.75
265.398	11448.34
265.468	11528.4
265.537	11524.45
265.607	11549.07
265.676	11591.82
265.746	11614.48
265.815	11657.41
265.885	11661.03
265.955	11651.34
266.024	11659.3
266.094	11627.19
266.163	11667.06
266.232	11715.36
266.302	11723.6
266.371	11738.2
266.441	11753.62
266.51	11789.05
266.58	11792.09
266.649	11784.57
266.719	11823.23
266.788	11846.89
266.858	11903.05
266.927	11853.83
266.996	11884.49
267.066	11913.31
267.135	11894.85
267.205	11922.33
267.274	11945.75
267.343	11986.14
267.413	12006.87
267.482	12057.38
267.552	12099.6
267.621	12062.58
267.69	12019.2
267.76	12039.69
267.829	12068.9
267.898	12082.78
267.968	12076.66
268.037	12109.1
268.106	12146.46
268.176	12125.58
268.245	12133.73
268.314	12130.94
268.384	12175.28
268.453	12180.87
268.522	12195.48
268.592	12238.81
268.661	12229.12
268.73	12248.64
268.799	12242.76
268.869	12300.8
268.938	12262.04
269.007	12263.2
269.076	12289.86
269.146	12343.65
269.215	12368.91
269.284	12419.76
269.353	12424.87
269.422	12425.02
269.492	12420.29
269.561	12358.16
269.63	12383.9
269.699	12386.6
269.768	12407.96
269.838	12419.67
269.907	12460.21
269.976	12441.03
270.045	12399.67
270.114	12432.54
270.183	12447.44
270.253	12471.98
270.322	12440.16
270.391	12465.66
270.46	12517.24
270.529	12545.54
270.598	12581.74
270.667	12585.69
270.736	12558.79
270.806	12588.29
270.875	12638.76
270.944	12646.81
271.013	12751.9
271.082	12775.76
271.151	12798.03
271.22	12765.78
271.289	12778.08
271.358	12782.12
271.427	12812.49
271.496	12845.61
271.565	12840.55
271.634	12854.24
271.703	12953.54
271.772	13001.6
271.841	13010.86
271.91	12982.75
271.979	13003.38
272.048	12982.99
272.117	13023.78
272.186	13028.79
272.255	13064.17
272.324	13091.22
272.393	13126.94
272.462	13116.76
272.531	13134.89
272.6	13151.23
272.669	13214.09
272.738	13230.87
272.807	13263.55
272.876	13257.19
272.945	13363.82
273.013	13419.16
273.082	13473.25
273.151	13407.06
273.22	13435.41
273.289	13457.92
273.358	13520.97
273.427	13533.36
273.496	13574.44
273.564	13602.44
273.633	13656.72
273.702	13654.36
273.771	13671.09
273.84	13695.58
273.909	13728.55
273.977	13763.69
274.046	13772.37
274.115	13818.36
274.184	13803.61
274.253	13822.41
274.322	13884.21
274.39	13836.15
274.459	13831.81
274.528	13797.49
274.597	13821.11
274.665	13855.91
274.734	13909.66
274.803	13926
274.872	13946.44
274.94	13948.18
275.009	14052.83
275.078	14041.35
275.147	14070.86
275.215	14095.92
275.284	14148.56
275.353	14168.62
275.421	14137.09
275.49	14207.71
275.559	14216.97
275.627	14255.15
275.696	14265.17
275.765	14290.77
275.833	14307.74
275.902	14337.91
275.971	14392.73
276.039	14456.64
276.108	14494.05
276.177	14526.44
276.245	14529.39
276.314	14553.05
276.383	14602.85
276.451	14542.65
276.52	14590.03
276.588	14646.96
276.657	14686.2
276.725	14695.31
276.794	14726.98
276.863	14800.2
276.931	14778.75
277	14829.37
277.068	14890.35
277.137	14967.33
277.205	15001.69
277.274	15080.65
277.342	15143.8
277.411	15142.79
277.48	15147.99
277.548	15156.23
277.617	15183.47
277.685	15216.01
277.754	15269.37
277.822	15276.79
277.89	15338.49
277.959	15350.25
278.027	15345.91
278.096	15356.42
278.164	15452.04
278.233	15465.44
278.301	15468.72
278.37	15520.83
278.438	15519.19
278.507	15548.16
278.575	15522.28
278.643	15549.85
278.712	15533.55
278.78	15533.6
278.849	15599.98
278.917	15662.3
278.985	15688.81
279.054	15726.55
279.122	15784.49
279.191	15801.64
279.259	15831.1
279.327	15821.89
279.396	15906.96
279.464	15937.42
279.532	15993.86
279.601	16014.54
279.669	16038.06
279.737	16112.58
279.806	16156.24
279.874	16213.89
279.942	16250.28
280.011	16279.2
280.079	16329.76
280.147	16404.13
280.215	16448.81
280.284	16463.46
280.352	16462.49
280.42	16517.87
280.488	16542.4
280.557	16561.97
280.625	16614.31
280.693	16650.03
280.761	16694.51
280.83	16679.48
280.898	16747.72
280.966	16730.51
281.034	16696.87
281.102	16697.26
281.171	16715.48
281.239	16762.8
281.307	16781.74
281.375	16796.78
281.443	16888.93
281.512	16909.22
281.58	16976.98
281.648	16974.71
281.716	17010.76
281.784	17049.08
281.852	17065.8
281.92	17096.45
281.989	17150.14
282.057	17138.62
282.125	17243.15
282.193	17274.19
282.261	17310.82
282.329	17327.44
282.397	17378.96
282.465	17428.46
282.533	17503.11
282.601	17510.97
282.67	17499.83
282.738	17515.35
282.806	17577.14
282.874	17585.67
282.942	17632.8
283.01	17644.65
283.078	17705.81
283.146	17739.25
283.214	17794.77
283.282	17839.59
283.35	17904.94
283.418	17928.16
283.486	17981.37
283.554	17946.24
283.622	17979.15
283.69	18022.52
283.758	18044.79
283.826	18097.61
283.894	18148.54
283.962	18240.54
284.03	18323.09
284.098	18361.79
284.165	18395.28
284.233	18425.3
284.301	18446.65
284.369	18468.34
284.437	18481.25
284.505	18501.06
284.573	18578.45
284.641	18583.56
284.709	18639.56
284.777	18632.52
284.845	18691.84
284.912	18755.11
284.98	18816.22
285.048	18850.24
285.116	18900.6
285.184	18978.81
285.252	19015.24
285.319	19014.81
285.387	19025.75
285.455	19018.14
285.523	19068.69
285.591	19092.2
285.659	19138.61
285.726	19213.74
285.794	19214.08
285.862	19252.34
285.93	19286.12
285.997	19310.84
286.065	19342.55
286.133	19349.2
286.201	19388.96
286.269	19391.85
286.336	19396.52
286.404	19419.65
286.472	19475.84
286.539	19455.56
286.607	19446.11
286.675	19478.4
286.743	19536.8
286.81	19556.47
286.878	19621.23
286.946	19641.81
287.013	19682.44
287.081	19705.52
287.149	19695.21
287.216	19788.46
287.284	19814.57
287.352	19852.98
287.419	19876.64
287.487	19959.54
287.555	20011.49
287.622	20040.3
287.69	20096.26
287.758	20165.03
287.825	20194.28
287.893	20200.59
287.96	20260.01
288.028	20324.35
288.096	20372.15
288.163	20428.69
288.231	20438.32
288.298	20469.12
288.366	20540.78
288.433	20576.4
288.501	20599.58
288.569	20649.79
288.636	20664.01
288.704	20729.08
288.771	20788.31
288.839	20805.37
288.906	20818.62
288.974	20873.37
289.041	20904.89
289.109	20905.9
289.176	20959.74
289.244	21014.54
289.311	21076.76
289.379	21135.18
289.446	21180.72
289.514	21214.94
289.581	21240.35
289.649	21290.37
289.716	21333.8
289.783	21352.31
289.851	21441.19
289.918	21482.2
289.986	21547.37
290.053	21596.87
290.121	21629.5
290.188	21672.98
290.255	21795.33
290.323	21819.86
290.39	21841.46
290.458	21903.06
290.525	21972.71
290.592	21994.11
290.66	22027.85
290.727	22058.03
290.794	22129.23
290.862	22169.34
290.929	22217.11
290.996	22256.98
291.064	22323.12
291.131	22389.21
291.198	22462.83
291.266	22486.31
291.333	22531.67
291.4	22573.76
291.468	22658.96
291.535	22692.85
291.602	22746.9
291.669	22745.93
291.737	22786.86
291.804	22832.71
291.871	22900.26
291.938	22966.22
292.006	23075.36
292.073	23139.53
292.14	23201.88
292.207	23219
292.275	23249.13
292.342	23305.45
292.409	23404.46
292.476	23489.87
292.543	23507.86
292.611	23541.96
292.678	23617.57
292.745	23720.44
292.812	23784
292.879	23808.84
292.946	23855.67
293.014	23924.11
293.081	23988.59
293.148	24062.18
293.215	24131.3
293.282	24168.1
293.349	24223
293.416	24206.35
293.484	24279.72
293.551	24345.91
293.618	24430.56
293.685	24535.58
293.752	24565.78
293.819	24592.46
293.886	24603.03
293.953	24668.39
294.02	24737.04
294.087	24788.04
294.154	24799.43
294.221	24868.63
294.288	24908
294.356	24998.85
294.423	25047.44
294.49	25069.25
294.557	25141
294.624	25163.68
294.691	25243.88
294.758	25287.36
294.825	25351.58
294.892	25378.9
294.959	25418.91
295.026	25472.29
295.093	25495.94
295.16	25537.58
295.226	25582.42
295.293	25695.67
295.36	25740.8
295.427	25811.91
295.494	25893.4
295.561	25962.33
295.628	26059.98
295.695	26136.02
295.762	26174.44
295.829	26240.69
295.896	26331.2
295.963	26382.43
296.03	26454.55
296.096	26506.6
296.163	26577.78
296.23	26655.09
296.297	26719.25
296.364	26758.79
296.431	26815.58
296.498	26855.66
296.564	26966.82
296.631	27022.54
296.698	27017.13
296.765	27114.45
296.832	27121.65
296.899	27132.52
296.965	27210.43
297.032	27199.94
297.099	27285.46
297.166	27348.3
297.233	27378.88
297.299	27400.04
297.366	27454.48
297.433	27504.53
297.5	27571.01
297.566	27609.04
297.633	27647.84
297.7	27694.94
297.767	27729.96
297.833	27788.33
297.9	27832.44
297.967	27825.63
298.033	27894.49
298.1	28008.56
298.167	28024.02
298.234	28085.82
298.3	28149.22
298.367	28185.18
298.434	28245.65
298.5	28267.3
298.567	28288.09
298.634	28330.08
298.7	28415.63
298.767	28466.72
298.834	28537.98
298.9	28568
298.967	28589.56
299.033	28655.31
299.1	28738.03
299.167	28816.52
299.233	28850.32
299.3	28920.65
299.366	28992.91
299.433	29060.62
299.5	29035.72
299.566	29088.03
299.633	29169.08
299.699	29234.46
299.766	29271.11
299.832	29322.72
299.899	29379.75
299.965	29463.45
300.032	29496.67
300.099	29556.61
300.165	29612.23
300.232	29638.4
300.298	29681.4
300.365	29761.78
300.431	29803.77
300.498	29826.17
300.564	29888.57
300.631	29955.48
300.697	30035.07
300.763	30096.26
300.83	30160.78
300.896	30239.1
300.963	30312.26
301.029	30366.66
301.096	30418.1
301.162	30480.85
301.229	30510.76
301.295	30525.37
301.361	30570.28
301.428	30626.55
301.494	30626.31
301.561	30674.66
301.627	30724.45
301.693	30773.09
301.76	30822.7
301.826	30852.76
301.892	30922.36
301.959	30978.27
302.025	31004.9
302.092	31031.67
302.158	31085.21
302.224	31094.07
302.291	31117.59
302.357	31133.67
302.423	31148.63
302.49	31176.42
302.556	31240.14
302.622	31284.34
302.688	31352.95
302.755	31427.43
302.821	31485.62
302.887	31550.34
302.954	31592.57
303.02	31660.08
303.086	31704.28
303.152	31735.32
303.219	31764.62
303.285	31828.56
303.351	31877.14
303.417	31920.92
303.483	31935.74
303.55	31943.83
303.616	31986.02
303.682	32025.09
303.748	32057.64
303.815	32133.79
303.881	32188.04
303.947	32202.67
304.013	32242.87
304.079	32259.1
304.145	32255.32
304.212	32289.86
304.278	32299.06
304.344	32318.49
304.41	32320.33
304.476	32340.04
304.542	32356.95
304.608	32416.14
304.674	32388.04
304.741	32418.77
304.807	32460.29
304.873	32522.5
304.939	32605.34
305.005	32600.59
305.071	32622.68
305.137	32664.93
305.203	32641.57
305.269	32672.54
305.335	32742.28
305.401	32776.25
305.467	32811.67
305.533	32853.63
305.599	32905.68
305.666	32968.33
305.732	33001.04
305.798	33070.63
305.864	33167.67
305.93	33233.28
305.996	33269.39
306.062	33313
306.128	33331.71
306.194	33337.43
306.259	33360.07
306.325	33375.68
306.391	33442.07
306.457	33502.16
306.523	33547.87
306.589	33648.07
306.655	33656.36
306.721	33637.26
306.787	33643.17
306.853	33709.64
306.919	33702.22
306.985	33704.45
307.051	33733.63
307.117	33752.54
307.183	33769.94
307.248	33731.4
307.314	33774.46
307.38	33789.68
307.446	33846.16
307.512	33852.22
307.578	33889.06
307.644	33905.84
307.709	33932.6
307.775	33946.22
307.841	33974.25
307.907	33998.2
307.973	33977.69
308.039	34018.12
308.104	34064.04
308.17	34109.27
308.236	34101.76
308.302	34154.16
308.368	34159.64
308.433	34179.86
308.499	34213.41
308.565	34214.48
308.631	34248.27
308.696	34214.13
308.762	34227.66
308.828	34243.13
308.894	34236.25
308.959	34220.59
309.025	34227.43
309.091	34253.62
309.156	34273.69
309.222	34303.37
309.288	34302.79
309.354	34275.93
309.419	34304.11
309.485	34292.28
309.551	34313.96
309.616	34314.1
309.682	34320.7
309.748	34344.26
309.813	34374.52
309.879	34379.52
309.945	34387.47
310.01	34414.1
310.076	34449.54
310.141	34469.62
310.207	34465.55
310.273	34503.85
310.338	34548.94
310.404	34544.87
310.469	34548.12
310.535	34547.35
310.601	34521.79
310.666	34567.09
310.732	34615.53
310.797	34609.37
310.863	34624.06
310.928	34634.44
310.994	34672.22
311.059	34709.23
311.125	34738.72
311.191	34773.07
311.256	34774.28
311.322	34813.57
311.387	34788.44
311.453	35568.19
311.518	35555.78
311.584	35586.48
311.649	35623.83
311.715	35631.35
311.78	35666.6
311.846	35662.58
311.911	35718.32
311.976	35750.81
312.042	35741.26
312.107	35736.11
312.173	35751.73
312.238	35774.72
312.304	35802.43
312.369	35810.38
312.434	35804.42
312.5	35811.16
312.565	35773.46
312.631	35812.95
312.696	35822.75
312.761	35865.38
312.827	35129.43
312.892	35232.1
312.958	35254.66
313.023	35274.94
313.088	35302.69
313.154	35297.45
313.219	35304.29
313.284	35299.44
313.35	35314.86
313.415	35318.6
313.48	35348.67
313.546	35380.79
313.611	35424.8
313.676	35424.65
313.741	35424.55
313.807	35470.36
313.872	35503.3
313.937	35538.66
314.003	35589.42
314.068	35612.37
314.133	35652.74
314.198	35645.41
314.264	35610.23
314.329	35596.79
314.394	35617.12
314.459	35635.41
314.525	35710.08
314.59	35736.81
314.655	35740.2
314.72	35772.62
314.785	35803.86
314.851	35816.23
314.916	35781.78
314.981	35765.87
315.046	35761.36
315.111	35758.3
315.176	35754.51
315.242	35789.89
315.307	35811.05
315.372	35775.14
315.437	35781.64
315.502	35783.63
315.567	35829.87
315.632	35824.1
315.698	35861.42
315.763	35866.61
315.828	35861.66
315.893	35866.71
315.958	35863.21
316.023	35850.94
316.088	35827.75
316.153	35797.96
316.218	35789.76
316.283	35769.38
316.348	35735.91
316.413	35740.47
316.479	35704.92
316.544	35615.37
316.609	35522.85
316.674	35426.95
316.739	35349.73
316.804	35254.56
316.869	35150.71
316.934	35046.55
316.999	34947.8
317.064	34798.9
317.129	34671.63
317.194	34559.85
317.259	34414.2
317.324	34269.82
317.389	34129.46
317.454	33994.71
317.518	33862.89
317.583	33765.38
317.648	33670.16
317.713	33545.87
317.778	33368.25
317.843	33261.14
317.908	33137.57
317.973	32995.59
318.038	32889.56
318.103	32751.77
318.168	32631.41
318.233	32497.07
318.297	32324.9
318.362	32190.47
318.427	32040.84
318.492	31926.27
318.557	31757.14
318.622	31634.02
318.687	31522.86
318.751	31382.92
318.816	31251.37
318.881	31108.19
318.946	30910.52
319.011	30727.89
319.075	30562.09
319.14	30415.52
319.205	30240.54
319.27	30077.81
319.335	29913.92
319.399	29746.52
319.464	29605.53
319.529	29399.41
319.594	29243.92
319.658	29103.74
319.723	28924.45
319.788	28776.97
319.853	28571.14
319.917	28414.42
319.982	28212.02
320.047	28033.29
320.112	27882.33
320.176	27673.3
320.241	27505.89
320.306	27350.66
320.37	27178.56
320.435	27017.52
320.5	26853.78
320.564	26686.15
320.629	26511.71
320.694	26354.31
320.758	26155.73
320.823	25962.67
320.888	25813.72
320.952	25610.85
321.017	25412.14
321.082	25226.4
321.146	25064.93
321.211	24889.34
321.275	24707.08
321.34	24507.17
321.405	24311.89
321.469	24099.69
321.534	23915.12
321.598	23703.64
321.663	23535.2
321.727	23364.48
321.792	23161.07
321.857	22963.11
321.921	22763.59
321.986	22565.49
322.05	22331.42
322.115	22158.93
322.179	21954.48
322.244	21728.79
322.308	21548.22
322.373	21351.03
322.437	21158.56
322.502	21003.1
322.566	20796.91
322.631	20624.36
322.695	20436.17
322.76	20242.28
322.824	20075.24
322.889	19878.81
322.953	19671.87
323.018	19409.12
323.082	19163.33
323.146	18942.37
323.211	18716.55
323.275	18516.41
323.34	18310.67
323.404	18126.77
323.468	17907.74
323.533	17706.67
323.597	17497.03
323.662	17276.68
323.726	17086.8
323.79	16875.27
323.855	16603.11
323.919	16388.06
323.983	16168.52
324.048	15853.68
324.112	15940.52
324.177	15282.13
324.241	14443.02
324.305	13628.94
324.37	12826.62
324.434	12035.87
324.498	11811.64
324.562	11566.42
324.627	11284.4
324.691	11009.38
324.755	10696.82
324.82	10348.79
324.884	9976.21
324.948	9597.31
325.012	9132.82
325.077	8569.25
