Data from 20250626_urea_1M_exp2_MAYP1162681_01-43-58-155.txt Node
Date: Fri Jun 27 01:43:58 BST 2025
User: adleo
Spectrometer: MAYP116268
Trigger mode: 0
Integration Time (sec): 3.000000E0
Scans to average: 1
Electric dark correction enabled: true
Nonlinearity correction enabled: true
Boxcar width: 10
XAxis mode: Wavelengths
Number of Pixels in Spectrum: 2068
>>>>>Begin Spectral Data<<<<<
179.565	2761.38
179.642	2900.58
179.718	3006.48
179.795	3111.02
179.871	3193.38
179.948	3239.6
180.024	3297.09
180.101	3359.3
180.177	3393.39
180.254	3448.68
180.33	3504.31
180.407	3692.62
180.483	3908.87
180.56	4128.14
180.636	4330.98
180.712	4303.23
180.789	4326.38
180.865	4359.84
180.942	4382.32
181.018	4411.5
181.095	4449.79
181.171	4461.36
181.248	4466.48
181.324	4508.13
181.4	4519.13
181.477	4547.37
181.553	4580.41
181.63	4630.24
181.706	4662.32
181.782	4687.71
181.859	4693.21
181.935	4708.15
182.011	4702.69
182.088	4739.12
182.164	4785.92
182.24	4814.25
182.317	4834.97
182.393	4826.83
182.469	4856.46
182.546	4892.37
182.622	4906.3
182.698	4895.34
182.775	4926.94
182.851	4960.84
182.927	4946.28
183.003	4937.09
183.08	4922.25
183.156	4945.86
183.232	4934.41
183.308	4909.7
183.385	4928.23
183.461	4965.01
183.537	4965.11
183.613	4995.14
183.69	4979.52
183.766	4948.57
183.842	4968.25
183.918	4984.77
183.995	5014.6
184.071	5027.78
184.147	5008.77
184.223	4978.85
184.299	5008.46
184.375	4982.89
184.452	5001.1
184.528	5098.9
184.604	5128.2
184.68	5158.03
184.756	5175.23
184.832	5186.16
184.908	5197.79
184.985	5196.11
185.061	5157.94
185.137	5185.2
185.213	5158.05
185.289	5157.28
185.365	5147.13
185.441	5139.85
185.517	5174.74
185.593	5167.18
185.669	5161.28
185.745	5189.98
185.822	5227.12
185.898	5201.58
185.974	5219.11
186.05	5199.65
186.126	5135.87
186.202	5119.35
186.278	5109.62
186.354	5089.31
186.43	5104.93
186.506	5101.58
186.582	5098.28
186.658	5119.72
186.734	5069.63
186.81	5072.93
186.886	5085.77
186.962	5113.93
187.038	5104.98
187.114	5083.88
187.19	5102.8
187.266	5075.51
187.341	5072.83
187.417	5054.1
187.493	5059.32
187.569	5064.98
187.645	5047.49
187.721	5021.95
187.797	5041.3
187.873	5051.94
187.949	5031.87
188.025	5018.02
188.101	5025.92
188.176	5041.2
188.252	5026.84
188.328	5046.41
188.404	5043.82
188.48	5028.02
188.556	5006.99
188.632	5008.96
188.707	5015.91
188.783	5007.62
188.859	4997.95
188.935	4973.23
189.011	4996.27
189.086	4981.71
189.162	4961.17
189.238	4958.29
189.314	4948.86
189.39	4935.83
189.465	4918.25
189.541	4960.98
189.617	4921.29
189.693	4907.84
189.768	4920.05
189.844	4979.72
189.92	4954.88
189.996	4975.91
190.071	5006.61
190.147	5008.29
190.223	5030.71
190.298	5006.08
190.374	4976.91
190.45	5007.6
190.526	5027.43
190.601	5014.45
190.677	5017.56
190.753	5091.05
190.828	5099.52
190.904	5134.69
190.98	5167.18
191.055	5192.23
191.131	5171
191.207	5224.12
191.282	5250.02
191.358	5222.72
191.433	5188.05
191.509	5221.8
191.585	5216.72
191.66	5216.24
191.736	5238.32
191.811	5211.69
191.887	5251.09
191.963	5308.15
192.038	5319.6
192.114	5323.63
192.189	5333.88
192.265	5324.74
192.34	5268.29
192.416	5264.89
192.491	5259.91
192.567	5271.7
192.642	5281.24
192.718	5284.6
192.793	5257.62
192.869	5245.26
192.944	5248.61
193.02	5265.63
193.095	5273.01
193.171	5289.68
193.246	5289.78
193.322	5277.56
193.397	5282.35
193.473	5251.28
193.548	5208.25
193.624	5226.37
193.699	5224.93
193.775	5263.62
193.85	5266.15
193.925	5289.83
194.001	5284.75
194.076	5263.58
194.152	5232.18
194.227	5208.55
194.302	5185.52
194.378	5195.29
194.453	5187.97
194.529	5221.17
194.604	5183.42
194.679	5174.7
194.755	5126.62
194.83	5152.85
194.905	5149.49
194.981	5174.07
195.056	5151.8
195.131	5171.06
195.207	5162.33
195.282	5140.06
195.357	5088.44
195.433	5126.95
195.508	5092.88
195.583	5116.97
195.659	5155.37
195.734	5170.13
195.809	5170.51
195.884	5190.09
195.96	5187.22
196.035	5225.45
196.11	5216.43
196.185	5250.07
196.261	5258.35
196.336	5338.47
196.411	5302.23
196.486	5315.36
196.561	5297.05
196.637	5322.58
196.712	5360.08
196.787	5371.25
196.862	5407.66
196.937	5434.92
197.013	5451.37
197.088	5481.41
197.163	5532.11
197.238	5570.65
197.313	5576.02
197.388	5612.07
197.464	5686.94
197.539	5718.91
197.614	5704.29
197.689	5733.11
197.764	5772.26
197.839	5821.27
197.914	5807.26
197.989	5868.89
198.065	5898.09
198.14	6026.55
198.215	6089.2
198.29	6118.44
198.365	6151.4
198.44	6177.25
198.515	6248.09
198.59	6283.56
198.665	6350.56
198.74	6378.12
198.815	6382.2
198.89	6439.5
198.965	6508.89
199.04	6501.21
199.115	6537.87
199.19	6641.41
199.265	6647.31
199.34	6672.52
199.415	6756.51
199.49	6803.41
199.565	6818.77
199.64	6886.73
199.715	6875.28
199.79	6890.56
199.865	6902.37
199.94	6898.68
200.015	6981.65
200.09	6995.25
200.165	7011.2
200.24	7026.67
200.315	7115.64
200.39	7150.76
200.464	7161
200.539	7167.87
200.614	7207.26
200.689	7268.44
200.764	7283.83
200.839	7327.28
200.914	7337.76
200.989	7309.58
201.063	7348.7
201.138	7310.92
201.213	7308.28
201.288	7259.7
201.363	7273.87
201.438	7275.27
201.512	7312.92
201.587	7263.8
201.662	7272.59
201.737	7305.56
201.812	7322.92
201.886	7241.06
201.961	7270.39
202.036	7244.84
202.111	7237.49
202.186	7158.41
202.26	7109.1
202.335	7058.92
202.41	7048.5
202.485	7006.77
202.559	6960.41
202.634	6892.19
202.709	6913.55
202.784	6866.14
202.858	6872.96
202.933	6829.83
203.008	6810.76
203.082	6757.94
203.157	6757.55
203.232	6650.76
203.306	6596.85
203.381	6514.82
203.456	6461.52
203.53	6393.8
203.605	6345.97
203.68	6285.89
203.754	6274.19
203.829	6237.65
203.904	6183.34
203.978	6148.91
204.053	6160.14
204.127	6127.28
204.202	6120.56
204.277	6078.96
204.351	6056.65
204.426	6029.77
204.5	6006.21
204.575	5920.04
204.65	5949.95
204.724	5924.06
204.799	5945.3
204.873	5930.85
204.948	5925.57
205.022	5897.71
205.097	5879.76
205.171	5915.54
205.246	5933.82
205.32	5934.69
205.395	5930.9
205.469	5914.65
205.544	5931.35
205.618	5883.76
205.693	5907.56
205.767	5877.25
205.842	5929.94
205.916	5917.95
205.991	5896.8
206.065	5908.98
206.14	5948.7
206.214	5931.51
206.289	5917.98
206.363	5942.2
206.438	5949.11
206.512	5975.98
206.586	6018.29
206.661	6042.92
206.735	5979.21
206.81	5982.76
206.884	6019.07
206.958	5990.77
207.033	6028.79
207.107	6044.31
207.181	6130.42
207.256	6117.94
207.33	6166.59
207.405	6201.85
207.479	6251.33
207.553	6270.95
207.628	6232.25
207.702	6263.48
207.776	6249.8
207.851	6260.84
207.925	6303.82
207.999	6297.15
208.073	6280.88
208.148	6285.01
208.222	6250.73
208.296	6334.22
208.371	6374
208.445	6398.39
208.519	6463.4
208.593	6497.48
208.668	6484.61
208.742	6484.57
208.816	6492.29
208.89	6525.05
208.965	6515.24
209.039	6534.51
209.113	6578.06
209.187	6628.61
209.261	6616.94
209.336	6668.42
209.41	6712.27
209.484	6716.5
209.558	6775.96
209.632	6810.28
209.707	6841.26
209.781	6899.61
209.855	6939.01
209.929	6983.73
210.003	7003.43
210.077	7010.4
210.151	7124.62
210.226	7214.99
210.3	7282.23
210.374	7342.79
210.448	7355.87
210.522	7385.14
210.596	7407.97
210.67	7433.35
210.744	7558.79
210.818	7639.01
210.892	7689.54
210.966	7680.89
211.041	7713.53
211.115	7707.24
211.189	7769.1
211.263	7808.52
211.337	7825.78
211.411	7866.95
211.485	7849.92
211.559	7875.73
211.633	7884.23
211.707	7808.69
211.781	7825.78
211.855	7738.65
211.929	7715.05
212.003	7666.68
212.077	7688.08
212.151	7717.61
212.225	7737.9
212.299	7707.49
212.373	7678.02
212.447	7659.5
212.52	7728.02
212.594	7738.17
212.668	7758.36
212.742	7722.78
212.816	7708.31
212.89	7690.09
212.964	7678.35
213.038	7686.72
213.112	7716.92
213.186	7748.94
213.26	7695.23
213.333	7576.25
213.407	7585.62
213.481	7593.21
213.555	7618.9
213.629	7585.76
213.703	7543.21
213.777	7533.16
213.85	7476.37
213.924	7557.51
213.998	7564.77
214.072	7544.61
214.146	7505.71
214.219	7495.52
214.293	7481.49
214.367	7486.1
214.441	7508.55
214.515	7472.97
214.588	7407.02
214.662	7310.8
214.736	7252.23
214.81	7262.98
214.883	7281.03
214.957	7250.87
215.031	7210.77
215.105	7148.04
215.178	7101.58
215.252	7070.59
215.326	6998.67
215.4	6938.9
215.473	6806.67
215.547	6737.46
215.621	6688.48
215.694	6683.91
215.768	6614.94
215.842	6569.76
215.915	6513.3
215.989	6429.15
216.063	6388.79
216.136	6376.11
216.21	6364.93
216.284	6372.04
216.357	6353.32
216.431	6324.47
216.504	6319.96
216.578	6358.18
216.652	6366.38
216.725	6349.77
216.799	6360.72
216.873	6351.17
216.946	6359.95
217.02	6334.44
217.093	6313.22
217.167	6244.3
217.24	6183.33
217.314	6151.25
217.387	6118.69
217.461	6087.49
217.535	6103.91
217.608	6061.59
217.682	6043.16
217.755	6051.99
217.829	6012.82
217.902	6000.44
217.976	5983.89
218.049	5950.07
218.123	5891.51
218.196	5894.24
218.27	5866.27
218.343	5813.09
218.417	5808.77
218.49	5790.07
218.563	5821.58
218.637	5829.69
218.71	5883.33
218.784	5904.88
218.857	5936.53
218.931	5950.72
219.004	5958.34
219.077	5974.24
219.151	5990.97
219.224	5983.06
219.298	5975.62
219.371	6007.96
219.444	5982.26
219.518	5993.58
219.591	6008.88
219.665	6092.39
219.738	6097.57
219.811	6086.59
219.885	6119.7
219.958	6140.77
220.031	6144.65
220.105	6158.43
220.178	6163.03
220.251	6148.97
220.325	6172.16
220.398	6183.82
220.471	6200.51
220.544	6228.3
220.618	6206.02
220.691	6221.38
220.764	6234.38
220.838	6257.61
220.911	6248.3
220.984	6305.2
221.057	6333.33
221.131	6349.83
221.204	6274.14
221.277	6329.94
221.35	6424.31
221.424	6420.52
221.497	6433.34
221.57	6454.11
221.643	6476.21
221.716	6507.56
221.79	6503.24
221.863	6511.75
221.936	6518.99
222.009	6530.51
222.082	6551.07
222.155	6563.88
222.229	6613.79
222.302	6638.71
222.375	6644.13
222.448	6672.95
222.521	6682.89
222.594	6682.89
222.667	6665.33
222.74	6706.8
222.814	6697.58
222.887	6681.96
222.96	6722.69
223.033	6754.21
223.106	6772.26
223.179	6803.78
223.252	6810.99
223.325	6835.48
223.398	6839.42
223.471	6858.43
223.544	6874.52
223.617	6886.63
223.69	6900.22
223.763	6871.34
223.837	6885.99
223.91	6906.31
223.983	6871.88
224.056	6849.79
224.129	6866.41
224.202	6910.67
224.275	6907.4
224.348	6886.56
224.42	6865.18
224.493	6825.08
224.566	6807.63
224.639	6821.94
224.712	6792.53
224.785	6786.43
224.858	6778.94
224.931	6767.36
225.004	6739.85
225.077	6737.88
225.15	6666.68
225.223	6665.57
225.296	6723.78
225.369	6680.28
225.442	6656.74
225.514	6670.08
225.587	6680.84
225.66	6687.8
225.733	6684.49
225.806	6686.7
225.879	6682.43
225.952	6659.67
226.025	6691.66
226.097	6727.22
226.17	6718.34
226.243	6674.89
226.316	6670.37
226.389	6679.35
226.461	6695.78
226.534	6710.28
226.607	6708.84
226.68	6766.73
226.753	6764.33
226.825	6709.82
226.898	6751.64
226.971	6753.03
227.044	6769.51
227.117	6775.03
227.189	6784.83
227.262	6812.7
227.335	6828.51
227.407	6823.37
227.48	6850.3
227.553	6860.35
227.626	6850.3
227.698	6855.2
227.771	6885.15
227.844	6874.2
227.916	6884.58
227.989	6856.48
228.062	6857
228.134	6921.79
228.207	6927.22
228.28	6926.83
228.352	6935.38
228.425	6945.28
228.498	6976.75
228.57	6964.02
228.643	7012.42
228.716	7017.08
228.788	7005.64
228.861	7005.35
228.934	7061.08
229.006	7060.5
229.079	7065.16
229.151	7053.63
229.224	7026.88
229.296	7039.04
229.369	7118.36
229.442	7155.71
229.514	7147.02
229.587	7182.52
229.659	7124.03
229.732	7135.13
229.804	7161.26
229.877	7218.62
229.949	7237.95
230.022	7274.73
230.094	7272.81
230.167	7261.03
230.239	7228.17
230.312	7220.58
230.384	7272.51
230.457	7265.44
230.529	7277.83
230.602	7274.23
230.674	7279.66
230.747	7318.17
230.819	7339.89
230.892	7245.69
230.964	7241.02
231.037	7259.08
231.109	7250.19
231.181	7282.86
231.254	7257.92
231.326	7244.61
231.399	7227.44
231.471	7211.05
231.544	7158.17
231.616	7192.8
231.688	7197.03
231.761	7186.04
231.833	7182.44
231.905	7112.73
231.978	7112.06
232.05	7093.8
232.122	7095.29
232.195	7079
232.267	7102.79
232.339	7093.42
232.412	7142.18
232.484	7128.38
232.556	7111.29
232.629	7162.45
232.701	7174.18
232.773	7183.16
232.846	7181.09
232.918	7184.03
232.99	7195.13
233.062	7223.25
233.135	7234.01
233.207	7204.6
233.279	7241.58
233.351	7265.23
233.424	7276.08
233.496	7255.71
233.568	7321.98
233.64	7299.88
233.713	7316.89
233.785	7312.62
233.857	7317.85
233.929	7281.1
234.001	7327.27
234.074	7377.71
234.146	7326.79
234.218	7321.51
234.29	7319.58
234.362	7312.91
234.434	7276.85
234.507	7252.1
234.579	7217.21
234.651	7200.2
234.723	7227.3
234.795	7237.3
234.867	7227.45
234.939	7262.87
235.012	7276.13
235.084	7277.72
235.156	7299.1
235.228	7278.73
235.3	7271.32
235.372	7283.49
235.444	7330.82
235.516	7266.43
235.588	7268.93
235.66	7277.1
235.732	7258.07
235.804	7406.26
235.876	7437.11
235.948	7486.35
236.02	7499.99
236.092	7511.62
236.164	7520.03
236.236	7518.83
236.308	7515.08
236.38	7539.31
236.452	7529.88
236.524	7547.81
236.596	7600.17
236.668	7634.84
236.74	7653.19
236.812	7673.29
236.884	7696.8
236.956	7703.87
237.028	7705.55
237.1	7692.62
237.172	7744.9
237.244	7802.31
237.316	7711.85
237.388	7694.27
237.46	7677.14
237.532	7722.73
237.604	7718.5
237.675	7772.17
237.747	7805.31
237.819	7802.14
237.891	7805.26
237.963	7799.4
238.035	7797.38
238.107	7713.48
238.178	7759.14
238.25	7766.26
238.322	7830.2
238.394	7798.71
238.466	7794.95
238.538	7826.63
238.609	7855.96
238.681	7816.81
238.753	7801.6
238.825	7818.64
238.897	7844.35
238.968	7904.16
239.04	7881.41
239.112	7962.92
239.184	7930.16
239.255	7926.17
239.327	7954.87
239.399	7969.73
239.471	8003.2
239.542	8027.01
239.614	8078.85
239.686	8013.32
239.758	8053.15
239.829	8024.36
239.901	8070.87
239.973	8087.94
240.044	8112.04
240.116	8123.97
240.188	8138.78
240.259	8145.47
240.331	8132.24
240.403	8160.71
240.474	8124.32
240.546	8122.25
240.618	8080.64
240.689	8090.3
240.761	8108.59
240.833	8151.55
240.904	8148.19
240.976	8147.32
241.048	8161.9
241.119	8184.61
241.191	8218.47
241.262	8274.79
241.334	8281.72
241.405	8287.4
241.477	8289.37
241.549	8297.36
241.62	8314.25
241.692	8346.96
241.763	8394.56
241.835	8414.24
241.906	8427.42
241.978	8405.35
242.049	8454.18
242.121	8496.32
242.192	8543.77
242.264	8517.5
242.335	8481.36
242.407	8516.49
242.478	8523.85
242.55	8543.43
242.621	8535.35
242.693	8536.84
242.764	8526.49
242.836	8531.68
242.907	8552.14
242.979	8572.54
243.05	8587.46
243.122	8608.49
243.193	8605.07
243.264	8547.14
243.336	8548.92
243.407	8578.04
243.479	8641.17
243.55	8655.27
243.622	8664.47
243.693	8660.28
243.764	8714.9
243.836	8703.64
243.907	8699.31
243.978	8700.56
244.05	8711.78
244.121	8670.88
244.192	8701.15
244.264	8656.34
244.335	8657.06
244.407	8624.44
244.478	8635.89
244.549	8629.44
244.62	8596.19
244.692	8590.08
244.763	8628.81
244.834	8623.32
244.906	8603.73
244.977	8616.54
245.048	8659.93
245.119	8644.43
245.191	8630.95
245.262	8580.32
245.333	8639.75
245.405	8654.14
245.476	8676.23
245.547	8698.18
245.618	8743.75
245.689	8756.7
245.761	8787.07
245.832	8793.18
245.903	8826.77
245.974	8848.48
246.045	8859.7
246.117	8926.8
246.188	8922.57
246.259	8907.84
246.33	8917.85
246.401	8930.51
246.473	8905.14
246.544	8888.42
246.615	8936.62
246.686	8938.35
246.757	8997.93
246.828	8974.49
246.899	9029.2
246.97	9007.88
247.042	8997.72
247.113	9032.77
247.184	9092.01
247.255	9089.37
247.326	9114.64
247.397	9119.51
247.468	9128.61
247.539	9140.26
247.61	9105.68
247.681	9139.42
247.752	9184.86
247.823	9172.4
247.894	9184.24
247.965	9165.09
248.037	9154.64
248.108	9108.51
248.179	9114.92
248.25	9102.59
248.321	9130.51
248.392	9092.32
248.463	9154.17
248.534	9148.73
248.605	9161.74
248.675	9137.99
248.746	9153.92
248.817	9164.76
248.888	9174
248.959	9134.72
249.03	9147.72
249.101	9150.66
249.172	9138.72
249.243	9089.67
249.314	9132.8
249.385	9145.22
249.456	9166.88
249.527	9164.67
249.598	9185.56
249.669	9186.57
249.739	9195.47
249.81	9204.82
249.881	9168.23
249.952	9159.76
250.023	9156.53
250.094	9115.26
250.165	9089.88
250.235	9082.51
250.306	9087.76
250.377	9070.19
250.448	9091.51
250.519	9045.21
250.59	9091.05
250.66	9094.66
250.731	9145.11
250.802	9145.68
250.873	9153.87
250.944	9164.56
251.014	9157.34
251.085	9222.6
251.156	9240.26
251.227	9277.01
251.297	9313.76
251.368	9357.66
251.439	9387.76
251.51	9432.5
251.58	9424.32
251.651	9430
251.722	9474.11
251.792	9437.04
251.863	9439.59
251.934	9483.27
252.005	9573.16
252.075	9578.85
252.146	9615.34
252.217	9648.19
252.287	9683.93
252.358	9683.4
252.429	9748.23
252.499	9747.89
252.57	9756.66
252.641	9793.31
252.711	9805.31
252.782	9772.8
252.852	9831.61
252.923	9830.7
252.994	9841.78
253.064	9879.91
253.135	9863.3
253.205	9842.83
253.276	9897.82
253.347	9948.63
253.417	9930.13
253.488	9917.03
253.558	9908.5
253.629	9908.31
253.699	9918.19
253.77	9939
253.841	9932.31
253.911	9939.44
253.982	9949.07
254.052	9971.57
254.123	9977.35
254.193	9980.39
254.264	10082.19
254.334	10056.03
254.405	10032.33
254.475	10005.16
254.546	10010.8
254.616	10056.17
254.687	10082.22
254.757	10096.68
254.827	10092.97
254.898	10117.1
254.968	10118.93
255.039	10103.08
255.109	10128.81
255.18	10108.33
255.25	10048.41
255.321	10074.23
255.391	10040.36
255.461	10108.47
255.532	10050.65
255.602	10046.9
255.673	10005.18
255.743	9970.82
255.813	9914.86
255.884	9951.33
255.954	9979.27
256.024	10025.27
256.095	10030.62
256.165	10009.43
256.235	10027.25
256.306	10020.17
256.376	10048.21
256.446	10088.35
256.517	10113.54
256.587	10149.63
256.657	10165.04
256.728	10193.17
256.798	10199.62
256.868	10202.99
256.938	10174.28
257.009	10212.1
257.079	10239.41
257.149	10312.83
257.219	10275.92
257.29	10305.44
257.36	10266.23
257.43	10291.57
257.5	10243.45
257.571	10237.19
257.641	10259.49
257.711	10227.83
257.781	10250.81
257.852	10267
257.922	10213.72
257.992	10217.23
258.062	10206.2
258.132	10240.07
258.202	10239.01
258.273	10253.56
258.343	10304.73
258.413	10298.71
258.483	10304.15
258.553	10286.09
258.623	10267.97
258.693	10289.41
258.764	10338.45
258.834	10390.33
258.904	10404.4
258.974	10396.55
259.044	10408.01
259.114	10435.67
259.184	10467.08
259.254	10472.86
259.324	10436.73
259.394	10471.99
259.464	10533.43
259.535	10543.55
259.605	10535.59
259.675	10532.13
259.745	10564.07
259.815	10544.51
259.885	10553.76
259.955	10632.22
260.025	10622.01
260.095	10630.83
260.165	10656.42
260.235	10709.62
260.305	10703.26
260.375	10684.08
260.445	10761.74
260.515	10805.98
260.585	10838.99
260.655	10843.66
260.725	10875.52
260.795	10898.26
260.865	10952.86
260.934	10928.71
261.004	10951.84
261.074	10958.98
261.144	11007.25
261.214	11028.84
261.284	11035.3
261.354	11062.91
261.424	11027.96
261.494	11080.53
261.564	11083.8
261.634	11102.89
261.703	11049.64
261.773	11068.48
261.843	11095.99
261.913	11086.55
261.983	11046.93
262.053	11067.61
262.123	11065.25
262.192	11039.04
262.262	11075.28
262.332	11033.78
262.402	11060.19
262.472	11067.33
262.541	11022.52
262.611	11054.81
262.681	11041.07
262.751	11065.55
262.821	11069.12
262.89	11042.66
262.96	11063.09
263.03	11127.73
263.1	11149.22
263.169	11168.79
263.239	11192.06
263.309	11236.55
263.379	11263.35
263.448	11284.35
263.518	11297.9
263.588	11317.03
263.657	11372.26
263.727	11399.44
263.797	11413.8
263.867	11416.31
263.936	11384.4
264.006	11437.21
264.076	11432.97
264.145	11425.26
264.215	11423.96
264.285	11451.14
264.354	11420.68
264.424	11413.17
264.494	11373.55
264.563	11368.1
264.633	11425.98
264.702	11438.85
264.772	11406.51
264.842	11407.91
264.911	11435.14
264.981	11404.96
265.05	11410.12
265.12	11414.17
265.19	11422.27
265.259	11456.58
265.329	11475.19
265.398	11501.74
265.468	11567.53
265.537	11565.65
265.607	11596.21
265.676	11632.41
265.746	11648.5
265.815	11697.37
265.885	11708.02
265.955	11697.22
266.024	11700.36
266.094	11653.85
266.163	11703.45
266.232	11748.51
266.302	11754.73
266.371	11770.11
266.441	11794.74
266.51	11832.67
266.58	11827.75
266.649	11821.15
266.719	11864.87
266.788	11897.98
266.858	11952.07
266.927	11907.09
266.996	11929.99
267.066	11958.72
267.135	11936.06
267.205	11974.34
267.274	11993.42
267.343	12031.55
267.413	12047.45
267.482	12094.31
267.552	12142.7
267.621	12110.21
267.69	12078.11
267.76	12099.65
267.829	12118.07
267.898	12127.9
267.968	12120.28
268.037	12155.95
268.106	12197.26
268.176	12166.7
268.245	12173.26
268.314	12172.34
268.384	12218.66
268.453	12234.91
268.522	12251.83
268.592	12300.37
268.661	12285.37
268.73	12318.44
268.799	12306.25
268.869	12376.82
268.938	12340.9
269.007	12344.42
269.076	12372.14
269.146	12415.62
269.215	12436.83
269.284	12492.65
269.353	12493.47
269.422	12496.31
269.492	12488.02
269.561	12428.64
269.63	12459.97
269.699	12455.48
269.768	12465.32
269.838	12483.73
269.907	12522.01
269.976	12499.69
270.045	12457.95
270.114	12491.83
270.183	12494.63
270.253	12519.31
270.322	12476.94
270.391	12496.32
270.46	12548.81
270.529	12578.8
270.598	12617.02
270.667	12619.92
270.736	12598.9
270.806	12626.71
270.875	12668.36
270.944	12685.14
271.013	12779.95
271.082	12804.1
271.151	12828.93
271.22	12802.37
271.289	12815.48
271.358	12818.47
271.427	12853.08
271.496	12877.71
271.565	12876.56
271.634	12891.4
271.703	12991.05
271.772	13046.91
271.841	13064.41
271.91	13042.09
271.979	13060.7
272.048	13039.01
272.117	13082.01
272.186	13088.61
272.255	13133.06
272.324	13174.66
272.393	13200.74
272.462	13193.03
272.531	13209.47
272.6	13230
272.669	13296.28
272.738	13302.89
272.807	13329.69
272.876	13319.38
272.945	13426.25
273.013	13473.06
273.082	13524.35
273.151	13457.2
273.22	13482.36
273.289	13500.97
273.358	13561.08
273.427	13566.67
273.496	13605.05
273.564	13632.86
273.633	13676.68
273.702	13665.88
273.771	13674.56
273.84	13698.23
273.909	13733.71
273.977	13766.78
274.046	13776.23
274.115	13820.14
274.184	13817.35
274.253	13833.35
274.322	13896.74
274.39	13857.12
274.459	13851.96
274.528	13815.71
274.597	13833.54
274.665	13862.76
274.734	13920.65
274.803	13931.21
274.872	13947.7
274.94	13947.75
275.009	14110.37
275.078	14104.59
275.147	14134.43
275.215	14150.86
275.284	14209.05
275.353	14226.64
275.421	14200.52
275.49	14270.75
275.559	14272.77
275.627	14304.93
275.696	14328.74
275.765	14359.93
275.833	14379.07
275.902	14422.69
275.971	14499.34
276.039	14575.51
276.108	14608.96
276.177	14634.27
276.245	14644.29
276.314	14672.83
276.383	14727.98
276.451	14617.36
276.52	14668.8
276.588	14728.48
276.657	14784.01
276.725	14796.4
276.794	14826.28
276.863	14898.44
276.931	14871.98
277	14927.9
277.068	14977.79
277.137	15052.02
277.205	15075.35
277.274	15150.84
277.342	15205.16
277.411	15188.87
277.48	15195.81
277.548	15208.58
277.617	15248.69
277.685	15268.64
277.754	15317.95
277.822	15327.79
277.89	15399.65
277.959	15413.87
278.027	15404.42
278.096	15412.95
278.164	15506.65
278.233	15520.73
278.301	15525.69
278.37	15575.87
278.438	15577.94
278.507	15628.99
278.575	15593.9
278.643	15628.41
278.712	15611.73
278.78	15610.58
278.849	15676.04
278.917	15739.71
278.985	15764.24
279.054	15798.56
279.122	15857.07
279.191	15883.1
279.259	15911.88
279.327	15887.54
279.396	15964.89
279.464	15997.86
279.532	16040.47
279.601	16064.47
279.669	16091.13
279.737	16163.38
279.806	16213.36
279.874	16270.33
279.942	16294.04
280.011	16329.37
280.079	16387.21
280.147	16466.59
280.215	16514.79
280.284	16538.06
280.352	16539.17
280.42	16598.26
280.488	16613.44
280.557	16636.58
280.625	16684.77
280.693	16726.66
280.761	16766.56
280.83	16763.77
280.898	16828.54
280.966	16825.17
281.034	16783.96
281.102	16784.45
281.171	16804.83
281.239	16858.04
281.307	16876.69
281.375	16892.26
281.443	16983.83
281.512	17000.79
281.58	17054.24
281.648	17048.31
281.716	17076.45
281.784	17106.04
281.852	17123.68
281.92	17161.27
281.989	17219.59
282.057	17207.2
282.125	17314.48
282.193	17346.04
282.261	17377.71
282.329	17401.08
282.397	17446
282.465	17493.61
282.533	17575.35
282.601	17580.36
282.67	17552.17
282.738	17565.71
282.806	17624.27
282.874	17629.42
282.942	17678.77
283.01	17695.2
283.078	17757.61
283.146	17786.58
283.214	17843.2
283.282	17894.28
283.35	17946.96
283.418	17969.22
283.486	18028.5
283.554	17989.32
283.622	18023.15
283.69	18067.2
283.758	18090.62
283.826	18141.89
283.894	18199.62
283.962	18279.96
284.03	18357.01
284.098	18416.72
284.165	18443.57
284.233	18479.9
284.301	18505.25
284.369	18518.21
284.437	18539.51
284.505	18561.97
284.573	18651.36
284.641	18662.88
284.709	18715.55
284.777	18714.49
284.845	18770.58
284.912	18823.16
284.98	18875.59
285.048	18907.44
285.116	18958.72
285.184	19033.7
285.252	19079.19
285.319	19077.26
285.387	19092.88
285.455	19086.81
285.523	19136.3
285.591	19171.19
285.659	19215.14
285.726	19282.22
285.794	19283.52
285.862	19317.06
285.93	19355.61
285.997	19379.17
286.065	19408.47
286.133	19419.7
286.201	19462.59
286.269	19462.49
286.336	19476.57
286.404	19499.65
286.472	19559.07
286.539	19538.39
286.607	19531.79
286.675	19564.9
286.743	19623.5
286.81	19644.56
286.878	19718.96
286.946	19734.58
287.013	19774.19
287.081	19806
287.149	19808.74
287.216	19907.34
287.284	19934.52
287.352	19969.89
287.419	19987.92
287.487	20069.8
287.555	20115.24
287.622	20138.52
287.69	20199.1
287.758	20254.33
287.825	20281.5
287.893	20282.76
287.96	20329.55
288.028	20391.24
288.096	20429.21
288.163	20480.59
288.231	20496.44
288.298	20531.77
288.366	20600.5
288.433	20633.94
288.501	20647.34
288.569	20692.54
288.636	20701.75
288.704	20768.45
288.771	20836.5
288.839	20854.77
288.906	20866.53
288.974	20927.31
289.041	20967.02
289.109	20979.12
289.176	21043.17
289.244	21101.78
289.311	21175.76
289.379	21245.89
289.446	21288.74
289.514	21322.52
289.581	21348.31
289.649	21389.08
289.716	21432.61
289.783	21448.18
289.851	21529.73
289.918	21568.82
289.986	21631.86
290.053	21679.2
290.121	21706.67
290.188	21738.1
290.255	21859.92
290.323	21881.37
290.39	21896.75
290.458	21956.95
290.525	22022.94
290.592	22056.88
290.66	22103.2
290.727	22125.23
290.794	22192.14
290.862	22230.71
290.929	22280.41
290.996	22320.95
291.064	22385.16
291.131	22445.62
291.198	22528.11
291.266	22549.18
291.333	22597.48
291.4	22635.13
291.468	22714.83
291.535	22735.9
291.602	22774.81
291.669	22777.99
291.737	22829.14
291.804	22870.89
291.871	22942.45
291.938	22993.41
292.006	23087.61
292.073	23133.46
292.14	23194.02
292.207	23221.7
292.275	23262.97
292.342	23321.75
292.409	23431.91
292.476	23526.29
292.543	23538.11
292.611	23573.46
292.678	23656.36
292.745	23757.53
292.812	23826.89
292.879	23860.75
292.946	23915.72
293.014	23987.97
293.081	24044.2
293.148	24121.27
293.215	24198.59
293.282	24219.33
293.349	24284.5
293.416	24268.24
293.484	24351.31
293.551	24413.05
293.618	24497.52
293.685	24597.44
293.752	24620.93
293.819	24646.94
293.886	24654.17
293.953	24725.91
294.02	24789.3
294.087	24847.88
294.154	24866.99
294.221	24936.77
294.288	24972.95
294.356	25069.55
294.423	25135.8
294.49	25157.22
294.557	25217.93
294.624	25228.98
294.691	25321.63
294.758	25357.39
294.825	25413.45
294.892	25440.67
294.959	25486.71
295.026	25535.66
295.093	25559.12
295.16	25608.29
295.226	25644.25
295.293	25742.19
295.36	25786.5
295.427	25845.01
295.494	25920.04
295.561	25988.48
295.628	26086.63
295.695	26171.26
295.762	26213.7
295.829	26280.91
295.896	26376.59
295.963	26442.99
296.03	26520.8
296.096	26564.74
296.163	26642.92
296.23	26738.92
296.297	26817.05
296.364	26861.95
296.431	26923.96
296.498	26954.09
296.564	27054.53
296.631	27109.77
296.698	27118.27
296.765	27217.05
296.832	27237.57
296.899	27251.97
296.965	27327.71
297.032	27316.16
297.099	27395.5
297.166	27464.68
297.233	27493.57
297.299	27504.68
297.366	27551.07
297.433	27588.6
297.5	27664.02
297.566	27713.79
297.633	27744.58
297.7	27797.1
297.767	27833.09
297.833	27885.52
297.9	27942.38
297.967	27946.34
298.033	28012.98
298.1	28127.88
298.167	28137.45
298.234	28193.88
298.3	28254.87
298.367	28280.29
298.434	28338.15
298.5	28352.42
298.567	28371.55
298.634	28399.1
298.7	28489.38
298.767	28541.5
298.834	28633.2
298.9	28658.24
298.967	28673.28
299.033	28731.83
299.1	28802.57
299.167	28874.45
299.233	28902.54
299.3	28978.2
299.366	29067.87
299.433	29145.01
299.5	29128.57
299.566	29187.7
299.633	29276.93
299.699	29350.25
299.766	29389.08
299.832	29451.86
299.899	29514.21
299.965	29588.11
300.032	29626.4
300.099	29681.69
300.165	29735.58
300.232	29753.18
300.298	29795.6
300.365	29867.47
300.431	29926.31
300.498	29947.26
300.564	30013.68
300.631	30072.55
300.697	30146.35
300.763	30181.51
300.83	30233.65
300.896	30305.64
300.963	30369.7
301.029	30423.86
301.096	30464.95
301.162	30538.98
301.229	30568.07
301.295	30569.18
301.361	30616.71
301.428	30678.1
301.494	30684.29
301.561	30724.95
301.627	30774.84
301.693	30820.67
301.76	30877.4
301.826	30898.94
301.892	30970.54
301.959	31013.72
302.025	31050.27
302.092	31057.91
302.158	31118.56
302.224	31146.99
302.291	31168.68
302.357	31188.38
302.423	31194.24
302.49	31222.81
302.556	31289.39
302.622	31324.79
302.688	31413.19
302.755	31503.33
302.821	31562
302.887	31635.88
302.954	31681.11
303.02	31745.86
303.086	31810.21
303.152	31834.38
303.219	31858.64
303.285	31891.53
303.351	31963.8
303.417	32010.34
303.483	32041.19
303.55	32069.13
303.616	32103.87
303.682	32136.79
303.748	32172.34
303.815	32267.54
303.881	32324.31
303.947	32317.48
304.013	32356.38
304.079	32364.03
304.145	32334.19
304.212	32370.95
304.278	32383.4
304.344	32405.74
304.41	32405.74
304.476	32417.46
304.542	32444.01
304.608	32499.04
304.674	32512.02
304.741	32530
304.807	32577.34
304.873	32633.93
304.939	32701.19
305.005	32701.04
305.071	32740.42
305.137	32781.7
305.203	32745.4
305.269	32773.56
305.335	32860.36
305.401	32896.08
305.467	32934.64
305.533	32995.7
305.599	33032.44
305.666	33093.69
305.732	33130.91
305.798	33205.78
305.864	33305.16
305.93	33357.98
305.996	33398.5
306.062	33439.36
306.128	33459.86
306.194	33460.98
306.259	33491.76
306.325	33511.24
306.391	33566.5
306.457	33618.6
306.523	33651.61
306.589	33744.3
306.655	33757.82
306.721	33733.34
306.787	33730.48
306.853	33790.98
306.919	33793.12
306.985	33804.7
307.051	33826.66
307.117	33844.6
307.183	33856.28
307.248	33805.27
307.314	33847.55
307.38	33884.11
307.446	33905.15
307.512	33916.94
307.578	33956.98
307.644	33981.32
307.709	34005.47
307.775	34019.77
307.841	34033.15
307.907	34071.79
307.973	34054
308.039	34079.5
308.104	34135.75
308.17	34173.51
308.236	34170.31
308.302	34197.7
308.368	34200.8
308.433	34225.97
308.499	34232.32
308.565	34227.38
308.631	34272.13
308.696	34250.26
308.762	34246.43
308.828	34284.84
308.894	34273.4
308.959	34249.4
309.025	34255.36
309.091	34283.98
309.156	34311.82
309.222	34356.39
309.288	34345.47
309.354	34324.58
309.419	34356.97
309.485	34329.09
309.551	34365.56
309.616	34363.72
309.682	34386.27
309.748	34410.27
309.813	34428.94
309.879	34452.17
309.945	34475.25
310.01	34499.4
310.076	34535
310.141	34553.81
310.207	34547.7
310.273	34587.56
310.338	34641.38
310.404	34633.62
310.469	34624.12
310.535	34611.22
310.601	34587.35
310.666	34640.27
310.732	34701.04
310.797	34707.29
310.863	34726.93
310.928	34740.66
310.994	34780.43
311.059	34809.24
311.125	34836.01
311.191	34879.19
311.256	34884.33
311.322	34925.13
311.387	34897.09
311.453	35732.72
311.518	35719.05
311.584	35748.2
311.649	35789.14
311.715	35785.46
311.78	35811.79
311.846	35817.22
311.911	35871.21
311.976	35890.91
312.042	35881.11
312.107	35868.93
312.173	35866.36
312.238	35889.98
312.304	35902.11
312.369	35905.75
312.434	35908.17
312.5	35922.68
312.565	35880.32
312.631	35920.34
312.696	35932.62
312.761	35976.32
312.827	35171.68
312.892	35280.76
312.958	35296.04
313.023	35307.54
313.088	35341.2
313.154	35329.81
313.219	35338.44
313.284	35332.18
313.35	35367.06
313.415	35371.28
313.48	35394.38
313.546	35427.17
313.611	35466.13
313.676	35473.41
313.741	35483.64
313.807	35519.7
313.872	35561.18
313.937	35593.97
314.003	35636.58
314.068	35646.91
314.133	35690.05
314.198	35696.26
314.264	35663.21
314.329	35661.12
314.394	35684.85
314.459	35698.87
314.525	35789.36
314.59	35807.26
314.655	35812.45
314.72	35845.01
314.785	35870.63
314.851	35868.5
314.916	35846.08
314.981	35829.29
315.046	35838.71
315.111	35836.52
315.176	35835.6
315.242	35867.44
315.307	35895.15
315.372	35873.55
315.437	35884.96
315.502	35886.51
315.567	35932.9
315.632	35920.53
315.698	35954.74
315.763	35964.74
315.828	35961.29
315.893	35961.83
315.958	35968.86
316.023	35957.17
316.088	35922.81
316.153	35884.34
316.218	35892.78
316.283	35867.07
316.348	35845.19
316.413	35837.04
316.479	35803.86
316.544	35709.37
316.609	35620.14
316.674	35528.59
316.739	35453.26
316.804	35348.34
316.869	35235.32
316.934	35132.95
316.999	35037.98
317.064	34880.25
317.129	34743.61
317.194	34626.35
317.259	34471.72
317.324	34317.54
317.389	34192.59
317.454	34066.22
317.518	33959.86
317.583	33858.5
317.648	33760.38
317.713	33628.38
317.778	33451.73
317.843	33348.82
317.908	33218.77
317.973	33083.69
318.038	32962.54
318.103	32814.85
318.168	32704.33
318.233	32582.92
318.297	32408.69
318.362	32268.06
318.427	32126.37
318.492	32010.11
318.557	31840.12
318.622	31725.57
318.687	31617.84
318.751	31462.4
318.816	31325.02
318.881	31170.16
318.946	30968.95
319.011	30792.71
319.075	30619.62
319.14	30467.78
319.205	30282.09
319.27	30143.82
319.335	29970.13
319.399	29797.86
319.464	29651.64
319.529	29445.37
319.594	29277.15
319.658	29130
319.723	28960.22
319.788	28818.48
319.853	28611.26
319.917	28468.98
319.982	28260.87
320.047	28088.32
320.112	27943.44
320.176	27741.15
320.241	27575.76
320.306	27423.77
320.37	27254.99
320.435	27107.19
320.5	26955.14
320.564	26776.75
320.629	26583.22
320.694	26415.57
320.758	26233.46
320.823	26047.15
320.888	25894.88
320.952	25685.73
321.017	25503.61
321.082	25318.82
321.146	25145.66
321.211	24973.16
321.275	24783.41
321.34	24586.88
321.405	24391.2
321.469	24185.41
321.534	23992.68
321.598	23778.53
321.663	23610.52
321.727	23443.07
321.792	23233.44
321.857	23035.23
321.921	22843.86
321.986	22650.29
322.05	22416.9
322.115	22237.03
322.179	22036.87
322.244	21811.22
322.308	21640.58
322.373	21432.2
322.437	21237.66
322.502	21080.8
322.566	20886.27
322.631	20708.18
322.695	20516.13
322.76	20315.44
322.824	20131.15
322.889	19926.43
322.953	19728.16
323.018	19467.24
323.082	19217.79
323.146	19001.51
323.211	18777.61
323.275	18579.54
323.34	18379.11
323.404	18196.55
323.468	17985.67
323.533	17777.18
323.597	17572.98
323.662	17349.65
323.726	17157.07
323.79	16942.02
323.855	16671.02
323.919	16451.06
323.983	16236.1
324.048	15924.19
324.112	16041.63
324.177	15392.86
324.241	14556.78
324.305	13731.32
324.37	12923.47
324.434	12127.6
324.498	11904.34
324.562	11656.77
324.627	11376.01
324.691	11094.85
324.755	10787.28
324.82	10433.23
324.884	10064.02
324.948	9684.27
325.012	9226.72
325.077	8662.79
