Data from 20250626_urea_1M_exp2_MAYP1162681_11-43-58-241.txt Node
Date: Fri Jun 27 11:43:58 BST 2025
User: adleo
Spectrometer: MAYP116268
Trigger mode: 0
Integration Time (sec): 3.000000E0
Scans to average: 1
Electric dark correction enabled: true
Nonlinearity correction enabled: true
Boxcar width: 10
XAxis mode: Wavelengths
Number of Pixels in Spectrum: 2068
>>>>>Begin Spectral Data<<<<<
179.565	3146.7
179.642	3308.14
179.718	3424.32
179.795	3548.11
179.871	3645.6
179.948	3705.71
180.024	3768.39
180.101	3832.76
180.177	3872.63
180.254	3935.71
180.33	3994.32
180.407	4212.39
180.483	4452.6
180.56	4701.66
180.636	4929.87
180.712	4897.91
180.789	4919.27
180.865	4951.91
180.942	4980.45
181.018	5006.31
181.095	5049.97
181.171	5064.58
181.248	5067.55
181.324	5116.52
181.4	5131.67
181.477	5162.67
181.553	5190.73
181.63	5242.72
181.706	5286.29
181.782	5314.35
181.859	5315.93
181.935	5335.96
182.011	5327.81
182.088	5376.46
182.164	5430.7
182.24	5466.87
182.317	5491.98
182.393	5491.69
182.469	5529.41
182.546	5564.07
182.622	5579.07
182.698	5567.81
182.775	5602.47
182.851	5638.66
182.927	5619.1
183.003	5603.38
183.08	5585.31
183.156	5615.12
183.232	5609.22
183.308	5576.72
183.385	5599.25
183.461	5647.63
183.537	5652.38
183.613	5690.07
183.69	5667.68
183.766	5635.29
183.842	5655
183.918	5669.77
183.995	5707.6
184.071	5713.64
184.147	5699.35
184.223	5667.49
184.299	5697.42
184.375	5665.97
184.452	5686.36
184.528	5792.18
184.604	5825.64
184.68	5861.08
184.756	5880.8
184.832	5894.47
184.908	5914.26
184.985	5914.36
185.061	5869.71
185.137	5889.71
185.213	5858.83
185.289	5859.12
185.365	5841.48
185.441	5839.61
185.517	5878.33
185.593	5863.85
185.669	5857.04
185.745	5885.91
185.822	5936.72
185.898	5912.59
185.974	5939.15
186.05	5914.15
186.126	5848.62
186.202	5826.47
186.278	5807.76
186.354	5785.26
186.43	5800.33
186.506	5789.69
186.582	5782.45
186.658	5803.01
186.734	5751.38
186.81	5750.37
186.886	5762.84
186.962	5798.13
187.038	5786.05
187.114	5763.29
187.19	5783.63
187.266	5761.05
187.341	5766.19
187.417	5741.11
187.493	5743.41
187.569	5751.13
187.645	5734.68
187.721	5701.54
187.797	5727.72
187.873	5744.69
187.949	5723.89
188.025	5706.76
188.101	5716.1
188.176	5733.03
188.252	5718.74
188.328	5744
188.404	5747.16
188.48	5728.27
188.556	5700.12
188.632	5702.18
188.707	5703.62
188.783	5699.45
188.859	5683.11
188.935	5646.46
189.011	5666.12
189.086	5649.34
189.162	5625.17
189.238	5625.99
189.314	5620.91
189.39	5600.58
189.465	5579.04
189.541	5626.96
189.617	5586.49
189.693	5574.94
189.768	5583.87
189.844	5648.06
189.92	5618.55
189.996	5643.77
190.071	5684.05
190.147	5685.49
190.223	5706.79
190.298	5683.53
190.374	5646.51
190.45	5679.67
190.526	5703.03
190.601	5691.04
190.677	5692.81
190.753	5778.68
190.828	5779.4
190.904	5820.7
190.98	5861.96
191.055	5894.72
191.131	5873.61
191.207	5925.39
191.282	5949.12
191.358	5920.59
191.433	5884.64
191.509	5928.35
191.585	5917.41
191.66	5915.54
191.736	5941.82
191.811	5917.07
191.887	5965.92
191.963	6030.11
192.038	6041.77
192.114	6045.03
192.189	6050.54
192.265	6042.2
192.34	5972.54
192.416	5979.2
192.491	5966.34
192.567	5976.04
192.642	5978.58
192.718	5972.06
192.793	5949.13
192.869	5940.69
192.944	5951.19
193.02	5972.64
193.095	5976.43
193.171	6000.94
193.246	5991.59
193.322	5979.11
193.397	5980.46
193.473	5940
193.548	5890.04
193.624	5911.83
193.699	5907.32
193.775	5956.95
193.85	5961.65
193.925	5985.16
194.001	5978.21
194.076	5960.98
194.152	5929.84
194.227	5911.12
194.302	5888.21
194.378	5890.56
194.453	5884.09
194.529	5919.74
194.604	5877.04
194.679	5866.1
194.755	5808.99
194.83	5849.8
194.905	5843.75
194.981	5869.51
195.056	5851.25
195.131	5866.11
195.207	5857.23
195.282	5830
195.357	5776.63
195.433	5818.79
195.508	5785.4
195.583	5809.95
195.659	5847.57
195.734	5864.41
195.809	5859.52
195.884	5882.48
195.96	5884.74
196.035	5926.81
196.11	5916.44
196.185	5945.99
196.261	5950.25
196.336	6037.13
196.411	5992.98
196.486	6006.84
196.561	5986.4
196.637	6015.22
196.712	6062.84
196.787	6068.99
196.862	6113.98
196.937	6136.91
197.013	6157.89
197.088	6189.6
197.163	6244.77
197.238	6293.58
197.313	6294.54
197.388	6336.44
197.464	6421.68
197.539	6457.96
197.614	6440.06
197.689	6461.66
197.764	6509.4
197.839	6570.75
197.914	6551.92
197.989	6628.37
198.065	6668.55
198.14	6809.4
198.215	6875.83
198.29	6909.47
198.365	6948.62
198.44	6980.98
198.515	7062.61
198.59	7099.42
198.665	7173.84
198.74	7198.16
198.815	7194.08
198.89	7254.94
198.965	7333.16
199.04	7316.57
199.115	7359.53
199.19	7477.84
199.265	7496.19
199.34	7523.5
199.415	7613.68
199.49	7676.2
199.565	7689.28
199.64	7759.76
199.715	7745.03
199.79	7760.7
199.865	7776.67
199.94	7770.62
200.015	7854.68
200.09	7866.32
200.165	7883.58
200.24	7895.13
200.315	8002.32
200.39	8046.27
200.464	8062.96
200.539	8066.23
200.614	8116.29
200.689	8178.44
200.764	8191.48
200.839	8236.05
200.914	8250.72
200.989	8219.24
201.063	8259.22
201.138	8212.51
201.213	8205.82
201.288	8159.07
201.363	8171.58
201.438	8168.45
201.512	8211.82
201.587	8160.24
201.662	8167.94
201.737	8203.3
201.812	8230.44
201.886	8139.98
201.961	8168.81
202.036	8135.83
202.111	8126.69
202.186	8043.68
202.26	7993.79
202.335	7933.71
202.41	7917.93
202.485	7870.34
202.559	7812.44
202.634	7731.65
202.709	7757.07
202.784	7706.63
202.858	7710.91
202.933	7660.53
203.008	7641.83
203.082	7589.81
203.157	7587.27
203.232	7471.29
203.306	7401.89
203.381	7312.17
203.456	7250.79
203.53	7186.56
203.605	7137.38
203.68	7077.38
203.754	7060.19
203.829	7017.85
203.904	6962.51
203.978	6929.59
204.053	6944.48
204.127	6913.75
204.202	6907.6
204.277	6855.97
204.351	6833.1
204.426	6805.8
204.5	6783.47
204.575	6685.34
204.65	6711.58
204.724	6688.65
204.799	6718.21
204.873	6709.03
204.948	6702.17
205.022	6669.14
205.097	6642.08
205.171	6680.93
205.246	6700.63
205.32	6700.29
205.395	6702.69
205.469	6677.31
205.544	6692.11
205.618	6640.24
205.693	6672.56
205.767	6642.03
205.842	6705.82
205.916	6689.64
205.991	6661.26
206.065	6679.07
206.14	6723.01
206.214	6709.41
206.289	6686.59
206.363	6710.56
206.438	6724.59
206.512	6745.77
206.586	6795.37
206.661	6826.85
206.735	6758.03
206.81	6756.11
206.884	6796.2
206.958	6757.55
207.033	6803.91
207.107	6818.48
207.181	6905.74
207.256	6889.31
207.33	6943.15
207.405	6977.88
207.479	7033.94
207.553	7057.66
207.628	7010.23
207.702	7042.22
207.776	7023.81
207.851	7038.9
207.925	7081.92
207.999	7071.83
208.073	7067.5
208.148	7072.21
208.222	7037.03
208.296	7127.96
208.371	7176.73
208.445	7204.22
208.519	7281.13
208.593	7318.13
208.668	7308.76
208.742	7314.05
208.816	7316.35
208.89	7352.66
208.965	7344.19
209.039	7367.37
209.113	7414.33
209.187	7478.24
209.261	7471.17
209.336	7527.8
209.41	7585.3
209.484	7590.06
209.558	7654.25
209.632	7687.75
209.707	7721.21
209.781	7779.82
209.855	7822.67
209.929	7866.62
210.003	7877.77
210.077	7878.25
210.151	8012.46
210.226	8110.8
210.3	8189.03
210.374	8256.82
210.448	8269.14
210.522	8297.38
210.596	8325.28
210.67	8351.79
210.744	8479.26
210.818	8569.24
210.892	8625.25
210.966	8608.27
211.041	8644.41
211.115	8632.53
211.189	8700.18
211.263	8750.65
211.337	8762.87
211.411	8803.06
211.485	8789.15
211.559	8825.66
211.633	8829.56
211.707	8740.81
211.781	8758.78
211.855	8660.54
211.929	8631.54
212.003	8580.03
212.077	8611.13
212.151	8646.42
212.225	8670.62
212.299	8638.84
212.373	8600.88
212.447	8585.76
212.52	8664.3
212.594	8678.79
212.668	8704.58
212.742	8659.44
212.816	8638.17
212.89	8626.19
212.964	8623.25
213.038	8632.01
213.112	8670.72
213.186	8714.59
213.26	8652.27
213.333	8521.2
213.407	8528.13
213.481	8539.09
213.555	8565.44
213.629	8523.32
213.703	8466.86
213.777	8460.46
213.85	8403.04
213.924	8488.97
213.998	8486.27
214.072	8462.92
214.146	8416.53
214.219	8403.73
214.293	8395.21
214.367	8394.3
214.441	8410.9
214.515	8369.12
214.588	8295.07
214.662	8185.29
214.736	8115.89
214.81	8128.09
214.883	8153.28
214.957	8116.45
215.031	8071.51
215.105	8001.89
215.178	7956.19
215.252	7922.2
215.326	7838.61
215.4	7771.8
215.473	7628.39
215.547	7560.91
215.621	7508.41
215.694	7502.83
215.768	7426.53
215.842	7373.56
215.915	7320.46
215.989	7227.24
216.063	7185.26
216.136	7166.03
216.21	7149.65
216.284	7160.08
216.357	7138.26
216.431	7099.87
216.504	7098.38
216.578	7141.4
216.652	7149.46
216.725	7127.16
216.799	7141.39
216.873	7126.88
216.946	7130.15
217.02	7102.88
217.093	7080.92
217.167	6999.19
217.24	6932.78
217.314	6904.83
217.387	6863.31
217.461	6822.67
217.535	6845.63
217.608	6791.3
217.682	6772.08
217.755	6782.8
217.829	6737.44
217.902	6724.47
217.976	6706.7
218.049	6666.79
218.123	6606.53
218.196	6608.31
218.27	6578.1
218.343	6517.27
218.417	6518.33
218.49	6504.88
218.563	6540.08
218.637	6540.13
218.71	6599.02
218.784	6625.44
218.857	6653.86
218.931	6673.39
219.004	6678.34
219.077	6696.41
219.151	6709.51
219.224	6702.88
219.298	6695.73
219.371	6728.2
219.444	6699.83
219.518	6710.06
219.591	6722.54
219.665	6812.14
219.738	6815.36
219.811	6802.16
219.885	6838.67
219.958	6861.58
220.031	6863.26
220.105	6879.89
220.178	6884.98
220.251	6864.46
220.325	6887.44
220.398	6896.52
220.471	6912.41
220.544	6944.07
220.618	6921.67
220.691	6948.19
220.764	6959.33
220.838	6981.19
220.911	6974.94
220.984	7042.38
221.057	7073.32
221.131	7096.38
221.204	7015.32
221.277	7075.06
221.35	7180.01
221.424	7174.43
221.497	7181.84
221.57	7201.77
221.643	7227.82
221.716	7267.1
221.79	7274.98
221.863	7278.15
221.936	7288.67
222.009	7300.01
222.082	7329.19
222.155	7337.46
222.229	7383.85
222.302	7409.85
222.375	7411.05
222.448	7442.97
222.521	7450.42
222.594	7446.38
222.667	7426.98
222.74	7471.34
222.814	7467.15
222.887	7450.27
222.96	7497.86
223.033	7532.24
223.106	7547.52
223.179	7571.67
223.252	7576.34
223.325	7594.89
223.398	7604.75
223.471	7629.7
223.544	7647.38
223.617	7657.39
223.69	7675.84
223.763	7647.38
223.837	7669.3
223.91	7697.52
223.983	7657.29
224.056	7625.66
224.129	7645.18
224.202	7685.97
224.275	7674
224.348	7649.58
224.42	7623.9
224.493	7576.31
224.566	7556.06
224.639	7577.88
224.712	7553.49
224.785	7550.13
224.858	7541.91
224.931	7529.98
225.004	7493.4
225.077	7493.74
225.15	7410.12
225.223	7405.46
225.296	7474.2
225.369	7421.57
225.442	7397.63
225.514	7407.86
225.587	7425.98
225.66	7436.32
225.733	7438
225.806	7447.47
225.879	7436.71
225.952	7410.66
226.025	7449.89
226.097	7496.07
226.17	7482.13
226.243	7426.29
226.316	7423.26
226.389	7429.55
226.461	7443.16
226.534	7458.06
226.607	7448.98
226.68	7515.95
226.753	7516.92
226.825	7449.66
226.898	7497.48
226.971	7500.61
227.044	7523.39
227.117	7523.68
227.189	7531.08
227.262	7560.56
227.335	7575.9
227.407	7579.56
227.48	7603.29
227.553	7608.34
227.626	7588.23
227.698	7600.58
227.771	7636.76
227.844	7614.65
227.916	7626.19
227.989	7598.21
228.062	7602.58
228.134	7673.13
228.207	7680.54
228.28	7669.82
228.352	7676.89
228.425	7682.85
228.498	7718.58
228.57	7701.23
228.643	7750.91
228.716	7754.71
228.788	7744.95
228.861	7737.49
228.934	7786.73
229.006	7792.4
229.079	7790.04
229.151	7782.54
229.224	7748.66
229.296	7765.24
229.369	7853.57
229.442	7900.43
229.514	7886.98
229.587	7920.64
229.659	7860.47
229.732	7866.91
229.804	7899.41
229.877	7963.98
229.949	7986.54
230.022	8031.21
230.094	8024.62
230.167	8017.21
230.239	7982.49
230.312	7969.08
230.384	8026.63
230.457	8018.54
230.529	8025.23
230.602	8036.39
230.674	8041.49
230.747	8078.06
230.819	8100.96
230.892	7999.27
230.964	7990.46
231.037	8014.16
231.109	8006.89
231.181	8041.9
231.254	8015.98
231.326	8007.85
231.399	7990.81
231.471	7969.12
231.544	7903.39
231.616	7943.96
231.688	7947.81
231.761	7934.64
231.833	7932.53
231.905	7865.32
231.978	7869.26
232.05	7862.1
232.122	7856.61
232.195	7836.75
232.267	7868.93
232.339	7848.68
232.412	7902.33
232.484	7880.34
232.556	7858.86
232.629	7914.06
232.701	7922.09
232.773	7927.76
232.846	7915.74
232.918	7918.15
232.99	7933.4
233.062	7964.09
233.135	7978.18
233.207	7946.48
233.279	7983.02
233.351	8006
233.424	8007.93
233.496	7985.71
233.568	8054.98
233.64	8029.11
233.713	8041.04
233.785	8038.39
233.857	8051.76
233.929	8012.81
234.001	8068.35
234.074	8121.1
234.146	8060.18
234.218	8058.01
234.29	8063.35
234.362	8061.14
234.434	8025.78
234.507	8002.88
234.579	7962.05
234.651	7941.12
234.723	7972
234.795	7991
234.867	7988.07
234.939	8034.06
235.012	8048.39
235.084	8043.48
235.156	8072.96
235.228	8058
235.3	8041.6
235.372	8053.67
235.444	8102.77
235.516	8037.13
235.588	8038.48
235.66	8050.55
235.732	8030.11
235.804	8188.13
235.876	8217.28
235.948	8267.61
236.02	8270.93
236.092	8288
236.164	8299.3
236.236	8291.99
236.308	8288.76
236.38	8307.91
236.452	8293.38
236.524	8314.74
236.596	8370.79
236.668	8396.92
236.74	8417.31
236.812	8434.63
236.884	8462.16
236.956	8471.25
237.028	8467.55
237.1	8452.59
237.172	8515.3
237.244	8581.28
237.316	8486.38
237.388	8472.53
237.46	8451.88
237.532	8505.19
237.604	8493.84
237.675	8553.04
237.747	8594.58
237.819	8587.41
237.891	8589.38
237.963	8581.39
238.035	8577.26
238.107	8483.24
238.178	8532.11
238.25	8538.6
238.322	8620.88
238.394	8589.27
238.466	8589.36
238.538	8624.48
238.609	8661.96
238.681	8616.47
238.753	8592.26
238.825	8604.87
238.897	8631.18
238.968	8699.12
239.04	8683.43
239.112	8776.03
239.184	8746.37
239.255	8744.16
239.327	8766.05
239.399	8787.7
239.471	8821.29
239.542	8848.15
239.614	8904.84
239.686	8842.69
239.758	8886.05
239.829	8856.24
239.901	8905.05
239.973	8910.05
240.044	8933.25
240.116	8948.46
240.188	8960.01
240.259	8976.33
240.331	8967.42
240.403	9001.83
240.474	8957.63
240.546	8949.54
240.618	8894.76
240.689	8896.44
240.761	8909.1
240.833	8970.63
240.904	8966.92
240.976	8967.26
241.048	8976.5
241.119	9006.12
241.191	9046.7
241.262	9104.45
241.334	9104.83
241.405	9101.8
241.477	9107.96
241.549	9119.42
241.62	9140.27
241.692	9181.57
241.763	9228.96
241.835	9242.25
241.906	9255.39
241.978	9236.09
242.049	9300.51
242.121	9360.54
242.192	9412.3
242.264	9381.88
242.335	9340.81
242.407	9382.07
242.478	9387.8
242.55	9409.27
242.621	9399.98
242.693	9394.54
242.764	9383.02
242.836	9388.66
242.907	9418.95
242.979	9448.9
243.05	9473.07
243.122	9482.85
243.193	9474.56
243.264	9415.72
243.336	9425.02
243.407	9451.7
243.479	9517.09
243.55	9519.06
243.622	9525.23
243.693	9521.66
243.764	9586.33
243.836	9564
243.907	9549.7
243.978	9549.89
244.05	9571.66
244.121	9533.52
244.192	9564.25
244.264	9517.44
244.335	9526.87
244.407	9486.23
244.478	9500.34
244.549	9490.08
244.62	9459.03
244.692	9460.95
244.763	9502.22
244.834	9493.93
244.906	9475.24
244.977	9491.19
245.048	9538.02
245.119	9529.16
245.191	9505.08
245.262	9447.87
245.333	9510.22
245.405	9527.36
245.476	9560.25
245.547	9572.68
245.618	9615.82
245.689	9627.14
245.761	9658.92
245.832	9660.75
245.903	9698.8
245.974	9718.26
246.045	9729.62
246.117	9806.15
246.188	9788.58
246.259	9777.07
246.33	9785.06
246.401	9793.11
246.473	9759.68
246.544	9747.97
246.615	9786.17
246.686	9804.85
246.757	9872.46
246.828	9855.9
246.899	9915.78
246.97	9888.63
247.042	9879.71
247.113	9914.4
247.184	9989.04
247.255	9991.11
247.326	10010.28
247.397	10011.53
247.468	10018.57
247.539	10022.37
247.61	9976.08
247.681	10015.28
247.752	10056.89
247.823	10034.5
247.894	10050.59
247.965	10029.93
248.037	10016.87
248.108	9974.44
248.179	9973.42
248.25	9962.92
248.321	9986.57
248.392	9939.83
248.463	10006.68
248.534	10008.71
248.605	10025.81
248.675	9998.39
248.746	10008.17
248.817	10020.98
248.888	10037.8
248.959	9995.75
249.03	10017.28
249.101	10028.5
249.172	10013.67
249.243	9949.76
249.314	10015.84
249.385	10020.52
249.456	10043.97
249.527	10039.87
249.598	10054.32
249.669	10055.09
249.739	10060.92
249.81	10071.42
249.881	10039.78
249.952	10036.84
250.023	10033.81
250.094	9985.87
250.165	9962.45
250.235	9957.78
250.306	9965.44
250.377	9940.73
250.448	9966.83
250.519	9918.43
250.59	9965.01
250.66	9960.25
250.731	10025.12
250.802	10019.1
250.873	10039.43
250.944	10057.01
251.014	10045.01
251.085	10123.26
251.156	10144.84
251.227	10189.36
251.297	10239.19
251.368	10278.92
251.439	10314.1
251.51	10355.15
251.58	10345.32
251.651	10339.83
251.722	10383.43
251.792	10340.27
251.863	10339.35
251.934	10383.39
252.005	10477.86
252.075	10478.39
252.146	10528.06
252.217	10559.81
252.287	10596.09
252.358	10593.2
252.429	10657.63
252.499	10654.78
252.57	10660.76
252.641	10700.32
252.711	10704.51
252.782	10660.81
252.852	10728.51
252.923	10728.56
252.994	10745.04
253.064	10792.97
253.135	10777.61
253.205	10762.67
253.276	10830.31
253.347	10891.69
253.417	10875.06
253.488	10850.49
253.558	10847.79
253.629	10845.81
253.699	10855.4
253.77	10872.61
253.841	10866.59
253.911	10877.05
253.982	10893.66
254.052	10916.61
254.123	10925.33
254.193	10924.94
254.264	11036.56
254.334	11008.75
254.405	10974.2
254.475	10938.93
254.546	10939.94
254.616	10995.93
254.687	11021.81
254.757	11028.07
254.827	11022.44
254.898	11039.93
254.968	11049.28
255.039	11032.75
255.109	11065.9
255.18	11045.13
255.25	10984.56
255.321	11014.58
255.391	10980.79
255.461	11051.63
255.532	10984.3
255.602	10974.96
255.673	10931.78
255.743	10902.62
255.813	10841.05
255.884	10883.98
255.954	10910.87
256.024	10961.62
256.095	10963.83
256.165	10940.08
256.235	10963.98
256.306	10953.62
256.376	10993.24
256.446	11027.55
256.517	11056.22
256.587	11088.08
256.657	11112.03
256.728	11133.33
256.798	11139.49
256.868	11132.84
256.938	11111.64
257.009	11157.52
257.079	11182.48
257.149	11263.01
257.219	11219.2
257.29	11258.17
257.36	11210.75
257.43	11250.37
257.5	11193.94
257.571	11183.67
257.641	11211.33
257.711	11179.19
257.781	11210.8
257.852	11220.01
257.922	11167.38
257.992	11167.09
258.062	11157.21
258.132	11184.63
258.202	11194.13
258.273	11205.5
258.343	11266.81
258.413	11246.71
258.483	11238.52
258.553	11220.97
258.623	11197.5
258.693	11217.45
258.764	11271.96
258.834	11333.26
258.904	11342.51
258.974	11339.47
259.044	11345.21
259.114	11368.34
259.184	11401.12
259.254	11403.48
259.324	11359.48
259.394	11396.15
259.464	11464.69
259.535	11476.83
259.605	11472.74
259.675	11463.72
259.745	11495.05
259.815	11479
259.885	11487.19
259.955	11593.73
260.025	11583.7
260.095	11597.15
260.165	11615.27
260.235	11660.29
260.305	11648.53
260.375	11629.35
260.445	11702.65
260.515	11757.55
260.585	11796.06
260.655	11803.92
260.725	11840.55
260.795	11878.67
260.865	11936.85
260.934	11909.09
261.004	11924.99
261.074	11923.31
261.144	11970.1
261.214	12002.74
261.284	12003.17
261.354	12029.1
261.424	11987.88
261.494	12045.09
261.564	12052.66
261.634	12081.96
261.703	12030.24
261.773	12043.5
261.843	12067.26
261.913	12060.03
261.983	12017.08
262.053	12028.8
262.123	12017.28
262.192	11981.56
262.262	12020.46
262.332	11986.24
262.402	12010.19
262.472	12020.85
262.541	11978.1
262.611	12020.18
262.681	11998.01
262.751	12027.55
262.821	12035.94
262.89	12002.05
262.96	12026.97
263.03	12086.84
263.1	12098.99
263.169	12115.28
263.239	12150.18
263.309	12207.5
263.379	12236.37
263.448	12253.58
263.518	12276.62
263.588	12296.77
263.657	12360.63
263.727	12387.1
263.797	12397.27
263.867	12395.77
263.936	12364.35
264.006	12413.99
264.076	12405.84
264.145	12400.63
264.215	12386.22
264.285	12420.49
264.354	12385.55
264.424	12371.62
264.494	12336.04
264.563	12336.96
264.633	12399.67
264.702	12410.57
264.772	12362.22
264.842	12360.96
264.911	12393.93
264.981	12356.67
265.05	12368.43
265.12	12369.83
265.19	12372.38
265.259	12407.96
265.329	12438.52
265.398	12466.09
265.468	12551.03
265.537	12546.79
265.607	12579.04
265.676	12622.32
265.746	12641.46
265.815	12695.49
265.885	12703.35
265.955	12688.41
266.024	12684.46
266.094	12630.8
266.163	12688.31
266.232	12740.71
266.302	12749.87
266.371	12761.39
266.441	12784.58
266.51	12817.6
266.58	12813.21
266.649	12803.81
266.719	12841.37
266.788	12871.3
266.858	12919.85
266.927	12864.94
266.996	12890.39
267.066	12912.04
267.135	12887.31
267.205	12915.89
267.274	12934.79
267.343	12968.2
267.413	12987.62
267.482	13043.73
267.552	13099.17
267.621	13056.75
267.69	13021.41
267.76	13035.73
267.829	13058.53
267.898	13073.19
267.968	13056.31
268.037	13091.46
268.106	13137.2
268.176	13106.59
268.245	13111.8
268.314	13117.73
268.384	13162.17
268.453	13178.47
268.522	13197.37
268.592	13249.04
268.661	13235.21
268.73	13258.78
268.799	13254.68
268.869	13317.78
268.938	13273.53
269.007	13269.87
269.076	13285.92
269.146	13333.6
269.215	13362.38
269.284	13421.77
269.353	13412.12
269.422	13422.54
269.492	13414
269.561	13335.81
269.63	13371.68
269.699	13365.94
269.768	13379.39
269.838	13402.58
269.907	13441.39
269.976	13424.66
270.045	13377.95
270.114	13424.13
270.183	13428.76
270.253	13457.25
270.322	13413.52
270.391	13442.69
270.46	13499.47
270.529	13540.84
270.598	13575.88
270.667	13584.22
270.736	13554.58
270.806	13590.06
270.875	13638.6
270.944	13652.77
271.013	13763.93
271.082	13786.45
271.151	13815.03
271.22	13781.87
271.289	13784.37
271.358	13783.7
271.427	13810.26
271.496	13834.89
271.565	13823.28
271.634	13846.46
271.703	13886.81
271.772	13945.62
271.841	13946.11
271.91	13915.35
271.979	13924.22
272.048	13902.82
272.117	13938.63
272.186	13948.71
272.255	13987.51
272.324	14020.34
272.393	14045.99
272.462	14033.5
272.531	14052.3
272.6	14062.48
272.669	14130.35
272.738	14140.38
272.807	14161.2
272.876	14156.09
272.945	14273.08
273.013	14327.32
273.082	14368.05
273.151	14353.59
273.22	14376.48
273.289	14403.34
273.358	14473.67
273.427	14487.79
273.496	14525.15
273.564	14554.55
273.633	14599.92
273.702	14587.91
273.771	14599.48
273.84	14627.54
273.909	14671.35
273.977	14699.46
274.046	14709.15
274.115	14755.28
274.184	14750.55
274.253	14772.29
274.322	14823.53
274.39	14778.27
274.459	14766.41
274.528	14739.66
274.597	14768.39
274.665	14790.23
274.734	14843.83
274.803	14846.67
274.872	14868.08
274.94	14871.69
275.009	15057.68
275.078	15044.32
275.147	15084.48
275.215	15103.71
275.284	15155.05
275.353	15165.51
275.421	15134.7
275.49	15213.37
275.559	15216.89
275.627	15241.47
275.696	15259.16
275.765	15295.89
275.833	15296.91
275.902	15335.08
275.971	15404.16
276.039	15470.39
276.108	15523.17
276.177	15548.52
276.245	15559.41
276.314	15577.73
276.383	15621.4
276.451	15484
276.52	15534.71
276.588	15598
276.657	15655.11
276.725	15665.33
276.794	15684.8
276.863	15759.04
276.931	15733.68
277	15781.21
277.068	15842.04
277.137	15922.82
277.205	15952.7
277.274	16043.85
277.342	16102.89
277.411	16078.16
277.48	16079.32
277.548	16088.91
277.617	16135.28
277.685	16156.39
277.754	16208.73
277.822	16222.23
277.89	16301.9
277.959	16321.95
278.027	16304.11
278.096	16303.44
278.164	16409.85
278.233	16437.37
278.301	16435.64
278.37	16482.58
278.438	16487.31
278.507	16535.26
278.575	16504.13
278.643	16528.03
278.712	16510.01
278.78	16508.76
278.849	16586.98
278.917	16653.49
278.985	16677.2
279.054	16709.88
279.122	16765.79
279.191	16790.03
279.259	16808.54
279.327	16775.28
279.396	16856.64
279.464	16885.46
279.532	16942.62
279.601	16963.67
279.669	16991.92
279.737	17069.61
279.806	17116.16
279.874	17181.27
279.942	17207.83
280.011	17228.79
280.079	17286.62
280.147	17374.92
280.215	17421.57
280.284	17435.54
280.352	17430.43
280.42	17475.59
280.488	17486.72
280.557	17512.02
280.625	17564.22
280.693	17617.33
280.761	17662.77
280.83	17654.44
280.898	17720.85
280.966	17700.8
281.034	17642.44
281.102	17629.23
281.171	17645.91
281.239	17702.19
281.307	17709.13
281.375	17714.96
281.443	17821.95
281.512	17845.8
281.58	17895.1
281.648	17894.62
281.716	17929.85
281.784	17966.23
281.852	17983.63
281.92	18019.1
281.989	18080.3
282.057	18064.3
282.125	18196.01
282.193	18228.2
282.261	18260.39
282.329	18280.72
282.397	18322.41
282.465	18374.12
282.533	18453.4
282.601	18462.55
282.67	18425.88
282.738	18440.14
282.806	18518.21
282.874	18510.65
282.942	18549.68
283.01	18562.26
283.078	18612.38
283.146	18628.66
283.214	18684.23
283.282	18733.81
283.35	18802.87
283.418	18825.95
283.486	18870.58
283.554	18804.12
283.622	18836.51
283.69	18874.19
283.758	18897.52
283.826	18949.32
283.894	19009.41
283.962	19103.96
284.03	19186.03
284.098	19233.45
284.165	19256.48
284.233	19280.1
284.301	19316.77
284.369	19331.27
284.437	19347.71
284.505	19369.92
284.573	19461.58
284.641	19468.18
284.709	19528.42
284.777	19524.04
284.845	19579.46
284.912	19637.77
284.98	19693.33
285.048	19710.63
285.116	19751.93
285.184	19827.06
285.252	19877.03
285.319	19870.57
285.387	19879.3
285.455	19868.26
285.523	19924.6
285.591	19959.53
285.659	19992.98
285.726	20054.86
285.794	20053.36
285.862	20078.76
285.93	20119.72
285.997	20137.75
286.065	20165.89
286.133	20170.23
286.201	20194.13
286.269	20189.89
286.336	20197.94
286.404	20222.27
286.472	20285.98
286.539	20269.21
286.607	20255.62
286.675	20289.31
286.743	20351.09
286.81	20370.52
286.878	20439.29
286.946	20460.4
287.013	20499.48
287.081	20544.2
287.149	20539.43
287.216	20646.71
287.284	20684.4
287.352	20716.93
287.419	20751.01
287.487	20832.27
287.555	20881.43
287.622	20915.11
287.69	20969.58
287.758	21045.53
287.825	21065.58
287.893	21063.75
287.96	21122.3
288.028	21197.78
288.096	21239.62
288.163	21285.46
288.231	21295.77
288.298	21329.08
288.366	21401.13
288.433	21429.28
288.501	21431.98
288.569	21476.03
288.636	21481.48
288.704	21543.08
288.771	21608.58
288.839	21616.59
288.906	21626.9
288.974	21683.93
289.041	21711.5
289.109	21724.8
289.176	21780.92
289.244	21828.35
289.311	21905.09
289.379	21969.48
289.446	22009.16
289.514	22039.24
289.581	22067.05
289.649	22117.47
289.716	22159.99
289.783	22175.37
289.851	22269.28
289.918	22313.28
289.986	22378.66
290.053	22425.9
290.121	22460.81
290.188	22499.95
290.255	22613.06
290.323	22650.42
290.39	22668.75
290.458	22730.69
290.525	22806.72
290.592	22832.57
290.66	22868
290.727	22895.15
290.794	22962.7
290.862	22998.67
290.929	23046.45
290.996	23089.89
291.064	23146.4
291.131	23217.29
291.198	23285.57
291.266	23312.48
291.333	23358.38
291.4	23411.04
291.468	23492.65
291.535	23520.08
291.602	23565.03
291.669	23586.2
291.737	23626.85
291.804	23665.58
291.871	23741.34
291.938	23783.83
292.006	23888.23
292.073	23960.47
292.14	24015.65
292.207	24031.95
292.275	24067.11
292.342	24132.18
292.409	24239.03
292.476	24338.41
292.543	24346.42
292.611	24386.8
292.678	24462.1
292.745	24561.04
292.812	24607.3
292.879	24628.58
292.946	24670.5
293.014	24743.73
293.081	24801.1
293.148	24875.25
293.215	24952.16
293.282	24974.69
293.349	25031.96
293.416	25006.14
293.484	25082.58
293.551	25148.73
293.618	25233.99
293.685	25333.74
293.752	25345.95
293.819	25371.48
293.886	25374.76
293.953	25429.19
294.02	25496.37
294.087	25552.12
294.154	25570.17
294.221	25652.77
294.288	25697.9
294.356	25786.36
294.423	25833.14
294.49	25840.13
294.557	25908.49
294.624	25922.44
294.691	26012.65
294.758	26063.3
294.825	26134.16
294.892	26149.8
294.959	26189.14
295.026	26237.04
295.093	26256.55
295.16	26305.78
295.226	26346.53
295.293	26448.86
295.36	26496.95
295.427	26569.06
295.494	26634.16
295.561	26706.4
295.628	26807.83
295.695	26890.51
295.762	26939.81
295.829	27007.15
295.896	27100.97
295.963	27155.12
296.03	27233.4
296.096	27290.65
296.163	27363.16
296.23	27449.49
296.297	27529.67
296.364	27572.8
296.431	27636.96
296.498	27669.47
296.564	27774.67
296.631	27825.64
296.698	27822.45
296.765	27918.84
296.832	27922.31
296.899	27933.57
296.965	28023.56
297.032	27997.21
297.099	28089.06
297.166	28150.63
297.233	28177.84
297.299	28193.98
297.366	28244.05
297.433	28288.95
297.5	28354.79
297.566	28390.75
297.633	28425.08
297.7	28475.54
297.767	28508.49
297.833	28564.72
297.9	28614.93
297.967	28619.62
298.033	28690.06
298.1	28820.52
298.167	28833.53
298.234	28892.88
298.3	28960.03
298.367	28971.49
298.434	29033.39
298.5	29045.87
298.567	29073.43
298.634	29122.65
298.7	29213.25
298.767	29259.78
298.834	29334.06
298.9	29343.59
298.967	29368.54
299.033	29428.62
299.1	29507.71
299.167	29591.07
299.233	29617.92
299.3	29698
299.366	29781.18
299.433	29854
299.5	29820.47
299.566	29889.49
299.633	29974.21
299.699	30045.47
299.766	30087.32
299.832	30139.33
299.899	30202.54
299.965	30273.95
300.032	30293.78
300.099	30358.87
300.165	30417.28
300.232	30447.43
300.298	30497.74
300.365	30575.79
300.431	30617.85
300.498	30640.8
300.564	30703.66
300.631	30770.99
300.697	30842.38
300.763	30870.45
300.83	30911.61
300.896	30992.43
300.963	31052.7
301.029	31100.92
301.096	31145.42
301.162	31214.98
301.229	31259.76
301.295	31255.89
301.361	31303.24
301.428	31358.8
301.494	31350.23
301.561	31394.15
301.627	31442.46
301.693	31495.33
301.76	31535.03
301.826	31566.95
301.892	31628.5
301.959	31683.47
302.025	31712.96
302.092	31742.94
302.158	31807.29
302.224	31844.69
302.291	31847.11
302.357	31872.87
302.423	31889.68
302.49	31910.99
302.556	31980.51
302.622	32008.46
302.688	32094.04
302.755	32171.8
302.821	32241.4
302.887	32315.45
302.954	32352.17
303.02	32408.94
303.086	32470.37
303.152	32497.45
303.219	32521.77
303.285	32576.09
303.351	32629.3
303.417	32674.21
303.483	32688.74
303.55	32714.32
303.616	32749.55
303.682	32803.27
303.748	32818.92
303.815	32900.77
303.881	32966.77
303.947	32960.86
304.013	33006.6
304.079	33020.37
304.145	33008.88
304.212	33030.93
304.278	33051.13
304.344	33084.57
304.41	33090.34
304.476	33102.84
304.542	33137.05
304.608	33193.85
304.674	33179.84
304.741	33196.08
304.807	33245.57
304.873	33306.55
304.939	33391.18
305.005	33383.33
305.071	33416.91
305.137	33466.87
305.203	33433.62
305.269	33453.26
305.335	33527.23
305.401	33547.84
305.467	33566.64
305.533	33630.73
305.599	33694.05
305.666	33742.96
305.732	33765.3
305.798	33836.42
305.864	33922.15
305.93	33976.5
305.996	34010.1
306.062	34053.48
306.128	34089.56
306.194	34082.73
306.259	34105.42
306.325	34101.98
306.391	34162.53
306.457	34215.57
306.523	34265.9
306.589	34364.87
306.655	34388.82
306.721	34375.05
306.787	34378.64
306.853	34464.87
306.919	34444.84
306.985	34452.99
307.051	34470.25
307.117	34487.03
307.183	34506.91
307.248	34475.82
307.314	34512.93
307.38	34543.48
307.446	34595.77
307.512	34585.82
307.578	34638.88
307.644	34658.23
307.709	34693.1
307.775	34716.38
307.841	34735.3
307.907	34768.38
307.973	34750.72
308.039	34782.88
308.104	34823.28
308.17	34876.33
308.236	34853.87
308.302	34906.73
308.368	34907.95
308.433	34942.43
308.499	34959.84
308.565	34968.28
308.631	35008.25
308.696	34986.27
308.762	34984.09
308.828	34999.86
308.894	34993.12
308.959	34970.03
309.025	34989.29
309.091	35008.74
309.156	35020.63
309.222	35050.95
309.288	35048.72
309.354	35026.79
309.419	35041.15
309.485	35037.18
309.551	35067.01
309.616	35073.56
309.682	35083.8
309.748	35097.23
309.813	35122.95
309.879	35136.62
309.945	35126.58
310.01	35140.94
310.076	35181.3
310.141	35206.77
310.207	35200.71
310.273	35252.46
310.338	35296.45
310.404	35271.33
310.469	35260.02
310.535	35269.44
310.601	35243.87
310.666	35280.99
310.732	35334.49
310.797	35343.52
310.863	35350.84
310.928	35371.85
310.994	35402.52
311.059	35430.42
311.125	35454.52
311.191	35501.89
311.256	35517.03
311.322	35563.94
311.387	35543.42
311.453	36670.86
311.518	36668.87
311.584	36694.3
311.649	36733.07
311.715	36737.48
311.78	36775.9
311.846	36790.12
311.911	36840.78
311.976	36890.95
312.042	36875.71
312.107	36875.56
312.173	36877.36
312.238	36899.48
312.304	36912.97
312.369	36924.38
312.434	36911.03
312.5	36927.38
312.565	36876.48
312.631	36905.15
312.696	36908.74
312.761	36943.24
312.827	35845.88
312.892	35945.48
312.958	35965.91
313.023	35979.94
313.088	35999.15
313.154	35993.04
313.219	35998.04
313.284	35995.41
313.35	36000.9
313.415	36003.08
313.48	36013.03
313.546	36053.21
313.611	36098.59
313.676	36098.88
313.741	36089.51
313.807	36140.37
313.872	36184.68
313.937	36232.1
314.003	36297.14
314.068	36322.37
314.133	36362.36
314.198	36361.39
314.264	36318.28
314.329	36316.97
314.394	36334.3
314.459	36362.89
314.525	36446.94
314.59	36469.26
314.655	36454.12
314.72	36493.1
314.785	36525.61
314.851	36537.99
314.916	36525.56
314.981	36525.9
315.046	36527.31
315.111	36541.33
315.176	36536.19
315.242	36567.69
315.307	36584.1
315.372	36553.61
315.437	36552.55
315.502	36557.16
315.567	36610.16
315.632	36611.77
315.698	36650.31
315.763	36657.88
315.828	36649.44
315.893	36647.35
315.958	36669.38
316.023	36672.1
316.088	36630.84
316.153	36593.62
316.218	36598.57
316.283	36546.7
316.348	36491.53
316.413	36498.27
316.479	36467.02
316.544	36390.02
316.609	36301.93
316.674	36196.05
316.739	36103.81
316.804	36029.19
316.869	35920.55
316.934	35804.96
316.999	35699.33
317.064	35541.21
317.129	35409.92
317.194	35298.69
317.259	35144.41
317.324	34970.72
317.389	34826.1
317.454	34703.14
317.518	34599.36
317.583	34499.87
317.648	34413.84
317.713	34301.2
317.778	34102.18
317.843	33993.37
317.908	33846.55
317.973	33696.93
318.038	33593.34
318.103	33448.24
318.168	33312.86
318.233	33199.74
318.297	33021.6
318.362	32884.02
318.427	32733.42
318.492	32631.21
318.557	32462.06
318.622	32348.54
318.687	32247.65
318.751	32099.77
318.816	31963.66
318.881	31809.8
318.946	31612.81
319.011	31443.33
319.075	31284.71
319.14	31133.99
319.205	30953.4
319.27	30814.13
319.335	30642.48
319.399	30468.24
319.464	30334.94
319.529	30139.34
319.594	29964.37
319.658	29831.84
319.723	29655.91
319.788	29509.19
319.853	29285.47
319.917	29135.35
319.982	28931.32
320.047	28749
320.112	28615.47
320.176	28398.35
320.241	28232.07
320.306	28067.6
320.37	27886.19
320.435	27711.65
320.5	27567.86
320.564	27379.02
320.629	27190.65
320.694	27044.87
320.758	26862.36
320.823	26667.11
320.888	26513.23
320.952	26302.53
321.017	26114.08
321.082	25926.11
321.146	25756.1
321.211	25583.31
321.275	25391.96
321.34	25189.92
321.405	24998.46
321.469	24784.88
321.534	24600.9
321.598	24389.98
321.663	24225.5
321.727	24061.82
321.792	23857.6
321.857	23662.87
321.921	23485.2
321.986	23299.31
322.05	23047.6
322.115	22861.09
322.179	22660.28
322.244	22424.62
322.308	22256.56
322.373	22047.53
322.437	21857.93
322.502	21717.88
322.566	21513.54
322.631	21336.98
322.695	21151.47
322.76	20955.54
322.824	20771.38
322.889	20576.24
322.953	20365.68
323.018	20096.36
323.082	19830.04
323.146	19601.22
323.211	19363.19
323.275	19158.86
323.34	18941.27
323.404	18763.01
323.468	18550.63
323.533	18342.77
323.597	18133.08
323.662	17907.45
323.726	17714.29
323.79	17494.58
323.855	17217.9
323.919	16995.09
323.983	16767.47
324.048	16451.28
324.112	16631.68
324.177	15983.11
324.241	15115.95
324.305	14265.43
324.37	13435.07
324.434	12623.64
324.498	12404.49
324.562	12159.51
324.627	11868.86
324.691	11590.58
324.755	11276.68
324.82	10917.9
324.884	10544.73
324.948	10172.01
325.012	9705.02
325.077	9139.97
