Data from 20250626_urea_1M_exp2_MAYP1162681_02-34-00-903.txt Node
Date: Fri Jun 27 02:34:00 BST 2025
User: adleo
Spectrometer: MAYP116268
Trigger mode: 0
Integration Time (sec): 3.000000E0
Scans to average: 1
Electric dark correction enabled: true
Nonlinearity correction enabled: true
Boxcar width: 10
XAxis mode: Wavelengths
Number of Pixels in Spectrum: 2068
>>>>>Begin Spectral Data<<<<<
179.565	2732.69
179.642	2875.81
179.718	2976.75
179.795	3078.54
179.871	3159.94
179.948	3210.45
180.024	3266.83
180.101	3327.32
180.177	3359.94
180.254	3416.56
180.33	3474.82
180.407	3661.8
180.483	3878.71
180.56	4093.2
180.636	4294.08
180.712	4266.43
180.789	4285.85
180.865	4313.57
180.942	4338.19
181.018	4370.1
181.095	4401.25
181.171	4409.62
181.248	4409.48
181.324	4457.53
181.4	4473.13
181.477	4501.27
181.553	4528.76
181.63	4577.39
181.706	4612.53
181.782	4637.92
181.859	4643.56
181.935	4659.22
182.011	4653.81
182.088	4689.76
182.164	4738.37
182.24	4766.17
182.317	4791.34
182.393	4788.13
182.469	4825.37
182.546	4859.32
182.622	4871.43
182.698	4868.6
182.775	4909.35
182.851	4949.04
182.927	4924.86
183.003	4913.52
183.08	4898.15
183.156	4925.58
183.232	4918.64
183.308	4895.7
183.385	4916.86
183.461	4954.12
183.537	4953.83
183.613	4985.87
183.69	4968.58
183.766	4945.73
183.842	4967.47
183.918	4980.11
183.995	5010.09
184.071	5019.28
184.147	5006.4
184.223	4978.55
184.299	5004.99
184.375	4972.72
184.452	4987.96
184.528	5089.62
184.604	5117.2
184.68	5149.04
184.756	5167.44
184.832	5177.79
184.908	5187.22
184.985	5184.06
185.061	5142.35
185.137	5162.42
185.213	5128.85
185.289	5132.92
185.365	5113.53
185.441	5107.78
185.517	5141.76
185.593	5136.82
185.669	5131.27
185.745	5151.62
185.822	5189.82
185.898	5169.22
185.974	5192.15
186.05	5173.65
186.126	5111.89
186.202	5094.37
186.278	5083.83
186.354	5056.18
186.43	5072.43
186.506	5070.61
186.582	5071.43
186.658	5092.06
186.734	5044.13
186.81	5053.18
186.886	5061.03
186.962	5089.72
187.038	5080.09
187.114	5059
187.19	5074.38
187.266	5046.89
187.341	5056
187.417	5041.1
187.493	5043.16
187.569	5053.66
187.645	5035.94
187.721	5013.03
187.797	5036.73
187.873	5050.15
187.949	5033.16
188.025	5018.15
188.101	5026.58
188.176	5033.04
188.252	5023.32
188.328	5046.01
188.404	5043.28
188.48	5029.87
188.556	5008.85
188.632	5011.29
188.707	5016.8
188.783	5011.29
188.859	5003.73
188.935	4973.45
189.011	4992.65
189.086	4975.66
189.162	4952.47
189.238	4948.79
189.314	4936.34
189.39	4917.61
189.465	4899.02
189.541	4944.72
189.617	4909.14
189.693	4893.01
189.768	4907.62
189.844	4961.43
189.92	4939.71
189.996	4960.44
190.071	4987.07
190.147	4990.04
190.223	5009.97
190.298	4988.7
190.374	4957.19
190.45	4986.72
190.526	5003.82
190.601	4989.55
190.677	4993.09
190.753	5066.68
190.828	5074.54
190.904	5112.43
190.98	5153.64
191.055	5172.51
191.131	5155.07
191.207	5208
191.282	5230.98
191.358	5204.54
191.433	5172.76
191.509	5204.49
191.585	5201.04
191.66	5202.86
191.736	5219.72
191.811	5197.25
191.887	5238.62
191.963	5294.58
192.038	5304.78
192.114	5307.04
192.189	5316.71
192.265	5308.29
192.34	5249.88
192.416	5248.44
192.491	5237.37
192.567	5242.45
192.642	5249.4
192.718	5245.09
192.793	5214.18
192.869	5206.42
192.944	5212.69
193.02	5233.49
193.095	5239.86
193.171	5252.03
193.246	5250.41
193.322	5244.94
193.397	5248.54
193.473	5211.91
193.548	5172.13
193.624	5190.25
193.699	5186.52
193.775	5227.31
193.85	5234.16
193.925	5254.57
194.001	5248.59
194.076	5228.42
194.152	5205.27
194.227	5190.27
194.302	5168.77
194.378	5173.32
194.453	5166.9
194.529	5197.76
194.604	5161.68
194.679	5154.64
194.755	5105.8
194.83	5136.25
194.905	5132.85
194.981	5154.45
195.056	5136.74
195.131	5149.77
195.207	5139.84
195.282	5116.09
195.357	5066.53
195.433	5103.65
195.508	5070.74
195.583	5092.34
195.659	5129.52
195.734	5141.22
195.809	5142.51
195.884	5163.53
195.96	5162.81
196.035	5201.95
196.11	5197.35
196.185	5221.64
196.261	5218.86
196.336	5300.93
196.411	5262.39
196.486	5272.5
196.561	5254.53
196.637	5281.59
196.712	5318.03
196.787	5330.49
196.862	5373.47
196.937	5395.55
197.013	5413.34
197.088	5442.52
197.163	5493.54
197.238	5534.43
197.313	5534.14
197.388	5568.42
197.464	5642.71
197.539	5679.33
197.614	5660.06
197.689	5681.55
197.764	5722.89
197.839	5780.23
197.914	5762.96
197.989	5820.8
198.065	5857.86
198.14	5985.64
198.215	6047.29
198.29	6077.05
198.365	6111.11
198.44	6135.14
198.515	6204.63
198.59	6235.97
198.665	6300.51
198.74	6327.02
198.815	6332.01
198.89	6388.44
198.965	6462.92
199.04	6454.52
199.115	6484.8
199.19	6590.63
199.265	6605.32
199.34	6632.64
199.415	6717.49
199.49	6772.16
199.565	6793.96
199.64	6853.56
199.715	6845.05
199.79	6855.66
199.865	6872.14
199.94	6862.44
200.015	6941.81
200.09	6955.98
200.165	6973.8
200.24	6987.3
200.315	7080.26
200.39	7121.53
200.464	7136.57
200.539	7134.79
200.614	7174.8
200.689	7235.64
200.764	7257.23
200.839	7295.11
200.914	7303.04
200.989	7275.73
201.063	7311.77
201.138	7270.97
201.213	7265.44
201.288	7216.67
201.363	7233.05
201.438	7228.35
201.512	7268.35
201.587	7224.42
201.662	7237.49
201.737	7268.49
201.812	7290.36
201.886	7207.83
201.961	7228.12
202.036	7200.41
202.111	7192.86
202.186	7114.18
202.26	7070.92
202.335	7007.39
202.41	6998.69
202.485	6958.84
202.559	6901.59
202.634	6832.41
202.709	6852.33
202.784	6807.76
202.858	6805.12
202.933	6758.73
203.008	6748.69
203.082	6700.33
203.157	6697.26
203.232	6589.7
203.306	6528.5
203.381	6448.48
203.456	6389.63
203.53	6329.02
203.605	6279.9
203.68	6221.74
203.754	6211.63
203.829	6172.16
203.904	6122.99
203.978	6089.48
204.053	6100.95
204.127	6076.82
204.202	6073.17
204.277	6030.43
204.351	6013.78
204.426	5994.53
204.5	5971.7
204.575	5883.36
204.65	5910.82
204.724	5889.84
204.799	5911.74
204.873	5905.07
204.948	5902.91
205.022	5878.55
205.097	5855.7
205.171	5887.98
205.246	5909.77
205.32	5908.57
205.395	5911.06
205.469	5895.15
205.544	5911.81
205.618	5868.2
205.693	5896.08
205.767	5868.64
205.842	5918.35
205.916	5904.29
205.991	5880.26
206.065	5902.24
206.14	5940.52
206.214	5922.71
206.289	5903.22
206.363	5930.13
206.438	5936.42
206.512	5953.07
206.586	5997.82
206.661	6022.3
206.735	5968.61
206.81	5973.99
206.884	6010.87
206.958	5975
207.033	6009.95
207.107	6021.23
207.181	6100.29
207.256	6084.36
207.33	6126.67
207.405	6162.65
207.479	6213.99
207.553	6236.01
207.628	6194.72
207.702	6221.68
207.776	6206.47
207.851	6214.24
207.925	6249.58
207.999	6245.02
208.073	6236.91
208.148	6243.97
208.222	6213.01
208.296	6287.96
208.371	6327.74
208.445	6349.97
208.519	6425.21
208.593	6455.35
208.668	6440.99
208.742	6443.34
208.816	6449.2
208.89	6487.91
208.965	6479.94
209.039	6495.16
209.113	6536.84
209.187	6593.1
209.261	6585.28
209.336	6640.35
209.41	6690.05
209.484	6693.66
209.558	6747.83
209.632	6783.89
209.707	6809
209.781	6867.79
209.855	6913.67
209.929	6948.3
210.003	6969.29
210.077	6965.44
210.151	7088.6
210.226	7181.8
210.3	7251.05
210.374	7312.86
210.448	7317.38
210.522	7346.61
210.596	7371.7
210.67	7399.19
210.744	7512.08
210.818	7597.1
210.892	7643.36
210.966	7631.82
211.041	7669.94
211.115	7661.63
211.189	7719.46
211.263	7764.79
211.337	7775.17
211.411	7809.03
211.485	7798.01
211.559	7829.35
211.633	7834.01
211.707	7757.27
211.781	7777.92
211.855	7696.6
211.929	7673.58
212.003	7631.93
212.077	7657.81
212.151	7688.78
212.225	7709.75
212.299	7676.3
212.373	7644.09
212.447	7632.5
212.52	7702.85
212.594	7707.46
212.668	7735.68
212.742	7701.21
212.816	7687.79
212.89	7676.16
212.964	7671.92
213.038	7680.29
213.112	7702.18
213.186	7738.61
213.26	7675.92
213.333	7555.6
213.407	7561.46
213.481	7565.98
213.555	7591.57
213.629	7554.64
213.703	7507.76
213.777	7497.32
213.85	7446.07
213.924	7528.89
213.998	7528.99
214.072	7508.06
214.146	7467.87
214.219	7455.13
214.293	7442.64
214.367	7444.08
214.441	7462.59
214.515	7424.12
214.588	7357.74
214.662	7264.08
214.736	7206.03
214.81	7225.71
214.883	7244.39
214.957	7210.34
215.031	7170.68
215.105	7102.19
215.178	7055.78
215.252	7031.76
215.326	6961.47
215.4	6901.84
215.473	6765.34
215.547	6704.02
215.621	6654.79
215.694	6656.23
215.768	6587.36
215.842	6540.79
215.915	6485.29
215.989	6397.07
216.063	6355.03
216.136	6336.84
216.21	6321.53
216.284	6328.49
216.357	6312.36
216.431	6281.3
216.504	6276.94
216.578	6317.7
216.652	6325.9
216.725	6310.78
216.799	6310.54
216.873	6295.28
216.946	6302.24
217.02	6273.94
217.093	6253.64
217.167	6186.16
217.24	6124.09
217.314	6095.36
217.387	6058.35
217.461	6028.69
217.535	6051.77
217.608	6009.65
217.682	5992.23
217.755	6005.61
217.829	5969.04
217.902	5952.68
217.976	5943.42
218.049	5910.04
218.123	5853.1
218.196	5855.55
218.27	5828.35
218.343	5780.89
218.417	5779.54
218.49	5760.7
218.563	5792.49
218.637	5797.1
218.71	5852.09
218.784	5875.31
218.857	5903.5
218.931	5922.01
219.004	5925.36
219.077	5942.26
219.151	5958.62
219.224	5953.53
219.298	5945.52
219.371	5975.75
219.444	5951.44
219.518	5953.74
219.591	5970.1
219.665	6049.81
219.738	6054.89
219.811	6046.22
219.885	6080.71
219.958	6106.72
220.031	6109.84
220.105	6126.64
220.178	6132.21
220.251	6105.85
220.325	6123.52
220.398	6131.63
220.471	6141.56
220.544	6164.35
220.618	6141.84
220.691	6159.49
220.764	6175.09
220.838	6197.36
220.911	6188.28
220.984	6247.3
221.057	6277.43
221.131	6295.33
221.204	6225.26
221.277	6282.34
221.35	6375.76
221.424	6373.17
221.497	6379.75
221.57	6404.69
221.643	6423.66
221.716	6450.89
221.79	6457.75
221.863	6460.97
221.936	6472.87
222.009	6488.85
222.082	6514.59
222.155	6527.17
222.229	6578.99
222.302	6598.72
222.375	6607.27
222.448	6635.7
222.521	6643.62
222.594	6642.18
222.667	6621.07
222.74	6665.34
222.814	6663.56
222.887	6645.01
222.96	6681.03
223.033	6712.02
223.106	6728.62
223.179	6757.89
223.252	6768.46
223.325	6792.99
223.398	6810.1
223.471	6830.22
223.544	6844.19
223.617	6852.16
223.69	6864.74
223.763	6831.98
223.837	6850.66
223.91	6868.43
223.983	6837.8
224.056	6812.68
224.129	6826.61
224.202	6868.7
224.275	6854.49
224.348	6829.41
224.42	6809.38
224.493	6769
224.566	6750.5
224.639	6763.17
224.712	6735.69
224.785	6732.47
224.858	6726.56
224.931	6712.24
225.004	6682.57
225.077	6683.39
225.15	6619.11
225.223	6622.8
225.296	6683.27
225.369	6639.81
225.442	6617.91
225.514	6623.38
225.587	6637.4
225.66	6649.51
225.733	6650.47
225.806	6655.41
225.879	6646.39
225.952	6621.47
226.025	6657.83
226.097	6697.91
226.17	6693.2
226.243	6654.12
226.316	6646.97
226.389	6646.82
226.461	6663.97
226.534	6681.64
226.607	6677.13
226.68	6739.01
226.753	6728.3
226.825	6674.46
226.898	6723.15
226.971	6721.28
227.044	6740.2
227.117	6745.72
227.189	6751.73
227.262	6778.63
227.335	6797.08
227.407	6800.15
227.48	6827.95
227.553	6840.2
227.626	6826.36
227.698	6832.84
227.771	6860.82
227.844	6844.93
227.916	6863.76
227.989	6835.75
228.062	6835.75
228.134	6902.26
228.207	6905.19
228.28	6897.65
228.352	6902.21
228.425	6908.17
228.498	6946.65
228.57	6935.51
228.643	6978.09
228.716	6985.49
228.788	6976.12
228.861	6973.38
228.934	7016.13
229.006	7024.1
229.079	7022.9
229.151	7014.63
229.224	6984.87
229.296	7002.25
229.369	7083.63
229.442	7125.46
229.514	7116.58
229.587	7149.39
229.659	7088.74
229.732	7098.31
229.804	7131.45
229.877	7192.98
229.949	7215.53
230.022	7259.96
230.094	7260.49
230.167	7252.8
230.239	7218.31
230.312	7207.45
230.384	7259.76
230.457	7259.66
230.529	7267.59
230.602	7270.95
230.674	7276.39
230.747	7308.56
230.819	7327.68
230.892	7237.52
230.964	7229.29
231.037	7247.97
231.109	7243.41
231.181	7279.58
231.254	7251.33
231.326	7245.23
231.399	7226.85
231.471	7195.95
231.544	7129.84
231.616	7167.65
231.688	7169.86
231.761	7162.13
231.833	7155.79
231.905	7087.67
231.978	7085.61
232.05	7067.88
232.122	7064.28
232.195	7048.9
232.267	7081.82
232.339	7066.77
232.412	7118.61
232.484	7097.36
232.556	7075.9
232.629	7128.26
232.701	7139.66
232.773	7145.76
232.846	7139.51
232.918	7140.47
232.99	7160.8
233.062	7191.37
233.135	7194.35
233.207	7168.06
233.279	7202.55
233.351	7228.3
233.424	7231.71
233.496	7214.65
233.568	7280.45
233.64	7259.74
233.713	7270.94
233.785	7264.88
233.857	7281.08
233.929	7241.63
234.001	7295.83
234.074	7346.94
234.146	7295.2
234.218	7288.56
234.29	7292.31
234.362	7287.99
234.434	7254.96
234.507	7231.8
234.579	7193.98
234.651	7181.82
234.723	7205.51
234.795	7218.2
234.867	7213.11
234.939	7256.22
235.012	7272.12
235.084	7273.37
235.156	7297.25
235.228	7281.92
235.3	7270.92
235.372	7275
235.444	7320.99
235.516	7255.4
235.588	7254.87
235.66	7259.24
235.732	7237.62
235.804	7381.82
235.876	7406.23
235.948	7451.52
236.02	7455.79
236.092	7469.82
236.164	7478.42
236.236	7480.83
236.308	7479.14
236.38	7496.21
236.452	7488.76
236.524	7503.27
236.596	7547.01
236.668	7572.45
236.74	7591.62
236.812	7613.06
236.884	7640.47
236.956	7647.44
237.028	7644.9
237.1	7635.77
237.172	7691.51
237.244	7755.02
237.316	7671.73
237.388	7662.65
237.46	7644.86
237.532	7699.52
237.604	7695.06
237.675	7752.14
237.747	7783.5
237.819	7778.21
237.891	7788.17
237.963	7778.79
238.035	7776.92
238.107	7698.07
238.178	7744.17
238.25	7749.21
238.322	7816.43
238.394	7785.94
238.466	7780.12
238.538	7817.23
238.609	7844.15
238.681	7801.3
238.753	7784.41
238.825	7796.15
238.897	7825.14
238.968	7888.36
239.04	7867.49
239.112	7948.22
239.184	7917
239.255	7912.38
239.327	7934.31
239.399	7948.2
239.471	7982.01
239.542	8008.41
239.614	8057.75
239.686	8001.22
239.758	8044.51
239.829	8017.98
239.901	8060.26
239.973	8079.35
240.044	8098.45
240.116	8114.03
240.188	8127.06
240.259	8139.18
240.331	8130.52
240.403	8153.18
240.474	8113.95
240.546	8107.32
240.618	8060.89
240.689	8060.46
240.761	8081.15
240.833	8134.17
240.904	8131.71
240.976	8127.96
241.048	8141.67
241.119	8168.19
241.191	8196.38
241.262	8241.14
241.334	8243.74
241.405	8250.52
241.477	8251.49
241.549	8261.59
241.62	8278.57
241.692	8311.24
241.763	8354.84
241.835	8366.78
241.906	8379.53
241.978	8363.22
242.049	8414.74
242.121	8463.09
242.192	8510.63
242.264	8481.62
242.335	8442.07
242.407	8478.68
242.478	8486.43
242.55	8497.35
242.621	8493.88
242.693	8494.51
242.764	8489.7
242.836	8492.73
242.907	8513.23
242.979	8536.57
243.05	8551.29
243.122	8569.63
243.193	8569.53
243.264	8515.87
243.336	8524.34
243.407	8552.65
243.479	8612.08
243.55	8625.26
243.622	8637.11
243.693	8636.14
243.764	8687.73
243.836	8673.35
243.907	8663.05
243.978	8666.37
244.05	8685.76
244.121	8640.01
244.192	8667.77
244.264	8628.11
244.335	8638.36
244.407	8605.4
244.478	8612.86
244.549	8605.01
244.62	8577.54
244.692	8574.07
244.763	8608.81
244.834	8599.67
244.906	8582.05
244.977	8593.89
245.048	8636.94
245.119	8621.78
245.191	8608.35
245.262	8565.62
245.333	8620.56
245.405	8634.86
245.476	8660.89
245.547	8675.77
245.618	8721.09
245.689	8730.19
245.761	8758.78
245.832	8759.6
245.903	8799.11
245.974	8824.91
246.045	8843.59
246.117	8905.11
246.188	8896.98
246.259	8883.74
246.33	8894.52
246.401	8897.89
246.473	8870.02
246.544	8854.12
246.615	8895.62
246.686	8900.05
246.757	8959.87
246.828	8939.71
246.899	8994.17
246.97	8970.83
247.042	8967.84
247.113	8994.18
247.184	9069.94
247.255	9067.29
247.326	9086.07
247.397	9088.48
247.468	9091.8
247.539	9102.87
247.61	9067.73
247.681	9100.16
247.752	9142.62
247.823	9126.69
247.894	9145.37
247.965	9122.8
248.037	9113.31
248.108	9075.33
248.179	9078.79
248.25	9067.48
248.321	9091.54
248.392	9048.78
248.463	9103.65
248.534	9097.2
248.605	9117.57
248.675	9093.77
248.746	9115.1
248.817	9133.35
248.888	9142.4
248.959	9103.12
249.03	9109.09
249.101	9112.41
249.172	9097.54
249.243	9045.41
249.314	9092.97
249.385	9100.39
249.456	9128.3
249.527	9126.13
249.598	9137.69
249.669	9136.1
249.739	9141.97
249.81	9151.6
249.881	9125.08
249.952	9118.72
250.023	9116.12
250.094	9072.11
250.165	9044.61
250.235	9036.61
250.306	9038.4
250.377	9021.98
250.448	9048.26
250.519	9008.55
250.59	9051.35
250.66	9054.05
250.731	9109.45
250.802	9109.16
250.873	9122.64
250.944	9134.34
251.014	9123.12
251.085	9191.8
251.156	9213.27
251.227	9254.79
251.297	9297.12
251.368	9337.65
251.439	9370.02
251.51	9408.97
251.58	9404.88
251.651	9405.94
251.722	9446.49
251.792	9414.86
251.863	9414.47
251.934	9456.75
252.005	9542.41
252.075	9547.9
252.146	9585.02
252.217	9618.79
252.287	9651.88
252.358	9653.56
252.429	9715.98
252.499	9715.26
252.57	9727.69
252.641	9763.18
252.711	9767.28
252.782	9733.76
252.852	9794.93
252.923	9795.95
252.994	9809.34
253.064	9851.61
253.135	9834.32
253.205	9810.24
253.276	9858.4
253.347	9905.74
253.417	9888.25
253.488	9875.2
253.558	9873.46
253.629	9872.5
253.699	9877.89
253.77	9893.17
253.841	9884.74
253.911	9884.5
253.982	9900
254.052	9923.61
254.123	9932.33
254.193	9937.49
254.264	10043.96
254.334	10012.26
254.405	9986.93
254.475	9958.94
254.546	9961.21
254.616	10004.31
254.687	10033.93
254.757	10047.37
254.827	10048.29
254.898	10068.13
254.968	10069.53
255.039	10053.78
255.109	10078.54
255.18	10062.59
255.25	10013.56
255.321	10040.72
255.391	10015.43
255.461	10080.99
255.532	10013.59
255.602	10004.97
255.673	9957.57
255.743	9926.63
255.813	9879.2
255.884	9921.59
255.954	9951.69
256.024	10002.76
256.095	10011.81
256.165	9990.96
256.235	10012.83
256.306	10004.3
256.376	10037.26
256.446	10075.27
256.517	10097.57
256.587	10140.6
256.657	10153.51
256.728	10169.16
256.798	10180.91
256.868	10180.82
256.938	10156.34
257.009	10197.48
257.079	10227.2
257.149	10308.57
257.219	10267.86
257.29	10295.16
257.36	10250.46
257.43	10278.21
257.5	10222.42
257.571	10213.56
257.641	10238.9
257.711	10210.76
257.781	10231.66
257.852	10245.11
257.922	10194.96
257.992	10200.21
258.062	10190.62
258.132	10221.41
258.202	10229.16
258.273	10242.12
258.343	10297.34
258.413	10280.43
258.483	10284.43
258.553	10257.54
258.623	10238.27
258.693	10256.24
258.764	10307.54
258.834	10359.47
258.904	10369.93
258.974	10367.57
259.044	10381.44
259.114	10404.23
259.184	10433.04
259.254	10437.43
259.324	10402.54
259.394	10441.56
259.464	10497.75
259.535	10505.55
259.605	10508.54
259.675	10507.1
259.745	10528.88
259.815	10508.93
259.885	10517.36
259.955	10598.71
260.025	10598.18
260.095	10608.35
260.165	10630.47
260.235	10678.42
260.305	10672.97
260.375	10654.52
260.445	10727.75
260.515	10768.22
260.585	10799.4
260.655	10802.49
260.725	10829.95
260.795	10854.04
260.865	10897.85
260.934	10880.31
261.004	10898.18
261.074	10897.94
261.144	10943.81
261.214	10965.11
261.284	10964.15
261.354	10998.35
261.424	10967.36
261.494	11021.95
261.564	11027.68
261.634	11051.06
261.703	10999.93
261.773	11018.91
261.843	11047.68
261.913	11039.68
261.983	10999.25
262.053	11016.99
262.123	11019.2
262.192	10998.68
262.262	11030.92
262.332	10997.95
262.402	11022.15
262.472	11029.18
262.541	10984.76
262.611	11020.42
262.681	11009.34
262.751	11046.73
262.821	11047.75
262.89	11014.54
262.96	11034.93
263.03	11091.32
263.1	11115.08
263.169	11128.86
263.239	11153.1
263.309	11204.57
263.379	11227.03
263.448	11255.17
263.518	11274.98
263.588	11284.81
263.657	11336.09
263.727	11364.28
263.797	11374.98
263.867	11376.91
263.936	11345.39
264.006	11395.5
264.076	11384.56
264.145	11388.8
264.215	11371.4
264.285	11401.28
264.354	11376.61
264.424	11364.27
264.494	11328.08
264.563	11318.44
264.633	11381.19
264.702	11396.76
264.772	11354.58
264.842	11354.39
264.911	11378
264.981	11346.77
265.05	11357.81
265.12	11366.24
265.19	11379.74
265.259	11418.15
265.329	11443.79
265.398	11471.11
265.468	11539.46
265.537	11539.31
265.607	11562.83
265.676	11602.98
265.746	11619.85
265.815	11672.52
265.885	11680.19
265.955	11669.49
266.024	11672.33
266.094	11621.72
266.163	11669.11
266.232	11721.55
266.302	11729.5
266.371	11739.62
266.441	11760.06
266.51	11794.67
266.58	11794.38
266.649	11784.4
266.719	11820.55
266.788	11844.7
266.858	11905.67
266.927	11860.46
266.996	11882.34
267.066	11904.52
267.135	11882.49
267.205	11918.88
267.274	11934.84
267.343	11976.77
267.413	11999.61
267.482	12046.71
267.552	12104.21
267.621	12068.68
267.69	12034.7
267.76	12055.86
267.829	12085.36
267.898	12098.52
267.968	12090.71
268.037	12118.72
268.106	12158.2
268.176	12136.74
268.245	12138.77
268.314	12130.09
268.384	12178.49
268.453	12200.61
268.522	12226.3
268.592	12273.2
268.661	12260.86
268.73	12284.82
268.799	12273.2
268.869	12329.55
268.938	12301.01
269.007	12290.55
269.076	12313.79
269.146	12351.19
269.215	12379.05
269.284	12428.03
269.353	12432.51
269.422	12438.3
269.492	12437.77
269.561	12372.89
269.63	12402.39
269.699	12411.07
269.768	12425.91
269.838	12443.89
269.907	12483.9
269.976	12466.89
270.045	12433.53
270.114	12462.98
270.183	12476.87
270.253	12506.03
270.322	12473.11
270.391	12483.37
270.46	12542.14
270.529	12578.05
270.598	12617.53
270.667	12630.3
270.736	12611.99
270.806	12637.78
270.875	12685.35
270.944	12700.59
271.013	12804.9
271.082	12824.47
271.151	12851.23
271.22	12823.85
271.289	12827.75
271.358	12820.09
271.427	12840.86
271.496	12869.25
271.565	12868.72
271.634	12884.39
271.703	12976.27
271.772	13024.81
271.841	13052.92
271.91	13031.8
271.979	13044.43
272.048	13023.12
272.117	13049.98
272.186	13050.31
272.255	13094.71
272.324	13126.86
272.393	13152.51
272.462	13144.12
272.531	13163.79
272.6	13176.85
272.669	13242.22
272.738	13255.96
272.807	13291.15
272.876	13283.92
272.945	13386.55
273.013	13437.84
273.082	13477.42
273.151	13418.37
273.22	13449.41
273.289	13459.97
273.358	13513.33
273.427	13529
273.496	13573.25
273.564	13603.77
273.633	13653.57
273.702	13634.77
273.771	13650.1
273.84	13674.1
273.909	13712.33
273.977	13738.41
274.046	13748
274.115	13782.76
274.184	13786.13
274.253	13797.75
274.322	13858.49
274.39	13819.25
274.459	13817.18
274.528	13793.51
274.597	13814.48
274.665	13840.56
274.734	13898.6
274.803	13916.53
274.872	13933.65
274.94	13931.14
275.009	14030.63
275.078	14026.43
275.147	14059.46
275.215	14072.62
275.284	14129.45
275.353	14140.25
275.421	14120.58
275.49	14194.67
275.559	14206.48
275.627	14233.48
275.696	14250.93
275.765	14282.07
275.833	14296.68
275.902	14328.97
275.971	14390.34
276.039	14458.31
276.108	14498.8
276.177	14524.2
276.245	14534.18
276.314	14562.96
276.383	14620.32
276.451	14570.2
276.52	14613.87
276.588	14686.37
276.657	14740.55
276.725	14742.57
276.794	14777.81
276.863	14849.4
276.931	14822.64
277	14882.17
277.068	14930.96
277.137	15012.42
277.205	15043.41
277.274	15124.97
277.342	15185.52
277.411	15168.84
277.48	15172.45
277.548	15180.5
277.617	15217.86
277.685	15238.11
277.754	15295.61
277.822	15304.43
277.89	15376.1
277.959	15395.14
278.027	15380.01
278.096	15387.14
278.164	15494.77
278.233	15506.72
278.301	15506.1
278.37	15554.78
278.438	15549.82
278.507	15586.88
278.575	15553.34
278.643	15580.47
278.712	15566.88
278.78	15573.15
278.849	15643.19
278.917	15707.1
278.985	15733.99
279.054	15771.59
279.122	15834.97
279.191	15850.69
279.259	15880.67
279.327	15859.6
279.396	15932.34
279.464	15950.03
279.532	16005.5
279.601	16024.1
279.669	16053.12
279.737	16133.56
279.806	16188.51
279.874	16252.42
279.942	16291.41
280.011	16319.9
280.079	16372.58
280.147	16446.95
280.215	16492.59
280.284	16516.64
280.352	16508.69
280.42	16558.43
280.488	16572.5
280.557	16588.74
280.625	16628.84
280.693	16664.75
280.761	16706.39
280.83	16704.61
280.898	16781.24
280.966	16771.6
281.034	16729.67
281.102	16721.29
281.171	16735.26
281.239	16785.96
281.307	16793.29
281.375	16811.07
281.443	16911.46
281.512	16935.56
281.58	16992.62
281.648	16994.59
281.716	17033.25
281.784	17073.39
281.852	17099.9
281.92	17137.78
281.989	17201.39
282.057	17197.59
282.125	17305.54
282.193	17334.5
282.261	17371.37
282.329	17393.44
282.397	17430.36
282.465	17478.65
282.533	17556.82
282.601	17566.22
282.67	17543.28
282.738	17561.21
282.806	17624.77
282.874	17624.2
282.942	17674.46
283.01	17692.58
283.078	17738.99
283.146	17771.61
283.214	17831.95
283.282	17867.32
283.35	17924.91
283.418	17938.21
283.486	17988.57
283.554	17950.45
283.622	17989.92
283.69	18027.41
283.758	18045.97
283.826	18108.76
283.894	18167.51
283.962	18252.32
284.03	18332.8
284.098	18371.06
284.165	18404.75
284.233	18438
284.301	18464.22
284.369	18470.58
284.437	18484.07
284.505	18514.62
284.573	18576.84
284.641	18590.14
284.709	18652.3
284.777	18649.51
284.845	18710.95
284.912	18766.22
284.98	18820.53
285.048	18845.93
285.116	18890.94
285.184	18969.29
285.252	19007.7
285.319	19001.87
285.387	19019.46
285.455	19009.24
285.523	19070.3
285.591	19109.33
285.659	19147.4
285.726	19223.59
285.794	19231.45
285.862	19265.95
285.93	19298.34
285.997	19321.71
286.065	19347.68
286.133	19357.75
286.201	19397.41
286.269	19402.33
286.336	19413.36
286.404	19438.23
286.472	19495.19
286.539	19484.45
286.607	19478.71
286.675	19512.73
286.743	19575.91
286.81	19598.42
286.878	19665.64
286.946	19682.89
287.013	19719.13
287.081	19745.83
287.149	19734.36
287.216	19817.78
287.284	19847.85
287.352	19887.46
287.419	19927.37
287.487	20002.69
287.555	20051.99
287.622	20077
287.69	20131.55
287.758	20202.78
287.825	20228.56
287.893	20236.81
287.96	20285.29
288.028	20348.8
288.096	20384.66
288.163	20422.83
288.231	20432.32
288.298	20470.25
288.366	20534.3
288.433	20565
288.501	20583.89
288.569	20635.75
288.636	20663.41
288.704	20732.33
288.771	20784.28
288.839	20791.75
288.906	20803.08
288.974	20861.01
289.041	20897.83
289.109	20905.16
289.176	20956.83
289.244	21007.96
289.311	21073.9
289.379	21147.15
289.446	21191.83
289.514	21238.01
289.581	21281.15
289.649	21330.64
289.716	21371.9
289.783	21387.86
289.851	21470.47
289.918	21510.81
289.986	21570.34
290.053	21613.14
290.121	21646.88
290.188	21693.73
290.255	21809.09
290.323	21843.07
290.39	21868.18
290.458	21920.38
290.525	21995.96
290.592	22018.77
290.66	22049.66
290.727	22077
290.794	22134.79
290.862	22168.64
290.929	22208.65
290.996	22246.44
291.064	22301.16
291.131	22366.82
291.198	22440.44
291.266	22470.37
291.333	22513.42
291.4	22566.6
291.468	22646.44
291.535	22667.9
291.602	22713.31
291.669	22720.59
291.737	22758
291.804	22795.47
291.871	22872.95
291.938	22922.37
292.006	23022.97
292.073	23104.74
292.14	23177.45
292.207	23208.02
292.275	23246.65
292.342	23301.33
292.409	23398.31
292.476	23503.69
292.543	23514.06
292.611	23558.57
292.678	23629.13
292.745	23725.91
292.812	23780.94
292.879	23809.45
292.946	23857.09
293.014	23931.37
293.081	24001.44
293.148	24072.48
293.215	24148.79
293.282	24168.9
293.349	24230.45
293.416	24213.81
293.484	24277.19
293.551	24333.49
293.618	24413.9
293.685	24523.36
293.752	24557.85
293.819	24589.8
293.886	24584.01
293.953	24648.35
294.02	24712.71
294.087	24777.85
294.154	24807.77
294.221	24884.69
294.288	24932.84
294.356	25028.47
294.423	25079.81
294.49	25098.87
294.557	25175.11
294.624	25194.8
294.691	25288.45
294.758	25333.38
294.825	25414.5
294.892	25440.27
294.959	25479.98
295.026	25534.14
295.093	25554.12
295.16	25598.76
295.226	25636.45
295.293	25742.74
295.36	25800.66
295.427	25863.18
295.494	25923.87
295.561	25993.32
295.628	26086.21
295.695	26166.06
295.762	26208.2
295.829	26274.74
295.896	26358.69
295.963	26422.76
296.03	26500.68
296.096	26559.54
296.163	26633.86
296.23	26708.76
296.297	26784.9
296.364	26831.01
296.431	26879.06
296.498	26916.24
296.564	27017.4
296.631	27077.86
296.698	27088.44
296.765	27174.17
296.832	27186.24
296.899	27213.24
296.965	27288.6
297.032	27276.18
297.099	27354.22
297.166	27414.26
297.233	27449.92
297.299	27465.81
297.366	27506.49
297.433	27541.85
297.5	27596.78
297.566	27635.39
297.633	27677.92
297.7	27727.83
297.767	27766.52
297.833	27833.64
297.9	27876.68
297.967	27884.27
298.033	27956.52
298.1	28065.41
298.167	28082.13
298.234	28141.8
298.3	28200.37
298.367	28231.4
298.434	28288.29
298.5	28310.97
298.567	28349.78
298.634	28385.6
298.7	28482.06
298.767	28539.59
298.834	28623.41
298.9	28652.46
298.967	28674.31
299.033	28730.35
299.1	28805.25
299.167	28882.97
299.233	28916.96
299.3	28992.18
299.366	29061.98
299.433	29129.5
299.5	29113.93
299.566	29168.95
299.633	29256.57
299.699	29316.69
299.766	29340.23
299.832	29394.99
299.899	29453.18
299.965	29521.03
300.032	29553.96
300.099	29604.27
300.165	29652.2
300.232	29681.13
300.298	29723.69
300.365	29795.07
300.431	29839.83
300.498	29858.79
300.564	29917.96
300.631	29984.1
300.697	30070.61
300.763	30111.15
300.83	30178.72
300.896	30251.68
300.963	30326.38
301.029	30378.03
301.096	30422.79
301.162	30501.94
301.229	30536.11
301.295	30547.43
301.361	30593.41
301.428	30645.08
301.494	30648.66
301.561	30696.04
301.627	30741.92
301.693	30792.53
301.76	30841.03
301.826	30867.51
301.892	30931.2
301.959	30989.35
302.025	31010.94
302.092	31027.01
302.158	31091.48
302.224	31098.79
302.291	31111.86
302.357	31145.46
302.423	31165.51
302.49	31198.48
302.556	31259.88
302.622	31299.87
302.688	31370.17
302.755	31434.34
302.821	31488.61
302.887	31561.46
302.954	31606.16
303.02	31663.3
303.086	31724.31
303.152	31762.86
303.219	31798.35
303.285	31860.16
303.351	31905.35
303.417	31948.98
303.483	31968.5
303.55	31991.12
303.616	32030.16
303.682	32076.98
303.748	32091.9
303.815	32170.33
303.881	32227.83
303.947	32230.84
304.013	32276.37
304.079	32291.29
304.145	32281.99
304.212	32324.22
304.278	32335.27
304.344	32356.68
304.41	32367.53
304.476	32384.63
304.542	32423.68
304.608	32476.77
304.674	32461.22
304.741	32481.57
304.807	32528.57
304.873	32571.15
304.939	32639.33
305.005	32634.19
305.071	32669.6
305.137	32714.17
305.203	32688
305.269	32717.71
305.335	32789.29
305.401	32811.68
305.467	32849.13
305.533	32901.9
305.599	32945.37
305.666	33005.21
305.732	33030.02
305.798	33099.32
305.864	33182.74
305.93	33222.73
305.996	33258.98
306.062	33308.17
306.128	33334.92
306.194	33343.94
306.259	33389.16
306.325	33408.94
306.391	33474.95
306.457	33520.9
306.523	33559.09
306.589	33648.67
306.655	33659.29
306.721	33646.39
306.787	33656.48
306.853	33726.29
306.919	33724.4
306.985	33736.28
307.051	33757.6
307.117	33792.89
307.183	33802.1
307.248	33769.43
307.314	33812.05
307.38	33832.94
307.446	33877.55
307.512	33899.42
307.578	33936.5
307.644	33945.23
307.709	33975.92
307.775	33988.53
307.841	34005.25
307.907	34039.68
307.973	34027.21
308.039	34055.63
308.104	34101.69
308.17	34147.4
308.236	34144.59
308.302	34189.1
308.368	34199.13
308.433	34234.87
308.499	34246.36
308.565	34256.06
308.631	34299.79
308.696	34263.91
308.762	34274.53
308.828	34295.04
308.894	34280.88
308.959	34267.55
309.025	34288.5
309.091	34300.91
309.156	34308.72
309.222	34355.47
309.288	34349.56
309.354	34320.61
309.419	34351.79
309.485	34345.54
309.551	34370.95
309.616	34353.64
309.682	34376.34
309.748	34395.68
309.813	34410.33
309.879	34419.93
309.945	34411.59
310.01	34423.76
310.076	34463.72
310.141	34479.38
310.207	34465.17
310.273	34492.38
310.338	34537.18
310.404	34517.3
310.469	34524.91
310.535	34549.65
310.601	34515.51
310.666	34555.96
310.732	34629.48
310.797	34631.08
310.863	34641.94
310.928	34659.06
310.994	34696.84
311.059	34717.75
311.125	34743.84
311.191	34790.9
311.256	34795.85
311.322	34846.72
311.387	34830.04
311.453	35458.54
311.518	35441.71
311.584	35470.57
311.649	35511.37
311.715	35515
311.78	35557.15
311.846	35566.7
311.911	35591.44
311.976	35635.77
312.042	35628.11
312.107	35607.49
312.173	35598.23
312.238	35617.92
312.304	35631.6
312.369	35637.76
312.434	35640.91
312.5	35656.44
312.565	35604.43
312.631	35645.85
312.696	35648.33
312.761	35690.67
312.827	35092.54
312.892	35199.9
312.958	35227.41
313.023	35248.57
313.088	35271.75
313.154	35269.13
313.219	35265.45
313.284	35276.95
313.35	35295.58
313.415	35301.88
313.48	35315.61
313.546	35372.76
313.611	35416.72
313.676	35422.83
313.741	35423.9
313.807	35468.73
313.872	35497.31
313.937	35547.32
314.003	35597.69
314.068	35628.02
314.133	35664.99
314.198	35674.94
314.264	35640.77
314.329	35636.06
314.394	35659.55
314.459	35673.86
314.525	35743.29
314.59	35766.97
314.655	35767.16
314.72	35800.4
314.785	35819.66
314.851	35830.09
314.916	35808.64
314.981	35796.03
315.046	35792.39
315.111	35805.25
315.176	35793.21
315.242	35817.81
315.307	35832.47
315.372	35802.09
315.437	35812.04
315.502	35801.17
315.567	35840.52
315.632	35841.11
315.698	35874.06
315.763	35883.76
315.828	35869.79
315.893	35865.23
315.958	35870.18
316.023	35860.09
316.088	35822.43
316.153	35795.94
316.218	35785.12
316.283	35742.87
316.348	35709.3
316.413	35708.23
316.479	35674.33
316.544	35590.7
316.609	35519.04
316.674	35431.18
316.739	35329.87
316.804	35233.43
316.869	35133.18
316.934	35035.71
316.999	34941.66
317.064	34793.78
317.129	34653.74
317.194	34548.18
317.259	34406.85
317.324	34249.62
317.389	34123.02
317.454	33999.33
317.518	33883.08
317.583	33796.28
317.648	33710.67
317.713	33589.57
317.778	33402.86
317.843	33287.35
317.908	33148.97
317.973	33009.23
318.038	32891.47
318.103	32773.47
318.168	32653.06
318.233	32541.09
318.297	32361.26
318.362	32217.86
318.427	32070.45
318.492	31952.21
318.557	31803.02
318.622	31680.15
318.687	31576.88
318.751	31407.17
318.816	31275.36
318.881	31135.36
318.946	30933.78
319.011	30762.12
319.075	30590.61
319.14	30451.51
319.205	30280.68
319.27	30141.03
319.335	29959.8
319.399	29797.43
319.464	29664.03
319.529	29462.35
319.594	29284.5
319.658	29143.8
319.723	28954.17
319.788	28804.6
319.853	28598.45
319.917	28434.51
319.982	28228.64
320.047	28058.12
320.112	27919.73
320.176	27714.55
320.241	27547.6
320.306	27396.67
320.37	27216.1
320.435	27062.55
320.5	26913.1
320.564	26735.19
320.629	26549.92
320.694	26394.06
320.758	26198.13
320.823	25991.65
320.888	25840.81
320.952	25639.39
321.017	25447.97
321.082	25271.22
321.146	25102.12
321.211	24931.07
321.275	24746.83
321.34	24551.55
321.405	24352.45
321.469	24145.76
321.534	23953.41
321.598	23725.95
321.663	23555.2
321.727	23388.81
321.792	23183.66
321.857	22975.23
321.921	22793.59
321.986	22589.47
322.05	22355.88
322.115	22172.93
322.179	21975.91
322.244	21744.47
322.308	21566.61
322.373	21358.28
322.437	21166.78
322.502	21009.59
322.566	20807.78
322.631	20629.89
322.695	20438.8
322.76	20237.3
322.824	20062.5
322.889	19863.99
322.953	19665.88
323.018	19404.23
323.082	19150.59
323.146	18927.51
323.211	18704.19
323.275	18491.9
323.34	18293.97
323.404	18114.27
323.468	17901.83
323.533	17695.33
323.597	17487.94
323.662	17274.88
323.726	17094.2
323.79	16878.62
323.855	16620.15
323.919	16404.18
323.983	16184.7
324.048	15877.95
324.112	15929.8
324.177	15279.1
324.241	14438.54
324.305	13620.31
324.37	12818.67
324.434	12027.82
324.498	11801.02
324.562	11555.36
324.627	11270.93
324.691	10991.08
324.755	10671
324.82	10319.91
324.884	9950.85
324.948	9566.58
325.012	9092.8
325.077	8519.9
