Data from 20250626_urea_1M_exp2_MAYP1162681_11-13-58-367.txt Node
Date: Fri Jun 27 11:13:58 BST 2025
User: adleo
Spectrometer: MAYP116268
Trigger mode: 0
Integration Time (sec): 3.000000E0
Scans to average: 1
Electric dark correction enabled: true
Nonlinearity correction enabled: true
Boxcar width: 10
XAxis mode: Wavelengths
Number of Pixels in Spectrum: 2068
>>>>>Begin Spectral Data<<<<<
179.565	3173.89
179.642	3336.79
179.718	3462.72
179.795	3580.14
179.871	3677.68
179.948	3738.96
180.024	3802.37
180.101	3868.9
180.177	3909.7
180.254	3973.82
180.33	4040.12
180.407	4263.61
180.483	4509.05
180.56	4761.47
180.636	4993.4
180.712	4963.16
180.789	4983.42
180.865	5017.12
180.942	5037.9
181.018	5068.22
181.095	5109.1
181.171	5120.45
181.248	5122.37
181.324	5169.05
181.4	5184.82
181.477	5214.67
181.553	5244.94
181.63	5305.14
181.706	5346.79
181.782	5375.62
181.859	5374.81
181.935	5382.72
182.011	5374.28
182.088	5422.65
182.164	5475.94
182.24	5507.46
182.317	5528.5
182.393	5525.38
182.469	5562.43
182.546	5604.62
182.622	5620.44
182.698	5607.92
182.775	5650.88
182.851	5689.91
182.927	5666.98
183.003	5657.88
183.08	5642.44
183.156	5669.15
183.232	5658.5
183.308	5631.89
183.385	5650.87
183.461	5700.88
183.537	5708.6
183.613	5740.59
183.69	5713.73
183.766	5681.39
183.842	5706.09
183.918	5725.99
183.995	5762.38
184.071	5778.02
184.147	5762.48
184.223	5726.93
184.299	5758.83
184.375	5723.39
184.452	5744.84
184.528	5852.35
184.604	5882.6
184.68	5917.61
184.756	5938.82
184.832	5948.12
184.908	5958.71
184.985	5958.57
185.061	5910.38
185.137	5933.45
185.213	5902.28
185.289	5910
185.365	5889.91
185.441	5885.83
185.517	5921.16
185.593	5906.96
185.669	5896.79
185.745	5922.16
185.822	5975.13
185.898	5951.86
185.974	5972.91
186.05	5945.99
186.126	5883.28
186.202	5860.41
186.278	5843.43
186.354	5818.82
186.43	5834.89
186.506	5830.44
186.582	5828.04
186.658	5848.27
186.734	5794.14
186.81	5800.03
186.886	5803.34
186.962	5836.86
187.038	5824.39
187.114	5804.18
187.19	5827.64
187.266	5802.56
187.341	5804.82
187.417	5777.05
187.493	5776.52
187.569	5791.2
187.645	5772.02
187.721	5736.23
187.797	5763.75
187.873	5774.98
187.949	5756.9
188.025	5741.06
188.101	5752.86
188.176	5762.83
188.252	5752
188.328	5779.89
188.404	5776.82
188.48	5765.6
188.556	5744.02
188.632	5746.03
188.707	5744.69
188.783	5737.01
188.859	5721.1
188.935	5688.68
189.011	5715.49
189.086	5700.81
189.162	5675.15
189.238	5679.23
189.314	5670.12
189.39	5651.08
189.465	5634.34
189.541	5681.02
189.617	5641.08
189.693	5617.45
189.768	5632.56
189.844	5701.17
189.92	5673
189.996	5702.16
190.071	5734.91
190.147	5737.88
190.223	5762.35
190.298	5742.35
190.374	5705.81
190.45	5742.29
190.526	5769.67
190.601	5752.02
190.677	5753.8
190.753	5834.44
190.828	5839.24
190.904	5882.46
190.98	5922.28
191.055	5947.51
191.131	5926.82
191.207	5980.01
191.282	6011.31
191.358	5983.88
191.433	5943.79
191.509	5978.25
191.585	5970.72
191.66	5975.85
191.736	5994.9
191.811	5969.47
191.887	6014.25
191.963	6082.9
192.038	6093.07
192.114	6092.64
192.189	6104.68
192.265	6098.11
192.34	6037.27
192.416	6037.13
192.491	6028.44
192.567	6039.63
192.642	6051.1
192.718	6046.97
192.793	6020.25
192.869	6012.24
192.944	6017.08
193.02	6040.79
193.095	6054.46
193.171	6069.38
193.246	6059.83
193.322	6049.42
193.397	6051.15
193.473	6016.01
193.548	5961.07
193.624	5978.3
193.699	5973.88
193.775	6017.52
193.85	6023.8
193.925	6045.78
194.001	6039.11
194.076	6015.56
194.152	5981.96
194.227	5959.31
194.302	5934.24
194.378	5941.43
194.453	5933.42
194.529	5971.47
194.604	5921.39
194.679	5903.06
194.755	5847.54
194.83	5887.68
194.905	5885.13
194.981	5909.41
195.056	5883.8
195.131	5906.39
195.207	5898.04
195.282	5872
195.357	5818.15
195.433	5859.89
195.508	5826.3
195.583	5855.36
195.659	5899.42
195.734	5919
195.809	5917.75
195.884	5936.78
195.96	5937.21
196.035	5979.24
196.11	5968.96
196.185	6011.32
196.261	6018.85
196.336	6108.08
196.411	6059.89
196.486	6074.95
196.561	6058.78
196.637	6087.31
196.712	6129.32
196.787	6140.55
196.862	6182.48
196.937	6206.51
197.013	6220.48
197.088	6249.8
197.163	6303.59
197.238	6346.21
197.313	6344.05
197.388	6380.91
197.464	6471.57
197.539	6502.19
197.614	6479.59
197.689	6507.49
197.764	6546.3
197.839	6605.1
197.914	6587.38
197.989	6653.79
198.065	6689.94
198.14	6826.72
198.215	6900.02
198.29	6934.96
198.365	6976.23
198.44	7006.72
198.515	7089.84
198.59	7136.21
198.665	7203.38
198.74	7223.24
198.815	7224.39
198.89	7287.47
198.965	7373.28
199.04	7359.1
199.115	7406.04
199.19	7528.1
199.265	7543.81
199.34	7573.81
199.415	7669.72
199.49	7733.01
199.565	7759.26
199.64	7820.03
199.715	7810.26
199.79	7820.02
199.865	7835.41
199.94	7826.18
200.015	7915.78
200.09	7923.81
200.165	7936.46
200.24	7955.99
200.315	8061.78
200.39	8110.94
200.464	8128.54
200.539	8127.43
200.614	8173.79
200.689	8233.5
200.764	8246.59
200.839	8287.6
200.914	8301.21
200.989	8271.51
201.063	8312.41
201.138	8264.3
201.213	8270.89
201.288	8217.01
201.363	8240.63
201.438	8243.42
201.512	8286.65
201.587	8234.01
201.662	8250.03
201.737	8282.89
201.812	8305.94
201.886	8220.78
201.961	8245.09
202.036	8214.07
202.111	8208.97
202.186	8124.95
202.26	8074.96
202.335	8013.15
202.41	7997.18
202.485	7951.07
202.559	7892.45
202.634	7811.99
202.709	7836.06
202.784	7780.96
202.858	7783.41
202.933	7728.45
203.008	7709.6
203.082	7653.79
203.157	7654.22
203.232	7538.89
203.306	7481.7
203.381	7392.84
203.456	7329.63
203.53	7259.28
203.605	7202.32
203.68	7139.62
203.754	7119.41
203.829	7079.18
203.904	7025.67
203.978	6996.64
204.053	7006.97
204.127	6972.14
204.202	6964.41
204.277	6916.52
204.351	6900.14
204.426	6875.92
204.5	6855.55
204.575	6751.5
204.65	6782.88
204.724	6761.3
204.799	6778.19
204.873	6763.72
204.948	6758.68
205.022	6726.85
205.097	6706.09
205.171	6742.96
205.246	6764.88
205.32	6766.94
205.395	6763.96
205.469	6749.71
205.544	6761.29
205.618	6713.59
205.693	6747.02
205.767	6713.41
205.842	6773.46
205.916	6757.66
205.991	6733.22
206.065	6748.11
206.14	6793.54
206.214	6775.66
206.289	6751.49
206.363	6787.32
206.438	6797.55
206.512	6817.59
206.586	6864.88
206.661	6885.17
206.735	6824.55
206.81	6822.53
206.884	6862.53
206.958	6829.16
207.033	6867.61
207.107	6890.98
207.181	6980.51
207.256	6963.22
207.33	7021.62
207.405	7059.53
207.479	7108.1
207.553	7133.65
207.628	7088.18
207.702	7122.76
207.776	7108.06
207.851	7121.9
207.925	7160.93
207.999	7149.93
208.073	7142.96
208.148	7150.41
208.222	7120.42
208.296	7210.98
208.371	7262.21
208.445	7288.35
208.519	7368.34
208.593	7404.82
208.668	7385.49
208.742	7389.15
208.816	7397.94
208.89	7435.4
208.965	7425.4
209.039	7450.35
209.113	7491.89
209.187	7552.54
209.261	7542.74
209.336	7602.64
209.41	7656.49
209.484	7658.56
209.558	7721.69
209.632	7759.86
209.707	7795.34
209.781	7858.85
209.855	7905.37
209.929	7946.77
210.003	7971.77
210.077	7969.71
210.151	8095.15
210.226	8197.64
210.3	8268.55
210.374	8329.95
210.448	8335.87
210.522	8361.8
210.596	8386.39
210.67	8414.44
210.744	8544.37
210.818	8633.54
210.892	8682.87
210.966	8665.02
211.041	8703.08
211.115	8693.51
211.189	8762.8
211.263	8805.34
211.337	8819.24
211.411	8856.07
211.485	8838.3
211.559	8865.39
211.633	8871.64
211.707	8788.68
211.781	8802.12
211.855	8702.44
211.929	8678.68
212.003	8630.35
212.077	8662.8
212.151	8700.01
212.225	8725.42
212.299	8693.78
212.373	8662.83
212.447	8647.43
212.52	8729.35
212.594	8738.73
212.668	8769.05
212.742	8728.47
212.816	8707.58
212.89	8690.41
212.964	8685.78
213.038	8694.26
213.112	8732.24
213.186	8769.19
213.26	8710.04
213.333	8580.32
213.407	8599.46
213.481	8604.46
213.555	8632.83
213.629	8598.65
213.703	8552.05
213.777	8541.03
213.85	8478.8
213.924	8568.63
213.998	8572.29
214.072	8548.84
214.146	8510.2
214.219	8496.14
214.293	8478.63
214.367	8484.99
214.441	8508.9
214.515	8466.98
214.588	8392.98
214.662	8279.78
214.736	8217.05
214.81	8228.25
214.883	8251.37
214.957	8211.99
215.031	8169.3
215.105	8095.69
215.178	8039.46
215.252	8006.22
215.326	7926.72
215.4	7861.16
215.473	7707.53
215.547	7636.33
215.621	7580.65
215.694	7580.08
215.768	7500.79
215.842	7448.01
215.915	7393.08
215.989	7296.29
216.063	7251.27
216.136	7233.34
216.21	7220.42
216.284	7229.98
216.357	7211.1
216.431	7171.5
216.504	7168.09
216.578	7219.43
216.652	7228.12
216.725	7211.2
216.799	7221.25
216.873	7201.46
216.946	7208.38
217.02	7178.46
217.093	7153.09
217.167	7072.18
217.24	6999.74
217.314	6966.57
217.387	6925.76
217.461	6887.71
217.535	6907.35
217.608	6856.34
217.682	6839.09
217.755	6843.32
217.829	6798.29
217.902	6778.98
217.976	6764.91
218.049	6725.34
218.123	6649.74
218.196	6645.65
218.27	6611.98
218.343	6549.51
218.417	6550.47
218.49	6535.11
218.563	6566.51
218.637	6569.05
218.71	6633.43
218.784	6652.49
218.857	6684.37
218.931	6706.36
219.004	6707.41
219.077	6724.04
219.151	6738.45
219.224	6725.38
219.298	6725.29
219.371	6764.25
219.444	6732.67
219.518	6740.25
219.591	6752.26
219.665	6842.58
219.738	6855.93
219.811	6844.36
219.885	6878.61
219.958	6902.25
220.031	6897.64
220.105	6915.03
220.178	6921.47
220.251	6891.91
220.325	6916.86
220.398	6925.79
220.471	6933.43
220.544	6968.65
220.618	6947.59
220.691	6972
220.764	6991.26
220.838	7014.61
220.911	6997.26
220.984	7066.04
221.057	7098.18
221.131	7116.24
221.204	7036.63
221.277	7096.42
221.35	7201.72
221.424	7196.96
221.497	7210.18
221.57	7233.33
221.643	7264.86
221.716	7306.21
221.79	7317.21
221.863	7325.96
221.936	7336.1
222.009	7354.45
222.082	7374.88
222.155	7384.16
222.229	7436.18
222.302	7459.54
222.375	7464.59
222.448	7498.34
222.521	7506.6
222.594	7506.99
222.667	7487.87
222.74	7534.73
222.814	7525.78
222.887	7506.2
222.96	7549.09
223.033	7580.59
223.106	7601.68
223.179	7631.22
223.252	7634.93
223.325	7660.21
223.398	7670.89
223.471	7692.86
223.544	7709.82
223.617	7721.7
223.69	7744.15
223.763	7710.1
223.837	7729.09
223.91	7754.24
223.983	7712.62
224.056	7683.97
224.129	7698.92
224.202	7747.16
224.275	7740.48
224.348	7715.43
224.42	7689.95
224.493	7647.11
224.566	7626.72
224.639	7643.35
224.712	7612.22
224.785	7602.46
224.858	7591.4
224.931	7575.44
225.004	7538.67
225.077	7537.71
225.15	7459.13
225.223	7452.54
225.296	7525.53
225.369	7477.6
225.442	7450.96
225.514	7462.02
225.587	7479.85
225.66	7490.28
225.733	7485.95
225.806	7490.52
225.879	7482.11
225.952	7455.34
226.025	7490.34
226.097	7534.36
226.17	7527.25
226.243	7472.55
226.316	7470.1
226.389	7475.92
226.461	7488.66
226.534	7506.92
226.607	7500.62
226.68	7573.72
226.753	7567.42
226.825	7494.48
226.898	7536.63
226.971	7539.86
227.044	7561.34
227.117	7569.13
227.189	7583.8
227.262	7612.85
227.335	7628.04
227.407	7632.99
227.48	7662.12
227.553	7669.19
227.626	7654.08
227.698	7659.08
227.771	7697.18
227.844	7680.55
227.916	7697.18
227.989	7668
228.062	7666.99
228.134	7738.7
228.207	7735.91
228.28	7729.04
228.352	7741.45
228.425	7754.67
228.498	7792.81
228.57	7777.57
228.643	7824.67
228.716	7823.9
228.788	7816.49
228.861	7812.55
228.934	7865.2
229.006	7871.45
229.079	7878.09
229.151	7863.75
229.224	7831.84
229.296	7843.28
229.369	7926.37
229.442	7966.5
229.514	7962.51
229.587	8002.37
229.659	7940.13
229.732	7951.72
229.804	7990.19
229.877	8049.56
229.949	8067.8
230.022	8108.66
230.094	8113.42
230.167	8102.11
230.239	8066.29
230.312	8058.35
230.384	8115.04
230.457	8108.88
230.529	8115.8
230.602	8110.75
230.674	8124.32
230.747	8157.67
230.819	8183.41
230.892	8086.82
230.964	8078.83
231.037	8093.82
231.109	8091.27
231.181	8127.92
231.254	8095.22
231.326	8084.2
231.399	8067.5
231.471	8049.46
231.544	7981.9
231.616	8015.32
231.688	8022.34
231.761	8008.93
231.833	7999.75
231.905	7926.62
231.978	7927.29
232.05	7912.82
232.122	7918.54
232.195	7896.56
232.267	7926.09
232.339	7913.35
232.412	7969.94
232.484	7947.09
232.556	7922.33
232.629	7975.61
232.701	7979.8
232.773	7997.97
232.846	7984.41
232.918	7984.84
232.99	8002.26
233.062	8038.44
233.135	8042.04
233.207	8010.05
233.279	8052.74
233.351	8078.57
233.424	8083.14
233.496	8057.26
233.568	8126.97
233.64	8090.95
233.713	8102.88
233.785	8101.48
233.857	8108.99
233.929	8062.77
234.001	8120.05
234.074	8180.1
234.146	8114.32
234.218	8117.35
234.29	8113.12
234.362	8107.11
234.434	8073.05
234.507	8038.46
234.579	7993.05
234.651	7984.97
234.723	8006.47
234.795	8016.29
234.867	8007.87
234.939	8056.94
235.012	8073.43
235.084	8073.34
235.156	8107.05
235.228	8091.46
235.3	8080.16
235.372	8088.58
235.444	8140.71
235.516	8076.89
235.588	8076.89
235.66	8088.48
235.732	8068.86
235.804	8231.17
235.876	8265.56
235.948	8316.95
236.02	8330.08
236.092	8342.68
236.164	8345.42
236.236	8348.26
236.308	8347.15
236.38	8376.4
236.452	8356.58
236.524	8375.1
236.596	8434.62
236.668	8464.17
236.74	8486.73
236.812	8505.97
236.884	8532.63
236.956	8543.99
237.028	8536.1
237.1	8525.62
237.172	8591.36
237.244	8647.71
237.316	8549.15
237.388	8533.14
237.46	8509.5
237.532	8558.11
237.604	8547.72
237.675	8609.13
237.747	8641.14
237.819	8629.88
237.891	8631.23
237.963	8622.86
238.035	8616.27
238.107	8520.17
238.178	8575.35
238.25	8574.82
238.322	8656.48
238.394	8624.82
238.466	8620.58
238.538	8655.41
238.609	8690.15
238.681	8641.1
238.753	8626.37
238.825	8640.53
238.897	8668.76
238.968	8738.44
239.04	8717.84
239.112	8815.67
239.184	8790.59
239.255	8788.95
239.327	8816.14
239.399	8827.16
239.471	8867.48
239.542	8903.05
239.614	8954.36
239.686	8881.37
239.758	8928.2
239.829	8890.25
239.901	8939.15
239.973	8953.44
240.044	8985.31
240.116	8996.33
240.188	9010.68
240.259	9020.59
240.331	9009.76
240.403	9043.6
240.474	9007.67
240.546	9002.61
240.618	8952.5
240.689	8945.9
240.761	8966.36
240.833	9020.86
240.904	9023.56
240.976	9023.89
241.048	9031.26
241.119	9062.85
241.191	9101.26
241.262	9158.15
241.334	9166.81
241.405	9173.27
241.477	9173.84
241.549	9175.63
241.62	9196.72
241.692	9230.56
241.763	9278.76
241.835	9295.62
241.906	9311.12
241.978	9281.52
242.049	9339.67
242.121	9384.4
242.192	9444.49
242.264	9409.97
242.335	9370.44
242.407	9409.25
242.478	9413.83
242.55	9435.26
242.621	9422.11
242.693	9419.02
242.764	9403.85
242.836	9401.97
242.907	9430.53
242.979	9461.39
243.05	9479.79
243.122	9495.92
243.193	9504.11
243.264	9447.29
243.336	9452.35
243.407	9473.73
243.479	9546.92
243.55	9560.17
243.622	9575.24
243.693	9570.81
243.764	9636.59
243.836	9619.89
243.907	9606.98
243.978	9611.22
244.05	9631.69
244.121	9592.88
244.192	9634.01
244.264	9596.58
244.335	9609.59
244.407	9562.83
244.478	9570.34
244.549	9559.94
244.62	9526.13
244.692	9515.83
244.763	9557.67
244.834	9545.92
244.906	9524.82
244.977	9534.8
245.048	9575.41
245.119	9556.53
245.191	9535.53
245.262	9475.63
245.333	9537.5
245.405	9557.29
245.476	9589.8
245.547	9602.08
245.618	9648.69
245.689	9655.19
245.761	9684.28
245.832	9686.4
245.903	9729.02
245.974	9752.43
246.045	9765.63
246.117	9838.93
246.188	9824.01
246.259	9802.53
246.33	9826.47
246.401	9838.94
246.473	9808.88
246.544	9804.21
246.615	9847.22
246.686	9855.6
246.757	9918.97
246.828	9901.39
246.899	9960.7
246.97	9925.36
247.042	9912.69
247.113	9948.96
247.184	10018.02
247.255	10014.5
247.326	10044.32
247.397	10047.31
247.468	10055.25
247.539	10064.36
247.61	10019.51
247.681	10059.29
247.752	10104.37
247.823	10076.96
247.894	10094.26
247.965	10076.77
248.037	10055.82
248.108	10019.01
248.179	10024.99
248.25	10020.6
248.321	10048.05
248.392	10003.73
248.463	10076.84
248.534	10076.31
248.605	10091.92
248.675	10072.31
248.746	10090.9
248.817	10097.69
248.888	10110.22
248.959	10062.44
249.03	10084.6
249.101	10089.66
249.172	10081.52
249.243	10027.29
249.314	10082.25
249.385	10093.9
249.456	10117.94
249.527	10112.93
249.598	10129.49
249.669	10125.5
249.739	10135.52
249.81	10145.01
249.881	10111.39
249.952	10098.62
250.023	10098.38
250.094	10053.38
250.165	10022.68
250.235	10017.77
250.306	10022.88
250.377	10001.06
250.448	10025.76
250.519	9978.08
250.59	10025.1
250.66	10018.74
250.731	10072.78
250.802	10073.21
250.873	10081.69
250.944	10101.63
251.014	10093.2
251.085	10163.7
251.156	10191.68
251.227	10239.68
251.297	10282.61
251.368	10324.27
251.439	10365.76
251.51	10409.41
251.58	10398.53
251.651	10397.08
251.722	10436.49
251.792	10396.56
251.863	10391.84
251.934	10442.14
252.005	10534.2
252.075	10547.89
252.146	10591.29
252.217	10632.39
252.287	10662.12
252.358	10665.98
252.429	10728.38
252.499	10732.33
252.57	10743.8
252.641	10774.93
252.711	10772.33
252.782	10733.87
252.852	10803.9
252.923	10796.67
252.994	10806.35
253.064	10851.73
253.135	10834.49
253.205	10817.38
253.276	10876.06
253.347	10938.16
253.417	10914.51
253.488	10895.47
253.558	10886.07
253.629	10886.36
253.699	10895.9
253.77	10921.69
253.841	10912.58
253.911	10919.52
253.982	10927.95
254.052	10947.47
254.123	10954.61
254.193	10962.9
254.264	11076.01
254.334	11040.73
254.405	11015.43
254.475	10981.94
254.546	10981.75
254.616	11040.78
254.687	11069.3
254.757	11087.91
254.827	11087.38
254.898	11106.94
254.968	11116.38
255.039	11099.28
255.109	11131.47
255.18	11113.01
255.25	11050.17
255.321	11075.66
255.391	11036.05
255.461	11107.41
255.532	11045.58
255.602	11042.74
255.673	10986.45
255.743	10957.72
255.813	10901.31
255.884	10941.64
255.954	10977.54
256.024	11035.76
256.095	11036.38
256.165	11002.46
256.235	11023.91
256.306	11013.74
256.376	11052.15
256.446	11080.49
256.517	11103.43
256.587	11140.87
256.657	11163.86
256.728	11187.28
256.798	11201.4
256.868	11199.66
256.938	11183.95
257.009	11223.47
257.079	11244.92
257.149	11334.36
257.219	11294.74
257.29	11325.14
257.36	11281.38
257.43	11314.4
257.5	11258.88
257.571	11251.79
257.641	11283.5
257.711	11243.74
257.781	11272.03
257.852	11293.43
257.922	11246.01
257.992	11252.95
258.062	11235.26
258.132	11266.3
258.202	11275.6
258.273	11283.07
258.343	11344.66
258.413	11320.33
258.483	11324.28
258.553	11303.36
258.623	11278.2
258.693	11294.97
258.764	11356.51
258.834	11412.13
258.904	11422.01
258.974	11412.03
259.044	11421.87
259.114	11447.31
259.184	11481.82
259.254	11487.56
259.324	11444.08
259.394	11477.53
259.464	11544.81
259.535	11561.01
259.605	11554.93
259.675	11538.36
259.745	11571.81
259.815	11549.06
259.885	11563.37
259.955	11651.44
260.025	11644.07
260.095	11654.43
260.165	11671.73
260.235	11719.41
260.305	11705.43
260.375	11683.3
260.445	11764.99
260.515	11814.83
260.585	11853.54
260.655	11856.43
260.725	11887.09
260.795	11921.98
260.865	11988.31
260.934	11962.86
261.004	11982.52
261.074	11984.21
261.144	12035.53
261.214	12052.74
261.284	12055.44
261.354	12082.96
261.424	12049.75
261.494	12111.97
261.564	12116.55
261.634	12137.32
261.703	12083.96
261.773	12108.35
261.843	12135.39
261.913	12122.23
261.983	12076.15
262.053	12094.37
262.123	12088.59
262.192	12057.12
262.262	12083.14
262.332	12037.98
262.402	12063.19
262.472	12075.77
262.541	12019.33
262.611	12057.17
262.681	12047.39
262.751	12081.51
262.821	12084.21
262.89	12048.78
262.96	12070.62
263.03	12141.19
263.1	12168.81
263.169	12187.85
263.239	12209.11
263.309	12266.52
263.379	12295.93
263.448	12312.02
263.518	12337.33
263.588	12355.74
263.657	12415.76
263.727	12447.09
263.797	12452.83
263.867	12449.79
263.936	12413.78
264.006	12466.02
264.076	12465.01
264.145	12465.11
264.215	12451.22
264.285	12486.03
264.354	12453.11
264.424	12438.93
264.494	12393.77
264.563	12387.55
264.633	12444.62
264.702	12462.84
264.772	12415.84
264.842	12413.34
264.911	12443.27
264.981	12401.57
265.05	12411.5
265.12	12408.46
265.19	12412.61
265.259	12454.79
265.329	12479.42
265.398	12500.15
265.468	12588.07
265.537	12574.24
265.607	12598.87
265.676	12635.75
265.746	12655.8
265.815	12712.68
265.885	12716.39
265.955	12703.86
266.024	12705.06
266.094	12653.39
266.163	12708.68
266.232	12755.73
266.302	12765.32
266.371	12780.94
266.441	12804.61
266.51	12837.1
266.58	12837.39
266.649	12831.85
266.719	12873.35
266.788	12903.87
266.858	12965.23
266.927	12906.08
266.996	12940.79
267.066	12965.71
267.135	12945.8
267.205	12975.31
267.274	12989.43
267.343	13035.08
267.413	13051.66
267.482	13096.3
267.552	13148.46
267.621	13107.49
267.69	13068.05
267.76	13089.12
267.829	13118.14
267.898	13129.18
267.968	13124.26
268.037	13160.42
268.106	13201.1
268.176	13170.15
268.245	13166.49
268.314	13156.27
268.384	13201.54
268.453	13214.89
268.522	13226.22
268.592	13268.88
268.661	13257.65
268.73	13284.55
268.799	13273.84
268.869	13345.67
268.938	13305.47
269.007	13304.26
269.076	13324.17
269.146	13378.84
269.215	13397.59
269.284	13450.09
269.353	13447.1
269.422	13444.3
269.492	13431.48
269.561	13360.66
269.63	13395.81
269.699	13403.33
269.768	13422.71
269.838	13443.48
269.907	13474.91
269.976	13462.43
270.045	13419.86
270.114	13456.84
270.183	13458.43
270.253	13491.55
270.322	13445.56
270.391	13479.98
270.46	13538.88
270.529	13575.47
270.598	13611.63
270.667	13613.12
270.736	13583.57
270.806	13618.14
270.875	13674.2
270.944	13688.81
271.013	13797.94
271.082	13821.56
271.151	13842.73
271.22	13810.19
271.289	13809.71
271.358	13818.38
271.427	13850.01
271.496	13882.69
271.565	13876.04
271.634	13894.98
271.703	13999.25
271.772	14046.78
271.841	14043.07
271.91	14005.32
271.979	14026.44
272.048	13998.81
272.117	14043.69
272.186	14045.96
272.255	14082.26
272.324	14113.21
272.393	14141.07
272.462	14132.73
272.531	14150.28
272.6	14168.4
272.669	14230.88
272.738	14247.03
272.807	14269.97
272.876	14258.16
272.945	14364.89
273.013	14411.98
273.082	14462.12
273.151	14378.68
273.22	14420.38
273.289	14446.94
273.358	14522.33
273.427	14528.5
273.496	14574.44
273.564	14595.89
273.633	14649.98
273.702	14629.73
273.771	14639.47
273.84	14669.5
273.909	14703
273.977	14726.33
274.046	14737.56
274.115	14784.18
274.184	14784.66
274.253	14795.7
274.322	14853.45
274.39	14814.31
274.459	14814.11
274.528	14784.56
274.597	14808.86
274.665	14830.5
274.734	14890.32
274.803	14893.99
274.872	14903.72
274.94	14894.61
275.009	15011.11
275.078	15003.15
275.147	15043.5
275.215	15069.48
275.284	15121.64
275.353	15135.33
275.421	15109.06
275.49	15180.63
275.559	15188.15
275.627	15216.64
275.696	15245.13
275.765	15276.27
275.833	15285.48
275.902	15322.25
275.971	15391.76
276.039	15455.24
276.108	15494.62
276.177	15519.16
276.245	15522.63
276.314	15556.47
276.383	15607.8
276.451	15544.47
276.52	15591.18
276.588	15649.55
276.657	15691.39
276.725	15699.53
276.794	15722.67
276.863	15795.65
276.931	15767.26
277	15813.05
277.068	15864.33
277.137	15940.15
277.205	15969.79
277.274	16052.31
277.342	16105.81
277.411	16082.53
277.48	16088.26
277.548	16092.26
277.617	16128.03
277.685	16149.76
277.754	16193.1
277.822	16207.56
277.89	16278.45
277.959	16294.45
278.027	16285.1
278.096	16288.86
278.164	16391.71
278.233	16416.96
278.301	16416.82
278.37	16467.23
278.438	16469.02
278.507	16515.43
278.575	16477.16
278.643	16504.83
278.712	16497.17
278.78	16494.61
278.849	16559.92
278.917	16621.66
278.985	16645.66
279.054	16681.57
279.122	16742.68
279.191	16766.68
279.259	16797.86
279.327	16776.22
279.396	16853.24
279.464	16878.54
279.532	16935.89
279.601	16957.87
279.669	16974.06
279.737	17054.21
279.806	17097.92
279.874	17173.3
279.942	17206.26
280.011	17237.73
280.079	17294.74
280.147	17366.12
280.215	17414.36
280.284	17435.81
280.352	17438.27
280.42	17497.78
280.488	17509.11
280.557	17528.29
280.625	17575.18
280.693	17612.34
280.761	17652.29
280.83	17643.18
280.898	17718.17
280.966	17705.69
281.034	17653.74
281.102	17660.82
281.171	17667.04
281.239	17723.28
281.307	17715.28
281.375	17712.15
281.443	17816.87
281.512	17840.62
281.58	17891.22
281.648	17884.86
281.716	17918.93
281.784	17949.58
281.852	17971.51
281.92	18009.15
281.989	18078.16
282.057	18068.9
282.125	18211.36
282.193	18248.51
282.261	18278.49
282.329	18291.93
282.397	18332.85
282.465	18376.55
282.533	18447.73
282.601	18458.29
282.67	18437.32
282.738	18461.81
282.806	18535.83
282.874	18527.2
282.942	18572.74
283.01	18588.69
283.078	18647.29
283.146	18675.14
283.214	18742.71
283.282	18786.32
283.35	18848.39
283.418	18869.06
283.486	18922.6
283.554	18844
283.622	18872.63
283.69	18912.91
283.758	18939.32
283.826	18998.11
283.894	19065.1
283.962	19162.92
284.03	19242.44
284.098	19287.73
284.165	19313.18
284.233	19341.13
284.301	19366.62
284.369	19369.99
284.437	19384.6
284.505	19404.98
284.573	19492.49
284.641	19503.43
284.709	19552.2
284.777	19546.03
284.845	19599.91
284.912	19646.99
284.98	19711.76
285.048	19734.94
285.116	19785.83
285.184	19867.18
285.252	19906.26
285.319	19899.42
285.387	19899.56
285.455	19893.39
285.523	19939.95
285.591	19956.81
285.659	20007.17
285.726	20077.53
285.794	20082.35
285.862	20113.48
285.93	20145.58
285.997	20158.2
286.065	20173.53
286.133	20186.97
286.201	20216.85
286.269	20207.5
286.336	20223.6
286.404	20235.79
286.472	20300.56
286.539	20277.24
286.607	20260.85
286.675	20290.2
286.743	20339.41
286.81	20356.32
286.878	20428.76
286.946	20449
287.013	20497.53
287.081	20522.44
287.149	20517.29
287.216	20609.1
287.284	20636.86
287.352	20674.88
287.419	20702.59
287.487	20781.78
287.555	20835.09
287.622	20864
287.69	20922.22
287.758	20993.94
287.825	21022.37
287.893	21022.28
287.96	21083.43
288.028	21150.77
288.096	21197.23
288.163	21249.62
288.231	21265.33
288.298	21296.95
288.366	21367.13
288.433	21395.86
288.501	21400.72
288.569	21442.22
288.636	21461.02
288.704	21534.82
288.771	21596.27
288.839	21608.27
288.906	21618.35
288.974	21665.64
289.041	21697.01
289.109	21704
289.176	21759.15
289.244	21808.9
289.311	21887.71
289.379	21947.67
289.446	21986.24
289.514	22015.21
289.581	22048.38
289.649	22101.55
289.716	22140.06
289.783	22154.14
289.851	22243.32
289.918	22291.04
289.986	22367.02
290.053	22412.09
290.121	22441.02
290.188	22482.24
290.255	22598
290.323	22628.37
290.39	22645.29
290.458	22708.54
290.525	22783.7
290.592	22801.06
290.66	22836.25
290.727	22848.35
290.794	22925.64
290.862	22966.73
290.929	23017.93
290.996	23053.85
291.064	23106.6
291.131	23172.04
291.198	23248.81
291.266	23288.45
291.333	23325.67
291.4	23361.26
291.468	23441.89
291.535	23465.95
291.602	23514.08
291.669	23526.86
291.737	23574.26
291.804	23619.55
291.871	23691.45
291.938	23743.93
292.006	23847.4
292.073	23919.3
292.14	23987.5
292.207	23997.44
292.275	24033.51
292.342	24083.05
292.409	24198.54
292.476	24300.09
292.543	24313.31
292.611	24341.96
292.678	24413.07
292.745	24526.33
292.812	24593.92
292.879	24624.22
292.946	24669.85
293.014	24734.5
293.081	24800.11
293.148	24870.25
293.215	24934.42
293.282	24959.8
293.349	25020.74
293.416	24998.59
293.484	25067.3
293.551	25124.2
293.618	25202.65
293.685	25300.9
293.752	25327.92
293.819	25342.02
293.886	25336.71
293.953	25399.34
294.02	25468.5
294.087	25525.55
294.154	25532.26
294.221	25600.09
294.288	25634.59
294.356	25718.47
294.423	25774.56
294.49	25784.07
294.557	25847.69
294.624	25867.67
294.691	25958.03
294.758	25992.64
294.825	26067.12
294.892	26082.52
294.959	26112.5
295.026	26165.95
295.093	26179.76
295.16	26218.56
295.226	26258.92
295.293	26367.58
295.36	26413.78
295.427	26476.95
295.494	26548.77
295.561	26611.29
295.628	26717.94
295.695	26799.17
295.762	26847.07
295.829	26913.92
295.896	26993.98
295.963	27057.93
296.03	27132.88
296.096	27180.7
296.163	27247.11
296.23	27325.18
296.297	27405.16
296.364	27459.97
296.431	27521.91
296.498	27566.54
296.564	27689.62
296.631	27744.3
296.698	27753.29
296.765	27855.05
296.832	27878.82
296.899	27882.49
296.965	27979.33
297.032	27955.64
297.099	28051.06
297.166	28126.16
297.233	28145.73
297.299	28188.35
297.366	28236
297.433	28279.83
297.5	28355.63
297.566	28408.12
297.633	28452.84
297.7	28504.5
297.767	28535.38
297.833	28596.1
297.9	28641.34
297.967	28626.21
298.033	28696.69
298.1	28803.36
298.167	28811.15
298.234	28855.23
298.3	28923.68
298.367	28948.97
298.434	29009.95
298.5	28999.84
298.567	29008.4
298.634	29047.08
298.7	29120.72
298.767	29166.71
298.834	29237.11
298.9	29253.85
298.967	29279.43
299.033	29335.05
299.1	29414.77
299.167	29502.14
299.233	29529.23
299.3	29608.35
299.366	29698.15
299.433	29783.8
299.5	29757.67
299.566	29816.68
299.633	29899.98
299.699	29958.76
299.766	29994.46
299.832	30047.69
299.899	30125.54
299.965	30204.78
300.032	30240.96
300.099	30300.82
300.165	30358.94
300.232	30396.63
300.298	30443.22
300.365	30511.93
300.431	30562.61
300.498	30578.73
300.564	30634.38
300.631	30704.71
300.697	30772.33
300.763	30809.3
300.83	30836.46
300.896	30916.03
300.963	30979.39
301.029	31038.31
301.096	31086.28
301.162	31142.67
301.229	31166
301.295	31169.97
301.361	31225.7
301.428	31276.32
301.494	31275.2
301.561	31320.62
301.627	31367.34
301.693	31413.04
301.76	31470.37
301.826	31484.7
301.892	31551.09
301.959	31608.09
302.025	31630.9
302.092	31658.75
302.158	31713.17
302.224	31754.35
302.291	31772.02
302.357	31805.92
302.423	31828.25
302.49	31851.79
302.556	31929.1
302.622	31982.57
302.688	32063.65
302.755	32133.27
302.821	32191.86
302.887	32253.31
302.954	32291.44
303.02	32348.84
303.086	32403.63
303.152	32427.66
303.219	32458.75
303.285	32510.45
303.351	32571.71
303.417	32615.89
303.483	32627.18
303.55	32643.69
303.616	32687.99
303.682	32733.72
303.748	32749.46
303.815	32819.25
303.881	32881.32
303.947	32888.88
304.013	32925.22
304.079	32942.09
304.145	32920.43
304.212	32958.8
304.278	32980.75
304.344	33002.51
304.41	33007.5
304.476	33014.09
304.542	33041.03
304.608	33087.01
304.674	33076.55
304.741	33081.44
304.807	33122.25
304.873	33177.84
304.939	33270.7
305.005	33258.58
305.071	33278.99
305.137	33330.55
305.203	33300.5
305.269	33330.12
305.335	33396.1
305.401	33423.83
305.467	33455.14
305.533	33525.67
305.599	33582.53
305.666	33641.72
305.732	33681.56
305.798	33753.36
305.864	33852.85
305.93	33893.57
305.996	33934.48
306.062	33986.45
306.128	34015.49
306.194	34021.75
306.259	34065.19
306.325	34057.43
306.391	34112.85
306.457	34160.31
306.523	34186.68
306.589	34286.38
306.655	34297.53
306.721	34267.81
306.787	34267.22
306.853	34340.07
306.919	34329.64
306.985	34342.83
307.051	34356.7
307.117	34369.74
307.183	34376.68
307.248	34349.91
307.314	34397.05
307.38	34430.9
307.446	34474.01
307.512	34476.78
307.578	34521.73
307.644	34524.54
307.709	34570.76
307.775	34591.28
307.841	34616.84
307.907	34655.54
307.973	34631.38
308.039	34669.89
308.104	34730.12
308.17	34773.23
308.236	34751.21
308.302	34782.83
308.368	34787.29
308.433	34825.46
308.499	34842.38
308.565	34858.92
308.631	34886.18
308.696	34859.41
308.762	34861.69
308.828	34878.33
308.894	34872.41
308.959	34852.33
309.025	34869.5
309.091	34883.14
309.156	34895.99
309.222	34945.57
309.288	34931.55
309.354	34913.07
309.419	34932.38
309.485	34915.69
309.551	34950.19
309.616	34945.19
309.682	34971.38
309.748	34987.15
309.813	35003.88
309.879	35016.88
309.945	35018.05
310.01	35036.29
310.076	35078.97
310.141	35104.25
310.207	35102.84
310.273	35144.16
310.338	35193.98
310.404	35176.18
310.469	35182.05
310.535	35184.67
310.601	35142.03
310.666	35197.72
310.732	35263.98
310.797	35268.35
310.863	35282.37
310.928	35297.21
310.994	35346.94
311.059	35373.48
311.125	35390.31
311.191	35446.36
311.256	35444.86
311.322	35474.36
311.387	35453.45
311.453	36469.72
311.518	36458.61
311.584	36478.5
311.649	36512.32
311.715	36503.15
311.78	36554.81
311.846	36553.84
311.911	36600.08
311.976	36637.82
312.042	36629.33
312.107	36602.6
312.173	36613.27
312.238	36639.76
312.304	36656.46
312.369	36662.38
312.434	36653.79
312.5	36677.27
312.565	36605.11
312.631	36645.96
312.696	36664.16
312.761	36705.54
312.827	35715.33
312.892	35814.53
312.958	35842.1
313.023	35869.9
313.088	35902.51
313.154	35890.33
313.219	35894.75
313.284	35894.46
313.35	35923.76
313.415	35928.52
313.48	35949.29
313.546	35979.47
313.611	36022.52
313.676	36023.34
313.741	36015.82
313.807	36068.04
313.872	36095.07
313.937	36150.97
314.003	36205.81
314.068	36231.1
314.133	36275.7
314.198	36278.12
314.264	36245.31
314.329	36238.17
314.394	36254.87
314.459	36270.93
314.525	36339.51
314.59	36358.96
314.655	36362.17
314.72	36404.64
314.785	36435.8
314.851	36461.9
314.916	36449.62
314.981	36427.69
315.046	36420.41
315.111	36423.46
315.176	36413.22
315.242	36451.42
315.307	36466.96
315.372	36447.05
315.437	36455.11
315.502	36450.11
315.567	36504.62
315.632	36497.58
315.698	36521.71
315.763	36532.77
315.828	36525.45
315.893	36531.03
315.958	36542.09
316.023	36530.45
316.088	36480.84
316.153	36431.78
316.218	36421
316.283	36375.64
316.348	36342.4
316.413	36361.86
316.479	36338.23
316.544	36242.55
316.609	36153.01
316.674	36057.67
316.739	35953.12
316.804	35850.89
316.869	35745.95
316.934	35634.43
316.999	35540.84
317.064	35394.24
317.129	35261.88
317.194	35146
317.259	35010.59
317.324	34845.08
317.389	34705.21
317.454	34583.76
317.518	34473.44
317.583	34374.54
317.648	34281
317.713	34162.01
317.778	33959.8
317.843	33843
317.908	33724.59
317.973	33582.74
318.038	33485.11
318.103	33351.66
318.168	33239.94
318.233	33129.97
318.297	32958.66
318.362	32823.06
318.427	32671.16
318.492	32556.26
318.557	32397.59
318.622	32262.03
318.687	32161.3
318.751	32008.14
318.816	31872.76
318.881	31736.88
318.946	31532.71
319.011	31363.23
319.075	31194.28
319.14	31055.66
319.205	30879.79
319.27	30737.32
319.335	30573.01
319.399	30391.72
319.464	30266.31
319.529	30055.33
319.594	29875.62
319.658	29735.29
319.723	29549.59
319.788	29416.91
319.853	29218.29
319.917	29074.31
319.982	28867.89
320.047	28702.58
320.112	28565.84
320.176	28361.7
320.241	28185.9
320.306	28027.73
320.37	27853.78
320.435	27693.65
320.5	27541.65
320.564	27364.65
320.629	27168.26
320.694	27007.51
320.758	26826.02
320.823	26635.3
320.888	26483.86
320.952	26290.58
321.017	26091.38
321.082	25899.56
321.146	25720.37
321.211	25534.39
321.275	25340.49
321.34	25150.62
321.405	24955.42
321.469	24763.32
321.534	24566.07
321.598	24356.55
321.663	24212.68
321.727	24045.14
321.792	23844.2
321.857	23642.87
321.921	23464.24
321.986	23275.99
322.05	23041.45
322.115	22864.82
322.179	22657.45
322.244	22436.11
322.308	22248.43
322.373	22052.8
322.437	21870.16
322.502	21725.81
322.566	21529.72
322.631	21355.52
322.695	21167.69
322.76	20954.9
322.824	20764.76
322.889	20574.63
322.953	20367.16
323.018	20094.55
323.082	19836.57
323.146	19605.96
323.211	19380.56
323.275	19169.1
323.34	18959.12
323.404	18770.5
323.468	18551.71
323.533	18342.85
323.597	18127.28
323.662	17902.84
323.726	17719.23
323.79	17503.08
323.855	17233.92
323.919	17006.44
323.983	16781.28
324.048	16466.3
324.112	16535.45
324.177	15887.66
324.241	15015.55
324.305	14167
324.37	13329.89
324.434	12514.41
324.498	12291.86
324.562	12036.28
324.627	11742.92
324.691	11457.02
324.755	11136.64
324.82	10770.78
324.884	10387.72
324.948	10003.82
325.012	9529.86
325.077	8931.73
