Data from 20250626_urea_1M_exp2_MAYP1162681_23-33-58-795.txt Node
Date: Thu Jun 26 23:33:58 BST 2025
User: adleo
Spectrometer: MAYP116268
Trigger mode: 0
Integration Time (sec): 3.000000E0
Scans to average: 1
Electric dark correction enabled: true
Nonlinearity correction enabled: true
Boxcar width: 10
XAxis mode: Wavelengths
Number of Pixels in Spectrum: 2068
>>>>>Begin Spectral Data<<<<<
179.565	2837.57
179.642	2983.7
179.718	3095.29
179.795	3204.29
179.871	3286.9
179.948	3333.7
180.024	3384.98
180.101	3445.45
180.177	3476.94
180.254	3537.93
180.33	3596.7
180.407	3789.9
180.483	4009.49
180.56	4231.64
180.636	4437.35
180.712	4406.81
180.789	4430.97
180.865	4458.51
180.942	4485.06
181.018	4511.13
181.095	4545.6
181.171	4553.59
181.248	4555.55
181.324	4596.58
181.4	4607.26
181.477	4634.83
181.553	4666.73
181.63	4723.32
181.706	4761.67
181.782	4790.56
181.859	4788.22
181.935	4800.86
182.011	4794.15
182.088	4834.04
182.164	4881.28
182.24	4915.93
182.317	4939.91
182.393	4933.78
182.469	4968.16
182.546	5003.02
182.622	5012.89
182.698	5003.88
182.775	5041
182.851	5074.18
182.927	5051.77
183.003	5043.92
183.08	5032.9
183.156	5054.84
183.232	5045.73
183.308	5016.04
183.385	5033.61
183.461	5077.11
183.537	5080.17
183.613	5109.53
183.69	5091.14
183.766	5068.71
183.842	5086.82
183.918	5101.48
183.995	5130.83
184.071	5141.18
184.147	5124.27
184.223	5097.57
184.299	5124.45
184.375	5098.53
184.452	5120.39
184.528	5223.71
184.604	5254.55
184.68	5286.36
184.756	5302.27
184.832	5313.73
184.908	5325.5
184.985	5325.79
185.061	5286.22
185.137	5308.17
185.213	5281.63
185.289	5285.37
185.365	5264.15
185.441	5257.78
185.517	5289.18
185.593	5289.13
185.669	5280.74
185.745	5307.24
185.822	5348.8
185.898	5330.25
185.974	5348.69
186.05	5321.9
186.126	5260.98
186.202	5241.06
186.278	5228.4
186.354	5210.82
186.43	5226.35
186.506	5223.67
186.582	5223.19
186.658	5240.19
186.734	5188.03
186.81	5193.16
186.886	5199.82
186.962	5232.77
187.038	5223.53
187.114	5202.52
187.19	5218.2
187.266	5195.06
187.341	5196.41
187.417	5178.49
187.493	5181.22
187.569	5193.4
187.645	5184.53
187.721	5149.41
187.797	5169.96
187.873	5181.7
187.949	5164.12
188.025	5147.44
188.101	5153.52
188.176	5163.87
188.252	5149.93
188.328	5171.13
188.404	5169.84
188.48	5155.23
188.556	5133.67
188.632	5137.55
188.707	5139.9
188.783	5133.05
188.859	5121.94
188.935	5093.72
189.011	5118.78
189.086	5102.78
189.162	5076.33
189.238	5071.97
189.314	5070.15
189.39	5051.95
189.465	5029.14
189.541	5073.22
189.617	5039.12
189.693	5028.2
189.768	5041.1
189.844	5107.96
189.92	5084.13
189.996	5109.71
190.071	5137.55
190.147	5138.6
190.223	5158.39
190.298	5137.16
190.374	5103.1
190.45	5137.24
190.526	5160.05
190.601	5140.12
190.677	5139.93
190.753	5216.17
190.828	5221.44
190.904	5260.64
190.98	5296.63
191.055	5326.63
191.131	5304.1
191.207	5353.73
191.282	5377.25
191.358	5347.69
191.433	5307.98
191.509	5345.08
191.585	5330.32
191.66	5333.87
191.736	5359.07
191.811	5335.98
191.887	5385.02
191.963	5444.98
192.038	5455.24
192.114	5458.83
192.189	5471
192.265	5465.54
192.34	5406.01
192.416	5405.87
192.491	5392.45
192.567	5405.01
192.642	5408.13
192.718	5408.56
192.793	5380.81
192.869	5369.12
192.944	5380.76
193.02	5402.96
193.095	5410.86
193.171	5434.2
193.246	5430.51
193.322	5417.62
193.397	5419.01
193.473	5380.12
193.548	5333.28
193.624	5352.6
193.699	5347.43
193.775	5385.02
193.85	5389.52
193.925	5407.4
194.001	5403.28
194.076	5383.97
194.152	5354.53
194.227	5337.32
194.302	5313.47
194.378	5314.24
194.453	5307.63
194.529	5339.98
194.604	5300.11
194.679	5288.18
194.755	5233.91
194.83	5266.81
194.905	5263.84
194.981	5287.7
195.056	5268.02
195.131	5285.7
195.207	5272.99
195.282	5246.69
195.357	5200.61
195.433	5237.56
195.508	5209.09
195.583	5228.64
195.659	5267.75
195.734	5285.92
195.809	5285.49
195.884	5309.63
195.96	5313.03
196.035	5356.73
196.11	5345.56
196.185	5377.52
196.261	5381.93
196.336	5461.86
196.411	5421.34
196.486	5430.4
196.561	5411.71
196.637	5436.38
196.712	5473.83
196.787	5486.54
196.862	5526.65
196.937	5551.72
197.013	5572.15
197.088	5598.36
197.163	5651.27
197.238	5693.37
197.313	5691.21
197.388	5725.49
197.464	5798.61
197.539	5832.17
197.614	5812.23
197.689	5844.51
197.764	5883.57
197.839	5940.16
197.914	5926
197.989	5991.53
198.065	6028.6
198.14	6158.92
198.215	6221.29
198.29	6252.02
198.365	6282.93
198.44	6309.65
198.515	6375.94
198.59	6408.39
198.665	6478.27
198.74	6502.62
198.815	6504.35
198.89	6565.31
198.965	6639.14
199.04	6629.34
199.115	6665.96
199.19	6777.16
199.265	6783.3
199.34	6813.46
199.415	6894.25
199.49	6948.11
199.565	6966.46
199.64	7027.27
199.715	7016.98
199.79	7038.36
199.865	7052.58
199.94	7042.64
200.015	7123.56
200.09	7138.37
200.165	7154.8
200.24	7174.02
200.315	7276.28
200.39	7320.69
200.464	7331.31
200.539	7337.8
200.614	7379.07
200.689	7439.1
200.764	7455.5
200.839	7494.84
200.914	7501.33
200.989	7475.55
201.063	7508.53
201.138	7463.01
201.213	7464.21
201.288	7416.58
201.363	7422.69
201.438	7425.04
201.512	7467.79
201.587	7421.4
201.662	7434.52
201.737	7470.05
201.812	7488.51
201.886	7395.95
201.961	7417.79
202.036	7389.49
202.111	7378.58
202.186	7305.06
202.26	7259.92
202.335	7204.73
202.41	7189.69
202.485	7149.92
202.559	7100.24
202.634	7036.15
202.709	7065.43
202.784	7011.29
202.858	7013.79
202.933	6969.88
203.008	6951.48
203.082	6910.46
203.157	6910.8
203.232	6803.89
203.306	6743.62
203.381	6657.87
203.456	6602.41
203.53	6536.74
203.605	6484.54
203.68	6424.59
203.754	6408.38
203.829	6370.97
203.904	6319.09
203.978	6291.81
204.053	6304.06
204.127	6273.53
204.202	6265.33
204.277	6218.25
204.351	6203.85
204.426	6182.39
204.5	6165.98
204.575	6074.51
204.65	6094.53
204.724	6072.78
204.799	6092.86
204.873	6083.45
204.948	6077.98
205.022	6047.77
205.097	6023.91
205.171	6063.48
205.246	6090.66
205.32	6088.93
205.395	6084.95
205.469	6058.92
205.544	6072.46
205.618	6023.27
205.693	6048.03
205.767	6020.4
205.842	6076.6
205.916	6063.7
205.991	6034.86
206.065	6042.73
206.14	6089.12
206.214	6071.98
206.289	6049.47
206.363	6080.51
206.438	6087.33
206.512	6112.53
206.586	6159.15
206.661	6188.78
206.735	6131.38
206.81	6128.98
206.884	6164.18
206.958	6135.55
207.033	6178.51
207.107	6194.94
207.181	6273.58
207.256	6263.45
207.33	6309.03
207.405	6338.15
207.479	6385.38
207.553	6408.7
207.628	6369.95
207.702	6394.76
207.776	6384.82
207.851	6398.12
207.925	6434.43
207.999	6425.83
208.073	6420.55
208.148	6430.92
208.222	6397.94
208.296	6480.69
208.371	6518.85
208.445	6548.62
208.519	6621.72
208.593	6650.62
208.668	6638.71
208.742	6646.21
208.816	6651.39
208.89	6686.79
208.965	6683.19
209.039	6701.45
209.113	6742.41
209.187	6795.61
209.261	6786.39
209.336	6835.33
209.41	6884.57
209.484	6883.23
209.558	6943.71
209.632	6968.25
209.707	6992.17
209.781	7048.81
209.855	7084.95
209.929	7127.13
210.003	7142.98
210.077	7137.07
210.151	7262.95
210.226	7347.42
210.3	7419.44
210.374	7482.9
210.448	7496.22
210.522	7521.03
210.596	7547.95
210.67	7575.87
210.744	7698.97
210.818	7781.52
210.892	7830.18
210.966	7817.11
211.041	7854.99
211.115	7843.26
211.189	7909.27
211.263	7960.62
211.337	7973.51
211.411	8006.22
211.485	7994.96
211.559	8028.23
211.633	8033.8
211.707	7950.55
211.781	7973.94
211.855	7879.63
211.929	7856.51
212.003	7811.72
212.077	7835.58
212.151	7864.83
212.225	7888.2
212.299	7853.21
212.373	7824.75
212.447	7812.96
212.52	7880.72
212.594	7894.72
212.668	7924.1
212.742	7889.14
212.816	7867.83
212.89	7854.37
212.964	7852.83
213.038	7860.67
213.112	7883.95
213.186	7919.57
213.26	7865.81
213.333	7741.67
213.407	7755.36
213.481	7759.69
213.555	7784.24
213.629	7752.01
213.703	7702.67
213.777	7695.26
213.85	7646.78
213.924	7723.8
213.998	7720.29
214.072	7702.82
214.146	7656.17
214.219	7646.7
214.293	7632.62
214.367	7635.55
214.441	7656.13
214.515	7620.97
214.588	7550.58
214.662	7462.57
214.736	7407.97
214.81	7420.36
214.883	7440.67
214.957	7406.85
215.031	7361.95
215.105	7293.01
215.178	7247.83
215.252	7225.39
215.326	7150.66
215.4	7087.75
215.473	6953.39
215.547	6888.99
215.621	6838.94
215.694	6840.86
215.768	6764.62
215.842	6715.25
215.915	6663.92
215.989	6580.37
216.063	6537.56
216.136	6526.9
216.21	6509.76
216.284	6520.86
216.357	6501.94
216.431	6468.19
216.504	6463.05
216.578	6511.75
216.652	6525.71
216.725	6509.77
216.799	6516.54
216.873	6497.25
216.946	6503.92
217.02	6478.78
217.093	6461.26
217.167	6389.07
217.24	6325.97
217.314	6300.25
217.387	6269.65
217.461	6230.68
217.535	6244.98
217.608	6199.97
217.682	6179.95
217.755	6188.78
217.829	6142.07
217.902	6126.66
217.976	6118.79
218.049	6085.92
218.123	6022.2
218.196	6015.44
218.27	5987.75
218.343	5937.87
218.417	5943.43
218.49	5923.43
218.563	5953.84
218.637	5959.99
218.71	6013.06
218.784	6040.18
218.857	6061.57
218.931	6075.09
219.004	6082.15
219.077	6102.08
219.151	6119.78
219.224	6112.24
219.298	6103.51
219.371	6140.8
219.444	6119.41
219.518	6123.92
219.591	6134.47
219.665	6216.56
219.738	6227.16
219.811	6214.93
219.885	6246.47
219.958	6266.05
220.031	6271.38
220.105	6286.59
220.178	6292.55
220.251	6273.15
220.325	6288.08
220.398	6302.05
220.471	6318.03
220.544	6348.41
220.618	6328
220.691	6345.43
220.764	6356.94
220.838	6380.32
220.911	6370.53
220.984	6436.23
221.057	6466.04
221.131	6487.88
221.204	6410.69
221.277	6465
221.35	6557.96
221.424	6551
221.497	6562.57
221.57	6584.59
221.643	6613.75
221.716	6644.2
221.79	6654.48
221.863	6662.79
221.936	6671.24
222.009	6681.65
222.082	6702.6
222.155	6709.9
222.229	6762.55
222.302	6790.45
222.375	6793.77
222.448	6821.19
222.521	6822.68
222.594	6824.46
222.667	6805.55
222.74	6859.86
222.814	6853.9
222.887	6839.53
222.96	6881.03
223.033	6913.9
223.106	6934.84
223.179	6960.12
223.252	6970.98
223.325	6990.29
223.398	7001.73
223.471	7028.53
223.544	7042.5
223.617	7053.22
223.69	7068.49
223.763	7035.43
223.837	7048.16
223.91	7073
223.983	7036.26
224.056	7010.42
224.129	7030.98
224.202	7069.34
224.275	7051.08
224.348	7030.72
224.42	7006.98
224.493	6967.78
224.566	6949.71
224.639	6956.48
224.712	6927.02
224.785	6918.17
224.858	6912.7
224.931	6899.39
225.004	6867.49
225.077	6871.72
225.15	6800.13
225.223	6801.42
225.296	6868.3
225.369	6825.17
225.442	6797.26
225.514	6809.93
225.587	6821.26
225.66	6824.67
225.733	6825.44
225.806	6833.32
225.879	6827.66
225.952	6802.64
226.025	6843.09
226.097	6881.26
226.17	6879.2
226.243	6835.69
226.316	6829.92
226.389	6830.36
226.461	6846.02
226.534	6855.34
226.607	6850.82
226.68	6916.03
226.753	6912.57
226.825	6850.4
226.898	6897.57
226.971	6907.7
227.044	6926.38
227.117	6936.42
227.189	6949.16
227.262	6978.33
227.335	6995.77
227.407	6996.93
227.48	7030.25
227.553	7034.87
227.626	7017.89
227.698	7023.17
227.771	7054
227.844	7040.74
227.916	7059.67
227.989	7029.02
228.062	7032.14
228.134	7095.15
228.207	7100.63
228.28	7095.39
228.352	7103.8
228.425	7110.53
228.498	7143.26
228.57	7124.86
228.643	7170.96
228.716	7168.7
228.788	7159.95
228.861	7155.53
228.934	7202.04
229.006	7205.5
229.079	7206.94
229.151	7200.84
229.224	7176.44
229.296	7197.97
229.369	7282.2
229.442	7323.02
229.514	7312.36
229.587	7346.77
229.659	7289.71
229.732	7296.39
229.804	7323.11
229.877	7382.54
229.949	7401.53
230.022	7439.72
230.094	7440.59
230.167	7428.56
230.239	7400.02
230.312	7391.37
230.384	7442.2
230.457	7438.16
230.529	7447.34
230.602	7443.78
230.674	7454.79
230.747	7482.31
230.819	7500.05
230.892	7404.39
230.964	7400.4
231.037	7419.85
231.109	7414.94
231.181	7443.2
231.254	7419.55
231.326	7413.69
231.399	7393.29
231.471	7377.14
231.544	7313.81
231.616	7354.74
231.688	7363.98
231.761	7353.41
231.833	7348.8
231.905	7278.99
231.978	7282.12
232.05	7265.35
232.122	7269.34
232.195	7245.16
232.267	7272.75
232.339	7257.99
232.412	7309.01
232.484	7282.23
232.556	7267.63
232.629	7317.55
232.701	7333.85
232.773	7337.07
232.846	7329.38
232.918	7332.17
232.99	7345.49
233.062	7380.62
233.135	7385.38
233.207	7356.15
233.279	7388.39
233.351	7413.76
233.424	7420.59
233.496	7401.89
233.568	7467.22
233.64	7440.26
233.713	7454.44
233.785	7458.53
233.857	7470.74
233.929	7431.33
234.001	7488.14
234.074	7536.34
234.146	7485.7
234.218	7479.97
234.29	7485.79
234.362	7479.16
234.434	7447.18
234.507	7423.48
234.579	7386.37
234.651	7377.34
234.723	7403.25
234.795	7419.3
234.867	7414.78
234.939	7459.54
235.012	7469.06
235.084	7469.87
235.156	7497.99
235.228	7481.74
235.3	7467.75
235.372	7474.43
235.444	7521.68
235.516	7454.78
235.588	7451.89
235.66	7461.65
235.732	7441.36
235.804	7588.29
235.876	7620.87
235.948	7666.51
236.02	7670.89
236.092	7680.54
236.164	7684.2
236.236	7677.18
236.308	7674.1
236.38	7691.22
236.452	7682.51
236.524	7699.19
236.596	7751.47
236.668	7781.19
236.74	7799.16
236.812	7816.57
236.884	7844.51
236.956	7854.85
237.028	7859.47
237.1	7848.51
237.172	7905.08
237.244	7971.78
237.316	7879.39
237.388	7866.89
237.46	7852.94
237.532	7907.14
237.604	7904.3
237.675	7958.22
237.747	7994.35
237.819	7984.49
237.891	7990.79
237.963	7981.61
238.035	7981.32
238.107	7895
238.178	7937.25
238.25	7951.29
238.322	8025.16
238.394	7996.87
238.466	7999.28
238.538	8030.29
238.609	8066.98
238.681	8027.72
238.753	8000.01
238.825	8017.81
238.897	8044.74
238.968	8102.73
239.04	8078.96
239.112	8160.73
239.184	8134.75
239.255	8130.37
239.327	8165.42
239.399	8175.67
239.471	8211.55
239.542	8242.57
239.614	8293.32
239.686	8233.46
239.758	8274.31
239.829	8247.35
239.901	8293.34
239.973	8301.08
240.044	8326.58
240.116	8337.99
240.188	8344.96
240.259	8363.48
240.331	8358.96
240.403	8384.21
240.474	8346.14
240.546	8341.23
240.618	8293.31
240.689	8295.81
240.761	8316.79
240.833	8365.16
240.904	8367.95
240.976	8367.27
241.048	8374.83
241.119	8400.72
241.191	8435.65
241.262	8482.25
241.334	8483.31
241.405	8480.09
241.477	8480.62
241.549	8489.18
241.62	8506.07
241.692	8542.02
241.763	8588.13
241.835	8596.8
241.906	8608.15
241.978	8585.73
242.049	8637.46
242.121	8685.67
242.192	8734.71
242.264	8702.81
242.335	8660.32
242.407	8694
242.478	8694.58
242.55	8706.66
242.621	8691.79
242.693	8691.4
242.764	8685.86
242.836	8691.4
242.907	8719.03
242.979	8744.63
243.05	8754.5
243.122	8773.85
243.193	8771.78
243.264	8716.67
243.336	8720.85
243.407	8746.32
243.479	8812.15
243.55	8827.61
243.622	8840.41
243.693	8837.09
243.764	8895.66
243.836	8882.24
243.907	8874.01
243.978	8878.68
244.05	8896.11
244.121	8867.81
244.192	8894.81
244.264	8851.58
244.335	8858.17
244.407	8815.67
244.478	8830.4
244.549	8825.98
244.62	8792.72
244.692	8791.66
244.763	8828.28
244.834	8818.61
244.906	8804.55
244.977	8816.73
245.048	8859.79
245.119	8840.2
245.191	8824.36
245.262	8777.67
245.333	8833.06
245.405	8845.86
245.476	8875.37
245.547	8889.76
245.618	8929.57
245.689	8944.78
245.761	8969.91
245.832	8972.85
245.903	9015.35
245.974	9039.71
246.045	9050.16
246.117	9119.24
246.188	9102.49
246.259	9089.16
246.33	9101.96
246.401	9107.45
246.473	9080.87
246.544	9063.15
246.615	9106.82
246.686	9114.9
246.757	9168.09
246.828	9154.04
246.899	9214.33
246.97	9182.71
247.042	9173.32
247.113	9203.37
247.184	9273.65
247.255	9279.58
247.326	9305.92
247.397	9306.97
247.468	9310.59
247.539	9320.12
247.61	9279.91
247.681	9314.66
247.752	9357.41
247.823	9341.34
247.894	9358.48
247.965	9339.51
248.037	9331.28
248.108	9294.83
248.179	9297.76
248.25	9291.75
248.321	9313.94
248.392	9275.21
248.463	9347.72
248.534	9356.82
248.605	9369.63
248.675	9344.82
248.746	9347.51
248.817	9354.11
248.888	9368.36
248.959	9322.29
249.03	9341.55
249.101	9348.53
249.172	9342.85
249.243	9283.3
249.314	9331.06
249.385	9337.75
249.456	9363.94
249.527	9356.96
249.598	9375.98
249.669	9372.32
249.739	9382.43
249.81	9394.27
249.881	9363.75
249.952	9352.58
250.023	9343.67
250.094	9304.08
250.165	9275.52
250.235	9276.77
250.306	9282.64
250.377	9258.95
250.448	9284.03
250.519	9236.85
250.59	9281.06
250.66	9282.55
250.731	9334.93
250.802	9335.55
250.873	9352.55
250.944	9367.05
251.014	9363.68
251.085	9431.6
251.156	9452.35
251.227	9487.27
251.297	9529.94
251.368	9564.95
251.439	9596.55
251.51	9636.76
251.58	9631.95
251.651	9634.16
251.722	9679.78
251.792	9647.94
251.863	9651.12
251.934	9700.73
252.005	9789.97
252.075	9797.14
252.146	9834.27
252.217	9874.2
252.287	9910.81
252.358	9914.42
252.429	9970.83
252.499	9963.08
252.57	9967.9
252.641	10006.09
252.711	10015.1
252.782	9977.91
252.852	10040.06
252.923	10035.24
252.994	10051.62
253.064	10090.77
253.135	10075.22
253.205	10059.51
253.276	10108.01
253.347	10158.73
253.417	10138.59
253.488	10114.93
253.558	10112.62
253.629	10113.2
253.699	10121.25
253.77	10141.77
253.841	10128
253.911	10137.49
253.982	10153
254.052	10179.65
254.123	10185.47
254.193	10187.59
254.264	10291.24
254.334	10263.96
254.405	10243.25
254.475	10214.11
254.546	10221.14
254.616	10270.95
254.687	10293.16
254.757	10312.23
254.827	10312.81
254.898	10329.19
254.968	10341.62
255.039	10319.75
255.109	10343.55
255.18	10323.7
255.25	10269.21
255.321	10302.59
255.391	10268.87
255.461	10341.76
255.532	10282.88
255.602	10281
255.673	10240.15
255.743	10211.42
255.813	10156.37
255.884	10198.43
255.954	10227.62
256.024	10276.38
256.095	10273.44
256.165	10246.42
256.235	10256.59
256.306	10242.33
256.376	10280.73
256.446	10311.47
256.517	10343.02
256.587	10380.03
256.657	10396.26
256.728	10415.1
256.798	10418.08
256.868	10419.38
256.938	10389.36
257.009	10422.8
257.079	10443.52
257.149	10519.21
257.219	10483.69
257.29	10513.5
257.36	10463.35
257.43	10490.29
257.5	10436.47
257.571	10432.95
257.641	10460.27
257.711	10437.29
257.781	10463.97
257.852	10479.2
257.922	10427.6
257.992	10429.48
258.062	10422.3
258.132	10452.71
258.202	10451.65
258.273	10467.98
258.343	10520.41
258.413	10508.46
258.483	10504.84
258.553	10481.77
258.623	10464.56
258.693	10480.08
258.764	10534.47
258.834	10592.67
258.904	10603.7
258.974	10597.58
259.044	10607.61
259.114	10633.14
259.184	10663.45
259.254	10672.66
259.324	10630.54
259.394	10671.15
259.464	10732.88
259.535	10741.85
259.605	10742.23
259.675	10743.92
259.745	10772.45
259.815	10758.57
259.885	10768.11
259.955	10861.61
260.025	10865.18
260.095	10867.49
260.165	10894.09
260.235	10941.61
260.305	10936.5
260.375	10918.87
260.445	10996.49
260.515	11042.94
260.585	11080.2
260.655	11089.98
260.725	11127.04
260.795	11153.83
260.865	11209.11
260.934	11181.88
261.004	11198.75
261.074	11202.55
261.144	11247.94
261.214	11277.63
261.284	11278.16
261.354	11305
261.424	11268.12
261.494	11315.49
261.564	11325.61
261.634	11343.06
261.703	11290.33
261.773	11300.74
261.843	11334.04
261.913	11325.95
261.983	11285.61
262.053	11299.64
262.123	11293.37
262.192	11260.75
262.262	11296.36
262.332	11258.72
262.402	11288.75
262.472	11303.3
262.541	11261.81
262.611	11301.14
262.681	11275.65
262.751	11304.76
262.821	11314.54
262.89	11291.6
262.96	11319.6
263.03	11382.59
263.1	11397.73
263.169	11418.35
263.239	11446.02
263.309	11493.64
263.379	11521.35
263.448	11543.42
263.518	11567.33
263.588	11586.76
263.657	11644.73
263.727	11670.86
263.797	11681.32
263.867	11677.41
263.936	11650.66
264.006	11697.69
264.076	11687.71
264.145	11690.51
264.215	11676.24
264.285	11704.29
264.354	11674.37
264.424	11662.22
264.494	11624.14
264.563	11621.01
264.633	11681.07
264.702	11700.25
264.772	11653.78
264.842	11649.68
264.911	11671.04
264.981	11635.99
265.05	11638.5
265.12	11635.65
265.19	11649.92
265.259	11691.76
265.329	11722.03
265.398	11737.07
265.468	11816.6
265.537	11818.77
265.607	11847.74
265.676	11890.49
265.746	11909.91
265.815	11961.58
265.885	11968.95
265.955	11959.94
266.024	11962.4
266.094	11911.69
266.163	11965.1
266.232	12021.74
266.302	12029.79
266.371	12053.89
266.441	12070.95
266.51	12113.85
266.58	12116.74
266.649	12108.89
266.719	12142.53
266.788	12164.13
266.858	12229.54
266.927	12172.95
266.996	12197.24
267.066	12209.58
267.135	12191.55
267.205	12220.52
267.274	12234.7
267.343	12275.81
267.413	12293.93
267.482	12335.73
267.552	12389.33
267.621	12350.04
267.69	12312.49
267.76	12330.85
267.829	12352.35
267.898	12368.5
267.968	12350.71
268.037	12383.59
268.106	12423.89
268.176	12406.87
268.245	12414.06
268.314	12404.46
268.384	12455.41
268.453	12473.59
268.522	12500.15
268.592	12546.95
268.661	12542.37
268.73	12568.4
268.799	12559
268.869	12627.55
268.938	12597.9
269.007	12598.58
269.076	12622.58
269.146	12668.09
269.215	12703.95
269.284	12751.97
269.353	12748.79
269.422	12757.94
269.492	12752.5
269.561	12684.29
269.63	12708.25
269.699	12704.73
269.768	12723.91
269.838	12739.48
269.907	12774.05
269.976	12752.11
270.045	12707.19
270.114	12734.18
270.183	12747.58
270.253	12775.06
270.322	12738.62
270.391	12764.31
270.46	12809.91
270.529	12845.63
270.598	12880.44
270.667	12873.74
270.736	12859.37
270.806	12888.01
270.875	12938.38
270.944	12952.46
271.013	13058.08
271.082	13080.68
271.151	13118.91
271.22	13092.25
271.289	13101.8
271.358	13103
271.427	13137.09
271.496	13171.26
271.565	13175.5
271.634	13182.35
271.703	13222.94
271.772	13265.46
271.841	13276.25
271.91	13253.74
271.979	13258.66
272.048	13239.33
272.117	13284.74
272.186	13289.66
272.255	13336.27
272.324	13365.73
272.393	13396.58
272.462	13390.55
272.531	13407.33
272.6	13413.4
272.669	13467.49
272.738	13473.9
272.807	13501.14
272.876	13497.04
272.945	13606.95
273.013	13649.61
273.082	13701.82
273.151	13689.58
273.22	13716.57
273.289	13737.44
273.358	13813.66
273.427	13835.98
273.496	13880.14
273.564	13911.52
273.633	13956.59
273.702	13938.56
273.771	13950.52
273.84	13975
273.909	14009.33
273.977	14045.24
274.046	14056.52
274.115	14104.1
274.184	14107.67
274.253	14130.85
274.322	14192.27
274.39	14149.56
274.459	14148.55
274.528	14112.73
274.597	14131.72
274.665	14161.08
274.734	14219.6
274.803	14220.9
274.872	14237.73
274.94	14234.31
275.009	14403.05
275.078	14394.32
275.147	14433.27
275.215	14458.77
275.284	14510.21
275.353	14523.37
275.421	14498.97
275.49	14578.37
275.559	14590.56
275.627	14621.22
275.696	14620.59
275.765	14649.61
275.833	14658.1
275.902	14700.76
275.971	14769.35
276.039	14846.19
276.108	14887.94
276.177	14913.68
276.245	14918.69
276.314	14943.47
276.383	14998.42
276.451	14875.71
276.52	14931.34
276.588	14995.11
276.657	15042.74
276.725	15052.67
276.794	15078.31
276.863	15143.43
276.931	15117.74
277	15169.27
277.068	15225.81
277.137	15320.63
277.205	15350.37
277.274	15439.3
277.342	15485.86
277.411	15477.33
277.48	15483.84
277.548	15492.75
277.617	15532.42
277.685	15560.38
277.754	15606.51
277.822	15620.01
277.89	15686.42
277.959	15699.39
278.027	15689.85
278.096	15697.41
278.164	15799.35
278.233	15818.92
278.301	15828.85
278.37	15874.93
278.438	15872.23
278.507	15908.24
278.575	15876.71
278.643	15900.28
278.712	15881.39
278.78	15885.63
278.849	15946.61
278.917	16001.07
278.985	16026.86
279.054	16062.62
279.122	16119.59
279.191	16150.1
279.259	16166.73
279.327	16150.15
279.396	16223.46
279.464	16247.46
279.532	16303.66
279.601	16319.18
279.669	16346.12
279.737	16417.4
279.806	16463.86
279.874	16525.46
279.942	16552.69
280.011	16577.03
280.079	16637.08
280.147	16717.04
280.215	16769.23
280.284	16795.31
280.352	16800.47
280.42	16856.42
280.488	16875.02
280.557	16892.47
280.625	16942.21
280.693	16992.38
280.761	17036.29
280.83	17022.45
280.898	17096.34
280.966	17083.18
281.034	17040.09
281.102	17038.07
281.171	17048.62
281.239	17102.89
281.307	17114.12
281.375	17127.52
281.443	17228.24
281.512	17258.75
281.58	17311.61
281.648	17301.97
281.716	17338.36
281.784	17368.96
281.852	17391.42
281.92	17425.64
281.989	17493.15
282.057	17480
282.125	17590.93
282.193	17619.32
282.261	17661.83
282.329	17678.11
282.397	17727.13
282.465	17784.48
282.533	17856.19
282.601	17876.09
282.67	17852.19
282.738	17869.06
282.806	17941.2
282.874	17944.72
282.942	17981.58
283.01	17993.68
283.078	18060.71
283.146	18092.47
283.214	18153.43
283.282	18189.91
283.35	18255.12
283.418	18281.23
283.486	18343.02
283.554	18303.21
283.622	18340.65
283.69	18386.63
283.758	18417.08
283.826	18464.84
283.894	18521.56
283.962	18622.86
284.03	18695.48
284.098	18746.42
284.165	18779.48
284.233	18809.79
284.301	18834.12
284.369	18851.86
284.437	18873.45
284.505	18885.16
284.573	18956.52
284.641	18964.81
284.709	19020.38
284.777	19016.18
284.845	19074.49
284.912	19118.3
284.98	19164.99
285.048	19191.4
285.116	19240.22
285.184	19311.49
285.252	19354.57
285.319	19353.61
285.387	19357.95
285.455	19352.26
285.523	19408.59
285.591	19447.1
285.659	19488.49
285.726	19559.29
285.794	19553.36
285.862	19586.9
285.93	19635.04
285.997	19653.55
286.065	19687.66
286.133	19705.21
286.201	19738.07
286.269	19729.3
286.336	19741.44
286.404	19772.86
286.472	19831.37
286.539	19808.86
286.607	19803.32
286.675	19842.74
286.743	19907.95
286.81	19932.67
286.878	19999.99
286.946	20009.77
287.013	20031.84
287.081	20065.05
287.149	20060.47
287.216	20164.42
287.284	20185.87
287.352	20216.95
287.419	20255.7
287.487	20332.37
287.555	20378.21
287.622	20404.52
287.69	20463.22
287.758	20537.58
287.825	20570.35
287.893	20580.91
287.96	20639.75
288.028	20705.24
288.096	20740.81
288.163	20784.09
288.231	20799.8
288.298	20835.66
288.366	20913.69
288.433	20956.44
288.501	20973.31
288.569	21032.35
288.636	21045.26
288.704	21123.1
288.771	21183.35
288.839	21193.95
288.906	21206.96
288.974	21271.17
289.041	21307.17
289.109	21319.99
289.176	21374.36
289.244	21413.5
289.311	21475.53
289.379	21538.62
289.446	21576.22
289.514	21615.89
289.581	21648.33
289.649	21694.8
289.716	21731.48
289.783	21749.8
289.851	21837.86
289.918	21881.05
289.986	21932.14
290.053	21984.11
290.121	22017.71
290.188	22060.95
290.255	22181.9
290.323	22205.76
290.39	22225.58
290.458	22282.89
290.525	22353.22
290.592	22369.81
290.66	22418.26
290.727	22457.11
290.794	22531.89
290.862	22577.31
290.929	22625.52
290.996	22661.19
291.064	22713.21
291.131	22785.44
291.198	22852.17
291.266	22877.29
291.333	22917.16
291.4	22962.91
291.468	23033.03
291.535	23061.67
291.602	23104.29
291.669	23103.95
291.737	23153.27
291.804	23193.59
291.871	23268.18
291.938	23317.13
292.006	23421.26
292.073	23488
292.14	23545.82
292.207	23557.49
292.275	23592.11
292.342	23653.41
292.409	23751.42
292.476	23846.87
292.543	23859.75
292.611	23901.57
292.678	23987.47
292.745	24096.18
292.812	24158.46
292.879	24185.95
292.946	24226.27
293.014	24297.37
293.081	24372.76
293.148	24454.47
293.215	24522.49
293.282	24554.04
293.349	24620.52
293.416	24615.21
293.484	24680.49
293.551	24731.63
293.618	24823.43
293.685	24922.54
293.752	24940.82
293.819	24977.26
293.886	24987.78
293.953	25045.14
294.02	25114.24
294.087	25164.24
294.154	25179.15
294.221	25260.04
294.288	25307.24
294.356	25398.29
294.423	25459.58
294.49	25474.16
294.557	25536.71
294.624	25564.22
294.691	25649.49
294.758	25695.83
294.825	25758.14
294.892	25778.65
294.959	25819
295.026	25874.38
295.093	25896.97
295.16	25945.28
295.226	25988.87
295.293	26095.77
295.36	26159.19
295.427	26229.94
295.494	26301.07
295.561	26363.49
295.628	26459.73
295.695	26542.73
295.762	26584.54
295.829	26647.32
295.896	26723.65
295.963	26789.24
296.03	26856.16
296.096	26919.14
296.163	26995.79
296.23	27083.41
296.297	27164.54
296.364	27225.82
296.431	27283.25
296.498	27328.22
296.564	27435.2
296.631	27480.79
296.698	27483.69
296.765	27569.24
296.832	27577.7
296.899	27599.87
296.965	27693.89
297.032	27679.15
297.099	27764.36
297.166	27836.4
297.233	27876.02
297.299	27916.65
297.366	27962.46
297.433	28013.72
297.5	28067.66
297.566	28099.32
297.633	28127.74
297.7	28181.23
297.767	28215.25
297.833	28274.71
297.9	28328.15
297.967	28328.54
298.033	28404.33
298.1	28528.14
298.167	28548.15
298.234	28607.07
298.3	28664.06
298.367	28680.25
298.434	28744.75
298.5	28758.87
298.567	28791.02
298.634	28818.72
298.7	28900.52
298.767	28945.29
298.834	29019.46
298.9	29046.11
298.967	29074.49
299.033	29146.6
299.1	29219.19
299.167	29295.53
299.233	29323.87
299.3	29390.26
299.366	29471.64
299.433	29549.09
299.5	29527.86
299.566	29593.43
299.633	29674.94
299.699	29743.87
299.766	29785.8
299.832	29828.47
299.899	29894.47
299.965	29971.05
300.032	30005.09
300.099	30058.41
300.165	30115.02
300.232	30156.48
300.298	30207.18
300.365	30280.86
300.431	30321.95
300.498	30342.18
300.564	30404.16
300.631	30465.72
300.697	30545.04
300.763	30592.32
300.83	30643.35
300.896	30714.68
300.963	30777.16
301.029	30821.89
301.096	30866.38
301.162	30936.5
301.229	30975.76
301.295	30985.05
301.361	31018.94
301.428	31075.6
301.494	31075.7
301.561	31128.28
301.627	31170.1
301.693	31218.65
301.76	31271.18
301.826	31292.97
301.892	31370.54
301.959	31430.97
302.025	31470.58
302.092	31489.51
302.158	31550.33
302.224	31579.24
302.291	31590.57
302.357	31616.82
302.423	31651.3
302.49	31672.56
302.556	31733.68
302.622	31768.26
302.688	31842.55
302.755	31922.28
302.821	31985.28
302.887	32060.14
302.954	32101.65
303.02	32155.85
303.086	32216.98
303.152	32247.3
303.219	32285.22
303.285	32334.74
303.351	32375.78
303.417	32410.47
303.483	32430.81
303.55	32460.7
303.616	32498.84
303.682	32543.93
303.748	32571.15
303.815	32656.2
303.881	32725.1
303.947	32744.77
304.013	32793.51
304.079	32807.42
304.145	32800.73
304.212	32846.62
304.278	32864.78
304.344	32880.24
304.41	32888.72
304.476	32901.75
304.542	32934.12
304.608	32984.03
304.674	32970.17
304.741	32993.53
304.807	33043.11
304.873	33099.47
304.939	33159.33
305.005	33145.81
305.071	33179.19
305.137	33227.17
305.203	33189.99
305.269	33222.27
305.335	33284.71
305.401	33309.24
305.467	33349.32
305.533	33389.36
305.599	33426.68
305.666	33486.59
305.732	33530.11
305.798	33604.81
305.864	33692.08
305.93	33733.34
305.996	33762.08
306.062	33798.38
306.128	33836.64
306.194	33834.8
306.259	33858.94
306.325	33866.89
306.391	33932.58
306.457	33989.59
306.523	34018.58
306.589	34120.51
306.655	34138.54
306.721	34124.82
306.787	34136.5
306.853	34186.84
306.919	34186.89
306.985	34195.18
307.051	34212.83
307.117	34219.27
307.183	34225.72
307.248	34186.83
307.314	34237.32
307.38	34286.68
307.446	34353.12
307.512	34351.71
307.578	34403.4
307.644	34428.28
307.709	34470.33
307.775	34487.74
307.841	34502
307.907	34535.6
307.973	34514.55
308.039	34540.64
308.104	34591.61
308.17	34627.89
308.236	34624.3
308.302	34678.46
308.368	34693.49
308.433	34722.79
308.499	34752.76
308.565	34758.72
308.631	34806.78
308.696	34782.19
308.762	34769.05
308.828	34786.71
308.894	34775.6
308.959	34752.61
309.025	34759.55
309.091	34783.18
309.156	34798.65
309.222	34851.14
309.288	34859.96
309.354	34831.74
309.419	34859.1
309.485	34846.49
309.551	34887.77
309.616	34905.62
309.682	34922.4
309.748	34936.27
309.813	34953.06
309.879	34965.96
309.945	34978.91
310.01	35002.63
310.076	35031.35
310.141	35059.62
310.207	35055.45
310.273	35100.75
310.338	35147.89
310.404	35138.58
310.469	35120.68
310.535	35122.47
310.601	35080.95
310.666	35122.33
310.732	35182.38
310.797	35180.2
310.863	35191.16
310.928	35206.06
310.994	35223.86
311.059	35234.44
311.125	35254.03
311.191	35302.31
311.256	35307.41
311.322	35345.25
311.387	35314.98
311.453	36274.81
311.518	36271.41
311.584	36291.55
311.649	36330.85
311.715	36323.96
311.78	36371.01
311.846	36378.77
311.911	36436.41
311.976	36476.19
312.042	36467.85
312.107	36459.12
312.173	36459.41
312.238	36481.72
312.304	36485.56
312.369	36498.32
312.434	36506.08
312.5	36513.36
312.565	36466
312.631	36490.69
312.696	36504.47
312.761	36545.71
312.827	35629.45
312.892	35736.03
312.958	35763.93
313.023	35791.26
313.088	35834.58
313.154	35828.37
313.219	35843.66
313.284	35841.96
313.35	35867.72
313.415	35861.37
313.48	35873.16
313.546	35923.48
313.611	35967.64
313.676	35974
313.741	35985.11
313.807	36030.78
313.872	36068.24
313.937	36112.05
314.003	36176.99
314.068	36194.6
314.133	36230.56
314.198	36226.2
314.264	36185.76
314.329	36181
314.394	36188.96
314.459	36193.52
314.525	36261.9
314.59	36288.54
314.655	36273.45
314.72	36303.98
314.785	36340.76
314.851	36360.32
314.916	36329.6
314.981	36312.85
315.046	36324.79
315.111	36332.6
315.176	36334.35
315.242	36381.09
315.307	36398.86
315.372	36364.06
315.437	36373.13
315.502	36382.26
315.567	36438.22
315.632	36427.59
315.698	36457.35
315.763	36468.22
315.828	36472.54
315.893	36483.8
315.958	36492.44
316.023	36497.78
316.088	36466.57
316.153	36426.2
316.218	36417.66
316.283	36374.48
316.348	36331.39
316.413	36332.41
316.479	36284.66
316.544	36192.67
316.609	36106.53
316.674	36010.46
316.739	35922.02
316.804	35834.01
316.869	35723.48
316.934	35623.08
316.999	35516.59
317.064	35363.87
317.129	35237.05
317.194	35118.89
317.259	34957.97
317.324	34794.67
317.389	34646.96
317.454	34514.01
317.518	34402.87
317.583	34310.18
317.648	34222.37
317.713	34108.58
317.778	33918.49
317.843	33805.48
317.908	33666.72
317.973	33524.34
318.038	33410.83
318.103	33276.89
318.168	33139.49
318.233	33018.62
318.297	32826.62
318.362	32692.26
318.427	32550.48
318.492	32424.39
318.557	32263.15
318.622	32140.3
318.687	32032.4
318.751	31891.21
318.816	31751.58
318.881	31603.11
318.946	31393.86
319.011	31227.21
319.075	31062.57
319.14	30914.32
319.205	30735.42
319.27	30594.27
319.335	30416.78
319.399	30247.08
319.464	30111.27
319.529	29912.6
319.594	29745.63
319.658	29596.38
319.723	29415.16
319.788	29257.72
319.853	29046.19
319.917	28884.44
319.982	28671.37
320.047	28490.22
320.112	28351.58
320.176	28143.57
320.241	27975.32
320.306	27818.28
320.37	27638.15
320.435	27458.53
320.5	27291.76
320.564	27118.98
320.629	26930.2
320.694	26771.26
320.758	26590.02
320.823	26390.78
320.888	26244.02
320.952	26029.95
321.017	25844.05
321.082	25659
321.146	25486.89
321.211	25317.59
321.275	25135.24
321.34	24941.68
321.405	24747.19
321.469	24517.48
321.534	24320.1
321.598	24103.46
321.663	23934.76
321.727	23760.34
321.792	23573.46
321.857	23379.29
321.921	23186.49
321.986	22986.35
322.05	22752.21
322.115	22561.76
322.179	22359.8
322.244	22121.26
322.308	21954.22
322.373	21752.19
322.437	21558.66
322.502	21405.64
322.566	21194.67
322.631	21007.99
322.695	20814.53
322.76	20607.58
322.824	20430.17
322.889	20235.91
322.953	20026.85
323.018	19772.33
323.082	19512.08
323.146	19271.02
323.211	19050.2
323.275	18842.98
323.34	18631.46
323.404	18436.38
323.468	18227.28
323.533	18018.85
323.597	17813.97
323.662	17573.49
323.726	17371.61
323.79	17159.17
323.855	16883.3
323.919	16658.18
323.983	16440.48
324.048	16128.58
324.112	16218.16
324.177	15560.45
324.241	14709.86
324.305	13873.22
324.37	13047.87
324.434	12250.13
324.498	12031.34
324.562	11770.51
324.627	11484.01
324.691	11205.37
324.755	10893.85
324.82	10526.56
324.884	10144.76
324.948	9752.02
325.012	9287.17
325.077	8720.95
