Data from 20250626_urea_1M_exp2_MAYP1162681_22-13-59-157.txt Node
Date: Thu Jun 26 22:13:59 BST 2025
User: adleo
Spectrometer: MAYP116268
Trigger mode: 0
Integration Time (sec): 3.000000E0
Scans to average: 1
Electric dark correction enabled: true
Nonlinearity correction enabled: true
Boxcar width: 10
XAxis mode: Wavelengths
Number of Pixels in Spectrum: 2068
>>>>>Begin Spectral Data<<<<<
179.565	2923.97
179.642	3074.45
179.718	3183.76
179.795	3292.96
179.871	3378.22
179.948	3435.37
180.024	3487.09
180.101	3549.76
180.177	3584.47
180.254	3643.74
180.33	3700.24
180.407	3900.1
180.483	4128.01
180.56	4357.44
180.636	4569.65
180.712	4538.15
180.789	4560.74
180.865	4591.35
180.942	4614.84
181.018	4639.87
181.095	4680.57
181.171	4690.96
181.248	4690.81
181.324	4736.55
181.4	4748.85
181.477	4780.22
181.553	4810.22
181.63	4865.53
181.706	4902.35
181.782	4929.24
181.859	4931.44
181.935	4947.44
182.011	4942.08
182.088	4980.39
182.164	5028.32
182.24	5062.11
182.317	5085.91
182.393	5076.96
182.469	5112.74
182.546	5148.13
182.622	5160.73
182.698	5151.1
182.775	5188.99
182.851	5227.6
182.927	5207.24
183.003	5197.62
183.08	5181.43
183.156	5203.42
183.232	5198.53
183.308	5172.18
183.385	5188.37
183.461	5237.01
183.537	5238.68
183.613	5274.96
183.69	5254.55
183.766	5227.7
183.842	5249.03
183.918	5266.71
183.995	5304.07
184.071	5311.36
184.147	5297.8
184.223	5269.74
184.299	5295.91
184.375	5261.8
184.452	5275.47
184.528	5381.37
184.604	5411.69
184.68	5443.36
184.756	5458.41
184.832	5465.31
184.908	5480.64
184.985	5479.49
185.061	5433.91
185.137	5461.57
185.213	5422.33
185.289	5426.92
185.365	5407.72
185.441	5397.84
185.517	5428.15
185.593	5422.11
185.669	5414.73
185.745	5439.51
185.822	5480.46
185.898	5456.73
185.974	5478.86
186.05	5457.67
186.126	5391.07
186.202	5376.26
186.278	5366.1
186.354	5344.05
186.43	5361.22
186.506	5350.97
186.582	5351.59
186.658	5365.24
186.734	5309.33
186.81	5317.19
186.886	5328.35
186.962	5364.58
187.038	5357.05
187.114	5335.52
187.19	5347.4
187.266	5324.89
187.341	5327.67
187.417	5311.38
187.493	5315.31
187.569	5327.34
187.645	5315.55
187.721	5288.56
187.797	5305.33
187.873	5316.21
187.949	5297.58
188.025	5281.47
188.101	5289.94
188.176	5302.35
188.252	5293.49
188.328	5318.1
188.404	5316.9
188.48	5301.43
188.556	5277.03
188.632	5277.99
188.707	5279.29
188.783	5278.95
188.859	5262.91
188.935	5232.67
189.011	5253.08
189.086	5234.69
189.162	5210.01
189.238	5205.51
189.314	5197.84
189.39	5182.08
189.465	5164.58
189.541	5212.03
189.617	5176.39
189.693	5164.51
189.768	5178.36
189.844	5236.71
189.92	5214.44
189.996	5237.54
190.071	5264.52
190.147	5261.79
190.223	5283.69
190.298	5265.48
190.374	5226.57
190.45	5262.83
190.526	5281.08
190.601	5265.6
190.677	5269.24
190.753	5344.64
190.828	5350.49
190.904	5388.88
190.98	5429.73
191.055	5456.57
191.131	5434.85
191.207	5482.24
191.282	5509.07
191.358	5482.76
191.433	5451.49
191.509	5480.98
191.585	5473.08
191.66	5481.37
191.736	5502.74
191.811	5478.35
191.887	5520.4
191.963	5584.87
192.038	5593.17
192.114	5599.16
192.189	5610.04
192.265	5603.62
192.34	5546.19
192.416	5544.66
192.491	5530.41
192.567	5532.96
192.642	5539.14
192.718	5539.1
192.793	5512.64
192.869	5499.94
192.944	5503.53
193.02	5524.63
193.095	5537.38
193.171	5557.23
193.246	5550.32
193.322	5545.96
193.397	5546.54
193.473	5508.07
193.548	5462.71
193.624	5485.49
193.699	5481.61
193.775	5522.96
193.85	5530.71
193.925	5549.84
194.001	5548.07
194.076	5530.77
194.152	5505.25
194.227	5484.11
194.302	5461.45
194.378	5469.07
194.453	5461.93
194.529	5496.93
194.604	5457.47
194.679	5447.31
194.755	5395.13
194.83	5429
194.905	5425.55
194.981	5451.25
195.056	5436.63
195.131	5452.26
195.207	5437.91
195.282	5413.48
195.357	5362.12
195.433	5400.6
195.508	5370.59
195.583	5398.73
195.659	5440.21
195.734	5456.99
195.809	5454.4
195.884	5474.57
195.96	5475.86
196.035	5516.17
196.11	5503.61
196.185	5534.33
196.261	5535.72
196.336	5615.1
196.411	5570.3
196.486	5580.99
196.561	5564.69
196.637	5587.45
196.712	5625.59
196.787	5635.62
196.862	5676.65
196.937	5700.37
197.013	5714.14
197.088	5741.94
197.163	5788.44
197.238	5829.12
197.313	5830.12
197.388	5869.02
197.464	5948.15
197.539	5982.06
197.614	5965.22
197.689	5995.54
197.764	6036.67
197.839	6094.29
197.914	6080.32
197.989	6141.01
198.065	6184.44
198.14	6310.11
198.215	6378.6
198.29	6410.06
198.365	6448.27
198.44	6477.83
198.515	6549.84
198.59	6589.26
198.665	6658.02
198.74	6682.9
198.815	6681.41
198.89	6740.08
198.965	6813.78
199.04	6799.03
199.115	6837.4
199.19	6948.04
199.265	6958.5
199.34	6981.7
199.415	7063.18
199.49	7119.56
199.565	7148.09
199.64	7203.98
199.715	7198.2
199.79	7210.17
199.865	7229.49
199.94	7220.51
200.015	7301.59
200.09	7320.05
200.165	7333.6
200.24	7349.46
200.315	7447.22
200.39	7489.09
200.464	7503.84
200.539	7509.08
200.614	7552.52
200.689	7612.38
200.764	7628.35
200.839	7669.13
200.914	7685.38
200.989	7657.67
201.063	7701.33
201.138	7657.39
201.213	7652.53
201.288	7604.65
201.363	7619.6
201.438	7615.47
201.512	7661.3
201.587	7613.89
201.662	7620.05
201.737	7656.83
201.812	7686.41
201.886	7598.31
201.961	7622.7
202.036	7587.2
202.111	7576.62
202.186	7500.34
202.26	7457.11
202.335	7403.22
202.41	7389.42
202.485	7341.91
202.559	7293.32
202.634	7213.4
202.709	7233.28
202.784	7185.61
202.858	7182.82
202.933	7131.37
203.008	7114.17
203.082	7062.47
203.157	7059.16
203.232	6950.21
203.306	6888.11
203.381	6796.65
203.456	6739.26
203.53	6679.2
203.605	6633.94
203.68	6576.77
203.754	6558.4
203.829	6517.81
203.904	6462.07
203.978	6429.12
204.053	6444.64
204.127	6409.16
204.202	6403.79
204.277	6361.65
204.351	6346.19
204.426	6324.15
204.5	6305.76
204.575	6216.96
204.65	6240.49
204.724	6219.35
204.799	6241.12
204.873	6233.05
204.948	6227.34
205.022	6199.28
205.097	6179.01
205.171	6220.09
205.246	6240.93
205.32	6242.8
205.395	6239.73
205.469	6219.01
205.544	6239.57
205.618	6190.37
205.693	6221.71
205.767	6193.11
205.842	6241.4
205.916	6224.8
205.991	6204.16
206.065	6218.27
206.14	6257.82
206.214	6241.45
206.289	6225.94
206.363	6251.9
206.438	6255.69
206.512	6276.96
206.586	6326.62
206.661	6346.61
206.735	6280.75
206.81	6279.11
206.884	6315.72
206.958	6282.23
207.033	6325.6
207.107	6337.32
207.181	6419.72
207.256	6408.3
207.33	6454.18
207.405	6491.57
207.479	6540.58
207.553	6562.04
207.628	6519.77
207.702	6551.93
207.776	6535.37
207.851	6544.97
207.925	6586.77
207.999	6580.43
208.073	6571.54
208.148	6579.61
208.222	6550.6
208.296	6635.34
208.371	6680.18
208.445	6708.85
208.519	6784.03
208.593	6814.09
208.668	6807.18
208.742	6815.59
208.816	6819.05
208.89	6858.98
208.965	6853.83
209.039	6879.11
209.113	6920.37
209.187	6976.22
209.261	6961.92
209.336	7013.36
209.41	7056.7
209.484	7059.58
209.558	7122.63
209.632	7157.78
209.707	7183.39
209.781	7238.41
209.855	7278.35
209.929	7326.37
210.003	7343.57
210.077	7337.86
210.151	7458.08
210.226	7549.98
210.3	7620.13
210.374	7679.23
210.448	7688.18
210.522	7716.69
210.596	7736.41
210.67	7762.18
210.744	7886.89
210.818	7971.61
210.892	8033.22
210.966	8026.68
211.041	8066.07
211.115	8052.37
211.189	8115.17
211.263	8160.09
211.337	8177.54
211.411	8214.68
211.485	8188.02
211.559	8223.56
211.633	8233.12
211.707	8158.96
211.781	8177.73
211.855	8084.64
211.929	8059.7
212.003	8014.47
212.077	8038.68
212.151	8070.28
212.225	8091.26
212.299	8057.51
212.373	8030.87
212.447	8013.11
212.52	8080.07
212.594	8089.07
212.668	8119.6
212.742	8081.17
212.816	8064.38
212.89	8047.55
212.964	8041.34
213.038	8054.86
213.112	8080.9
213.186	8117.87
213.26	8058.03
213.333	7930.5
213.407	7941.79
213.481	7952.13
213.555	7977.35
213.629	7944.78
213.703	7901.53
213.777	7899.08
213.85	7846.12
213.924	7930.95
213.998	7927.3
214.072	7911.95
214.146	7871.93
214.219	7861.2
214.293	7842.79
214.367	7843.12
214.441	7862.99
214.515	7822.87
214.588	7756.51
214.662	7659.58
214.736	7594.68
214.81	7606.69
214.883	7623.98
214.957	7586.65
215.031	7546.15
215.105	7477.05
215.178	7430.76
215.252	7402.06
215.326	7323.95
215.4	7260.99
215.473	7117.02
215.547	7051.83
215.621	7000.57
215.694	6993.84
215.768	6915.9
215.842	6872.76
215.915	6821.71
215.989	6737.81
216.063	6699.56
216.136	6679.28
216.21	6660.56
216.284	6674.68
216.357	6655.28
216.431	6628.44
216.504	6631.8
216.578	6671.29
216.652	6679.92
216.725	6661.38
216.799	6663.26
216.873	6646.89
216.946	6653.89
217.02	6626.11
217.093	6609.07
217.167	6530.09
217.24	6468.08
217.314	6442.6
217.387	6406.19
217.461	6371.52
217.535	6383.48
217.608	6336.2
217.682	6322.56
217.755	6336.15
217.829	6295.52
217.902	6282.13
217.976	6267.68
218.049	6230.05
218.123	6176.21
218.196	6180.34
218.27	6147.7
218.343	6095.22
218.417	6098.82
218.49	6080.59
218.563	6116.77
218.637	6121.86
218.71	6179.4
218.784	6202.3
218.857	6226.68
218.931	6242.84
219.004	6247.83
219.077	6262.76
219.151	6279.8
219.224	6270.53
219.298	6264.19
219.371	6293.34
219.444	6269.69
219.518	6273.19
219.591	6280.96
219.665	6360.91
219.738	6369.21
219.811	6357.03
219.885	6398.89
219.958	6423.72
220.031	6427.36
220.105	6438.45
220.178	6444.6
220.251	6425.2
220.325	6446.38
220.398	6459.82
220.471	6477.24
220.544	6511.77
220.618	6495.92
220.691	6516.42
220.764	6528.56
220.838	6552.91
220.911	6548.2
220.984	6611.96
221.057	6646.38
221.131	6669.85
221.204	6593.07
221.277	6647.4
221.35	6751.28
221.424	6736.06
221.497	6743.07
221.57	6765.53
221.643	6794.89
221.716	6829.2
221.79	6836.35
221.863	6838.66
221.936	6850.09
222.009	6865.16
222.082	6882.99
222.155	6897.49
222.229	6946.65
222.302	6971.72
222.375	6975.04
222.448	7001.89
222.521	7007.37
222.594	7005.4
222.667	6984.42
222.74	7025.34
222.814	7020.78
222.887	7000.77
222.96	7047.91
223.033	7081.07
223.106	7101.05
223.179	7123.98
223.252	7127.35
223.325	7149.25
223.398	7164.73
223.471	7187.02
223.544	7198.74
223.617	7204.8
223.69	7216.85
223.763	7183.79
223.837	7198.3
223.91	7218.63
223.983	7180.44
224.056	7152.96
224.129	7165.07
224.202	7204.44
224.275	7197.81
224.348	7173.35
224.42	7151.01
224.493	7105.65
224.566	7084.55
224.639	7098
224.712	7072.18
224.785	7060.31
224.858	7053.34
224.931	7042.29
225.004	7008.9
225.077	7012.5
225.15	6944.54
225.223	6944.11
225.296	7012.68
225.369	6966.95
225.442	6943.69
225.514	6960.26
225.587	6974.19
225.66	6993.31
225.733	6996.34
225.806	7002.64
225.879	6998.6
225.952	6969.79
226.025	7009.09
226.097	7048.08
226.17	7040.58
226.243	6994.67
226.316	6991.78
226.389	6999.95
226.461	7009.18
226.534	7027
226.607	7020.32
226.68	7085.93
226.753	7083.48
226.825	7023.42
226.898	7074.29
226.971	7079.33
227.044	7098.79
227.117	7103.79
227.189	7107.49
227.262	7139.89
227.335	7158.15
227.407	7156.95
227.48	7187.88
227.553	7197.49
227.626	7182.3
227.698	7188.11
227.771	7220.52
227.844	7211.39
227.916	7222.88
227.989	7199.53
228.062	7196.93
228.134	7264.96
228.207	7265.49
228.28	7260.06
228.352	7268.66
228.425	7273.61
228.498	7307.79
228.57	7288.86
228.643	7335.49
228.716	7340.59
228.788	7331.59
228.861	7328.95
228.934	7374.89
229.006	7384.07
229.079	7380.75
229.151	7371.95
229.224	7345.3
229.296	7364.23
229.369	7445.64
229.442	7487.87
229.514	7475.86
229.587	7511.76
229.659	7453.25
229.732	7460.32
229.804	7492.8
229.877	7550.76
229.949	7573.31
230.022	7609.54
230.094	7613.43
230.167	7605.39
230.239	7570.16
230.312	7555.7
230.384	7608.94
230.457	7606.35
230.529	7608.41
230.602	7610.91
230.674	7620.1
230.747	7653.15
230.819	7671.42
230.892	7580.2
230.964	7576.5
231.037	7598.07
231.109	7593.79
231.181	7619.21
231.254	7598.21
231.326	7582.97
231.399	7565.65
231.471	7545.83
231.544	7483.51
231.616	7518.45
231.688	7524.99
231.761	7515.91
231.833	7511.25
231.905	7442.43
231.978	7443.54
232.05	7435.46
232.122	7440.22
232.195	7418.4
232.267	7450.42
232.339	7441.47
232.412	7492.66
232.484	7469.09
232.556	7446.51
232.629	7495.63
232.701	7510.2
232.773	7514.47
232.846	7512.84
232.918	7514.33
232.99	7527.31
233.062	7562.07
233.135	7565.87
233.207	7539.33
233.279	7572.77
233.351	7596.23
233.424	7601.23
233.496	7581.9
233.568	7645.13
233.64	7616.82
233.713	7631.44
233.785	7629.03
233.857	7632.45
233.929	7586.01
234.001	7636.58
234.074	7692.18
234.146	7633.31
234.218	7634.66
234.29	7631.96
234.362	7624.32
234.434	7591
234.507	7562.49
234.579	7522.87
234.651	7512.58
234.723	7536.91
234.795	7549.41
234.867	7544.41
234.939	7591.68
235.012	7607.31
235.084	7601.82
235.156	7630.08
235.228	7610.33
235.3	7596.53
235.372	7605.9
235.444	7655.8
235.516	7594.9
235.588	7596.29
235.66	7617.4
235.732	7597.01
235.804	7758.35
235.876	7791.8
235.948	7843.46
236.02	7854.76
236.092	7869.51
236.164	7877.83
236.236	7873.98
236.308	7878.41
236.38	7901.2
236.452	7881.24
236.524	7893.79
236.596	7948.86
236.668	7978.24
236.74	8002.81
236.812	8022.62
236.884	8055.09
236.956	8068.03
237.028	8066.01
237.1	8057.02
237.172	8108.7
237.244	8161.32
237.316	8068.52
237.388	8051.11
237.46	8026.09
237.532	8077.37
237.604	8071.98
237.675	8130.1
237.747	8162.43
237.819	8150.41
237.891	8156.57
237.963	8150.17
238.035	8150.75
238.107	8066.49
238.178	8113.27
238.25	8122.84
238.322	8193.35
238.394	8162.61
238.466	8154.77
238.538	8183.29
238.609	8213.35
238.681	8175.19
238.753	8163.06
238.825	8172.25
238.897	8200.29
238.968	8268.59
239.04	8249.19
239.112	8332.51
239.184	8305.03
239.255	8303.4
239.327	8332.93
239.399	8339.47
239.471	8379.88
239.542	8409.85
239.614	8460.36
239.686	8398.95
239.758	8442.16
239.829	8412.31
239.901	8460.23
239.973	8471.34
240.044	8501.75
240.116	8510.37
240.188	8515.32
240.259	8528.27
240.331	8522.68
240.403	8549.34
240.474	8510.82
240.546	8505.43
240.618	8460.63
240.689	8454.95
240.761	8478.01
240.833	8530.57
240.904	8538.5
240.976	8529.7
241.048	8535.43
241.119	8567.73
241.191	8600.3
241.262	8647.59
241.334	8652.06
241.405	8647.92
241.477	8658.56
241.549	8665.87
241.62	8688.3
241.692	8729.98
241.763	8779.52
241.835	8796.9
241.906	8808.01
241.978	8787.56
242.049	8844.11
242.121	8890.41
242.192	8944.75
242.264	8912.84
242.335	8873.32
242.407	8910.34
242.478	8918.52
242.55	8936.76
242.621	8923.18
242.693	8931.75
242.764	8926.79
242.836	8925.92
242.907	8949.22
242.979	8973
243.05	8988.07
243.122	9004.53
243.193	9004.44
243.264	8948.5
243.336	8951.15
243.407	8982.49
243.479	9042.95
243.55	9055.85
243.622	9071.4
243.693	9065.24
243.764	9119.1
243.836	9100.77
243.907	9087.49
243.978	9096.39
244.05	9113.43
244.121	9077.67
244.192	9103.48
244.264	9066.35
244.335	9081.33
244.407	9050.52
244.478	9062.65
244.549	9058.27
244.62	9021.83
244.692	9018.46
244.763	9050.95
244.834	9046.09
244.906	9024.56
244.977	9035.98
245.048	9075.96
245.119	9061.08
245.191	9051.5
245.262	8999.99
245.333	9061.26
245.405	9076.86
245.476	9102.66
245.547	9122.21
245.618	9167.08
245.689	9173.29
245.761	9197.12
245.832	9204.68
245.903	9240.55
245.974	9264.72
246.045	9278.78
246.117	9351.92
246.188	9337.57
246.259	9322.41
246.33	9335.26
246.401	9348.17
246.473	9324.86
246.544	9317.78
246.615	9359.77
246.686	9361.07
246.757	9425.24
246.828	9404.35
246.899	9459.07
246.97	9433.84
247.042	9426.23
247.113	9459.99
247.184	9528.93
247.255	9526.38
247.326	9542.08
247.397	9544.29
247.468	9552.29
247.539	9561.49
247.61	9522.19
247.681	9559.84
247.752	9609.34
247.823	9586.56
247.894	9603.56
247.965	9579.16
248.037	9560.66
248.108	9518.71
248.179	9522.13
248.25	9514.95
248.321	9539.12
248.392	9500.54
248.463	9560.92
248.534	9557.94
248.605	9573.11
248.675	9555.09
248.746	9572.71
248.817	9588.75
248.888	9598.92
248.959	9555.24
249.03	9571.28
249.101	9571.57
249.172	9559.72
249.243	9500.45
249.314	9553.08
249.385	9560.55
249.456	9591.36
249.527	9590.83
249.598	9603.97
249.669	9609.51
249.739	9616.45
249.81	9623.52
249.881	9594.63
249.952	9589.91
250.023	9589.05
250.094	9539.53
250.165	9517.08
250.235	9512.02
250.306	9523.06
250.377	9512.22
250.448	9534.03
250.519	9487.47
250.59	9535.58
250.66	9530.04
250.731	9584.26
250.802	9585.27
250.873	9589.7
250.944	9606.31
251.014	9596.35
251.085	9671.11
251.156	9688.78
251.227	9730.45
251.297	9780.6
251.368	9824.95
251.439	9862.58
251.51	9904.15
251.58	9899.48
251.651	9894.85
251.722	9933.82
251.792	9891.05
251.863	9890.18
251.934	9939.51
252.005	10029.1
252.075	10035.36
252.146	10080.82
252.217	10117.63
252.287	10147.69
252.358	10153.56
252.429	10211.72
252.499	10209.02
252.57	10216.15
252.641	10252.09
252.711	10262.4
252.782	10227.33
252.852	10277.63
252.923	10272.9
252.994	10281.14
253.064	10326.32
253.135	10304.55
253.205	10288.94
253.276	10345.88
253.347	10396.65
253.417	10375.06
253.488	10357.48
253.558	10359.64
253.629	10356.51
253.699	10370.2
253.77	10395.98
253.841	10390.1
253.911	10395.11
253.982	10407.34
254.052	10437.18
254.123	10439.88
254.193	10435.92
254.264	10545.55
254.334	10528.25
254.405	10504.17
254.475	10479.84
254.546	10481.96
254.616	10540.92
254.687	10568.33
254.757	10578.36
254.827	10577.97
254.898	10599.07
254.968	10605.34
255.039	10584.62
255.109	10610.49
255.18	10586.69
255.25	10529.74
255.321	10562.26
255.391	10532.82
255.461	10601.81
255.532	10526.69
255.602	10525.19
255.673	10485.88
255.743	10459.32
255.813	10400.17
255.884	10438.04
255.954	10465.12
256.024	10522.75
256.095	10520.1
256.165	10493.98
256.235	10516.63
256.306	10507.53
256.376	10545.5
256.446	10574.99
256.517	10605.1
256.587	10641.77
256.657	10654.88
256.728	10670.34
256.798	10675.54
256.868	10672.8
256.938	10652.32
257.009	10697.56
257.079	10721.99
257.149	10800.19
257.219	10751.57
257.29	10780.85
257.36	10734.74
257.43	10768.96
257.5	10709.3
257.571	10701.64
257.641	10729.88
257.711	10700.05
257.781	10721.63
257.852	10731.99
257.922	10685.4
257.992	10682.99
258.062	10673.5
258.132	10710.75
258.202	10716.48
258.273	10730.02
258.343	10788.72
258.413	10775.71
258.483	10775.27
258.553	10754.6
258.623	10730.89
258.693	10745.92
258.764	10797.19
258.834	10852.89
258.904	10863.06
258.974	10856.99
259.044	10864.55
259.114	10891.63
259.184	10918.96
259.254	10932.84
259.324	10892.07
259.394	10928.06
259.464	10990.71
259.535	11003.09
259.605	11000.3
259.675	10994.47
259.745	11018.81
259.815	11000.3
259.885	11006.47
259.955	11099.54
260.025	11093.95
260.095	11108.36
260.165	11140.8
260.235	11193.09
260.305	11179.99
260.375	11156.23
260.445	11228.55
260.515	11280.6
260.585	11314.49
260.655	11324.27
260.725	11351.5
260.795	11382.29
260.865	11447.6
260.934	11424.08
261.004	11444.76
261.074	11442.97
261.144	11494.58
261.214	11527.93
261.284	11532.71
261.354	11562.29
261.424	11526
261.494	11587.73
261.564	11590.67
261.634	11615.97
261.703	11569.75
261.773	11589.31
261.843	11621.32
261.913	11616.59
261.983	11579.43
262.053	11595.87
262.123	11594.57
262.192	11563.87
262.262	11596.07
262.332	11556.25
262.402	11579.87
262.472	11591.68
262.541	11551.83
262.611	11590.29
262.681	11561.51
262.751	11587.64
262.821	11587.83
262.89	11563.49
262.96	11578.62
263.03	11639.74
263.1	11650.2
263.169	11665.38
263.239	11697.53
263.309	11748.87
263.379	11774.37
263.448	11790.41
263.518	11811.09
263.588	11821.99
263.657	11877.27
263.727	11904.94
263.797	11912.12
263.867	11915.39
263.936	11883.34
264.006	11931.97
264.076	11919.72
264.145	11927.43
264.215	11918.18
264.285	11953.56
264.354	11917.99
264.424	11916.16
264.494	11880.05
264.563	11873.02
264.633	11928.4
264.702	11941.46
264.772	11899.57
264.842	11896.3
264.911	11920.35
264.981	11884.19
265.05	11887.81
265.12	11886.8
265.19	11897.5
265.259	11933.89
265.329	11962.28
265.398	11984.98
265.468	12059.65
265.537	12069.58
265.607	12095.89
265.676	12139.28
265.746	12159.47
265.815	12211.53
265.885	12211.67
265.955	12198.8
266.024	12203.96
266.094	12160.63
266.163	12215.05
266.232	12265.76
266.302	12274.82
266.371	12299.84
266.441	12320.9
266.51	12365.88
266.58	12369.68
266.649	12358.5
266.719	12399.19
266.788	12419.87
266.858	12476.6
266.927	12430.76
266.996	12448.5
267.066	12470.29
267.135	12439
267.205	12473.95
267.274	12488.75
267.343	12531.17
267.413	12549.73
267.482	12590.07
267.552	12639.53
267.621	12601.3
267.69	12565.63
267.76	12590.65
267.829	12608.68
267.898	12628.25
267.968	12616.78
268.037	12643.39
268.106	12683.73
268.176	12656.79
268.245	12668.31
268.314	12667.63
268.384	12716.13
268.453	12726.2
268.522	12746.88
268.592	12799.28
268.661	12787.42
268.73	12815.24
268.799	12809.98
268.869	12877.23
268.938	12849.41
269.007	12841.27
269.076	12863.68
269.146	12911.36
269.215	12932.33
269.284	12989.11
269.353	12982.94
269.422	12989.89
269.492	12990.08
269.561	12930.88
269.63	12966.27
269.699	12959.23
269.768	12969.88
269.838	12983.33
269.907	13023.68
269.976	13005.94
270.045	12965.54
270.114	12993.31
270.183	12995.29
270.253	13021.8
270.322	12984.34
270.391	13006.52
270.46	13068.22
270.529	13101.24
270.598	13134.94
270.667	13139.76
270.736	13113.3
270.806	13141.98
270.875	13189.51
270.944	13206.57
271.013	13309.83
271.082	13322.56
271.151	13360.3
271.22	13332.87
271.289	13341.74
271.358	13346.47
271.427	13375.44
271.496	13404.36
271.565	13404.41
271.634	13429.91
271.703	13532.73
271.772	13584.46
271.841	13599.26
271.91	13573.95
271.979	13590.97
272.048	13566.38
272.117	13608.51
272.186	13617.38
272.255	13657.15
272.324	13682.42
272.393	13708.88
272.462	13695.91
272.531	13718.62
272.6	13724.69
272.669	13791.65
272.738	13802.21
272.807	13832.34
272.876	13827.18
272.945	13936.61
273.013	13985.87
273.082	14036.68
273.151	13965.1
273.22	13988.14
273.289	14007.95
273.358	14073.61
273.427	14087.49
273.496	14128.18
273.564	14155.46
273.633	14197.02
273.702	14189.59
273.771	14207.48
273.84	14230.67
273.909	14272.07
273.977	14301.57
274.046	14318.59
274.115	14361.64
274.184	14370.6
274.253	14386.9
274.322	14451.21
274.39	14411.29
274.459	14406.95
274.528	14373.84
274.597	14385.6
274.665	14413.75
274.734	14469.52
274.803	14480.03
274.872	14490.64
274.94	14497.48
275.009	14600.78
275.078	14609.16
275.147	14644.4
275.215	14675.88
275.284	14734.83
275.353	14739.75
275.421	14717.82
275.49	14789.01
275.559	14790.41
275.627	14810.37
275.696	14818.42
275.765	14850.71
275.833	14859.73
275.902	14892.55
275.971	14958.11
276.039	15034.8
276.108	15078.86
276.177	15109.42
276.245	15115.45
276.314	15148.85
276.383	15194.4
276.451	15144.9
276.52	15181.01
276.588	15244.06
276.657	15285.12
276.725	15292.88
276.794	15327.64
276.863	15397.92
276.931	15374.4
277	15424.67
277.068	15484.3
277.137	15573.08
277.205	15600.22
277.274	15686.45
277.342	15756.77
277.411	15742.46
277.48	15756.24
277.548	15762.41
277.617	15795.86
277.685	15826.9
277.754	15877.22
277.822	15892.41
277.89	15964.9
277.959	15987.65
278.027	15970.39
278.096	15977.52
278.164	16078.69
278.233	16097.87
278.301	16100.91
278.37	16148.34
278.438	16157.25
278.507	16201.02
278.575	16169.5
278.643	16193.45
278.712	16176.1
278.78	16172.87
278.849	16238.42
278.917	16290.76
278.985	16323.88
279.054	16361.71
279.122	16410.92
279.191	16437.14
279.259	16463.26
279.327	16436.32
279.396	16509.34
279.464	16544.57
279.532	16603.66
279.601	16626.12
279.669	16649.25
279.737	16731.76
279.806	16783.72
279.874	16847.77
279.942	16870.66
280.011	16907.77
280.079	16959.15
280.147	17035.15
280.215	17078.04
280.284	17104.84
280.352	17109.08
280.42	17159.2
280.488	17176.79
280.557	17205.18
280.625	17248.36
280.693	17295.74
280.761	17348.8
280.83	17341.81
280.898	17411.35
280.966	17395.5
281.034	17347.98
281.102	17348.99
281.171	17353.57
281.239	17405.96
281.307	17415.45
281.375	17432.22
281.443	17526.63
281.512	17557.42
281.58	17622.05
281.648	17620.46
281.716	17659.2
281.784	17693.28
281.852	17714.05
281.92	17745.18
281.989	17805.8
282.057	17799.44
282.125	17905.8
282.193	17925.7
282.261	17967.58
282.329	17980.21
282.397	18030.37
282.465	18076.83
282.533	18154.32
282.601	18170.04
282.67	18148.06
282.738	18163.82
282.806	18227.72
282.874	18223.05
282.942	18260.92
283.01	18270.27
283.078	18325.84
283.146	18348.73
283.214	18412.43
283.282	18452.48
283.35	18521.05
283.418	18539.8
283.486	18588.57
283.554	18552.38
283.622	18593.87
283.69	18635.89
283.758	18664.95
283.826	18720.75
283.894	18782.82
283.962	18879.88
284.03	18955.44
284.098	19004.88
284.165	19038.38
284.233	19077.65
284.301	19107.09
284.369	19119.91
284.437	19136.2
284.505	19156.92
284.573	19242.6
284.641	19248.77
284.709	19311.13
284.777	19300.58
284.845	19364.86
284.912	19417.34
284.98	19473.34
285.048	19493.72
285.116	19535.22
285.184	19611.98
285.252	19639.6
285.319	19634.15
285.387	19639.21
285.455	19632.61
285.523	19689.86
285.591	19720.17
285.659	19766.96
285.726	19835.88
285.794	19849.95
285.862	19883.06
285.93	19928.69
285.997	19942.09
286.065	19969.65
286.133	19979
286.201	20018.33
286.269	20010.37
286.336	20027.39
286.404	20046.23
286.472	20113.6
286.539	20097.27
286.607	20091.24
286.675	20137.22
286.743	20204.4
286.81	20226.95
286.878	20301.6
286.946	20313.12
287.013	20345.7
287.081	20356.54
287.149	20351.48
287.216	20439.05
287.284	20466.66
287.352	20504.59
287.419	20539.67
287.487	20616.59
287.555	20664.69
287.622	20684.69
287.69	20737.22
287.758	20812.75
287.825	20832.7
287.893	20832.41
287.96	20886.96
288.028	20953.86
288.096	20991.12
288.163	21040.42
288.231	21051.51
288.298	21075.46
288.366	21140.72
288.433	21177.59
288.501	21203.08
288.569	21253.93
288.636	21270.95
288.704	21344.26
288.771	21395.93
288.839	21404.26
288.906	21411.49
288.974	21468.67
289.041	21506.45
289.109	21517.34
289.176	21566.9
289.244	21621.99
289.311	21699.65
289.379	21766.74
289.446	21807.95
289.514	21850.95
289.581	21873.32
289.649	21912.89
289.716	21957.72
289.783	21977.2
289.851	22068.59
289.918	22120.99
289.986	22175.7
290.053	22231
290.121	22271.11
290.188	22321.92
290.255	22441
290.323	22473.54
290.39	22503.72
290.458	22563.98
290.525	22637.06
290.592	22661.89
290.66	22707.11
290.727	22730.31
290.794	22800.12
290.862	22844.14
290.929	22894.63
290.996	22948.72
291.064	23023.93
291.131	23106.1
291.198	23189.04
291.266	23217.3
291.333	23256.69
291.4	23318.37
291.468	23395.43
291.535	23413.95
291.602	23456.19
291.669	23471.19
291.737	23527.17
291.804	23556.06
291.871	23639.68
291.938	23702.33
292.006	23811.83
292.073	23880.46
292.14	23941.56
292.207	23967.6
292.275	23997.75
292.342	24049.94
292.409	24145.79
292.476	24238.03
292.543	24248.25
292.611	24274.49
292.678	24358.62
292.745	24463.78
292.812	24515.79
292.879	24538.46
292.946	24590.26
293.014	24664.27
293.081	24726.02
293.148	24800.41
293.215	24881.17
293.282	24907.32
293.349	24963.87
293.416	24950.17
293.484	25025.01
293.551	25091.74
293.618	25174.54
293.685	25281.58
293.752	25310.04
293.819	25338.71
293.886	25337.84
293.953	25383.68
294.02	25458.58
294.087	25509.26
294.154	25525.67
294.221	25598.85
294.288	25642.77
294.356	25733.36
294.423	25782.88
294.49	25797.02
294.557	25860.21
294.624	25879.71
294.691	25969.01
294.758	26008.11
294.825	26072.36
294.892	26082.16
294.959	26122.71
295.026	26178.24
295.093	26203.93
295.16	26242.69
295.226	26287.64
295.293	26402.52
295.36	26467.4
295.427	26540.81
295.494	26618.28
295.561	26675.21
295.628	26779.43
295.695	26861.91
295.762	26905.04
295.829	26978.36
295.896	27060.26
295.963	27132.57
296.03	27213.12
296.096	27258.19
296.163	27341.18
296.23	27418.33
296.297	27505.89
296.364	27547.33
296.431	27597.04
296.498	27620.28
296.564	27731.81
296.631	27779.01
296.698	27776.5
296.765	27865.44
296.832	27882.16
296.899	27888.35
296.965	27985.48
297.032	27983.54
297.099	28065.52
297.166	28125.44
297.233	28151.11
297.299	28181.35
297.366	28227.47
297.433	28274.97
297.5	28354.01
297.566	28396.65
297.633	28427
297.7	28478.29
297.767	28532.36
297.833	28591.05
297.9	28649.33
297.967	28650.59
298.033	28733.64
298.1	28856.56
298.167	28877.2
298.234	28923.9
298.3	28991.87
298.367	29013.78
298.434	29066.01
298.5	29082.7
298.567	29117.17
298.634	29159.43
298.7	29251.58
298.767	29292.45
298.834	29373.03
298.9	29391.12
298.967	29405.58
299.033	29472.61
299.1	29548.51
299.167	29615.39
299.233	29650.99
299.3	29733.45
299.366	29812.67
299.433	29888.25
299.5	29864.88
299.566	29920.94
299.633	29999.6
299.699	30060.66
299.766	30101.88
299.832	30153.17
299.899	30223.44
299.965	30300.9
300.032	30336.74
300.099	30386.15
300.165	30442.96
300.232	30462.52
300.298	30506.16
300.365	30581.69
300.431	30629.07
300.498	30657.34
300.564	30720.64
300.631	30780.32
300.697	30853.52
300.763	30892.28
300.83	30938.09
300.896	31022.5
300.963	31098.02
301.029	31155.25
301.096	31208.79
301.162	31270.37
301.229	31298.21
301.295	31303.19
301.361	31346.62
301.428	31397.59
301.494	31407.66
301.561	31458.11
301.627	31509.48
301.693	31564.48
301.76	31614.26
301.826	31644.47
301.892	31708.01
301.959	31767.3
302.025	31814.85
302.092	31826.72
302.158	31894.32
302.224	31929.01
302.291	31938.99
302.357	31959.91
302.423	31980.59
302.49	32004.57
302.556	32077.33
302.622	32114.77
302.688	32188.25
302.755	32255.98
302.821	32321.56
302.887	32397.89
302.954	32429.18
303.02	32482.91
303.086	32540.37
303.152	32573.07
303.219	32614.63
303.285	32659.02
303.351	32705.25
303.417	32739.65
303.483	32761.6
303.55	32783.11
303.616	32810.01
303.682	32857.34
303.748	32883.64
303.815	32972
303.881	33032.29
303.947	33044.35
304.013	33084.96
304.079	33113.12
304.145	33112
304.212	33151.59
304.278	33163.95
304.344	33196.32
304.41	33206.26
304.476	33209.36
304.542	33249.1
304.608	33304.65
304.674	33304.5
304.741	33324.96
304.807	33361.41
304.873	33422.67
304.939	33502.07
305.005	33492.18
305.071	33522.91
305.137	33561.88
305.203	33520.86
305.269	33535.55
305.335	33594.51
305.401	33632.32
305.467	33650.69
305.533	33712.56
305.599	33748.63
305.666	33809.9
305.732	33849.17
305.798	33922.96
305.864	34028.04
305.93	34075.8
305.996	34099.95
306.062	34146.49
306.128	34182.28
306.194	34189.79
306.259	34218.74
306.325	34218.11
306.391	34293.55
306.457	34349.51
306.523	34397.75
306.589	34499.49
306.655	34528.73
306.721	34514.43
306.787	34505.26
306.853	34583.39
306.919	34560.46
306.985	34582.38
307.051	34591.15
307.117	34591.44
307.183	34599.5
307.248	34549.59
307.314	34593.53
307.38	34631.75
307.446	34674.87
307.512	34684.38
307.578	34732.88
307.644	34758.73
307.709	34803.84
307.775	34823.24
307.841	34845.41
307.907	34873.44
307.973	34856.9
308.039	34895.22
308.104	34944.65
308.17	34997.55
308.236	34984.7
308.302	35036.74
308.368	35035.67
308.433	35064.33
308.499	35101.15
308.565	35104.2
308.631	35162.36
308.696	35128.01
308.762	35126.36
308.828	35149.8
308.894	35123.61
308.959	35107.41
309.025	35113.81
309.091	35133.56
309.156	35140.93
309.222	35178.15
309.288	35174.8
309.354	35157
309.419	35180.38
309.485	35174.22
309.551	35204.01
309.616	35193.48
309.682	35207.41
309.748	35227.63
309.813	35248.35
309.879	35258.29
309.945	35274.88
310.01	35295.21
310.076	35335.28
310.141	35348.14
310.207	35340.77
310.273	35382.33
310.338	35423.23
310.404	35410.66
310.469	35407.56
310.535	35410.81
310.601	35382.18
310.666	35429.29
310.732	35485.33
310.797	35481.74
310.863	35487.9
310.928	35512.94
310.994	35567.47
311.059	35591.39
311.125	35617.64
311.191	35672.82
311.256	35683.78
311.322	35727.84
311.387	35690.82
311.453	36510.4
311.518	36517.28
311.584	36540.33
311.649	36586.67
311.715	36590.55
311.78	36626.07
311.846	36622.23
311.911	36672.65
311.976	36697.64
312.042	36691.28
312.107	36674.74
312.173	36686.97
312.238	36708.61
312.304	36723.07
312.369	36724.18
312.434	36717.15
312.5	36734.03
312.565	36689.63
312.631	36719.42
312.696	36722.62
312.761	36771.68
312.827	35990.78
312.892	36090.04
312.958	36112.71
313.023	36125.76
313.088	36157.74
313.154	36165.07
313.219	36186.71
313.284	36190.59
313.35	36220.49
313.415	36226.17
313.48	36246.79
313.546	36280.62
313.611	36317.99
313.676	36310.51
313.741	36311.48
313.807	36363.95
313.872	36391.81
313.937	36435.63
314.003	36496.89
314.068	36525.09
314.133	36562.46
314.198	36566.69
314.264	36536.39
314.329	36539.93
314.394	36563.67
314.459	36570.32
314.525	36631.04
314.59	36645.69
314.655	36639.53
314.72	36686.86
314.785	36708.41
314.851	36723.5
314.916	36708.41
314.981	36712.78
315.046	36725.59
315.111	36732
315.176	36733.31
315.242	36778.31
315.307	36792.58
315.372	36766.32
315.437	36768.31
315.502	36780.64
315.567	36833.75
315.632	36828.41
315.698	36854.23
315.763	36873.26
315.828	36866.03
315.893	36878.8
315.958	36892.73
316.023	36888.75
316.088	36837.63
316.153	36808.66
316.218	36797.45
316.283	36761.15
316.348	36719.9
316.413	36715.19
316.479	36686.17
316.544	36600.52
316.609	36504.61
316.674	36403.1
316.739	36308.86
316.804	36209.92
316.869	36090.45
316.934	35967.95
316.999	35856.06
317.064	35697.26
317.129	35554.94
317.194	35444.19
317.259	35286.31
317.324	35113.92
317.389	34968.7
317.454	34847.33
317.518	34712.8
317.583	34622.24
317.648	34513.7
317.713	34379.57
317.778	34196.55
317.843	34080.36
317.908	33954.6
317.973	33817.19
318.038	33715.39
318.103	33565.86
318.168	33441.05
318.233	33318.13
318.297	33141.96
318.362	32995.7
318.427	32855.02
318.492	32736.52
318.557	32582.62
318.622	32453.74
318.687	32346.27
318.751	32198.56
318.816	32059.82
318.881	31927.27
318.946	31724.33
319.011	31548.75
319.075	31392.7
319.14	31239.4
319.205	31053.78
319.27	30901.4
319.335	30716
319.399	30529.8
319.464	30388.75
319.529	30183.08
319.594	30006.96
319.658	29871.55
319.723	29697.32
319.788	29546.14
319.853	29330.31
319.917	29166.79
319.982	28961.95
320.047	28780.06
320.112	28634.59
320.176	28418.55
320.241	28240.86
320.306	28071.61
320.37	27899.63
320.435	27728.42
320.5	27573.37
320.564	27395.02
320.629	27192.91
320.694	27039.75
320.758	26855.99
320.823	26671.16
320.888	26524.43
320.952	26327
321.017	26128.36
321.082	25930.69
321.146	25761.59
321.211	25580.31
321.275	25391.13
321.34	25190.07
321.405	25002.84
321.469	24800.56
321.534	24604.22
321.598	24385.98
321.663	24221.36
321.727	24047.51
321.792	23840.83
321.857	23649.57
321.921	23461.53
321.986	23268.75
322.05	23023.94
322.115	22837.87
322.179	22623.21
322.244	22390.01
322.308	22205.27
322.373	21994.02
322.437	21806.55
322.502	21646.15
322.566	21449.25
322.631	21264.93
322.695	21070.11
322.76	20860.5
322.824	20664.29
322.889	20461.82
322.953	20261.63
323.018	20000.12
323.082	19738.86
323.146	19508.98
323.211	19275.14
323.275	19063.82
323.34	18851.34
323.404	18665.76
323.468	18448.22
323.533	18240.75
323.597	18025.23
323.662	17794.91
323.726	17605.28
323.79	17387.97
323.855	17117.12
323.919	16890.17
323.983	16663.08
324.048	16352.81
324.112	16420.04
324.177	15759.18
324.241	14898.96
324.305	14049.93
324.37	13218.94
324.434	12411.75
324.498	12183.8
324.562	11920.51
324.627	11629.14
324.691	11339.57
324.755	11021.21
324.82	10656.41
324.884	10272.69
324.948	9877.9
325.012	9404.4
325.077	8812.69
