Data from 20250626_urea_1M_exp2_MAYP1162681_08-23-59-181.txt Node
Date: Fri Jun 27 08:23:59 BST 2025
User: adleo
Spectrometer: MAYP116268
Trigger mode: 0
Integration Time (sec): 3.000000E0
Scans to average: 1
Electric dark correction enabled: true
Nonlinearity correction enabled: true
Boxcar width: 10
XAxis mode: Wavelengths
Number of Pixels in Spectrum: 2068
>>>>>Begin Spectral Data<<<<<
179.565	2964.4
179.642	3117.74
179.718	3232.34
179.795	3349.46
179.871	3437.88
179.948	3493.28
180.024	3550.25
180.101	3610.17
180.177	3648.59
180.254	3706.19
180.33	3769.89
180.407	3975.07
180.483	4206.1
180.56	4441.93
180.636	4656.5
180.712	4623.26
180.789	4644.9
180.865	4675.37
180.942	4702.4
181.018	4728.54
181.095	4771.6
181.171	4782.99
181.248	4786.05
181.324	4831.99
181.4	4842.24
181.477	4871.36
181.553	4901.27
181.63	4955.2
181.706	5000.41
181.782	5024.72
181.859	5030.33
181.935	5045.42
182.011	5036.51
182.088	5077.9
182.164	5129.09
182.24	5165.39
182.317	5187.51
182.393	5183.44
182.469	5222.24
182.546	5255.58
182.622	5269.81
182.698	5256.01
182.775	5295.25
182.851	5333.73
182.927	5310.68
183.003	5302.15
183.08	5285.29
183.156	5309.34
183.232	5304.84
183.308	5275.61
183.385	5297.3
183.461	5338.61
183.537	5337.66
183.613	5371.11
183.69	5351.31
183.766	5322.01
183.842	5344.93
183.918	5362.32
183.995	5398.21
184.071	5403.72
184.147	5389.59
184.223	5359.03
184.299	5389.67
184.375	5358.28
184.452	5375.69
184.528	5480.35
184.604	5509.53
184.68	5539.76
184.756	5559.9
184.832	5564.45
184.908	5575.57
184.985	5575.33
185.061	5535.21
185.137	5560.58
185.213	5531.25
185.289	5531.01
185.365	5512.18
185.441	5501.77
185.517	5536.45
185.593	5526.43
185.669	5524.7
185.745	5555.19
185.822	5599.55
185.898	5574.76
185.974	5596.23
186.05	5568.84
186.126	5508.67
186.202	5485.43
186.278	5473.59
186.354	5445.93
186.43	5467.99
186.506	5463.87
186.582	5461.62
186.658	5480.02
186.734	5428.31
186.81	5432.24
186.886	5442.97
186.962	5476.81
187.038	5467.65
187.114	5448.22
187.19	5464.38
187.266	5431.65
187.341	5430.94
187.417	5407.45
187.493	5411.53
187.569	5422.17
187.645	5409.9
187.721	5380.6
187.797	5405.95
187.873	5423.5
187.949	5408.31
188.025	5394.5
188.101	5404.41
188.176	5416.16
188.252	5401.73
188.328	5421.51
188.404	5422.28
188.48	5406.28
188.556	5383.36
188.632	5386
188.707	5389.69
188.783	5383.22
188.859	5380.15
188.935	5347.46
189.011	5370.94
189.086	5349.57
189.162	5325.23
189.238	5323.12
189.314	5312
189.39	5296.57
189.465	5276.63
189.541	5321.16
189.617	5275.97
189.693	5262.6
189.768	5279.82
189.844	5348.63
189.92	5324.31
189.996	5351.2
190.071	5386.52
190.147	5384.51
190.223	5406.9
190.298	5384.08
190.374	5354.89
190.45	5384.35
190.526	5406.16
190.601	5393.31
190.677	5396.95
190.753	5476.79
190.828	5484.84
190.904	5524.05
190.98	5562.12
191.055	5584.8
191.131	5566.96
191.207	5622.36
191.282	5642.92
191.358	5612.04
191.433	5569.15
191.509	5604.98
191.585	5593.57
191.66	5596.83
191.736	5619.65
191.811	5597.64
191.887	5642
191.963	5696.38
192.038	5706.92
192.114	5712.49
192.189	5723.99
192.265	5725
192.34	5659.4
192.416	5656.33
192.491	5644.86
192.567	5652.93
192.642	5664.44
192.718	5663.81
192.793	5637.01
192.869	5631.55
192.944	5635.04
193.02	5660.03
193.095	5666.31
193.171	5687.08
193.246	5685.64
193.322	5680.46
193.397	5680.99
193.473	5640.55
193.548	5598.49
193.624	5611.73
193.699	5606.31
193.775	5647.09
193.85	5650.92
193.925	5672.36
194.001	5665.6
194.076	5646.09
194.152	5612.28
194.227	5591.03
194.302	5565.4
194.378	5570.24
194.453	5560.17
194.529	5595.85
194.604	5551.02
194.679	5544.5
194.755	5488.86
194.83	5519.33
194.905	5507.88
194.981	5531.8
195.056	5515.13
195.131	5526.92
195.207	5521.88
195.282	5496
195.357	5444.73
195.433	5482.12
195.508	5454.89
195.583	5482.73
195.659	5525.47
195.734	5547.28
195.809	5549.2
195.884	5572.1
195.96	5570.71
196.035	5613.19
196.11	5600.48
196.185	5636.34
196.261	5636.82
196.336	5720.48
196.411	5676.3
196.486	5693.51
196.561	5672.75
196.637	5700.83
196.712	5746.12
196.787	5755.05
196.862	5801.26
196.937	5825.43
197.013	5839.44
197.088	5868.21
197.163	5920.81
197.238	5959.71
197.313	5959.18
197.388	5993.38
197.464	6072.96
197.539	6107.11
197.614	6086.11
197.689	6118.64
197.764	6162.9
197.839	6220.86
197.914	6203.58
197.989	6267.55
198.065	6302.58
198.14	6440.05
198.215	6506.34
198.29	6536.08
198.365	6572.71
198.44	6597.67
198.515	6673.49
198.59	6716.47
198.665	6783.22
198.74	6801.67
198.815	6805.95
198.89	6867.32
198.965	6945.83
199.04	6931.71
199.115	6973.2
199.19	7091.11
199.265	7100.38
199.34	7125.95
199.415	7215.23
199.49	7271.13
199.565	7292.85
199.64	7358.54
199.715	7346.51
199.79	7362.85
199.865	7377.56
199.94	7374.05
200.015	7456.2
200.09	7469.33
200.165	7480.53
200.24	7496.49
200.315	7598.96
200.39	7641.32
200.464	7663.24
200.539	7665.12
200.614	7708.81
200.689	7771.27
200.764	7779.54
200.839	7822.02
200.914	7831.54
200.989	7796.56
201.063	7834.02
201.138	7790.45
201.213	7791.66
201.288	7740.31
201.363	7750.12
201.438	7754.06
201.512	7791.25
201.587	7750.47
201.662	7758.6
201.737	7792.59
201.812	7813.76
201.886	7731.47
201.961	7754.95
202.036	7715.88
202.111	7709.43
202.186	7626.76
202.26	7574.77
202.335	7522.75
202.41	7509.38
202.485	7470.12
202.559	7417.98
202.634	7347.37
202.709	7372.72
202.784	7319.61
202.858	7319.37
202.933	7273.34
203.008	7253.1
203.082	7202.66
203.157	7195.35
203.232	7083.65
203.306	7026.54
203.381	6941.38
203.456	6878.68
203.53	6810.06
203.605	6760.86
203.68	6693.97
203.754	6682.98
203.829	6642.58
203.904	6584.63
203.978	6553.93
204.053	6560.08
204.127	6532.96
204.202	6525.47
204.277	6478.71
204.351	6456.86
204.426	6440.58
204.5	6420.32
204.575	6326.22
204.65	6355.42
204.724	6331.11
204.799	6357.01
204.873	6342.94
204.948	6340.15
205.022	6309.35
205.097	6293.55
205.171	6329.25
205.246	6355.24
205.32	6355.86
205.395	6357.97
205.469	6340.18
205.544	6351.56
205.618	6304.66
205.693	6332.27
205.767	6302.04
205.842	6359.85
205.916	6347.75
205.991	6319.58
206.065	6333.21
206.14	6376.12
206.214	6362.57
206.289	6343.41
206.363	6373.7
206.438	6385.08
206.512	6402.37
206.586	6456.7
206.661	6480.91
206.735	6421.95
206.81	6423.54
206.884	6456.07
206.958	6420.71
207.033	6463.02
207.107	6481.67
207.181	6568.51
207.256	6551.03
207.33	6600.04
207.405	6631.38
207.479	6677.96
207.553	6701.57
207.628	6657.72
207.702	6687.05
207.776	6668.18
207.851	6677.44
207.925	6718.14
207.999	6710.07
208.073	6704.5
208.148	6710.41
208.222	6677.79
208.296	6760.87
208.371	6804.76
208.445	6835.93
208.519	6910.35
208.593	6941.38
208.668	6927.68
208.742	6934.95
208.816	6942.87
208.89	6977.04
208.965	6966.27
209.039	6988.42
209.113	7027.29
209.187	7086.22
209.261	7078.06
209.336	7131.39
209.41	7188.57
209.484	7185.93
209.558	7245.57
209.632	7280.98
209.707	7312.27
209.781	7371.33
209.855	7414.69
209.929	7456.27
210.003	7470.64
210.077	7468.95
210.151	7592.66
210.226	7690.24
210.3	7758
210.374	7818.07
210.448	7834.9
210.522	7867.51
210.596	7895.06
210.67	7923.1
210.744	8049.66
210.818	8136.8
210.892	8195.11
210.966	8178.18
211.041	8216.9
211.115	8203.53
211.189	8266.58
211.263	8309.2
211.337	8324.02
211.411	8359.48
211.485	8338.5
211.559	8370.57
211.633	8379.66
211.707	8296.24
211.781	8310.01
211.855	8217.68
211.929	8197.06
212.003	8150.24
212.077	8171.12
212.151	8203.6
212.225	8225.3
212.299	8189.67
212.373	8159.75
212.447	8145.32
212.52	8216.61
212.594	8225.9
212.668	8259.61
212.742	8217.9
212.816	8204.05
212.89	8183.17
212.964	8179.32
213.038	8196.94
213.112	8227.78
213.186	8265.82
213.26	8209.73
213.333	8085.31
213.407	8091.22
213.481	8097.47
213.555	8117.99
213.629	8088.54
213.703	8040
213.777	8029.56
213.85	7974.33
213.924	8049.45
213.998	8043.14
214.072	8027.79
214.146	7984.59
214.219	7970.64
214.293	7960.98
214.367	7957.08
214.441	7982.81
214.515	7949.13
214.588	7873.72
214.662	7772.93
214.736	7714.04
214.81	7729.65
214.883	7750.16
214.957	7715.95
215.031	7675.16
215.105	7608.31
215.178	7554.32
215.252	7523.65
215.326	7452.02
215.4	7389.62
215.473	7258.19
215.547	7192.27
215.621	7133.93
215.694	7131.43
215.768	7055.3
215.842	6999.24
215.915	6942.7
215.989	6854.94
216.063	6802.98
216.136	6792.36
216.21	6776.61
216.284	6777.96
216.357	6753.8
216.431	6722.87
216.504	6721.23
216.578	6760.82
216.652	6772.68
216.725	6756.3
216.799	6765.86
216.873	6747.42
216.946	6755.34
217.02	6724.29
217.093	6705.8
217.167	6632.62
217.24	6566.38
217.314	6537.01
217.387	6504.53
217.461	6472.98
217.535	6486.81
217.608	6443.8
217.682	6420.84
217.755	6433.23
217.829	6397.79
217.902	6391.11
217.976	6375.51
218.049	6344.26
218.123	6287.24
218.196	6285.56
218.27	6257.24
218.343	6202.45
218.417	6203.07
218.49	6183.25
218.563	6215.35
218.637	6221.89
218.71	6283.19
218.784	6307.77
218.857	6338.63
218.931	6358.06
219.004	6363.05
219.077	6380.82
219.151	6395.31
219.224	6385.38
219.298	6378.85
219.371	6409.01
219.444	6375.66
219.518	6381.08
219.591	6390.1
219.665	6467.46
219.738	6474.9
219.811	6464.82
219.885	6498.34
219.958	6526.62
220.031	6531.08
220.105	6547.89
220.178	6556.01
220.251	6531.99
220.325	6551.69
220.398	6555.58
220.471	6570.5
220.544	6599.17
220.618	6577.12
220.691	6599.88
220.764	6613.8
220.838	6638.2
220.911	6629.32
220.984	6701.14
221.057	6733.74
221.131	6753.43
221.204	6679.86
221.277	6736.12
221.35	6840.65
221.424	6832.77
221.497	6840.99
221.57	6858.41
221.643	6883.21
221.716	6910.36
221.79	6917.23
221.863	6924.48
221.936	6930.96
222.009	6938.55
222.082	6959.94
222.155	6971.08
222.229	7019.19
222.302	7043.83
222.375	7047.33
222.448	7076.45
222.521	7076.16
222.594	7073.71
222.667	7054.41
222.74	7103.31
222.814	7098.22
222.887	7076.63
222.96	7118.53
223.033	7147.37
223.106	7165.95
223.179	7190.19
223.252	7198.94
223.325	7218.92
223.398	7232.04
223.471	7262.75
223.544	7281.96
223.617	7294.22
223.69	7312.96
223.763	7280.99
223.837	7298.68
223.91	7321.26
223.983	7281.73
224.056	7254.39
224.129	7273.61
224.202	7314.67
224.275	7303.52
224.348	7280.17
224.42	7255.89
224.493	7216.35
224.566	7199.62
224.639	7215.66
224.712	7188.59
224.785	7177.54
224.858	7177.34
224.931	7166.43
225.004	7130.21
225.077	7128.96
225.15	7057.67
225.223	7058.05
225.296	7126.49
225.369	7082.14
225.442	7060.75
225.514	7076.94
225.587	7091.59
225.66	7093.9
225.733	7096.3
225.806	7098.85
225.879	7088.52
225.952	7063.25
226.025	7100.21
226.097	7138.97
226.17	7131.71
226.243	7083.82
226.316	7079.4
226.389	7078.82
226.461	7092.09
226.534	7109.43
226.607	7102.8
226.68	7163.17
226.753	7153.47
226.825	7085.13
226.898	7128.51
226.971	7125.44
227.044	7144.18
227.117	7151
227.189	7163.16
227.262	7191.62
227.335	7209.89
227.407	7216.66
227.48	7243.22
227.553	7247.45
227.626	7235.53
227.698	7243.74
227.771	7276.4
227.844	7262.85
227.916	7278.47
227.989	7248.14
228.062	7248.62
228.134	7319.77
228.207	7323.96
228.28	7318.72
228.352	7331.89
228.425	7342.42
228.498	7379.77
228.57	7360.69
228.643	7410.5
228.716	7416.94
228.788	7407.81
228.861	7400.69
228.934	7441.64
229.006	7446.45
229.079	7448.66
229.151	7431.64
229.224	7404.59
229.296	7425.5
229.369	7505.81
229.442	7541.3
229.514	7528.91
229.587	7567.65
229.659	7507.35
229.732	7514.71
229.804	7548.79
229.877	7611.27
229.949	7629.59
230.022	7673.66
230.094	7678.37
230.167	7668.84
230.239	7634.67
230.312	7624.76
230.384	7679.16
230.457	7681.76
230.529	7690.84
230.602	7689.35
230.674	7705.85
230.747	7736.74
230.819	7757.7
230.892	7668.27
230.964	7672.6
231.037	7693.01
231.109	7686.47
231.181	7716.37
231.254	7687.48
231.326	7677.14
231.399	7658.19
231.471	7639.67
231.544	7575.7
231.616	7605.3
231.688	7603.43
231.761	7593.1
231.833	7584.21
231.905	7516.98
231.978	7515.82
232.05	7502.56
232.122	7509.63
232.195	7483.61
232.267	7510.34
232.339	7493.08
232.412	7546.34
232.484	7516.08
232.556	7496.68
232.629	7551.57
232.701	7570.61
232.773	7581.14
232.846	7574.22
232.918	7572.15
232.99	7588.5
233.062	7622.54
233.135	7630.62
233.207	7606
233.279	7640.99
233.351	7665.55
233.424	7673
233.496	7653.05
233.568	7718.35
233.64	7690.23
233.713	7707.25
233.785	7709.51
233.857	7720.95
233.929	7682.06
234.001	7743.98
234.074	7795.5
234.146	7735.47
234.218	7730.03
234.29	7731.52
234.362	7722.15
234.434	7685.26
234.507	7656.65
234.579	7612.85
234.651	7601.99
234.723	7625.84
234.795	7640.4
234.867	7639.83
234.939	7679.55
235.012	7690.55
235.084	7687.09
235.156	7711.8
235.228	7696.65
235.3	7680.54
235.372	7690.45
235.444	7733.43
235.516	7665.02
235.588	7671.94
235.66	7679.73
235.732	7657.28
235.804	7809.47
235.876	7849.28
235.948	7903.06
236.02	7918.25
236.092	7934.16
236.164	7943.34
236.236	7946.18
236.308	7943.48
236.38	7961.18
236.452	7949.06
236.524	7966.33
236.596	8023.08
236.668	8053.87
236.74	8071.7
236.812	8097.24
236.884	8129.04
236.956	8136.79
237.028	8135.68
237.1	8122.94
237.172	8181.16
237.244	8242.49
237.316	8154.65
237.388	8138.1
237.46	8119.44
237.532	8166.53
237.604	8159.42
237.675	8220.19
237.747	8253.63
237.819	8245.45
237.891	8249.11
237.963	8244.69
238.035	8242.09
238.107	8157.77
238.178	8209.42
238.25	8215.14
238.322	8285.75
238.394	8247.55
238.466	8253.18
238.538	8286.66
238.609	8317.3
238.681	8277.26
238.753	8259.55
238.825	8280.15
238.897	8304.29
238.968	8369.95
239.04	8346.18
239.112	8439.66
239.184	8403.9
239.255	8398.66
239.327	8429.92
239.399	8442.53
239.471	8477.45
239.542	8508.63
239.614	8559.24
239.686	8491.33
239.758	8535.07
239.829	8504.54
239.901	8556.75
239.973	8566.18
240.044	8593.56
240.116	8608.1
240.188	8620.99
240.259	8630.66
240.331	8612.13
240.403	8642.68
240.474	8603.35
240.546	8604.45
240.618	8554.78
240.689	8556.22
240.761	8579.42
240.833	8633.72
240.904	8639.73
240.976	8640.65
241.048	8654.32
241.119	8684.89
241.191	8727.19
241.262	8782.85
241.334	8792.53
241.405	8793.78
241.477	8794.74
241.549	8800.62
241.62	8822.42
241.692	8855.73
241.763	8901.17
241.835	8919.18
241.906	8933.23
241.978	8904.55
242.049	8954.47
242.121	8999.13
242.192	9057.86
242.264	9027.15
242.335	8984.11
242.407	9021.42
242.478	9024.31
242.55	9037.98
242.621	9022.04
242.693	9020.5
242.764	9009.47
242.836	9005.62
242.907	9030.66
242.979	9060.55
243.05	9077.5
243.122	9096.27
243.193	9094.93
243.264	9036.63
243.336	9044.05
243.407	9067.11
243.479	9138.69
243.55	9150.29
243.622	9163.25
243.693	9159.25
243.764	9212.78
243.836	9197
243.907	9184.19
243.978	9194.78
244.05	9219.68
244.121	9184.01
244.192	9210.58
244.264	9169.7
244.335	9184.82
244.407	9144.72
244.478	9151.17
244.549	9146.07
244.62	9114.05
244.692	9109.91
244.763	9153.81
244.834	9142.69
244.906	9123.86
244.977	9129.83
245.048	9171.4
245.119	9153.25
245.191	9131.15
245.262	9084.5
245.333	9142.69
245.405	9159.25
245.476	9186.65
245.547	9199.75
245.618	9243.89
245.689	9255.06
245.761	9284.72
245.832	9282.75
245.903	9324.63
245.974	9348.71
246.045	9356.85
246.117	9419.21
246.188	9412.28
246.259	9399.13
246.33	9415.17
246.401	9428.75
246.473	9408.95
246.544	9402.45
246.615	9451.19
246.686	9460.57
246.757	9521.29
246.828	9502.17
246.899	9562.77
246.97	9531.67
247.042	9519.1
247.113	9551.22
247.184	9623.44
247.255	9623.4
247.326	9648.44
247.397	9647.72
247.468	9651.67
247.539	9666.11
247.61	9626.19
247.681	9662.44
247.752	9706.12
247.823	9685.56
247.894	9694.95
247.965	9675.4
248.037	9658.3
248.108	9615.29
248.179	9618.9
248.25	9612.88
248.321	9635.9
248.392	9597.69
248.463	9662.08
248.534	9660.05
248.605	9679.61
248.675	9659.62
248.746	9671.41
248.817	9685.29
248.888	9701.09
248.959	9659.58
249.03	9675.33
249.101	9682.21
249.172	9668.1
249.243	9613.84
249.314	9668.59
249.385	9678.61
249.456	9701.14
249.527	9698.06
249.598	9715.3
249.669	9711.21
249.739	9715.2
249.81	9730.95
249.881	9699.31
249.952	9692.14
250.023	9691.7
250.094	9646.04
250.165	9610.63
250.235	9603.35
250.306	9601.91
250.377	9585.53
250.448	9615.19
250.519	9569.49
250.59	9618.14
250.66	9616.07
250.731	9667.83
250.802	9664.56
250.873	9683.58
250.944	9700.68
251.014	9689.99
251.085	9767.03
251.156	9796.55
251.227	9833.69
251.297	9877.05
251.368	9912.97
251.439	9950.07
251.51	9993.86
251.58	9987.17
251.651	9995.89
251.722	10045.7
251.792	10006.4
251.863	10000.62
251.934	10044.07
252.005	10129.23
252.075	10130.43
252.146	10171.8
252.217	10210.15
252.287	10245.37
252.358	10250.14
252.429	10308.82
252.499	10310.12
252.57	10316.1
252.641	10344.04
252.711	10360.04
252.782	10322.89
252.852	10383.26
252.923	10382.54
252.994	10394.25
253.064	10431.38
253.135	10411.49
253.205	10392.6
253.276	10459.51
253.347	10518.42
253.417	10500.21
253.488	10484.5
253.558	10475.11
253.629	10472.41
253.699	10487.06
253.77	10503.35
253.841	10490.87
253.911	10496.22
253.982	10509.85
254.052	10529.03
254.123	10544.11
254.193	10535.92
254.264	10640.93
254.334	10618.32
254.405	10586.82
254.475	10558.63
254.546	10569.85
254.616	10620.25
254.687	10648.1
254.757	10663.95
254.827	10655.95
254.898	10675.18
254.968	10683.75
255.039	10676.38
255.109	10704.76
255.18	10681.44
255.25	10625.84
255.321	10651.27
255.391	10622.51
255.461	10694.49
255.532	10629.72
255.602	10622.3
255.673	10583.91
255.743	10560.05
255.813	10498.58
255.884	10543.68
255.954	10566.95
256.024	10616.53
256.095	10622.8
256.165	10591.24
256.235	10602.03
256.306	10589.84
256.376	10628.49
256.446	10659.62
256.517	10682.8
256.587	10722.65
256.657	10738.36
256.728	10758.06
256.798	10768.13
256.868	10766.88
256.938	10743.46
257.009	10785.52
257.079	10810.63
257.149	10890.86
257.219	10838.28
257.29	10872.24
257.36	10822.71
257.43	10857.12
257.5	10802.38
257.571	10791.39
257.641	10817.55
257.711	10792.54
257.781	10822.32
257.852	10838.8
257.922	10790.08
257.992	10793.36
258.062	10781.89
258.132	10814.32
258.202	10824.15
258.273	10833.89
258.343	10888.15
258.413	10875.14
258.483	10872.01
258.553	10855.96
258.623	10838.18
258.693	10864.29
258.764	10913.59
258.834	10972.32
258.904	10987.55
258.974	10984.42
259.044	10998.92
259.114	11025.72
259.184	11056.42
259.254	11064.8
259.324	11018.25
259.394	11056.17
259.464	11124.99
259.535	11138.63
259.605	11131.74
259.675	11121.67
259.745	11156.17
259.815	11141.43
259.885	11147.4
259.955	11236.96
260.025	11225.35
260.095	11230.79
260.165	11257.49
260.235	11309.45
260.305	11297.84
260.375	11271.96
260.445	11340.48
260.515	11388.1
260.585	11424.58
260.655	11429.11
260.725	11468.78
260.795	11500.63
260.865	11556.59
260.934	11528.35
261.004	11549.99
261.074	11555
261.144	11603.43
261.214	11626.28
261.284	11627.63
261.354	11650.56
261.424	11618.7
261.494	11667.23
261.564	11673.93
261.634	11693.21
261.703	11642.16
261.773	11661.2
261.843	11683.13
261.913	11681.25
261.983	11636.62
262.053	11652.67
262.123	11643.13
262.192	11604.23
262.262	11630.79
262.332	11591.36
262.402	11615.03
262.472	11621.58
262.541	11578.79
262.611	11618.65
262.681	11596.05
262.751	11633.88
262.821	11640.53
262.89	11611.32
262.96	11644.92
263.03	11710.28
263.1	11725.47
263.169	11742.62
263.239	11765.85
263.309	11829.53
263.379	11851.17
263.448	11868.52
263.518	11891.56
263.588	11909.98
263.657	11970.42
263.727	11996.44
263.797	12009.8
263.867	12015.77
263.936	11985.12
264.006	12037.6
264.076	12029.93
264.145	12033.16
264.215	12013.79
264.285	12052.88
264.354	12021.02
264.424	12004.63
264.494	11964.14
264.563	11957.34
264.633	12017.74
264.702	12036.3
264.772	11983.61
264.842	11983.13
264.911	12012.34
264.981	11975.85
265.05	11987.8
265.12	11984.67
265.19	11999.37
265.259	12034.7
265.329	12055.67
265.398	12076.64
265.468	12151.74
265.537	12149.33
265.607	12175.69
265.676	12214.06
265.746	12226.07
265.815	12272.38
265.885	12282.36
265.955	12272.96
266.024	12278.07
266.094	12225.96
266.163	12277.74
266.232	12336.3
266.302	12341.08
266.371	12355.3
266.441	12375.2
266.51	12410.54
266.58	12408.18
266.649	12404.75
266.719	12444.28
266.788	12469.44
266.858	12522.71
266.927	12461.78
266.996	12484.24
267.066	12516.78
267.135	12491.91
267.205	12526.42
267.274	12548.31
267.343	12591.64
267.413	12604.42
267.482	12649.58
267.552	12703.86
267.621	12670.41
267.69	12633.39
267.76	12660.33
267.829	12690.7
267.898	12709.89
267.968	12697.98
268.037	12735.53
268.106	12778.39
268.176	12753.17
268.245	12756.07
268.314	12758.53
268.384	12820.28
268.453	12832.76
268.522	12841.87
268.592	12894.99
268.661	12886.41
268.73	12910.37
268.799	12897.16
268.869	12955.44
268.938	12924.01
269.007	12920.44
269.076	12937.99
269.146	12985.91
269.215	13014.83
269.284	13065.54
269.353	13062.27
269.422	13075.62
269.492	13075.38
269.561	13000.66
269.63	13033.73
269.699	13033.39
269.768	13045.54
269.838	13055.76
269.907	13094.18
269.976	13079.86
270.045	13034.74
270.114	13063.57
270.183	13069.07
270.253	13100.59
270.322	13070.51
270.391	13090.81
270.46	13144.61
270.529	13177.92
270.598	13211.18
270.667	13211.18
270.736	13188.04
270.806	13216.19
270.875	13259.82
270.944	13265.31
271.013	13370.4
271.082	13385.78
271.151	13411.43
271.22	13384.82
271.289	13392.24
271.358	13395.52
271.427	13426.18
271.496	13456.84
271.565	13455.15
271.634	13475.59
271.703	13569.11
271.772	13617.36
271.841	13629.12
271.91	13598.95
271.979	13615.48
272.048	13595.67
272.117	13631
272.186	13632.93
272.255	13671.21
272.324	13707.12
272.393	13735.13
272.462	13729.92
272.531	13741.97
272.6	13761.74
272.669	13827.16
272.738	13843.3
272.807	13873.1
272.876	13856.51
272.945	13964.59
273.013	14009.32
273.082	14060.76
273.151	13984.6
273.22	14016.41
273.289	14037.67
273.358	14102.46
273.427	14111.28
273.496	14145.12
273.564	14174.77
273.633	14215.6
273.702	14204.56
273.771	14211.55
273.84	14235.9
273.909	14269.74
273.977	14311.58
274.046	14320.06
274.115	14357.18
274.184	14348.65
274.253	14366.43
274.322	14430.5
274.39	14390.59
274.459	14388.51
274.528	14345.71
274.597	14375.16
274.665	14395.12
274.734	14449.25
274.803	14458.03
274.872	14478.27
274.94	14482.27
275.009	14594.53
275.078	14596.36
275.147	14626.88
275.215	14644.18
275.284	14696.48
275.353	14707.33
275.421	14669.44
275.49	14743.43
275.559	14745.84
275.627	14763.92
275.696	14779.78
275.765	14814.68
275.833	14826.39
275.902	14868.57
275.971	14938.08
276.039	15006.53
276.108	15044.8
276.177	15072.42
276.245	15085.29
276.314	15104
276.383	15156.3
276.451	15088.43
276.52	15134.28
276.588	15192.99
276.657	15248.85
276.725	15255.55
276.794	15298.31
276.863	15376.83
276.931	15356.25
277	15410.47
277.068	15475.36
277.137	15551.85
277.205	15571.47
277.274	15645.55
277.342	15699.92
277.411	15685.08
277.48	15686.81
277.548	15706.28
277.617	15737.52
277.685	15754.58
277.754	15807.31
277.822	15812.66
277.89	15883.61
277.959	15901.54
278.027	15895.76
278.096	15897.97
278.164	16002.99
278.233	16004.87
278.301	16004.63
278.37	16044.44
278.438	16049.6
278.507	16084.06
278.575	16062.13
278.643	16090.14
278.712	16077.46
278.78	16074.38
278.849	16141.42
278.917	16200.47
278.985	16217.05
279.054	16259.17
279.122	16319.27
279.191	16344.43
279.259	16363.52
279.327	16345.06
279.396	16424.73
279.464	16448.44
279.532	16492.88
279.601	16515.82
279.669	16541.02
279.737	16613.37
279.806	16663.97
279.874	16726.24
279.942	16760.61
280.011	16780.75
280.079	16838.15
280.147	16914.98
280.215	16966.4
280.284	16984.38
280.352	16985.53
280.42	17038.98
280.488	17057.39
280.557	17075.9
280.625	17117.63
280.693	17169.01
280.761	17205.98
280.83	17189.83
280.898	17261.45
280.966	17248.73
281.034	17196.58
281.102	17198.08
281.171	17212.82
281.239	17259.23
281.307	17266.46
281.375	17281.79
281.443	17372.58
281.512	17393.59
281.58	17447.71
281.648	17441.4
281.716	17475.42
281.784	17518.36
281.852	17532.15
281.92	17552.39
281.989	17626.89
282.057	17618.94
282.125	17722.16
282.193	17760.57
282.261	17793.1
282.329	17807.99
282.397	17864.52
282.465	17911.08
282.533	17980.43
282.601	17987.95
282.67	17963.37
282.738	17974.79
282.806	18028.28
282.874	18032.04
282.942	18078.79
283.01	18097.34
283.078	18150.83
283.146	18181.96
283.214	18234.1
283.282	18283.69
283.35	18359.06
283.418	18360.46
283.486	18410.43
283.554	18383.74
283.622	18408.17
283.69	18443.54
283.758	18464.89
283.826	18511.39
283.894	18580.64
283.962	18672.83
284.03	18747.52
284.098	18801.69
284.165	18833.88
284.233	18871.57
284.301	18886.12
284.369	18894.5
284.437	18914.84
284.505	18932.72
284.573	19003.37
284.641	19004.86
284.709	19057.68
284.777	19046.21
284.845	19108.47
284.912	19165.33
284.98	19209.04
285.048	19247.01
285.116	19302.24
285.184	19382.38
285.252	19422.96
285.319	19415.63
285.387	19430.04
285.455	19425.94
285.523	19476.4
285.591	19503.77
285.659	19544.92
285.726	19619.38
285.794	19630.08
285.862	19649.02
285.93	19687.33
285.997	19717.25
286.065	19746.94
286.133	19763.95
286.201	19798.84
286.269	19794.84
286.336	19798.07
286.404	19817.92
286.472	19863.03
286.539	19843.22
286.607	19830.74
286.675	19862.93
286.743	19921.58
286.81	19929.87
286.878	20007.12
286.946	20026.35
287.013	20062.98
287.081	20089.63
287.149	20097
287.216	20188.23
287.284	20222.11
287.352	20262.78
287.419	20288.76
287.487	20367.46
287.555	20407.27
287.622	20435.7
287.69	20497.24
287.758	20570.59
287.825	20598.21
287.893	20602.54
287.96	20655.02
288.028	20733.34
288.096	20786.02
288.163	20826.07
288.231	20844.91
288.298	20876.97
288.366	20945.98
288.433	20982.75
288.501	21008.3
288.569	21053.84
288.636	21068.3
288.704	21145.08
288.771	21198
288.839	21216.46
288.906	21229.04
288.974	21289.44
289.041	21323.17
289.109	21319.56
289.176	21380.3
289.244	21417.55
289.311	21487.58
289.379	21562.44
289.446	21584.85
289.514	21607.89
289.581	21646.55
289.649	21690.07
289.716	21715.19
289.783	21724.3
289.851	21809.37
289.918	21847.11
289.986	21897.24
290.053	21947.28
290.121	21963.67
290.188	22004.45
290.255	22108.29
290.323	22132.34
290.39	22151.1
290.458	22203.16
290.525	22287.61
290.592	22298.03
290.66	22343.87
290.727	22368.07
290.794	22427.71
290.862	22468.39
290.929	22518.34
290.996	22551.17
291.064	22610.86
291.131	22686.36
291.198	22763.79
291.266	22787.51
291.333	22821.55
291.4	22870.39
291.468	22947.98
291.535	22980.91
291.602	23028.55
291.669	23045.48
291.737	23087.9
291.804	23124.64
291.871	23209.7
291.938	23262.12
292.006	23374.94
292.073	23450.54
292.14	23511.64
292.207	23523.64
292.275	23556.43
292.342	23604.85
292.409	23707.25
292.476	23807.05
292.543	23814.38
292.611	23840.85
292.678	23924.49
292.745	24027.07
292.812	24084.18
292.879	24100.67
292.946	24138.63
293.014	24212.24
293.081	24268.82
293.148	24339.52
293.215	24413.66
293.282	24426.78
293.349	24478.89
293.416	24463.83
293.484	24531.62
293.551	24593.99
293.618	24684.01
293.685	24794.89
293.752	24823.88
293.819	24845.4
293.886	24845.88
293.953	24902.37
294.02	24970.55
294.087	25016.87
294.154	25034.87
294.221	25109.29
294.288	25139.21
294.356	25232.28
294.423	25277.45
294.49	25293.71
294.557	25372.23
294.624	25389.8
294.691	25476.76
294.758	25529.51
294.825	25591.96
294.892	25615.51
294.959	25651.81
295.026	25700.9
295.093	25723.3
295.16	25767.41
295.226	25810.66
295.293	25905.33
295.36	25960.88
295.427	26023.11
295.494	26102.4
295.561	26163.31
295.628	26269.88
295.695	26364.6
295.762	26410.76
295.829	26478.27
295.896	26560.96
295.963	26626.65
296.03	26706.84
296.096	26760.2
296.163	26812.02
296.23	26886.59
296.297	26958.39
296.364	27013.77
296.431	27074.58
296.498	27106.79
296.564	27213.62
296.631	27273.36
296.698	27285.05
296.765	27382.62
296.832	27393.63
296.899	27396.63
296.965	27478.22
297.032	27448.2
297.099	27533.21
297.166	27592.63
297.233	27630.37
297.299	27648.53
297.366	27691.88
297.433	27726.03
297.5	27793.83
297.566	27850.75
297.633	27891.25
297.7	27939.28
297.767	27979.04
297.833	28029.93
297.9	28082.31
297.967	28076.27
298.033	28128.61
298.1	28243.08
298.167	28261.54
298.234	28325.76
298.3	28391.67
298.367	28427.4
298.434	28506.05
298.5	28507.84
298.567	28540.52
298.634	28571.36
298.7	28672.33
298.767	28703.7
298.834	28791.01
298.9	28817.41
298.967	28826.07
299.033	28891.54
299.1	28971.33
299.167	29043.41
299.233	29064.59
299.3	29127.83
299.366	29206.82
299.433	29293.83
299.5	29270.42
299.566	29330.39
299.633	29411.92
299.699	29475.38
299.766	29506.42
299.832	29544.84
299.899	29614.88
299.965	29679.01
300.032	29707.83
300.099	29757.9
300.165	29816.38
300.232	29834.09
300.298	29876.99
300.365	29963.14
300.431	30009.16
300.498	30027.16
300.564	30081.49
300.631	30156.43
300.697	30236.17
300.763	30275.07
300.83	30302.37
300.896	30375.37
300.963	30431.7
301.029	30477.24
301.096	30528.55
301.162	30592.46
301.229	30610.61
301.295	30623.97
301.361	30665.06
301.428	30718.57
301.494	30717.94
301.561	30766.44
301.627	30823.59
301.693	30868.31
301.76	30914.83
301.826	30934.39
301.892	30997.42
301.959	31056.77
302.025	31093.18
302.092	31103.88
302.158	31168.55
302.224	31217.89
302.291	31238.32
302.357	31262.77
302.423	31289.4
302.49	31300.2
302.556	31367.36
302.622	31409.34
302.688	31469.81
302.755	31552.34
302.821	31601.62
302.887	31664.02
302.954	31695.01
303.02	31744.75
303.086	31796.13
303.152	31826.06
303.219	31859.52
303.285	31909.22
303.351	31960.91
303.417	31992.78
303.483	32020.62
303.55	32033.89
303.616	32067.42
303.682	32099.47
303.748	32129.84
303.815	32196.74
303.881	32265.14
303.947	32276.67
304.013	32328.26
304.079	32359.31
304.145	32334.99
304.212	32375.62
304.278	32400.23
304.344	32430.51
304.41	32440.49
304.476	32465.73
304.542	32491.02
304.608	32538.1
304.674	32533.11
304.741	32557.1
304.807	32606.29
304.873	32660.99
304.939	32739.24
305.005	32726.98
305.071	32766.07
305.137	32808.56
305.203	32784.63
305.269	32820.78
305.335	32882.67
305.401	32911.55
305.467	32930.45
305.533	32999.7
305.599	33051.89
305.666	33113.82
305.732	33150.02
305.798	33220.2
305.864	33315.41
305.93	33357.48
305.996	33391.7
306.062	33438.22
306.128	33464.4
306.194	33462.12
306.259	33494.94
306.325	33508.42
306.391	33570.07
306.457	33619.21
306.523	33660.46
306.589	33751.88
306.655	33757.07
306.721	33747.42
306.787	33748.25
306.853	33823.78
306.919	33817.67
306.985	33835.17
307.051	33847.78
307.117	33864.6
307.183	33879.58
307.248	33840.93
307.314	33885.35
307.38	33929.86
307.446	33967.68
307.512	33960.55
307.578	34004.13
307.644	34023.82
307.709	34060.28
307.775	34082.44
307.841	34099.26
307.907	34123.6
307.973	34107.16
308.039	34139.26
308.104	34170.83
308.17	34215.38
308.236	34198.41
308.302	34242.09
308.368	34247.33
308.433	34275.06
308.499	34292.37
308.565	34288.83
308.631	34325.78
308.696	34305.56
308.762	34293.19
308.828	34317.74
308.894	34307.65
308.959	34285.64
309.025	34295.73
309.091	34309.02
309.156	34322.16
309.222	34363.77
309.288	34360.08
309.354	34333.71
309.419	34359.27
309.485	34356.65
309.551	34387.16
309.616	34390.84
309.682	34409.27
309.748	34420.52
309.813	34447.58
309.879	34455.83
309.945	34471.44
310.01	34485.7
310.076	34519.21
310.141	34542.05
310.207	34532.74
310.273	34571.72
310.338	34620.16
310.404	34600.67
310.469	34602.37
310.535	34606.64
310.601	34576.76
310.666	34614.69
310.732	34692.48
310.797	34691.94
310.863	34706.05
310.928	34714.06
310.994	34751.26
311.059	34771.15
311.125	34803.88
311.191	34852.98
311.256	34860.79
311.322	34894.31
311.387	34863.71
311.453	35707.54
311.518	35686.97
311.584	35709.24
311.649	35747.12
311.715	35748.62
311.78	35791.11
311.846	35798.19
311.911	35845.78
311.976	35878.61
312.042	35874.1
312.107	35847.33
312.173	35859.6
312.238	35880.84
312.304	35904.27
312.369	35907.04
312.434	35900.83
312.5	35911.4
312.565	35856.92
312.631	35895.34
312.696	35899.36
312.761	35933.51
312.827	35127.51
312.892	35239.15
312.958	35269.48
313.023	35303.39
313.088	35322.41
313.154	35311.35
313.219	35316.2
313.284	35312.66
313.35	35342.49
313.415	35349.87
313.48	35362.04
313.546	35391.3
313.611	35436.91
313.676	35432.88
313.741	35430.94
313.807	35474.41
313.872	35507.5
313.937	35553.49
314.003	35614.97
314.068	35643.99
314.133	35706.29
314.198	35704.06
314.264	35683.53
314.329	35670.82
314.394	35679.89
314.459	35703.66
314.525	35778.67
314.59	35802.1
314.655	35808.61
314.72	35838.06
314.785	35870.28
314.851	35902.15
314.916	35884.25
314.981	35868.48
315.046	35881.38
315.111	35886.04
315.176	35884.39
315.242	35909.29
315.307	35918.85
315.372	35885.94
315.437	35882.25
315.502	35873.91
315.567	35930.35
315.632	35912.29
315.698	35956.75
315.763	35959.46
315.828	35965.43
315.893	35974.17
315.958	35970.09
316.023	35949.67
316.088	35917.93
316.153	35863.01
316.218	35844.48
316.283	35802.67
316.348	35766.18
316.413	35759.63
316.479	35730.87
316.544	35644.04
316.609	35564.81
316.674	35474.34
316.739	35382.66
316.804	35297.1
316.869	35190.19
316.934	35086.7
316.999	34991.14
317.064	34828.22
317.129	34703.08
317.194	34582.18
317.259	34419.26
317.324	34263.4
317.389	34135.49
317.454	34001.57
317.518	33894.73
317.583	33810.45
317.648	33724.25
317.713	33600.4
317.778	33416.39
317.843	33302.34
317.908	33166.71
317.973	33026.55
318.038	32924.53
318.103	32784.57
318.168	32663.72
318.233	32540.71
318.297	32361.78
318.362	32224.15
318.427	32081.1
318.492	31982.46
318.557	31813.96
318.622	31710.12
318.687	31613
318.751	31455.34
318.816	31324.46
318.881	31192.45
318.946	30988.95
319.011	30822.05
319.075	30661.52
319.14	30516.22
319.205	30352.84
319.27	30214.43
319.335	30050.42
319.399	29879.67
319.464	29753.13
319.529	29551.84
319.594	29385.74
319.658	29250.28
319.723	29069.39
319.788	28940.21
319.853	28710.86
319.917	28570.46
319.982	28353.36
320.047	28192.93
320.112	28065.35
320.176	27864.61
320.241	27694.03
320.306	27532.23
320.37	27344.23
320.435	27192.11
320.5	27040.83
320.564	26859.96
320.629	26673.38
320.694	26506.64
320.758	26325.18
320.823	26120.66
320.888	25966.93
320.952	25760.73
321.017	25572.32
321.082	25394.91
321.146	25219.62
321.211	25060.09
321.275	24871.2
321.34	24683.4
321.405	24480.22
321.469	24272.78
321.534	24083.22
321.598	23875.38
321.663	23717.07
321.727	23560.28
321.792	23345.14
321.857	23159.52
321.921	22970.69
321.986	22778.61
322.05	22541.6
322.115	22354.53
322.179	22167.44
322.244	21945.64
322.308	21779.53
322.373	21570.66
322.437	21384.31
322.502	21234.05
322.566	21029.25
322.631	20852.84
322.695	20670.42
322.76	20467.04
322.824	20284.28
322.889	20085.92
322.953	19877.59
323.018	19621.63
323.082	19368.56
323.146	19158.25
323.211	18927.75
323.275	18726.16
323.34	18526.74
323.404	18356.77
323.468	18139.71
323.533	17928.87
323.597	17720.43
323.662	17496.23
323.726	17303.07
323.79	17090.59
323.855	16818.77
323.919	16601.89
323.983	16389.2
324.048	16071.27
324.112	16264.77
324.177	15621.59
324.241	14776.93
324.305	13947.57
324.37	13131.96
324.434	12336.53
324.498	12114.96
324.562	11869.11
324.627	11593.19
324.691	11316.3
324.755	11003.66
324.82	10662.29
324.884	10301.8
324.948	9936.15
325.012	9485.68
325.077	8937.12
