Data from 20250626_urea_1M_exp2_MAYP1162681_12-03-58-144.txt Node
Date: Fri Jun 27 12:03:58 BST 2025
User: adleo
Spectrometer: MAYP116268
Trigger mode: 0
Integration Time (sec): 3.000000E0
Scans to average: 1
Electric dark correction enabled: true
Nonlinearity correction enabled: true
Boxcar width: 10
XAxis mode: Wavelengths
Number of Pixels in Spectrum: 2068
>>>>>Begin Spectral Data<<<<<
179.565	3136.45
179.642	3302.93
179.718	3424.15
179.795	3540.77
179.871	3637.21
179.948	3692.38
180.024	3750.52
180.101	3816.16
180.177	3858.18
180.254	3923.99
180.33	3990.82
180.407	4210.67
180.483	4453.09
180.56	4699.33
180.636	4925.95
180.712	4900.94
180.789	4925.22
180.865	4960.83
180.942	4985.29
181.018	5013.5
181.095	5053.37
181.171	5067.6
181.248	5070.38
181.324	5117.68
181.4	5133.11
181.477	5162.87
181.553	5196.14
181.63	5260.6
181.706	5302.05
181.782	5330.88
181.859	5326.9
181.935	5339.89
182.011	5328.01
182.088	5375.41
182.164	5430.51
182.24	5464.48
182.317	5483.16
182.393	5479.09
182.469	5514.65
182.546	5550.41
182.622	5564.22
182.698	5552.9
182.775	5586.94
182.851	5622.27
182.927	5599.5
183.003	5588.24
183.08	5571.12
183.156	5600.13
183.232	5586.31
183.308	5557.26
183.385	5576.39
183.461	5626.87
183.537	5631.67
183.613	5667.2
183.69	5642.65
183.766	5610.88
183.842	5638.89
183.918	5654.52
183.995	5689.85
184.071	5700.89
184.147	5682.19
184.223	5652
184.299	5680.78
184.375	5649.81
184.452	5669.53
184.528	5775.82
184.604	5809.62
184.68	5840.35
184.756	5859.4
184.832	5873.55
184.908	5888.02
184.985	5882.08
185.061	5836.24
185.137	5857.73
185.213	5825.6
185.289	5827.47
185.365	5807.91
185.441	5794.96
185.517	5834.65
185.593	5823.81
185.669	5818.72
185.745	5853.64
185.822	5899.51
185.898	5878.59
185.974	5907.16
186.05	5880.68
186.126	5819.57
186.202	5796.17
186.278	5790.13
186.354	5763.89
186.43	5780.2
186.506	5775.89
186.582	5775.6
186.658	5790.89
186.734	5737.91
186.81	5747.93
186.886	5758.86
186.962	5791.75
187.038	5784.89
187.114	5761.71
187.19	5778.07
187.266	5749.35
187.341	5750.88
187.417	5732.32
187.493	5730.93
187.569	5738.66
187.645	5723.36
187.721	5690.4
187.797	5711.02
187.873	5720.08
187.949	5700.38
188.025	5680.13
188.101	5687.22
188.176	5701.56
188.252	5697.82
188.328	5722.4
188.404	5717.42
188.48	5702.85
188.556	5681.6
188.632	5680.07
188.707	5679.83
188.783	5680.6
188.859	5673.89
188.935	5638.92
189.011	5658.1
189.086	5645.3
189.162	5617.1
189.238	5611.64
189.314	5605.94
189.39	5592.27
189.465	5574.48
189.541	5624.55
189.617	5582.98
189.693	5571.77
189.768	5582.18
189.844	5644.03
189.92	5616.91
189.996	5644.96
190.071	5677.95
190.147	5679.68
190.223	5706.92
190.298	5687.21
190.374	5647.36
190.45	5675.79
190.526	5701.21
190.601	5691.71
190.677	5690.22
190.753	5777.97
190.828	5790.72
190.904	5830.3
190.98	5868.24
191.055	5895.87
191.131	5872.31
191.207	5929.18
191.282	5953.72
191.358	5926.44
191.433	5886.98
191.509	5923.21
191.585	5910.89
191.66	5913.05
191.736	5935.59
191.811	5909.78
191.887	5959.3
191.963	6025.26
192.038	6035.96
192.114	6043.88
192.189	6049.25
192.265	6045.89
192.34	5977.52
192.416	5974.74
192.491	5965.81
192.567	5976.95
192.642	5982.18
192.718	5981.75
192.793	5953.16
192.869	5937.14
192.944	5947.64
193.02	5972.21
193.095	5982.86
193.171	6008.53
193.246	6003.2
193.322	5992.31
193.397	5993.03
193.473	5953.19
193.548	5904.92
193.624	5924.89
193.699	5916.06
193.775	5958.2
193.85	5960.88
193.925	5984.87
194.001	5980.61
194.076	5958.83
194.152	5929.74
194.227	5910.26
194.302	5883.37
194.378	5893.01
194.453	5891.09
194.529	5919.83
194.604	5876.08
194.679	5864.9
194.755	5807.12
194.83	5841.59
194.905	5839.57
194.981	5863.99
195.056	5842.75
195.131	5858
195.207	5845.23
195.282	5814.78
195.357	5762.67
195.433	5803.53
195.508	5768.99
195.583	5797.09
195.659	5835.86
195.734	5853.67
195.809	5853.23
195.884	5879.5
195.96	5876.19
196.035	5922.92
196.11	5916.3
196.185	5954.29
196.261	5955.92
196.336	6035.26
196.411	5990.43
196.486	6001.12
196.561	5983.52
196.637	6013.83
196.712	6059.77
196.787	6071.72
196.862	6122.18
196.937	6143.81
197.013	6163.26
197.088	6193.33
197.163	6243.75
197.238	6286.51
197.313	6286.99
197.388	6325.58
197.464	6406.64
197.539	6444.17
197.614	6417.2
197.689	6446.58
197.764	6486.44
197.839	6545.34
197.914	6535.11
197.989	6605.6
198.065	6642.7
198.14	6783.12
198.215	6852
198.29	6879.87
198.365	6919.93
198.44	6944.67
198.515	7022.24
198.59	7061.59
198.665	7134.53
198.74	7155.92
198.815	7158.66
198.89	7218.18
198.965	7299.76
199.04	7294.23
199.115	7330.26
199.19	7454.19
199.265	7463.56
199.34	7498.65
199.415	7589.98
199.49	7650.87
199.565	7670.1
199.64	7741.78
199.715	7732.82
199.79	7749.94
199.865	7767.2
199.94	7760.48
200.015	7844.82
200.09	7865.65
200.165	7881.71
200.24	7894.41
200.315	8005.87
200.39	8052.19
200.464	8065.7
200.539	8064.36
200.614	8106.34
200.689	8176.67
200.764	8194.14
200.839	8239.03
200.914	8245.72
200.989	8213.38
201.063	8247.1
201.138	8199.96
201.213	8196.93
201.288	8140.85
201.363	8148.25
201.438	8153.4
201.512	8196.81
201.587	8147.21
201.662	8152.84
201.737	8188.68
201.812	8210.91
201.886	8120.32
201.961	8149.19
202.036	8118.43
202.111	8113.66
202.186	8029.98
202.26	7974.99
202.335	7911.34
202.41	7902.35
202.485	7855.86
202.559	7804.27
202.634	7730.94
202.709	7760.44
202.784	7706.3
202.858	7710.86
202.933	7662.98
203.008	7642.06
203.082	7587.79
203.157	7589.47
203.232	7478.53
203.306	7413.7
203.381	7331.01
203.456	7269.39
203.53	7198.18
203.605	7144.54
203.68	7076.13
203.754	7056.64
203.829	7015.74
203.904	6960.11
203.978	6930.98
204.053	6943.29
204.127	6911.58
204.202	6906.01
204.277	6857.21
204.351	6840.73
204.426	6817.95
204.5	6797.88
204.575	6699.65
204.65	6723.53
204.724	6699.74
204.799	6721.96
204.873	6716
204.948	6704.71
205.022	6669.77
205.097	6644.2
205.171	6685.73
205.246	6712.25
205.32	6708.94
205.395	6714.08
205.469	6686.4
205.544	6695.62
205.618	6646.44
205.693	6669.26
205.767	6637.33
205.842	6697.18
205.916	6682.15
205.991	6656.51
206.065	6667.65
206.14	6711.16
206.214	6698.42
206.289	6675.17
206.363	6706.43
206.438	6712.15
206.512	6740.49
206.586	6794.12
206.661	6824.45
206.735	6766.66
206.81	6767.43
206.884	6811.26
206.958	6775.06
207.033	6825.94
207.107	6836.08
207.181	6924.98
207.256	6916.53
207.33	6969.31
207.405	7000.14
207.479	7049.52
207.553	7068.2
207.628	7029.65
207.702	7064.18
207.776	7046.55
207.851	7063.46
207.925	7102.3
207.999	7088.32
208.073	7076.65
208.148	7081.21
208.222	7040.41
208.296	7124.68
208.371	7166.52
208.445	7197.57
208.519	7277.37
208.593	7312.12
208.668	7306.78
208.742	7312.07
208.816	7316.83
208.89	7350.2
208.965	7346.11
209.039	7369.14
209.113	7414.85
209.187	7473.87
209.261	7463.44
209.336	7522.13
209.41	7571.94
209.484	7575.69
209.558	7644.2
209.632	7682.46
209.707	7714.62
209.781	7778.99
209.855	7826.47
209.929	7875.51
210.003	7894.7
210.077	7891.53
210.151	8023.32
210.226	8123.93
210.3	8196.14
210.374	8262.92
210.448	8272.74
210.522	8301.85
210.596	8327.63
210.67	8353.37
210.744	8482.96
210.818	8570.97
210.892	8625.35
210.966	8611.73
211.041	8653.55
211.115	8644.31
211.189	8708.21
211.263	8755.84
211.337	8773.31
211.411	8803.87
211.485	8784.95
211.559	8816.18
211.633	8815.65
211.707	8724.88
211.781	8750.31
211.855	8655.98
211.929	8631.25
212.003	8587.11
212.077	8608.44
212.151	8647.28
212.225	8674.57
212.299	8639.99
212.373	8610.11
212.447	8593.74
212.52	8672.82
212.594	8675.9
212.668	8705.88
212.742	8669.92
212.816	8652.89
212.89	8635.28
212.964	8630.08
213.038	8634.79
213.112	8668.11
213.186	8714.78
213.26	8654.33
213.333	8513.29
213.407	8520.84
213.481	8527.67
213.555	8552.77
213.629	8521.96
213.703	8466.76
213.777	8457.95
213.85	8395.14
213.924	8477.12
213.998	8476.74
214.072	8449.1
214.146	8407.09
214.219	8393.18
214.293	8376.83
214.367	8377.31
214.441	8403.05
214.515	8364.17
214.588	8297.82
214.662	8186.74
214.736	8115.13
214.81	8129.54
214.883	8152.13
214.957	8111.22
215.031	8063.83
215.105	7993.92
215.178	7941.01
215.252	7910.28
215.326	7832.13
215.4	7766.29
215.473	7619.8
215.547	7551.83
215.621	7494.72
215.694	7498.43
215.768	7419.67
215.842	7364.35
215.915	7306.1
215.989	7211.04
216.063	7166.28
216.136	7146.38
216.21	7133.93
216.284	7144.6
216.357	7125.14
216.431	7090.64
216.504	7092.75
216.578	7140.97
216.652	7148.84
216.725	7129.95
216.799	7138.51
216.873	7119.97
216.946	7127.12
217.02	7097.26
217.093	7068.72
217.167	6999.2
217.24	6929.27
217.314	6898.59
217.387	6859.76
217.461	6824.73
217.535	6841.16
217.608	6793.18
217.682	6774.06
217.755	6781.26
217.829	6740.95
217.902	6724.19
217.976	6706.47
218.049	6666.8
218.123	6600
218.196	6599.13
218.27	6569.6
218.343	6510.45
218.417	6509.88
218.49	6489.33
218.563	6527.35
218.637	6532.59
218.71	6589.32
218.784	6606.61
218.857	6635.61
218.931	6658.26
219.004	6661.24
219.077	6677.91
219.151	6689.67
219.224	6682.42
219.298	6681.8
219.371	6711.49
219.444	6679.33
219.518	6688.45
219.591	6700.21
219.665	6789.28
219.738	6800.04
219.811	6788.28
219.885	6824.35
219.958	6845.4
220.031	6849.38
220.105	6862.74
220.178	6869.99
220.251	6849.13
220.325	6874.85
220.398	6881.23
220.471	6896.26
220.544	6918.41
220.618	6897.27
220.691	6927.48
220.764	6943.71
220.838	6961.59
220.911	6954.24
220.984	7026.52
221.057	7058.56
221.131	7075.76
221.204	6992.45
221.277	7049.54
221.35	7153.25
221.424	7150.36
221.497	7164.21
221.57	7187.88
221.643	7218.36
221.716	7256.14
221.79	7259.5
221.863	7267.92
221.936	7275.56
222.009	7289.3
222.082	7320.35
222.155	7329.05
222.229	7377.56
222.302	7404.14
222.375	7410.24
222.448	7444.76
222.521	7448.46
222.594	7447.93
222.667	7432.27
222.74	7479.27
222.814	7472.49
222.887	7453.06
222.96	7496.18
223.033	7532.01
223.106	7553.53
223.179	7575.04
223.252	7579.22
223.325	7604.21
223.398	7609.07
223.471	7636.42
223.544	7650.12
223.617	7658.34
223.69	7676.75
223.763	7641.93
223.837	7655.35
223.91	7682.32
223.983	7637.38
224.056	7604.7
224.129	7623.64
224.202	7668.85
224.275	7660.97
224.348	7636.98
224.42	7615.73
224.493	7568.04
224.566	7543.32
224.639	7558.65
224.712	7532.97
224.785	7526.18
224.858	7518.3
224.931	7504.26
225.004	7469.99
225.077	7473.6
225.15	7398.73
225.223	7404.36
225.296	7473.15
225.369	7417.4
225.442	7388.65
225.514	7399.17
225.587	7418.68
225.66	7417.38
225.733	7414.01
225.806	7420.75
225.879	7413.1
225.952	7380.86
226.025	7418.64
226.097	7458.81
226.17	7450.64
226.243	7401.38
226.316	7397.58
226.389	7399.55
226.461	7416.24
226.534	7434.54
226.607	7422.34
226.68	7493.64
226.753	7485.52
226.825	7418.84
226.898	7469.2
226.971	7465.89
227.044	7488.04
227.117	7497.56
227.189	7509.82
227.262	7545.36
227.335	7557.72
227.407	7557.91
227.48	7591.17
227.553	7600.74
227.626	7583.27
227.698	7593.18
227.771	7624.98
227.844	7612.05
227.916	7623.93
227.989	7601.86
228.062	7602.43
228.134	7676.4
228.207	7677.17
228.28	7670.83
228.352	7677.61
228.425	7689.1
228.498	7728.15
228.57	7713.97
228.643	7758.75
228.716	7764.23
228.788	7749.51
228.861	7746.05
228.934	7792.54
229.006	7796.91
229.079	7799.7
229.151	7791.33
229.224	7758.31
229.296	7776.97
229.369	7856.16
229.442	7900.37
229.514	7882.35
229.587	7917.98
229.659	7851.12
229.732	7860.93
229.804	7892.62
229.877	7958.05
229.949	7981.05
230.022	8027.01
230.094	8030.23
230.167	8020.65
230.239	7983.15
230.312	7973.34
230.384	8028.39
230.457	8020.06
230.529	8029.54
230.602	8026.46
230.674	8036.03
230.747	8069.1
230.819	8091.32
230.892	7997.38
230.964	7996.32
231.037	8021.5
231.109	8018.86
231.181	8056.32
231.254	8030.59
231.326	8012.84
231.399	7998.16
231.471	7977.52
231.544	7910.98
231.616	7943.96
231.688	7951.47
231.761	7945.6
231.833	7940.6
231.905	7868.44
231.978	7879.02
232.05	7859.65
232.122	7863.98
232.195	7840.8
232.267	7868.07
232.339	7851.09
232.412	7902.39
232.484	7873.52
232.556	7847.95
232.629	7898.48
232.701	7910.17
232.773	7916.09
232.846	7909.88
232.918	7916.24
232.99	7928.22
233.062	7963.28
233.135	7973.38
233.207	7939.18
233.279	7978.32
233.351	8003.66
233.424	8011.79
233.496	7988.12
233.568	8057.3
233.64	8026.37
233.713	8046.09
233.785	8047.63
233.857	8056.96
233.929	8013.54
234.001	8079.05
234.074	8137.8
234.146	8077.94
234.218	8074.19
234.29	8070.34
234.362	8061.35
234.434	8014.49
234.507	7989.24
234.579	7944.51
234.651	7926.13
234.723	7952.73
234.795	7964.42
234.867	7956.19
234.939	7996.5
235.012	8013.48
235.084	8014.87
235.156	8046.81
235.228	8027.9
235.3	8011.55
235.372	8024.11
235.444	8077
235.516	8006.93
235.588	8005.39
235.66	8019
235.732	8001.01
235.804	8164.85
235.876	8200.48
235.948	8257.98
236.02	8264.52
236.092	8280.2
236.164	8293.72
236.236	8294.15
236.308	8292.08
236.38	8315.46
236.452	8305.07
236.524	8318.3
236.596	8370.11
236.668	8401.24
236.74	8419.57
236.812	8445.54
236.884	8471.15
236.956	8481.35
237.028	8472.93
237.1	8455.67
237.172	8516.12
237.244	8576.08
237.316	8473.77
237.388	8463.57
237.46	8437.82
237.532	8488.97
237.604	8476.04
237.675	8540.63
237.747	8577.26
237.819	8563.21
237.891	8574.81
237.963	8562.25
238.035	8556.67
238.107	8469.44
238.178	8518.22
238.25	8525.82
238.322	8600.55
238.394	8566.96
238.466	8555.46
238.538	8595.67
238.609	8636.18
238.681	8587.81
238.753	8566.34
238.825	8591.23
238.897	8621.87
238.968	8691.45
239.04	8669.93
239.112	8769.64
239.184	8730.55
239.255	8723.91
239.327	8756.29
239.399	8765.53
239.471	8811.63
239.542	8849.26
239.614	8898.54
239.686	8833.5
239.758	8877.1
239.829	8840.74
239.901	8892.43
239.973	8917.31
240.044	8947.11
240.116	8958.37
240.188	8970.21
240.259	8984.22
240.331	8970.3
240.403	8998.8
240.474	8961.19
240.546	8958.73
240.618	8906.78
240.689	8907.03
240.761	8924.65
240.833	8976.98
240.904	8977.31
240.976	8973.18
241.048	8979.82
241.119	9012.32
241.191	9043.13
241.262	9095.34
241.334	9098.56
241.405	9101.36
241.477	9099.48
241.549	9096.73
241.62	9112.19
241.692	9147.81
241.763	9192.6
241.835	9209.79
241.906	9219.85
241.978	9188.8
242.049	9243.49
242.121	9290.62
242.192	9347
242.264	9325.58
242.335	9293.17
242.407	9327.65
242.478	9330.73
242.55	9350.28
242.621	9342.19
242.693	9344.11
242.764	9333.66
242.836	9332.98
242.907	9360.82
242.979	9386.82
243.05	9406.95
243.122	9430.54
243.193	9431.84
243.264	9376.28
243.336	9380.71
243.407	9403.92
243.479	9474.56
243.55	9486.64
243.622	9498.59
243.693	9497.77
243.764	9546.64
243.836	9522.67
243.907	9515.02
243.978	9517.42
244.05	9536.16
244.121	9495.09
244.192	9527.02
244.264	9489.16
244.335	9504.91
244.407	9452.86
244.478	9469.67
244.549	9463.69
244.62	9426.71
244.692	9426.52
244.763	9464.46
244.834	9449.77
244.906	9431.09
244.977	9445.49
245.048	9493.86
245.119	9479.7
245.191	9452.73
245.262	9404.19
245.333	9466.11
245.405	9480.31
245.476	9511.37
245.547	9526.69
245.618	9573.73
245.689	9585.87
245.761	9611.68
245.832	9614.57
245.903	9664.02
245.974	9680.74
246.045	9690.37
246.117	9765.02
246.188	9750.82
246.259	9730.4
246.33	9749.28
246.401	9761.42
246.473	9726.88
246.544	9711.65
246.615	9756.98
246.686	9767.86
246.757	9823.48
246.828	9804.75
246.899	9859.19
246.97	9828.61
247.042	9819.51
247.113	9847.16
247.184	9916.3
247.255	9915.2
247.326	9935.86
247.397	9933.11
247.468	9943.38
247.539	9957.78
247.61	9918.28
247.681	9953.24
247.752	10006.17
247.823	9986.04
247.894	10001.64
247.965	9987.58
248.037	9971.68
248.108	9927.08
248.179	9924.96
248.25	9922.41
248.321	9942.63
248.392	9908.18
248.463	9981.25
248.534	9974.02
248.605	9993.49
248.675	9967.51
248.746	9990.97
248.817	10007.74
248.888	10027.1
248.959	9982.35
249.03	10000.08
249.101	10007.55
249.172	9996.33
249.243	9934.59
249.314	9990.36
249.385	10000.62
249.456	10026.05
249.527	10020.27
249.598	10038.48
249.669	10039.39
249.739	10049.46
249.81	10062.13
249.881	10027.69
249.952	10015.79
250.023	10015.79
250.094	9970.17
250.165	9947.13
250.235	9932.54
250.306	9938.03
250.377	9913.17
250.448	9937.88
250.519	9883.6
250.59	9920.84
250.66	9919.49
250.731	9979.54
250.802	9980.12
250.873	9991.78
250.944	10002.96
251.014	9995.06
251.085	10072.3
251.156	10100.09
251.227	10141.33
251.297	10189.51
251.368	10228.09
251.439	10269.63
251.51	10313.71
251.58	10305.09
251.651	10298.73
251.722	10355.25
251.792	10313.43
251.863	10322.06
251.934	10363.87
252.005	10461.04
252.075	10476.56
252.146	10512.3
252.217	10549.35
252.287	10585.64
252.358	10590.4
252.429	10652.8
252.499	10650.44
252.57	10655.46
252.641	10695.25
252.711	10706.19
252.782	10665
252.852	10726.24
252.923	10712.85
252.994	10728.41
253.064	10766.76
253.135	10751.82
253.205	10726.96
253.276	10785.06
253.347	10830.83
253.417	10809.19
253.488	10792.66
253.558	10780.76
253.629	10781.53
253.699	10792.62
253.77	10809.1
253.841	10800.67
253.911	10812.48
253.982	10830.59
254.052	10854.83
254.123	10859.32
254.193	10854.4
254.264	10968.96
254.334	10944.67
254.405	10919.9
254.475	10888.77
254.546	10903.47
254.616	10960.18
254.687	10986.49
254.757	11009.72
254.827	11011.41
254.898	11041.76
254.968	11049.42
255.039	11037.52
255.109	11068.17
255.18	11049.37
255.25	10991.35
255.321	11020.6
255.391	10983.49
255.461	11053.03
255.532	10983.05
255.602	10974.57
255.673	10929.32
255.743	10902.14
255.813	10839.56
255.884	10887.21
255.954	10920.46
256.024	10962.53
256.095	10963.11
256.165	10934.92
256.235	10955.45
256.306	10941.82
256.376	10977.92
256.446	11008.91
256.517	11033.24
256.587	11068.57
256.657	11084.61
256.728	11102.3
256.798	11108.99
256.868	11112.66
256.938	11089.67
257.009	11137.28
257.079	11168.07
257.149	11255.69
257.219	11201.9
257.29	11233.02
257.36	11185.7
257.43	11214.23
257.5	11165.46
257.571	11156.16
257.641	11186.71
257.711	11151.19
257.781	11180.34
257.852	11191.72
257.922	11139.67
257.992	11144.39
258.062	11140.73
258.132	11172.3
258.202	11178.03
258.273	11187.62
258.343	11248.5
258.413	11234.09
258.483	11229.6
258.553	11200.64
258.623	11177.07
258.693	11199.72
258.764	11262.99
258.834	11315.71
258.904	11322.08
258.974	11313.55
259.044	11320.39
259.114	11341.84
259.184	11364.78
259.254	11371.38
259.324	11327.91
259.394	11363.62
259.464	11428.06
259.535	11433.84
259.605	11428.54
259.675	11421.6
259.745	11450.04
259.815	11428.83
259.885	11434.61
259.955	11536.42
260.025	11524.23
260.095	11526.59
260.165	11552.67
260.235	11597.35
260.305	11591.47
260.375	11569.68
260.445	11649.39
260.515	11707.14
260.585	11744.49
260.655	11752.93
260.725	11784.93
260.795	11811.29
260.865	11877.33
260.934	11847.44
261.004	11870.97
261.074	11870.34
261.144	11916.94
261.214	11950.3
261.284	11943.5
261.354	11978.25
261.424	11934.67
261.494	11996.02
261.564	12005.08
261.634	12028.85
261.703	11975.83
261.773	11995.39
261.843	12030.34
261.913	12023.69
261.983	11973.17
262.053	11989.56
262.123	11984.65
262.192	11950.67
262.262	11986.72
262.332	11937.36
262.402	11965.9
262.472	11976.41
262.541	11928.36
262.611	11968.51
262.681	11947.35
262.751	11983.31
262.821	11984.27
262.89	11956.17
262.96	11976.94
263.03	12045.97
263.1	12060.53
263.169	12075.86
263.239	12097.59
263.309	12146.72
263.379	12169.76
263.448	12195.93
263.518	12215.4
263.588	12231.21
263.657	12293.15
263.727	12329.3
263.797	12347.14
263.867	12337.64
263.936	12299.37
264.006	12351.23
264.076	12341.68
264.145	12339.13
264.215	12320.57
264.285	12354.45
264.354	12317.44
264.424	12311.99
264.494	12265.86
264.563	12255.88
264.633	12321.97
264.702	12340.19
264.772	12294.59
264.842	12289.14
264.911	12314.49
264.981	12279.4
265.05	12286.97
265.12	12281.62
265.19	12290.73
265.259	12329.77
265.329	12360.72
265.398	12384.29
265.468	12463.1
265.537	12463.68
265.607	12491.4
265.676	12541.58
265.746	12557.83
265.815	12608.68
265.885	12609.69
265.955	12600
266.024	12602.27
266.094	12549.24
266.163	12606.08
266.232	12663.88
266.302	12671.68
266.371	12690.1
266.441	12706.44
266.51	12746.55
266.58	12751.13
266.649	12738.59
266.719	12773.49
266.788	12807.77
266.858	12862.92
266.927	12811.19
266.996	12833.12
267.066	12858.19
267.135	12830.57
267.205	12860.89
267.274	12879.59
267.343	12925.2
267.413	12944.91
267.482	12995.77
267.552	13048.94
267.621	13000.49
267.69	12954.55
267.76	12971.62
267.829	12986.32
267.898	13002.37
267.968	12994.8
268.037	13028.64
268.106	13064.75
268.176	13040.26
268.245	13039.39
268.314	13045.13
268.384	13095.26
268.453	13116.43
268.522	13131.56
268.592	13177.46
268.661	13163.19
268.73	13185.02
268.799	13178.13
268.869	13236.99
268.938	13202.57
269.007	13199.2
269.076	13227.2
269.146	13275.27
269.215	13311.23
269.284	13372.11
269.353	13372.55
269.422	13375.63
269.492	13370.23
269.561	13308
269.63	13331.47
269.699	13334.95
269.768	13344.15
269.838	13364.16
269.907	13397.86
269.976	13379.68
270.045	13342.37
270.114	13378.62
270.183	13385.37
270.253	13415.84
270.322	13378.14
270.391	13399.45
270.46	13451.7
270.529	13488.72
270.598	13531.1
270.667	13529.07
270.736	13505.55
270.806	13529.51
270.875	13572.6
270.944	13582.34
271.013	13689.21
271.082	13714.62
271.151	13742.19
271.22	13714.76
271.289	13718.33
271.358	13723.83
271.427	13754.97
271.496	13781.14
271.565	13777.09
271.634	13796.67
271.703	13888.25
271.772	13937.91
271.841	13952.22
271.91	13926.68
271.979	13941.14
272.048	13908.55
272.117	13950.49
272.186	13951.45
272.255	13997.2
272.324	14035.91
272.393	14066.47
272.462	14055.82
272.531	14071
272.6	14075.63
272.669	14139.65
272.738	14146.88
272.807	14171.8
272.876	14162.16
272.945	14274.38
273.013	14325.14
273.082	14377.2
273.151	14305.82
273.22	14336.09
273.289	14344.48
273.358	14408.78
273.427	14413.22
273.496	14460.27
273.564	14482.44
273.633	14529.05
273.702	14519.36
273.771	14522.74
273.84	14547.61
273.909	14581.89
273.977	14618.86
274.046	14629.17
274.115	14674.97
274.184	14679.79
274.253	14692.47
274.322	14744.91
274.39	14694.64
274.459	14691.41
274.528	14649.81
274.597	14670.87
274.665	14697.53
274.734	14761.69
274.803	14770.8
274.872	14784.49
274.94	14781.21
275.009	14890.58
275.078	14888.12
275.147	14913.09
275.215	14937.96
275.284	14996.53
275.353	15005.78
275.421	14969.87
275.49	15053.02
275.559	15058.42
275.627	15078.81
275.696	15095.24
275.765	15132.17
275.833	15143.01
275.902	15179.6
275.971	15252.68
276.039	15321.41
276.108	15368.7
276.177	15396.27
276.245	15400.32
276.314	15425.24
276.383	15473.97
276.451	15421.2
276.52	15464.29
276.588	15529.02
276.657	15575.58
276.725	15579.1
276.794	15609.13
276.863	15683.36
276.931	15654.49
277	15701.92
277.068	15763.96
277.137	15842.47
277.205	15872.84
277.274	15956.8
277.342	16014.59
277.411	15998.83
277.48	15998.73
277.548	16007.41
277.617	16044.38
277.685	16067.03
277.754	16123.67
277.822	16135.14
277.89	16194.13
277.959	16211.82
278.027	16198.66
278.096	16204.06
278.164	16309.17
278.233	16327.1
278.301	16332.11
278.37	16374.14
278.438	16370.82
278.507	16406.72
278.575	16376.41
278.643	16400.94
278.712	16386.34
278.78	16381.47
278.849	16442.3
278.917	16510.01
278.985	16526.01
279.054	16559.12
279.122	16626.79
279.191	16653.73
279.259	16683.08
279.327	16661.3
279.396	16736.05
279.464	16769.45
279.532	16830.32
279.601	16841.45
279.669	16861.55
279.737	16934.76
279.806	16983.63
279.874	17047.68
279.942	17082.23
280.011	17104.45
280.079	17161.08
280.147	17236.7
280.215	17294.39
280.284	17312.99
280.352	17315.35
280.42	17363.45
280.488	17384.84
280.557	17401.71
280.625	17442.82
280.693	17480.99
280.761	17534.58
280.83	17528.17
280.898	17593.86
280.966	17564.7
281.034	17518.1
281.102	17522.87
281.171	17532.51
281.239	17590.05
281.307	17599.88
281.375	17595.93
281.443	17708.94
281.512	17731.01
281.58	17790.67
281.648	17772.45
281.716	17810.57
281.784	17844.74
281.852	17871.2
281.92	17900.84
281.989	17959.15
282.057	17950.71
282.125	18086.8
282.193	18112.25
282.261	18145.6
282.329	18161.16
282.397	18213.55
282.465	18257.98
282.533	18331.04
282.601	18333.98
282.67	18297.11
282.738	18307.28
282.806	18376.53
282.874	18370.36
282.942	18409.78
283.01	18425.49
283.078	18488.19
283.146	18521.54
283.214	18579.94
283.282	18626.5
283.35	18695.36
283.418	18717.43
283.486	18763.21
283.554	18702.59
283.622	18736.75
283.69	18772.13
283.758	18792.7
283.826	18842.53
283.894	18909.8
283.962	19000.31
284.03	19092.4
284.098	19144.49
284.165	19183.43
284.233	19221.3
284.301	19240.68
284.369	19253.69
284.437	19268.14
284.505	19283.66
284.573	19358.89
284.641	19362.21
284.709	19406.64
284.777	19387.03
284.845	19443.17
284.912	19500.42
284.98	19551.17
285.048	19572.71
285.116	19620.66
285.184	19705.28
285.252	19750.77
285.319	19739.45
285.387	19750.68
285.455	19738.15
285.523	19792.79
285.591	19814.29
285.659	19857.08
285.726	19928.5
285.794	19929.85
285.862	19964.21
285.93	20004.5
285.997	20030.14
286.065	20053.27
286.133	20067.15
286.201	20103.24
286.269	20101.07
286.336	20110.76
286.404	20131.24
286.472	20197.36
286.539	20179.39
286.607	20159.87
286.675	20192.06
286.743	20256.97
286.81	20269.31
286.878	20339.48
286.946	20357.75
287.013	20393.65
287.081	20423.87
287.149	20416.88
287.216	20511.96
287.284	20528.54
287.352	20561.55
287.419	20584.78
287.487	20662.33
287.555	20707.87
287.622	20736.84
287.69	20789.95
287.758	20866.39
287.825	20885.57
287.893	20885.86
287.96	20944.03
288.028	21011.93
288.096	21050.73
288.163	21096.28
288.231	21108.96
288.298	21142.74
288.366	21213.07
288.433	21245.4
288.501	21262.9
288.569	21311.53
288.636	21333.08
288.704	21403.93
288.771	21467.84
288.839	21480.85
288.906	21497.15
288.974	21560.63
289.041	21596.2
289.109	21609.7
289.176	21660.36
289.244	21722.2
289.311	21795.18
289.379	21858.04
289.446	21903.01
289.514	21943.12
289.581	21971.32
289.649	22023.18
289.716	22064.06
289.783	22071.97
289.851	22164.61
289.918	22194.26
289.986	22254.04
290.053	22287.83
290.121	22323.94
290.188	22355.61
290.255	22467.65
290.323	22486.99
290.39	22508.39
290.458	22562.67
290.525	22630.26
290.592	22644.58
290.66	22684.5
290.727	22696.84
290.794	22770.47
290.862	22803.11
290.929	22845.49
290.996	22883
291.064	22944.43
291.131	23007.55
291.198	23083.06
291.266	23108.56
291.333	23159.04
291.4	23212.91
291.468	23297.93
291.535	23320.69
291.602	23379.95
291.669	23391.19
291.737	23449.29
291.804	23479.43
291.871	23557.65
291.938	23611.81
292.006	23722.75
292.073	23775.9
292.14	23841.72
292.207	23845
292.275	23882.81
292.342	23948.51
292.409	24053.27
292.476	24146.28
292.543	24155.69
292.611	24188.92
292.678	24271.26
292.745	24364.79
292.812	24419.64
292.879	24437.3
292.946	24469.66
293.014	24526.15
293.081	24587.47
293.148	24655.87
293.215	24727.94
293.282	24752.02
293.349	24809.53
293.416	24794.09
293.484	24871.05
293.551	24939.32
293.618	25031.04
293.685	25139.03
293.752	25153.36
293.819	25191.3
293.886	25190.43
293.953	25254.07
294.02	25321.73
294.087	25386.07
294.154	25402.67
294.221	25483.19
294.288	25530.82
294.356	25630.85
294.423	25681.92
294.49	25687.81
294.557	25761.85
294.624	25777.87
294.691	25859.54
294.758	25903.03
294.825	25954.77
294.892	25969.11
294.959	25997.11
295.026	26053.55
295.093	26067.79
295.16	26112.82
295.226	26144.44
295.293	26254.59
295.36	26306.92
295.427	26375.25
295.494	26434.75
295.561	26509.68
295.628	26607.43
295.695	26690.68
295.762	26746.61
295.829	26817.89
295.896	26922.04
295.963	26977.59
296.03	27065.18
296.096	27123.48
296.163	27189.17
296.23	27274.57
296.297	27353.09
296.364	27399.21
296.431	27443.65
296.498	27483.01
296.564	27584.39
296.631	27632.31
296.698	27633.28
296.765	27725.12
296.832	27741.74
296.899	27749.23
296.965	27838.62
297.032	27808.94
297.099	27890.77
297.166	27941.99
297.233	27976.45
297.299	27989.11
297.366	28027.63
297.433	28061.01
297.5	28120.03
297.566	28169.13
297.633	28214.33
297.7	28266.28
297.767	28306.87
297.833	28371.01
297.9	28407.3
297.967	28402.71
298.033	28477.54
298.1	28605.48
298.167	28616.94
298.234	28674.41
298.3	28733.77
298.367	28754.7
298.434	28816.16
298.5	28826.65
298.567	28856.82
298.634	28887.03
298.7	28977.34
298.767	29022.74
298.834	29105.48
298.9	29132.99
298.967	29138.12
299.033	29192.14
299.1	29269.48
299.167	29349.88
299.233	29368.7
299.3	29450.27
299.366	29543.01
299.433	29616.01
299.5	29565.07
299.566	29624.7
299.633	29700.84
299.699	29758.94
299.766	29787.18
299.832	29851.88
299.899	29916.37
299.965	29988.98
300.032	30018.77
300.099	30078.68
300.165	30133.06
300.232	30162.23
300.298	30213.57
300.365	30300.02
300.431	30350.83
300.498	30370.24
300.564	30421.63
300.631	30493.68
300.697	30569.62
300.763	30607.12
300.83	30636.55
300.896	30725.3
300.963	30789.67
301.029	30838.46
301.096	30894.23
301.162	30957.96
301.229	30986.91
301.295	31001.1
301.361	31040.35
301.428	31103.94
301.494	31087.53
301.561	31128.73
301.627	31177.18
301.693	31220.41
301.76	31264.03
301.826	31283.69
301.892	31356.37
301.959	31416.36
302.025	31441.2
302.092	31467.6
302.158	31525.89
302.224	31571.42
302.291	31574.71
302.357	31595.72
302.423	31619.12
302.49	31639.36
302.556	31724.07
302.622	31751.68
302.688	31817.64
302.755	31895.97
302.821	31948.17
302.887	32033.78
302.954	32089
303.02	32142.23
303.086	32201.22
303.152	32232.9
303.219	32265.84
303.285	32317.25
303.351	32368.9
303.417	32417.48
303.483	32435.84
303.55	32458.46
303.616	32490.83
303.682	32540.42
303.748	32567.25
303.815	32643.43
303.881	32719.01
303.947	32710.15
304.013	32756.9
304.079	32775.22
304.145	32754.48
304.212	32786.45
304.278	32787.47
304.344	32809.71
304.41	32811.55
304.476	32814.65
304.542	32843.77
304.608	32904.25
304.674	32886.12
304.741	32912.25
304.807	32961.83
304.873	33009.61
304.939	33081.72
305.005	33076.88
305.071	33102.99
305.137	33143.84
305.203	33107.88
305.269	33129.21
305.335	33203.42
305.401	33231.78
305.467	33257.22
305.533	33331.67
305.599	33378.64
305.666	33449.59
305.732	33485.7
305.798	33562.1
305.864	33674.77
305.93	33730.42
305.996	33751.07
306.062	33797.32
306.128	33818.55
306.194	33813.8
306.259	33848.03
306.325	33857.77
306.391	33924.53
306.457	33980.95
306.523	34030.01
306.589	34137.07
306.655	34161.12
306.721	34137.16
306.787	34134.98
306.853	34203.93
306.919	34183.67
306.985	34210.87
307.051	34220.37
307.117	34236.37
307.183	34250.63
307.248	34197.13
307.314	34236.32
307.38	34271.82
307.446	34328.66
307.512	34341.12
307.578	34398.09
307.644	34416.86
307.709	34458.66
307.775	34474.28
307.841	34502.02
307.907	34523.02
307.973	34498.09
308.039	34504.24
308.104	34562.78
308.17	34602.54
308.236	34602.88
308.302	34651.37
308.368	34643.66
308.433	34680.56
308.499	34696.23
308.565	34695.45
308.631	34726.87
308.696	34700.73
308.762	34698.6
308.828	34702.72
308.894	34682.84
308.959	34658.16
309.025	34666.5
309.091	34683.57
309.156	34700.55
309.222	34744.02
309.288	34751.83
309.354	34733.93
309.419	34786.51
309.485	34768.08
309.551	34810.53
309.616	34800.29
309.682	34821.63
309.748	34844.38
309.813	34863.69
309.879	34878.53
309.945	34882.84
310.01	34917.04
310.076	34950.17
310.141	34970.98
310.207	34966.81
310.273	35004.15
310.338	35047.75
310.404	35035.28
310.469	35033.29
310.535	35038.34
310.601	34995.02
310.666	35040.48
310.732	35095.73
310.797	35084.23
310.863	35093.68
310.928	35108.09
310.994	35150.98
311.059	35171.64
311.125	35197.06
311.191	35244.32
311.256	35238.31
311.322	35282.74
311.387	35254.61
311.453	36062.29
311.518	36058.65
311.584	36085.87
311.649	36129.04
311.715	36131.18
311.78	36169.64
311.846	36175.9
311.911	36222
311.976	36264.39
312.042	36253.23
312.107	36242.32
312.173	36249.64
312.238	36265.99
312.304	36276.04
312.369	36284.38
312.434	36270.12
312.5	36285.84
312.565	36229.89
312.631	36283.55
312.696	36287.57
312.761	36334.58
312.827	35566.2
312.892	35677.34
312.958	35705.05
313.023	35725.09
313.088	35755.95
313.154	35753.13
313.219	35746.78
313.284	35755.66
313.35	35788.85
313.415	35791.86
313.48	35800.2
313.546	35838.25
313.611	35897.79
313.676	35896.28
313.741	35907.01
313.807	35961.75
313.872	35993.29
313.937	36044.91
314.003	36091.31
314.068	36127.76
314.133	36169.64
314.198	36161.44
314.264	36121.92
314.329	36117.02
314.394	36137.75
314.459	36143.18
314.525	36213.84
314.59	36231.16
314.655	36214.56
314.72	36234.7
314.785	36256.83
314.851	36268.13
314.916	36248.19
314.981	36234.55
315.046	36249.74
315.111	36242.17
315.176	36243.19
315.242	36267.17
315.307	36287.5
315.372	36258.48
315.437	36256.73
315.502	36249.21
315.567	36311.62
315.632	36295.27
315.698	36322.4
315.763	36333.37
315.828	36339.19
315.893	36338.71
315.958	36366.08
316.023	36360.69
316.088	36340.06
316.153	36305.61
316.218	36315.32
316.283	36271.46
316.348	36232.15
316.413	36228.17
316.479	36199.11
316.544	36101.83
316.609	36020.31
316.674	35913.72
316.739	35827.85
316.804	35727.13
316.869	35621.81
316.934	35512.96
316.999	35417.06
317.064	35267.65
317.129	35132
317.194	35013.6
317.259	34868.51
317.324	34699.99
317.389	34568.85
317.454	34441.67
317.518	34330.49
317.583	34221.6
317.648	34131.66
317.713	34007.68
317.778	33818.05
317.843	33704.7
317.908	33579.27
317.973	33454.64
318.038	33357.36
318.103	33223.95
318.168	33106.09
318.233	32983.48
318.297	32802.2
318.362	32671.43
318.427	32540.78
318.492	32433.79
318.557	32272.37
318.622	32154.45
318.687	32050.68
318.751	31886.88
318.816	31742.44
318.881	31593.98
318.946	31406.06
319.011	31228.28
319.075	31056.29
319.14	30916.81
319.205	30747.82
319.27	30601.49
319.335	30420.41
319.399	30240.53
319.464	30108.15
319.529	29898.32
319.594	29731.71
319.658	29591.64
319.723	29410.36
319.788	29252.62
319.853	29035.61
319.917	28886.91
319.982	28682.28
320.047	28519.54
320.112	28384.31
320.176	28180.14
320.241	28015.04
320.306	27860.5
320.37	27700.91
320.435	27543.6
320.5	27385.91
320.564	27208.91
320.629	27016.94
320.694	26858.58
320.758	26677.25
320.823	26475.77
320.888	26346.1
320.952	26139.24
321.017	25946.23
321.082	25766.19
321.146	25599.42
321.211	25431.85
321.275	25243.37
321.34	25043.62
321.405	24844.18
321.469	24645.69
321.534	24456.01
321.598	24244.96
321.663	24089.89
321.727	23912.23
321.792	23718.29
321.857	23526.19
321.921	23341.96
321.986	23160.86
322.05	22928.35
322.115	22753.61
322.179	22553.77
322.244	22308.14
322.308	22142.88
322.373	21940.27
322.437	21745.96
322.502	21589.27
322.566	21390.63
322.631	21209.93
322.695	21023.41
322.76	20822.42
322.824	20641.01
322.889	20441.97
322.953	20242.02
323.018	19967.92
323.082	19716.64
323.146	19487.1
323.211	19252.98
323.275	19035.87
323.34	18823.92
323.404	18651.88
323.468	18431.16
323.533	18229.91
323.597	18034.92
323.662	17804.07
323.726	17623.88
323.79	17409.9
323.855	17145.94
323.919	16923.14
323.983	16714.26
324.048	16398.27
324.112	16514.5
324.177	15862.49
324.241	14998.94
324.305	14148.09
324.37	13322.21
324.434	12509.67
324.498	12285.94
324.562	12041.11
324.627	11760.97
324.691	11480.81
324.755	11149.74
324.82	10795.18
324.884	10411.51
324.948	10021.61
325.012	9559.05
325.077	8975.11
