Data from 20250626_urea_1M_exp2_MAYP1162681_21-23-59-413.txt Node
Date: Thu Jun 26 21:23:59 BST 2025
User: adleo
Spectrometer: MAYP116268
Trigger mode: 0
Integration Time (sec): 3.000000E0
Scans to average: 1
Electric dark correction enabled: true
Nonlinearity correction enabled: true
Boxcar width: 10
XAxis mode: Wavelengths
Number of Pixels in Spectrum: 2068
>>>>>Begin Spectral Data<<<<<
179.565	2963.72
179.642	3127.22
179.718	3245.46
179.795	3359.59
179.871	3446.5
179.948	3498.13
180.024	3562.06
180.101	3622.12
180.177	3657.83
180.254	3716.55
180.33	3778.97
180.407	3984.19
180.483	4216.84
180.56	4447.6
180.636	4662.26
180.712	4632.57
180.789	4654.11
180.865	4691.09
180.942	4716.98
181.018	4747.33
181.095	4790.58
181.171	4806.57
181.248	4802.11
181.324	4840.34
181.4	4855.28
181.477	4881.76
181.553	4916.6
181.63	4966.66
181.706	5007.47
181.782	5035.37
181.859	5043.03
181.935	5054.62
182.011	5050.17
182.088	5096.73
182.164	5148.79
182.24	5184.22
182.317	5206.67
182.393	5198.63
182.469	5228.91
182.546	5261.72
182.622	5268.76
182.698	5256.78
182.775	5288.36
182.851	5326.21
182.927	5309.87
183.003	5297.33
183.08	5287.89
183.156	5316.26
183.232	5307.15
183.308	5283.48
183.385	5303.17
183.461	5341.6
183.537	5342.27
183.613	5375.39
183.69	5348.31
183.766	5322.32
183.842	5344.37
183.918	5363.01
183.995	5397.56
184.071	5409.11
184.147	5399.38
184.223	5372.62
184.299	5402.91
184.375	5370.38
184.452	5387.26
184.528	5493.17
184.604	5522.16
184.68	5550.14
184.756	5561.8
184.832	5573.5
184.908	5585.57
184.985	5584.51
185.061	5543.97
185.137	5571.06
185.213	5539.18
185.289	5539.8
185.365	5520.21
185.441	5513.98
185.517	5546.78
185.593	5535.86
185.669	5524.21
185.745	5545.25
185.822	5591.1
185.898	5567.31
185.974	5593.57
186.05	5574.44
186.126	5512.15
186.202	5492.41
186.278	5482.1
186.354	5460.28
186.43	5478.61
186.506	5469.41
186.582	5467.4
186.658	5486.42
186.734	5436.48
186.81	5437.25
186.886	5449.32
186.962	5479.8
187.038	5469.78
187.114	5448.96
187.19	5473.32
187.266	5448.88
187.341	5456.03
187.417	5437.38
187.493	5441.27
187.569	5449.94
187.645	5433.03
187.721	5399.08
187.797	5420.31
187.873	5433.73
187.949	5418.83
188.025	5403.96
188.101	5412.92
188.176	5422.93
188.252	5410.81
188.328	5430.21
188.404	5430.69
188.48	5416.84
188.556	5393.35
188.632	5392.87
188.707	5392.15
188.783	5382.66
188.859	5372.46
188.935	5339.28
189.011	5354.57
189.086	5340.05
189.162	5312.64
189.238	5307.66
189.314	5301.67
189.39	5286.28
189.465	5266.06
189.541	5309.39
189.617	5262.82
189.693	5251.99
189.768	5267.19
189.844	5331.4
189.92	5305.45
189.996	5331.47
190.071	5360.9
190.147	5366.75
190.223	5388.61
190.298	5373.75
190.374	5338.72
190.45	5371
190.526	5391.42
190.601	5384.57
190.677	5384.71
190.753	5469.1
190.828	5479.21
190.904	5523.99
190.98	5567.05
191.055	5594.14
191.131	5569.68
191.207	5628.63
191.282	5654.17
191.358	5625.22
191.433	5586.84
191.509	5621.56
191.585	5614.08
191.66	5619.16
191.736	5641.17
191.811	5617.63
191.887	5657.58
191.963	5718.76
192.038	5734.34
192.114	5735.87
192.189	5746.23
192.265	5741.96
192.34	5673.92
192.416	5671.66
192.491	5648.69
192.567	5655.79
192.642	5667.01
192.718	5667.49
192.793	5636.76
192.869	5624.44
192.944	5635.46
193.02	5655.36
193.095	5668.5
193.171	5684.08
193.246	5677.9
193.322	5670.18
193.397	5673
193.473	5636.31
193.548	5595.78
193.624	5608.97
193.699	5607.87
193.775	5643.85
193.85	5649.5
193.925	5676.46
194.001	5672.1
194.076	5658.58
194.152	5627.73
194.227	5604.57
194.302	5578.89
194.378	5585.84
194.453	5577.98
194.529	5609.96
194.604	5570.02
194.679	5554.73
194.755	5501.59
194.83	5531.72
194.905	5521.7
194.981	5543.66
195.056	5524.54
195.131	5536.96
195.207	5531.1
195.282	5501.11
195.357	5453.24
195.433	5486.55
195.508	5452.79
195.583	5476.14
195.659	5517.82
195.734	5537.29
195.809	5537.1
195.884	5558.22
195.96	5559.33
196.035	5598.83
196.11	5588.18
196.185	5621.83
196.261	5628.97
196.336	5713.02
196.411	5673.97
196.486	5692.96
196.561	5677.8
196.637	5705.22
196.712	5748.5
196.787	5759.87
196.862	5804.55
196.937	5828.62
197.013	5846.13
197.088	5874.85
197.163	5929.27
197.238	5966.3
197.313	5965.63
197.388	6004.92
197.464	6089.29
197.539	6123.88
197.614	6103.74
197.689	6132.67
197.764	6177.12
197.839	6232.64
197.914	6218.86
197.989	6285.14
198.065	6317.29
198.14	6449.14
198.215	6512.55
198.29	6546.18
198.365	6583.25
198.44	6613.15
198.515	6688.5
198.59	6730.71
198.665	6796.98
198.74	6818.02
198.815	6823.93
198.89	6884.92
198.965	6952.81
199.04	6941.71
199.115	6981.82
199.19	7098.09
199.265	7108.84
199.34	7133.06
199.415	7219.26
199.49	7274.93
199.565	7293.91
199.64	7360.08
199.715	7350.41
199.79	7369.2
199.865	7378.81
199.94	7370.41
200.015	7454.68
200.09	7468.91
200.165	7480.54
200.24	7500.3
200.315	7601.86
200.39	7645.33
200.464	7655.85
200.539	7666.92
200.614	7707.87
200.689	7767.16
200.764	7783.23
200.839	7826.52
200.914	7836.33
200.989	7805.35
201.063	7839.68
201.138	7794.29
201.213	7792.32
201.288	7745.1
201.363	7757.41
201.438	7761.5
201.512	7801.62
201.587	7751.46
201.662	7761.13
201.737	7798.93
201.812	7822.64
201.886	7734.87
201.961	7759.26
202.036	7733.51
202.111	7720.42
202.186	7637.22
202.26	7587.3
202.335	7530.37
202.41	7519.31
202.485	7475.83
202.559	7425.31
202.634	7357.01
202.709	7383.23
202.784	7333.1
202.858	7336.08
202.933	7288.08
203.008	7265.97
203.082	7217.1
203.157	7217.97
203.232	7102.61
203.306	7043
203.381	6957.16
203.456	6898.4
203.53	6831.46
203.605	6776.59
203.68	6717.19
203.754	6705.49
203.829	6669.99
203.904	6614.24
203.978	6579.6
204.053	6594.44
204.127	6564.87
204.202	6554.55
204.277	6511.39
204.351	6492.52
204.426	6464.75
204.5	6441.23
204.575	6350.93
204.65	6373.55
204.724	6351.44
204.799	6373.46
204.873	6362.51
204.948	6355.5
205.022	6328.2
205.097	6305.47
205.171	6345.5
205.246	6365.43
205.32	6367.5
205.395	6363.32
205.469	6341.79
205.544	6353.41
205.618	6303.1
205.693	6331.52
205.767	6304.88
205.842	6362.07
205.916	6345.28
205.991	6319.02
206.065	6335.68
206.14	6379.65
206.214	6370.81
206.289	6348.43
206.363	6377.66
206.438	6387.75
206.512	6410.17
206.586	6457.01
206.661	6482.04
206.735	6420.34
206.81	6424.43
206.884	6457.01
206.958	6422.66
207.033	6462.66
207.107	6482.07
207.181	6566.7
207.256	6554.51
207.33	6605.92
207.405	6634.38
207.479	6690.27
207.553	6714.51
207.628	6672.24
207.702	6699.17
207.776	6679.82
207.851	6691.77
207.925	6736.46
207.999	6720.9
208.073	6708.75
208.148	6715.28
208.222	6683.91
208.296	6769.82
208.371	6815.54
208.445	6849.31
208.519	6931.76
208.593	6969.6
208.668	6955.91
208.742	6960.81
208.816	6961.39
208.89	6991.53
208.965	6986.09
209.039	7000.7
209.113	7044.38
209.187	7100.77
209.261	7093.13
209.336	7147.13
209.41	7201.58
209.484	7202.93
209.558	7266.94
209.632	7306.43
209.707	7336.18
209.781	7392.98
209.855	7433.36
209.929	7474.17
210.003	7491.04
210.077	7486.19
210.151	7609.6
210.226	7706.57
210.3	7776.15
210.374	7838.81
210.448	7855.84
210.522	7883.64
210.596	7912.83
210.67	7938.84
210.744	8059.77
210.818	8144.32
210.892	8197.86
210.966	8181.85
211.041	8219.84
211.115	8211.52
211.189	8277.56
211.263	8326.39
211.337	8339.23
211.411	8373.87
211.485	8361.55
211.559	8396.95
211.633	8399.83
211.707	8317.52
211.781	8334.71
211.855	8244.41
211.929	8222.82
212.003	8170.23
212.077	8195.83
212.151	8229.23
212.225	8251.12
212.299	8222.81
212.373	8194.19
212.447	8184.71
212.52	8260.63
212.594	8267.46
212.668	8297.67
212.742	8248.07
212.816	8226.66
212.89	8214.11
212.964	8210.64
213.038	8215.02
213.112	8238.36
213.186	8279.63
213.26	8225.64
213.333	8094.97
213.407	8106.22
213.481	8113.91
213.555	8147.21
213.629	8117.95
213.703	8071.14
213.777	8065.85
213.85	8009.13
213.924	8093.25
213.998	8085.02
214.072	8062.44
214.146	8026.94
214.219	8012.41
214.293	8006.54
214.367	8009.62
214.441	8030.35
214.515	7993.07
214.588	7921.69
214.662	7821.24
214.736	7760.18
214.81	7775.03
214.883	7801.59
214.957	7767.28
215.031	7723.99
215.105	7649.44
215.178	7599.2
215.252	7569.73
215.326	7495.26
215.4	7433.34
215.473	7292.86
215.547	7223.38
215.621	7170.52
215.694	7165.62
215.768	7087.91
215.842	7035.68
215.915	6981.55
215.989	6891.53
216.063	6844.57
216.136	6832.13
216.21	6818.44
216.284	6826.13
216.357	6804.99
216.431	6770.89
216.504	6767.14
216.578	6815.38
216.652	6825.84
216.725	6805.28
216.799	6812.49
216.873	6797.89
216.946	6809.13
217.02	6783.36
217.093	6763.14
217.167	6690.24
217.24	6622.83
217.314	6595.86
217.387	6562.04
217.461	6526.5
217.535	6548.44
217.608	6503.75
217.682	6484.59
217.755	6496.35
217.829	6456
217.902	6438
217.976	6420.96
218.049	6380.3
218.123	6315.49
218.196	6313.43
218.27	6285.88
218.343	6226.08
218.417	6223.78
218.49	6199.59
218.563	6227.91
218.637	6237.27
218.71	6292.58
218.784	6315.38
218.857	6339.62
218.931	6356.31
219.004	6358.52
219.077	6372.74
219.151	6388.05
219.224	6375.9
219.298	6370.14
219.371	6402.56
219.444	6379.91
219.518	6385.33
219.591	6401.79
219.665	6480.25
219.738	6496.96
219.811	6481.84
219.885	6515.64
219.958	6540.42
220.031	6549.06
220.105	6563.9
220.178	6575.76
220.251	6553.33
220.325	6572.26
220.398	6587.09
220.471	6603.41
220.544	6636.69
220.618	6618.1
220.691	6637.69
220.764	6654.11
220.838	6676.3
220.911	6662.85
220.984	6727.86
221.057	6759.79
221.131	6782.89
221.204	6713.74
221.277	6764.14
221.35	6869.48
221.424	6865.64
221.497	6875.49
221.57	6894.41
221.643	6923.19
221.716	6953.42
221.79	6958.8
221.863	6967.98
221.936	6977.39
222.009	6986.85
222.082	7007.23
222.155	7017.94
222.229	7071.33
222.302	7096.07
222.375	7101.69
222.448	7138.55
222.521	7146.34
222.594	7146.82
222.667	7126.5
222.74	7170.46
222.814	7163.39
222.887	7146.37
222.96	7191.11
223.033	7222.89
223.106	7239.94
223.179	7263.16
223.252	7266.62
223.325	7294.73
223.398	7310.93
223.471	7331.45
223.544	7347.59
223.617	7360.91
223.69	7376.09
223.763	7345.23
223.837	7367.96
223.91	7392.91
223.983	7348.85
224.056	7316.8
224.129	7333.81
224.202	7370.36
224.275	7367.09
224.348	7344.6
224.42	7318.5
224.493	7277.22
224.566	7259
224.639	7272.83
224.712	7252.45
224.785	7246.39
224.858	7239.32
224.931	7219.61
225.004	7189.78
225.077	7193.48
225.15	7118.49
225.223	7119.21
225.296	7185.24
225.369	7137.43
225.442	7107.63
225.514	7126.51
225.587	7144.9
225.66	7155.1
225.733	7162.45
225.806	7159.37
225.879	7154.57
225.952	7130.74
226.025	7165.97
226.097	7201.99
226.17	7195.5
226.243	7143.61
226.316	7139.53
226.389	7141.54
226.461	7152.65
226.534	7172.44
226.607	7167.59
226.68	7235.07
226.753	7236.71
226.825	7171.64
226.898	7214.93
226.971	7219.83
227.044	7236.8
227.117	7243.72
227.189	7256.7
227.262	7285.45
227.335	7301.84
227.407	7305.44
227.48	7328.84
227.553	7338.79
227.626	7326.96
227.698	7334.4
227.771	7368.36
227.844	7352.41
227.916	7368.46
227.989	7347.94
228.062	7350.77
228.134	7419.39
228.207	7422.9
228.28	7409.49
228.352	7421.51
228.425	7428.14
228.498	7465.5
228.57	7448.96
228.643	7492.58
228.716	7493.73
228.788	7482.67
228.861	7479.26
228.934	7525.02
229.006	7532.66
229.079	7534.49
229.151	7521.26
229.224	7495.22
229.296	7516.47
229.369	7601.02
229.442	7642.67
229.514	7631.67
229.587	7662.68
229.659	7599.11
229.732	7605.03
229.804	7641.17
229.877	7702.79
229.949	7728.91
230.022	7769.37
230.094	7768.75
230.167	7759.46
230.239	7722.31
230.312	7715.58
230.384	7772.29
230.457	7767.91
230.529	7781.42
230.602	7780.99
230.674	7788.54
230.747	7819.67
230.819	7837.32
230.892	7740.62
230.964	7735.9
231.037	7752.24
231.109	7742.52
231.181	7778.24
231.254	7755.21
231.326	7742.71
231.399	7726.88
231.471	7703.5
231.544	7636.59
231.616	7664.33
231.688	7666.15
231.761	7657.27
231.833	7641.69
231.905	7575.46
231.978	7578.44
232.05	7558.59
232.122	7563.4
232.195	7545.03
232.267	7574.27
232.339	7559.7
232.412	7611.12
232.484	7590.97
232.556	7574.1
232.629	7629.72
232.701	7643.33
232.773	7650.01
232.846	7643.47
232.918	7637.22
232.99	7652.22
233.062	7687.33
233.135	7704.73
233.207	7679.25
233.279	7719.28
233.351	7751.59
233.424	7755.53
233.496	7735
233.568	7803.91
233.64	7776.65
233.713	7792.66
233.785	7791.99
233.857	7800.26
233.929	7762.52
234.001	7813.1
234.074	7868.57
234.146	7811.41
234.218	7808.24
234.29	7808.34
234.362	7804.68
234.434	7771.5
234.507	7748.46
234.579	7709.75
234.651	7690.38
234.723	7714.71
234.795	7726.87
234.867	7723.51
234.939	7763.57
235.012	7779.67
235.084	7779.72
235.156	7804.19
235.228	7787.17
235.3	7775.29
235.372	7784.77
235.444	7838.96
235.516	7773.09
235.588	7771.26
235.66	7787.33
235.732	7762.27
235.804	7917.03
235.876	7943.52
235.948	8000.39
236.02	8004.04
236.092	8019.52
236.164	8031.01
236.236	8035.92
236.308	8032.89
236.38	8052.08
236.452	8035.67
236.524	8048.76
236.596	8101.96
236.668	8129.14
236.74	8151.73
236.812	8171.65
236.884	8201.43
236.956	8204.03
237.028	8203.55
237.1	8189.98
237.172	8246.09
237.244	8310.36
237.316	8211.78
237.388	8199.47
237.46	8176.57
237.532	8229.87
237.604	8219.77
237.675	8282.71
237.747	8311.78
237.819	8306.82
237.891	8309.85
237.963	8307.93
238.035	8301.34
238.107	8216.1
238.178	8265.97
238.25	8273.28
238.322	8344.14
238.394	8313.63
238.466	8311.66
238.538	8343.64
238.609	8379.67
238.681	8337.56
238.753	8319.32
238.825	8342.52
238.897	8371.81
238.968	8437.76
239.04	8418.85
239.112	8504.77
239.184	8470.84
239.255	8468.39
239.327	8495.76
239.399	8512.69
239.471	8551.33
239.542	8583.75
239.614	8632.02
239.686	8566.75
239.758	8608.47
239.829	8581.12
239.901	8624.48
239.973	8638.43
240.044	8666.1
240.116	8679.14
240.188	8684.34
240.259	8697.53
240.331	8689.1
240.403	8718.41
240.474	8679.74
240.546	8672.96
240.618	8628.05
240.689	8629.79
240.761	8648.22
240.833	8703.34
240.904	8702.09
240.976	8700.45
241.048	8709.98
241.119	8739.21
241.191	8782.47
241.262	8831.06
241.334	8835.29
241.405	8839.39
241.477	8843.04
241.549	8852.43
241.62	8868.17
241.692	8914.28
241.763	8957.86
241.835	8973.69
241.906	8986.11
241.978	8962.1
242.049	9019.09
242.121	9068.33
242.192	9123.45
242.264	9094.18
242.335	9055.62
242.407	9091.34
242.478	9096.15
242.55	9109.34
242.621	9100.1
242.693	9096.34
242.764	9099.96
242.836	9095.43
242.907	9119.36
242.979	9141.69
243.05	9156.33
243.122	9175.74
243.193	9166.68
243.264	9115.51
243.336	9116.76
243.407	9143.58
243.479	9212.62
243.55	9223.35
243.622	9234.67
243.693	9228.46
243.764	9287.24
243.836	9269.05
243.907	9259.23
243.978	9260.48
244.05	9285.04
244.121	9247.92
244.192	9281.24
244.264	9235.15
244.335	9255.91
244.407	9217.82
244.478	9231.16
244.549	9225.86
244.62	9192.07
244.692	9191.15
244.763	9227.31
244.834	9218.64
244.906	9198.9
244.977	9205.54
245.048	9251.36
245.119	9236.19
245.191	9219.67
245.262	9169.89
245.333	9229.19
245.405	9248.98
245.476	9274.02
245.547	9290.25
245.618	9333.14
245.689	9337
245.761	9358.23
245.832	9363.33
245.903	9407.44
245.974	9431.04
246.045	9445.24
246.117	9519.26
246.188	9508.23
246.259	9489.17
246.33	9514.16
246.401	9523.69
246.473	9500.81
246.544	9488.91
246.615	9529.66
246.686	9537.79
246.757	9600.49
246.828	9586.04
246.899	9646.74
246.97	9618.34
247.042	9609.67
247.113	9643.29
247.184	9718.35
247.255	9726.39
247.326	9747.01
247.397	9752.79
247.468	9762.66
247.539	9769.45
247.61	9722.68
247.681	9758.02
247.752	9800.5
247.823	9776.61
247.894	9790.1
247.965	9772.95
248.037	9754.46
248.108	9716.41
248.179	9720.41
248.25	9707.59
248.321	9731.38
248.392	9692.12
248.463	9764.59
248.534	9768.44
248.605	9783.91
248.675	9757.36
248.746	9766.02
248.817	9776.96
248.888	9786.69
248.959	9745.03
249.03	9766.85
249.101	9779.85
249.172	9763.82
249.243	9716.05
249.314	9772.88
249.385	9786.66
249.456	9805.58
249.527	9802.16
249.598	9824.51
249.669	9824.17
249.739	9833.61
249.81	9839.34
249.881	9802.79
249.952	9798.4
250.023	9792
250.094	9753.32
250.165	9736.79
250.235	9741.94
250.306	9744.69
250.377	9723.35
250.448	9742.42
250.519	9693.15
250.59	9737.71
250.66	9744.21
250.731	9796.94
250.802	9789.28
250.873	9800.75
250.944	9819.82
251.014	9814.71
251.085	9881.59
251.156	9903.02
251.227	9945.65
251.297	9982.27
251.368	10021.23
251.439	10054.86
251.51	10094.6
251.58	10083.91
251.651	10078.13
251.722	10114.84
251.792	10079.58
251.863	10077.85
251.934	10130.55
252.005	10212.48
252.075	10219.62
252.146	10258.1
252.217	10290.28
252.287	10326.75
252.358	10330.13
252.429	10397.58
252.499	10395.51
252.57	10404.38
252.641	10438.58
252.711	10443.6
252.782	10413
252.852	10471.4
252.923	10466.05
252.994	10482.48
253.064	10521.45
253.135	10502.28
253.205	10476.65
253.276	10531.81
253.347	10587.25
253.417	10566.87
253.488	10558.97
253.558	10548.51
253.629	10545.91
253.699	10560.03
253.77	10573.62
253.841	10562.11
253.911	10557.38
253.982	10570.58
254.052	10591.79
254.123	10604.17
254.193	10606.34
254.264	10719.64
254.334	10699.64
254.405	10673.43
254.475	10642.69
254.546	10647.79
254.616	10702.62
254.687	10731.96
254.757	10749.45
254.827	10749.21
254.898	10770.75
254.968	10773.83
255.039	10767.72
255.109	10801.73
255.18	10783.71
255.25	10730.66
255.321	10761.21
255.391	10736.29
255.461	10804.04
255.532	10740.48
255.602	10733.97
255.673	10697.93
255.743	10667.42
255.813	10610.09
255.884	10648.49
255.954	10678.41
256.024	10730.55
256.095	10728.62
256.165	10707.18
256.235	10727.04
256.306	10719.38
256.376	10760.73
256.446	10793.74
256.517	10812.91
256.587	10843.85
256.657	10861.59
256.728	10881.92
256.798	10892.9
256.868	10887.6
256.938	10865.29
257.009	10907.17
257.079	10936.56
257.149	11009.81
257.219	10957.08
257.29	10985.55
257.36	10947.34
257.43	10977.37
257.5	10927.83
257.571	10924.89
257.641	10952.98
257.711	10926.57
257.781	10946.91
257.852	10955.05
257.922	10903.88
257.992	10910.96
258.062	10907.1
258.132	10938.04
258.202	10942.57
258.273	10945.66
258.343	11006.62
258.413	10994.19
258.483	10997.42
258.553	10975.15
258.623	10957.13
258.693	10985.08
258.764	11046.85
258.834	11101.59
258.904	11114.32
258.974	11104.54
259.044	11113.84
259.114	11142.71
259.184	11166.51
259.254	11176.78
259.324	11137.74
259.394	11178.7
259.464	11236.73
259.535	11245.21
259.605	11243.33
259.675	11242.36
259.745	11275.52
259.815	11257.4
259.885	11267.95
259.955	11359.35
260.025	11351.15
260.095	11363.25
260.165	11387.4
260.235	11428.22
260.305	11416.8
260.375	11392.8
260.445	11468.55
260.515	11520.13
260.585	11550.25
260.655	11558.88
260.725	11592.71
260.795	11620.71
260.865	11680.24
260.934	11658.26
261.004	11680.43
261.074	11688.82
261.144	11736.72
261.214	11763.42
261.284	11763.62
261.354	11783.76
261.424	11740.76
261.494	11791.07
261.564	11792.04
261.634	11809.92
261.703	11755.5
261.773	11777.09
261.843	11808.57
261.913	11805.72
261.983	11761.62
262.053	11781.09
262.123	11776.27
262.192	11745.96
262.262	11777.96
262.332	11739.16
262.402	11761.77
262.472	11771.46
262.541	11720.57
262.611	11755.56
262.681	11733.77
262.751	11769.05
262.821	11784.57
262.89	11767.7
262.96	11791.66
263.03	11857.7
263.1	11878.91
263.169	11900.59
263.239	11922.14
263.309	11976.61
263.379	11993.58
263.448	12007.89
263.518	12030.6
263.588	12044.33
263.657	12100.05
263.727	12133.02
263.797	12140.06
263.867	12140.35
263.936	12105.07
264.006	12153.45
264.076	12146.22
264.145	12149.16
264.215	12138.22
264.285	12159.09
264.354	12124
264.424	12120.53
264.494	12081.1
264.563	12071.84
264.633	12128.05
264.702	12147.43
264.772	12105.78
264.842	12109.2
264.911	12140
264.981	12105.48
265.05	12113
265.12	12111.51
265.19	12117.97
265.259	12154.17
265.329	12186.95
265.398	12211.48
265.468	12291.93
265.537	12292.75
265.607	12321.53
265.676	12359.61
265.746	12379.04
265.815	12422.56
265.885	12429.36
265.955	12413.26
266.024	12416.1
266.094	12367.46
266.163	12416.35
266.232	12468.74
266.302	12476.7
266.371	12498.29
266.441	12518.01
266.51	12563.08
266.58	12567.47
266.649	12556.23
266.719	12598.27
266.788	12627.82
266.858	12688.85
266.927	12640.59
266.996	12666.48
267.066	12698.63
267.135	12674.87
267.205	12724.13
267.274	12749.78
267.343	12790.66
267.413	12811.87
267.482	12871.16
267.552	12929.73
267.621	12895.6
267.69	12856.16
267.76	12879.21
267.829	12905.58
267.898	12924.57
267.968	12907.99
268.037	12937.25
268.106	12975.96
268.176	12953.97
268.245	12954.26
268.314	12948.19
268.384	12991.91
268.453	13010.47
268.522	13026.96
268.592	13073.91
268.661	13053.33
268.73	13075.84
268.799	13061.95
268.869	13128.57
268.938	13084.71
269.007	13075.31
269.076	13093.09
269.146	13139.28
269.215	13161.84
269.284	13218.67
269.353	13209.03
269.422	13217.47
269.492	13216.98
269.561	13152.44
269.63	13184.74
269.699	13193.99
269.768	13209.9
269.838	13224.99
269.907	13261.87
269.976	13234.92
270.045	13197.17
270.114	13231.21
270.183	13237.47
270.253	13266.45
270.322	13228.99
270.391	13260.08
270.46	13316.39
270.529	13360.01
270.598	13395.74
270.667	13398.34
270.736	13372.5
270.806	13400.36
270.875	13443.85
270.944	13455.56
271.013	13561.03
271.082	13580.41
271.151	13597.48
271.22	13565.08
271.289	13579.83
271.358	13580.27
271.427	13619.75
271.496	13645.25
271.565	13641.88
271.634	13665.93
271.703	13772.8
271.772	13823.9
271.841	13832.19
271.91	13812.52
271.979	13821.39
272.048	13797.92
272.117	13841.4
272.186	13839.9
272.255	13890.38
272.324	13931.01
272.393	13958.78
272.462	13955.31
272.531	13974.45
272.6	13991.85
272.669	14058.18
272.738	14063
272.807	14095.59
272.876	14081.95
272.945	14189.93
273.013	14244.01
273.082	14289.52
273.151	14215.38
273.22	14240.16
273.289	14260.99
273.358	14327.56
273.427	14341.34
273.496	14387.28
273.564	14421.36
273.633	14473.19
273.702	14458.68
273.771	14472.17
273.84	14503.51
273.909	14542.5
273.977	14572.05
274.046	14583.53
274.115	14629.75
274.184	14634.48
274.253	14632.74
274.322	14696.23
274.39	14654.63
274.459	14644.07
274.528	14614.09
274.597	14630.96
274.665	14660.7
274.734	14715.03
274.803	14723.13
274.872	14741.45
274.94	14740.77
275.009	14909.89
275.078	14903.38
275.147	14935.97
275.215	14957.47
275.284	15012.18
275.353	15024.32
275.421	15001.04
275.49	15074.45
275.559	15077.73
275.627	15103.71
275.696	15131.48
275.765	15164.16
275.833	15177.66
275.902	15213.91
275.971	15282.6
276.039	15359.14
276.108	15400.26
276.177	15431.59
276.245	15439.44
276.314	15466.39
276.383	15512.47
276.451	15393.05
276.52	15445.01
276.588	15509.02
276.657	15557.61
276.725	15563
276.794	15588.74
276.863	15651.98
276.931	15630.29
277	15686.21
277.068	15742.27
277.137	15827.19
277.205	15861.41
277.274	15946.2
277.342	16019.41
277.411	16005.48
277.48	16016.09
277.548	16029.68
277.617	16067.18
277.685	16094.07
277.754	16144.34
277.822	16164.1
277.89	16225.12
277.959	16239.29
278.027	16229.27
278.096	16234.37
278.164	16336.93
278.233	16357.23
278.301	16376.5
278.37	16428.75
278.438	16428.75
278.507	16472.03
278.575	16443.65
278.643	16457.77
278.712	16444.13
278.78	16433.28
278.849	16490.16
278.917	16546.45
278.985	16572.57
279.054	16607.27
279.122	16663.13
279.191	16690.22
279.259	16718.27
279.327	16698.22
279.396	16780.83
279.464	16808.2
279.532	16863.14
279.601	16892.49
279.669	16916.88
279.737	16973.89
279.806	17016.74
279.874	17081.9
279.942	17114.04
280.011	17141.9
280.079	17211.01
280.147	17288.31
280.215	17340.94
280.284	17362.53
280.352	17363.3
280.42	17414.34
280.488	17434.1
280.557	17455.3
280.625	17504.6
280.693	17545.47
280.761	17586.87
280.83	17569.52
280.898	17636.08
280.966	17622.34
281.034	17570.54
281.102	17570.68
281.171	17596.37
281.239	17644.07
281.307	17655.3
281.375	17658.82
281.443	17766.1
281.512	17789.66
281.58	17851.73
281.648	17845.51
281.716	17892.26
281.784	17921.95
281.852	17950.09
281.92	17981.27
281.989	18045.7
282.057	18034.62
282.125	18143.24
282.193	18188.78
282.261	18230.8
282.329	18254.8
282.397	18305.88
282.465	18356.87
282.533	18433.35
282.601	18447.76
282.67	18430.79
282.738	18445.97
282.806	18518.65
282.874	18509.06
282.942	18545.2
283.01	18554.02
283.078	18614.74
283.146	18643.51
283.214	18705.29
283.282	18743.36
283.35	18810
283.418	18833.81
283.486	18880.99
283.554	18850.68
283.622	18883.69
283.69	18922.04
283.758	18942.33
283.826	18992.98
283.894	19055.92
283.962	19149.12
284.03	19227.28
284.098	19279.66
284.165	19309.78
284.233	19342.89
284.301	19366.02
284.369	19392.91
284.437	19412.28
284.505	19437.05
284.573	19510.88
284.641	19525.14
284.709	19582.78
284.777	19582.63
284.845	19633.81
284.912	19694.29
284.98	19747.49
285.048	19774.53
285.116	19823.59
285.184	19906.14
285.252	19941.56
285.319	19930.62
285.387	19944.35
285.455	19930.91
285.523	19982.86
285.591	20019.63
285.659	20056.25
285.726	20128.25
285.794	20127.48
285.862	20159.48
285.93	20192.68
285.997	20221.65
286.065	20246.66
286.133	20259.96
286.201	20291.96
286.269	20294.75
286.336	20304.92
286.404	20320.73
286.472	20378.08
286.539	20364.25
286.607	20350.9
286.675	20381.6
286.743	20444.64
286.81	20458.18
286.878	20531.43
286.946	20547.38
287.013	20581.41
287.081	20628.59
287.149	20618.04
287.216	20709.27
287.284	20734.67
287.352	20767.44
287.419	20798.52
287.487	20885.33
287.555	20936.66
287.622	20962.35
287.69	21018.16
287.758	21092.86
287.825	21116.96
287.893	21130.31
287.96	21184.34
288.028	21256.01
288.096	21304.4
288.163	21348.4
288.231	21365.56
288.298	21406.68
288.366	21474.88
288.433	21508.47
288.501	21511.03
288.569	21561.15
288.636	21575.08
288.704	21652.64
288.771	21710.39
288.839	21728.46
288.906	21732.94
288.974	21790.07
289.041	21824.68
289.109	21835.96
289.176	21884.21
289.244	21931.93
289.311	22001.21
289.379	22070.62
289.446	22109.67
289.514	22147.89
289.581	22193.16
289.649	22233.6
289.716	22274.92
289.783	22293.48
289.851	22378.03
289.918	22432.12
289.986	22503.13
290.053	22566.29
290.121	22600.86
290.188	22646.71
290.255	22752.21
290.323	22783.4
290.39	22796.9
290.458	22860.49
290.525	22927.98
290.592	22954.26
290.66	23004.45
290.727	23015.93
290.794	23089.41
290.862	23129.29
290.929	23192.03
290.996	23225.59
291.064	23294.2
291.131	23360.56
291.198	23438.15
291.266	23479.67
291.333	23521.04
291.4	23572.55
291.468	23643.84
291.535	23660.47
291.602	23714.39
291.669	23724.86
291.737	23770.91
291.804	23811.47
291.871	23885.4
291.938	23936.63
292.006	24049.18
292.073	24119.84
292.14	24193.39
292.207	24205.3
292.275	24248.91
292.342	24302.65
292.409	24415.88
292.476	24526.47
292.543	24540.84
292.611	24573.02
292.678	24648.96
292.745	24754.57
292.812	24807.64
292.879	24834.37
292.946	24882.12
293.014	24958.36
293.081	25034.84
293.148	25116.86
293.215	25193.86
293.282	25218.42
293.349	25287.96
293.416	25275.7
293.484	25353.01
293.551	25415.02
293.618	25499.42
293.685	25602.42
293.752	25631.13
293.819	25655.32
293.886	25652.86
293.953	25719.31
294.02	25791.42
294.087	25847.52
294.154	25861.52
294.221	25935.09
294.288	25978.97
294.356	26069.8
294.423	26116.92
294.49	26128.85
294.557	26196.82
294.624	26219.46
294.691	26316.4
294.758	26353.38
294.825	26410.69
294.892	26425.17
294.959	26462.45
295.026	26517.11
295.093	26541.55
295.16	26575.39
295.226	26605.47
295.293	26709.22
295.36	26751.23
295.427	26822.33
295.494	26892.43
295.561	26957.47
295.628	27066.4
295.695	27142.72
295.762	27190.92
295.829	27260.63
295.896	27345.2
295.963	27407.72
296.03	27485.72
296.096	27535.97
296.163	27615.97
296.23	27696.27
296.297	27773.17
296.364	27824.67
296.431	27897.25
296.498	27931.36
296.564	28038.41
296.631	28092.14
296.698	28104.41
296.765	28208.02
296.832	28217.25
296.899	28227.84
296.965	28320.98
297.032	28304.2
297.099	28395.52
297.166	28468.31
297.233	28497.46
297.299	28524.86
297.366	28561.02
297.433	28611.77
297.5	28678.83
297.566	28724.38
297.633	28770.55
297.7	28831.22
297.767	28869.07
297.833	28915.49
297.9	28960.05
297.967	28974.03
298.033	29064.21
298.1	29178.89
298.167	29199.01
298.234	29261.18
298.3	29332.31
298.367	29357.85
298.434	29414.58
298.5	29426.43
298.567	29459.46
298.634	29506.76
298.7	29594.97
298.767	29657.32
298.834	29736.46
298.9	29766.36
298.967	29788.51
299.033	29849.66
299.1	29921.61
299.167	30002.57
299.233	30034.89
299.3	30115.43
299.366	30192.39
299.433	30262.57
299.5	30226.91
299.566	30280.61
299.633	30366.45
299.699	30448.25
299.766	30485.07
299.832	30547.17
299.899	30606.74
299.965	30679
300.032	30710.45
300.099	30768.63
300.165	30821.97
300.232	30848.93
300.298	30883.43
300.365	30956.22
300.431	31007.49
300.498	31024.72
300.564	31086.88
300.631	31155.38
300.697	31237.89
300.763	31277.1
300.83	31323.4
300.896	31406.22
300.963	31472.07
301.029	31520.74
301.096	31553.87
301.162	31614.43
301.229	31645.91
301.295	31659.52
301.361	31699.47
301.428	31750.15
301.494	31754.27
301.561	31802.41
301.627	31852.09
301.693	31904.53
301.76	31954.22
301.826	31991.76
301.892	32072.46
301.959	32133.74
302.025	32162.76
302.092	32172.69
302.158	32220.73
302.224	32254.84
302.291	32271.41
302.357	32293.01
302.423	32315.83
302.49	32328.52
302.556	32398.58
302.622	32435.79
302.688	32511.61
302.755	32597.87
302.821	32664.52
302.887	32726.57
302.954	32771.06
303.02	32833.37
303.086	32897.48
303.152	32938.91
303.219	32959.4
303.285	33001.96
303.351	33046.8
303.417	33093.27
303.483	33128.25
303.55	33164.01
303.616	33197.9
303.682	33240.97
303.748	33275.28
303.815	33362.73
303.881	33442.12
303.947	33455.69
304.013	33508.28
304.079	33526.02
304.145	33506.68
304.212	33537.89
304.278	33560.91
304.344	33572.45
304.41	33582.48
304.476	33595.43
304.542	33615.64
304.608	33661.93
304.674	33655.24
304.741	33681.47
304.807	33728.16
304.873	33784.79
304.939	33859.64
305.005	33853.92
305.071	33887.51
305.137	33937.25
305.203	33902.92
305.269	33922.08
305.335	33982.35
305.401	34004.46
305.467	34038.45
305.533	34092.66
305.599	34150.7
305.666	34214.31
305.732	34260.57
305.798	34329.04
305.864	34437.3
305.93	34502.38
305.996	34541.8
306.062	34587.43
306.128	34607.8
306.194	34611.1
306.259	34641.9
306.325	34658.44
306.391	34719.44
306.457	34772.88
306.523	34801.11
306.589	34905.83
306.655	34920.77
306.721	34917.42
306.787	34925.81
306.853	34998.43
306.919	34990.09
306.985	35002.7
307.051	35014.82
307.117	35043.05
307.183	35051.83
307.248	35005.55
307.314	35037.38
307.38	35076.38
307.446	35133.58
307.512	35144.1
307.578	35190.57
307.644	35201.92
307.709	35240.69
307.775	35253.25
307.841	35278.86
307.907	35321.99
307.973	35291.04
308.039	35322.18
308.104	35367.88
308.17	35402.51
308.236	35392.86
308.302	35432
308.368	35430.55
308.433	35464.75
308.499	35479.74
308.565	35479.84
308.631	35522
308.696	35503.95
308.762	35503.9
308.828	35522.83
308.894	35511.81
308.959	35481.88
309.025	35500.66
309.091	35512.26
309.156	35529
309.222	35574.85
309.288	35568.5
309.354	35554.43
309.419	35594.41
309.485	35589.95
309.551	35632.17
309.616	35635.61
309.682	35664.53
309.748	35680.93
309.813	35697.47
309.879	35693.98
309.945	35707.61
310.01	35727.41
310.076	35762.35
310.141	35773.56
310.207	35762.1
310.273	35806.49
310.338	35847.83
310.404	35836.57
310.469	35830.31
310.535	35843.61
310.601	35801.53
310.666	35847.98
310.732	35906.35
310.797	35904.94
310.863	35903.53
310.928	35921.98
310.994	35955.99
311.059	35979.73
311.125	36008.98
311.191	36057.47
311.256	36071.11
311.322	36100.66
311.387	36070.33
311.453	36983.09
311.518	36982.94
311.584	37009.68
311.649	37052.73
311.715	37069.57
311.78	37102.18
311.846	37119.02
311.911	37172.46
311.976	37216.52
312.042	37201.28
312.107	37190.89
312.173	37197.69
312.238	37226.56
312.304	37238.12
312.369	37246.27
312.434	37246.85
312.5	37253.5
312.565	37208.07
312.631	37250.24
312.696	37276.16
312.761	37319.45
312.827	36436.44
312.892	36539.65
312.958	36564.79
313.023	36572.46
313.088	36601.19
313.154	36595.76
313.219	36592.75
313.284	36589.4
313.35	36610.18
313.415	36612.31
313.48	36627.79
313.546	36658.47
313.611	36699.25
313.676	36692.94
313.741	36696.43
313.807	36742.89
313.872	36795.41
313.937	36843.51
314.003	36904.2
314.068	36927.21
314.133	36966.33
314.198	36970.65
314.264	36938.85
314.329	36938.12
314.394	36966.38
314.459	36989.82
314.525	37067.44
314.59	37092.83
314.655	37089.28
314.72	37128.61
314.785	37165.21
314.851	37174.29
314.916	37159.09
314.981	37137
315.046	37147.39
315.111	37146.52
315.176	37137.34
315.242	37160.6
315.307	37177.01
315.372	37136.76
315.437	37134.82
315.502	37136.47
315.567	37193.47
315.632	37185.7
315.698	37207.35
315.763	37224.5
315.828	37211.87
315.893	37216.97
315.958	37221.73
316.023	37214.01
316.088	37175.75
316.153	37135.61
316.218	37132.94
316.283	37089.99
316.348	37067.66
316.413	37070.43
316.479	37033.25
316.544	36946.82
316.609	36856.87
316.674	36752.13
316.739	36668.76
316.804	36579.02
316.869	36469.73
316.934	36361.62
316.999	36257.14
317.064	36103.8
317.129	35951.17
317.194	35840.2
317.259	35685.68
317.324	35527.69
317.389	35382.39
317.454	35252.07
317.518	35126.83
317.583	35035.57
317.648	34944.86
317.713	34820.74
317.778	34614.75
317.843	34496.76
317.908	34366.09
317.973	34222.65
318.038	34112.1
318.103	33957.56
318.168	33832.37
318.233	33710.01
318.297	33518.24
318.362	33375.54
318.427	33230.41
318.492	33130.27
318.557	32952.64
318.622	32832.4
318.687	32720.98
318.751	32565.88
318.816	32418.11
318.881	32282.82
318.946	32072.47
319.011	31885.41
319.075	31713.64
319.14	31571.59
319.205	31401.73
319.27	31242.91
319.335	31074.01
319.399	30898.14
319.464	30772.16
319.529	30557.2
319.594	30384.32
319.658	30230.17
319.723	30054.98
319.788	29898.6
319.853	29664.68
319.917	29514.19
319.982	29296.03
320.047	29117.19
320.112	28971.46
320.176	28765.11
320.241	28581.05
320.306	28412.35
320.37	28232.18
320.435	28067.9
320.5	27907.03
320.564	27731.42
320.629	27541.14
320.694	27365.24
320.758	27178.69
320.823	26975.13
320.888	26820.12
320.952	26606.73
321.017	26419.91
321.082	26223.6
321.146	26049.79
321.211	25876.99
321.275	25681.12
321.34	25481.47
321.405	25279.36
321.469	25076.04
321.534	24884.35
321.598	24667.24
321.663	24499.95
321.727	24332.93
321.792	24114.99
321.857	23924.73
321.921	23718.39
321.986	23521.49
322.05	23292.63
322.115	23100.84
322.179	22893.84
322.244	22657.79
322.308	22474.87
322.373	22268.05
322.437	22067.69
322.502	21912.1
322.566	21706.89
322.631	21523.53
322.695	21320.95
322.76	21106.18
322.824	20919.11
322.889	20712.88
322.953	20499.91
323.018	20235.31
323.082	19966.52
323.146	19739.05
323.211	19498.13
323.275	19289.22
323.34	19078.76
323.404	18886.48
323.468	18672.7
323.533	18451.3
323.597	18243.93
323.662	18014.1
323.726	17816.99
323.79	17604.41
323.855	17325.66
323.919	17099.92
323.983	16884.06
324.048	16568.49
324.112	16683.62
324.177	16005.36
324.241	15128.85
324.305	14277.03
324.37	13436.64
324.434	12620.39
324.498	12391.74
324.562	12134.96
324.627	11845.9
324.691	11555.74
324.755	11228.3
324.82	10857.62
324.884	10482.99
324.948	10084.2
325.012	9611.7
325.077	9027.89
