Data from 20250626_urea_1M_exp2_MAYP1162681_07-43-59-401.txt Node
Date: Fri Jun 27 07:43:59 BST 2025
User: adleo
Spectrometer: MAYP116268
Trigger mode: 0
Integration Time (sec): 3.000000E0
Scans to average: 1
Electric dark correction enabled: true
Nonlinearity correction enabled: true
Boxcar width: 10
XAxis mode: Wavelengths
Number of Pixels in Spectrum: 2068
>>>>>Begin Spectral Data<<<<<
179.565	2937.86
179.642	3095.72
179.718	3206.87
179.795	3320.1
179.871	3411.25
179.948	3462.19
180.024	3515.53
180.101	3582.87
180.177	3616.74
180.254	3674.04
180.33	3728.62
180.407	3933.08
180.483	4164.73
180.56	4396.93
180.636	4610.96
180.712	4579.26
180.789	4603.58
180.865	4637.01
180.942	4660.26
181.018	4683.77
181.095	4719.92
181.171	4732.13
181.248	4735.19
181.324	4783.18
181.4	4795.11
181.477	4819.82
181.553	4851.92
181.63	4904.84
181.706	4940.96
181.782	4969.04
181.859	4974.02
181.935	4996.15
182.011	4985.47
182.088	5029.3
182.164	5077.28
182.24	5109.88
182.317	5136.17
182.393	5124.77
182.469	5160.31
182.546	5197.29
182.622	5209.79
182.698	5202.32
182.775	5239.25
182.851	5271.74
182.927	5247.92
183.003	5237.29
183.08	5225.08
183.156	5251.76
183.232	5247.31
183.308	5220.43
183.385	5237.33
183.461	5281.52
183.537	5282.81
183.613	5314.39
183.69	5287.26
183.766	5263.24
183.842	5283.37
183.918	5297.74
183.995	5330.56
184.071	5341.49
184.147	5324.29
184.223	5295.84
184.299	5324.94
184.375	5291.74
184.452	5307.13
184.528	5414.72
184.604	5448.35
184.68	5480.69
184.756	5497.71
184.832	5509.6
184.908	5522.25
184.985	5526.22
185.061	5480.36
185.137	5503.04
185.213	5476.44
185.289	5475.44
185.365	5454.55
185.441	5448.75
185.517	5484.57
185.593	5479.73
185.669	5466.26
185.745	5497.18
185.822	5539.09
185.898	5516.51
185.974	5541.75
186.05	5519.46
186.126	5455.3
186.202	5430.53
186.278	5414.38
186.354	5389.88
186.43	5408.63
186.506	5397.09
186.582	5394.21
186.658	5412.75
186.734	5359.38
186.81	5360.81
186.886	5374.47
186.962	5406.04
187.038	5394.26
187.114	5371.61
187.19	5390.46
187.266	5369.47
187.341	5368.13
187.417	5348.39
187.493	5351.12
187.569	5360.8
187.645	5343.12
187.721	5306.49
187.797	5331.41
187.873	5344.74
187.949	5330.84
188.025	5312.42
188.101	5327.99
188.176	5338.58
188.252	5330.44
188.328	5350.07
188.404	5354.52
188.48	5340.87
188.556	5317.63
188.632	5322.42
188.707	5324.19
188.783	5318.2
188.859	5307.67
188.935	5284.46
189.011	5305.93
189.086	5285
189.162	5261.66
189.238	5258.83
189.314	5256.15
189.39	5241.96
189.465	5226.86
189.541	5268.47
189.617	5228.61
189.693	5213.04
189.768	5225.21
189.844	5286.35
189.92	5264.95
189.996	5283.78
190.071	5309.52
190.147	5310.76
190.223	5334.49
190.298	5313.93
190.374	5283.74
190.45	5319.28
190.526	5336.82
190.601	5323.45
190.677	5330.25
190.753	5403.45
190.828	5416.24
190.904	5454.54
190.98	5489.93
191.055	5516.34
191.131	5496.2
191.207	5546.62
191.282	5572.92
191.358	5545.98
191.433	5503.63
191.509	5542.62
191.585	5534.18
191.66	5542.76
191.736	5563.42
191.811	5536.91
191.887	5580.5
191.963	5638.61
192.038	5645.61
192.114	5648.39
192.189	5659.7
192.265	5649.07
192.34	5588.52
192.416	5588.76
192.491	5575.81
192.567	5586.46
192.642	5588.77
192.718	5588.57
192.793	5562.25
192.869	5551.52
192.944	5557.79
193.02	5584.31
193.095	5590.69
193.171	5610.87
193.246	5605.5
193.322	5599.36
193.397	5603.97
193.473	5568.86
193.548	5519.9
193.624	5540.09
193.699	5533.47
193.775	5573.19
193.85	5580.99
193.925	5603.19
194.001	5595.67
194.076	5580.86
194.152	5549.73
194.227	5534.67
194.302	5510.62
194.378	5518
194.453	5505.26
194.529	5539.92
194.604	5497.07
194.679	5481.06
194.755	5428.5
194.83	5464.05
194.905	5456.38
194.981	5476.27
195.056	5457.44
195.131	5476.66
195.207	5468.94
195.282	5445.65
195.357	5397.4
195.433	5432.92
195.508	5402.62
195.583	5426.58
195.659	5467.49
195.734	5480.68
195.809	5480.39
195.884	5500.8
195.96	5499.84
196.035	5543.17
196.11	5532.33
196.185	5567.27
196.261	5574.12
196.336	5653.75
196.411	5608.8
196.486	5623.28
196.561	5602.18
196.637	5630.55
196.712	5669.85
196.787	5678.34
196.862	5723.07
196.937	5745.6
197.013	5762.49
197.088	5792.26
197.163	5850.42
197.238	5893.4
197.313	5898.11
197.388	5928.13
197.464	6002.75
197.539	6036.76
197.614	6016.81
197.689	6045.45
197.764	6085.38
197.839	6143.24
197.914	6131.63
197.989	6195.25
198.065	6230.27
198.14	6367.05
198.215	6429.21
198.29	6461.29
198.365	6497.54
198.44	6521.63
198.515	6594.33
198.59	6636.2
198.665	6701.88
198.74	6716.83
198.815	6711.73
198.89	6772.04
198.965	6850.44
199.04	6841.41
199.115	6880.26
199.19	6989.7
199.265	6998.53
199.34	7026.83
199.415	7110.71
199.49	7164.88
199.565	7186.22
199.64	7250.36
199.715	7239.77
199.79	7256.83
199.865	7272.45
199.94	7266.83
200.015	7349.31
200.09	7367.44
200.165	7381.04
200.24	7397.62
200.315	7500.43
200.39	7543.36
200.464	7555.13
200.539	7557.39
200.614	7605.98
200.689	7667.43
200.764	7687.58
200.839	7735.24
200.914	7746.25
200.989	7716.14
201.063	7753.12
201.138	7710.27
201.213	7706.23
201.288	7659.75
201.363	7672.63
201.438	7669.7
201.512	7712.37
201.587	7665.72
201.662	7667.07
201.737	7702.75
201.812	7727.27
201.886	7645.43
201.961	7671.26
202.036	7643.1
202.111	7634.73
202.186	7555.37
202.26	7509.06
202.335	7450.89
202.41	7432.67
202.485	7388.23
202.559	7339.16
202.634	7269.08
202.709	7292.52
202.784	7247.73
202.858	7246.72
202.933	7201.26
203.008	7184.3
203.082	7130.78
203.157	7124.15
203.232	7018.08
203.306	6954
203.381	6865.44
203.456	6801.21
203.53	6732.74
203.605	6678.65
203.68	6618.73
203.754	6602.42
203.829	6561.11
203.904	6512.52
203.978	6481.21
204.053	6489.13
204.127	6457.54
204.202	6449.62
204.277	6405.7
204.351	6385.92
204.426	6366.03
204.5	6344.43
204.575	6255.71
204.65	6279.39
204.724	6262.86
204.799	6285.4
204.873	6280.26
204.948	6277.43
205.022	6247.83
205.097	6231.69
205.171	6273.2
205.246	6294.33
205.32	6293.28
205.395	6292.17
205.469	6272.13
205.544	6288.41
205.618	6244.92
205.693	6273.77
205.767	6242.15
205.842	6292.46
205.916	6276.77
205.991	6247.78
206.065	6258.58
206.14	6299.48
206.214	6291.65
206.289	6273.02
206.363	6304.94
206.438	6311.27
206.512	6334.75
206.586	6385.52
206.661	6405.55
206.735	6343.67
206.81	6347.23
206.884	6384.37
206.958	6354.04
207.033	6394.68
207.107	6406.06
207.181	6491.64
207.256	6477.24
207.33	6525.91
207.405	6566.24
207.479	6617.65
207.553	6640.74
207.628	6600.3
207.702	6629.1
207.776	6607.54
207.851	6616.71
207.925	6654.37
207.999	6643.04
208.073	6632.96
208.148	6636.85
208.222	6602.56
208.296	6690.33
208.371	6734.7
208.445	6768.37
208.519	6848.03
208.593	6876.41
208.668	6867.33
208.742	6873.01
208.816	6879.06
208.89	6918.17
208.965	6908.08
209.039	6932.64
209.113	6977.55
209.187	7031.78
209.261	7022.65
209.336	7075.64
209.41	7127.73
209.484	7130.23
209.558	7193.47
209.632	7228.29
209.707	7256.31
209.781	7317.8
209.855	7360.79
209.929	7400.05
210.003	7411.29
210.077	7404.32
210.151	7537.55
210.226	7628.97
210.3	7695.28
210.374	7757.79
210.448	7768.61
210.522	7790.4
210.596	7816.65
210.67	7841.8
210.744	7968.58
210.818	8052.26
210.892	8109.12
210.966	8095.61
211.041	8134.71
211.115	8123.65
211.189	8186.55
211.263	8233.15
211.337	8249.26
211.411	8278.23
211.485	8264.46
211.559	8297.36
211.633	8300.72
211.707	8216.2
211.781	8235.45
211.855	8149.82
211.929	8126.41
212.003	8081.27
212.077	8117.84
212.151	8147.48
212.225	8170.19
212.299	8139.96
212.373	8103.07
212.447	8085.94
212.52	8156.41
212.594	8165.41
212.668	8191.33
212.742	8153.24
212.816	8138.85
212.89	8123.61
212.964	8118.17
213.038	8126.59
213.112	8152.57
213.186	8189.5
213.26	8129.66
213.333	8001.79
213.407	8007.46
213.481	8008.62
213.555	8033.46
213.629	7998.38
213.703	7946.96
213.777	7934.93
213.85	7874.17
213.924	7969.25
213.998	7967.66
214.072	7946.87
214.146	7906.13
214.219	7896.94
214.293	7883.05
214.367	7882.52
214.441	7903.68
214.515	7867.65
214.588	7795.99
214.662	7699.68
214.736	7634.5
214.81	7646.61
214.883	7672.4
214.957	7639
215.031	7601.92
215.105	7530.08
215.178	7478.73
215.252	7453.26
215.326	7381.59
215.4	7322.08
215.473	7178.14
215.547	7110.84
215.621	7062.12
215.694	7055.96
215.768	6981.29
215.842	6927.78
215.915	6871.73
215.989	6783.54
216.063	6739.37
216.136	6721.12
216.21	6701.15
216.284	6711.38
216.357	6694.18
216.431	6656.87
216.504	6650.96
216.578	6693.58
216.652	6702.74
216.725	6682.85
216.799	6688.86
216.873	6667.59
216.946	6671.96
217.02	6643.89
217.093	6620.6
217.167	6541.09
217.24	6480.56
217.314	6448.46
217.387	6415.65
217.461	6385.69
217.535	6399.04
217.608	6353.77
217.682	6337.92
217.755	6347.57
217.829	6312.04
217.902	6297.78
217.976	6289.38
218.049	6254.78
218.123	6189.17
218.196	6191.9
218.27	6163.54
218.343	6106.06
218.417	6115.08
218.49	6097.14
218.563	6127.27
218.637	6138.94
218.71	6198.36
218.784	6214.97
218.857	6244
218.931	6262.9
219.004	6262.99
219.077	6282.4
219.151	6293.72
219.224	6288.1
219.298	6284.02
219.371	6313.7
219.444	6281.94
219.518	6289.18
219.591	6304.54
219.665	6389.18
219.738	6396.48
219.811	6386.31
219.885	6426.2
219.958	6443.97
220.031	6452.03
220.105	6468.26
220.178	6471
220.251	6446.79
220.325	6469.22
220.398	6479.83
220.471	6493.84
220.544	6525.2
220.618	6510.5
220.691	6538.73
220.764	6554.62
220.838	6574.55
220.911	6566
220.984	6632.77
221.057	6659.18
221.131	6676.6
221.204	6600.88
221.277	6659.63
221.35	6755.02
221.424	6747.43
221.497	6760.69
221.57	6778.11
221.643	6805.02
221.716	6836.92
221.79	6849.07
221.863	6856.61
221.936	6865.79
222.009	6879.28
222.082	6897.54
222.155	6903.44
222.229	6947.03
222.302	6966.82
222.375	6977.39
222.448	7000.69
222.521	7002.32
222.594	7003.52
222.667	6986.53
222.74	7036.43
222.814	7025.95
222.887	7013.69
222.96	7053.43
223.033	7083.52
223.106	7102.34
223.179	7124.02
223.252	7133.21
223.325	7151.7
223.398	7159.78
223.471	7183.8
223.544	7199.89
223.617	7215.94
223.69	7227.67
223.763	7202.14
223.837	7219.88
223.91	7238.47
223.983	7205.28
224.056	7180.35
224.129	7199.71
224.202	7237.41
224.275	7222.95
224.348	7201.66
224.42	7175.28
224.493	7135.2
224.566	7117.32
224.639	7131.2
224.712	7106.64
224.785	7095.97
224.858	7089.24
224.931	7073.23
225.004	7037.74
225.077	7040.09
225.15	6966.74
225.223	6971.02
225.296	7038.01
225.369	6993.09
225.442	6973.2
225.514	6991.4
225.587	7006.67
225.66	7008.5
225.733	7010.37
225.806	7017.24
225.879	7010.42
225.952	6983.96
226.025	7018.12
226.097	7061.4
226.17	7055.06
226.243	7007.12
226.316	7005.44
226.389	7010.63
226.461	7033.84
226.534	7052
226.607	7040.56
226.68	7103.48
226.753	7094.49
226.825	7026.55
226.898	7068.1
226.971	7065.26
227.044	7079.48
227.117	7085.44
227.189	7099.04
227.262	7126.49
227.335	7144.03
227.407	7144.66
227.48	7173.57
227.553	7183.09
227.626	7163.61
227.698	7174.56
227.771	7205.73
227.844	7188.57
227.916	7202.99
227.989	7165.94
228.062	7166.86
228.134	7235.89
228.207	7237.04
228.28	7233.15
228.352	7240.69
228.425	7250.59
228.498	7289.19
228.57	7276.99
228.643	7328.09
228.716	7332.23
228.788	7325.45
228.861	7318.82
228.934	7373.22
229.006	7380.19
229.079	7381.25
229.151	7370.57
229.224	7338.39
229.296	7359.82
229.369	7440.22
229.442	7475.08
229.514	7470.18
229.587	7505.75
229.659	7445.46
229.732	7453.25
229.804	7483.67
229.877	7549.65
229.949	7572.59
230.022	7610.74
230.094	7609.11
230.167	7597.56
230.239	7562.14
230.312	7557.19
230.384	7614.18
230.457	7603.37
230.529	7610.38
230.602	7606.92
230.674	7612.59
230.747	7641.9
230.819	7666.47
230.892	7580.69
230.964	7580.35
231.037	7600.05
231.109	7597.74
231.181	7630.32
231.254	7606.77
231.326	7600.47
231.399	7580.17
231.471	7558.24
231.544	7491.3
231.616	7527.15
231.688	7526.96
231.761	7519.94
231.833	7506.39
231.905	7441.08
231.978	7436.75
232.05	7418.11
232.122	7427.01
232.195	7411.48
232.267	7443.5
232.339	7422.58
232.412	7473.67
232.484	7454.29
232.556	7432.1
232.629	7482.12
232.701	7498.76
232.773	7503.14
232.846	7495.11
232.918	7497.56
232.99	7509.1
233.062	7545.88
233.135	7549.01
233.207	7525.59
233.279	7561.1
233.351	7587.11
233.424	7588.74
233.496	7575.04
233.568	7653.66
233.64	7620.35
233.713	7634.2
233.785	7631.89
233.857	7641.74
233.929	7595.79
234.001	7648.23
234.074	7702.15
234.146	7645.01
234.218	7637.7
234.29	7641.2
234.362	7634.14
234.434	7601.24
234.507	7577.78
234.579	7540.62
234.651	7534.8
234.723	7554.52
234.795	7568.03
234.867	7563.17
234.939	7605.29
235.012	7620.43
235.084	7615.14
235.156	7645.85
235.228	7628.55
235.3	7613.74
235.372	7626.19
235.444	7677.96
235.516	7613.07
235.588	7619.61
235.66	7630.04
235.732	7607.3
235.804	7757.61
235.876	7791.45
235.948	7838.78
236.02	7852.05
236.092	7866.13
236.164	7872.43
236.236	7876.18
236.308	7872.86
236.38	7901.09
236.452	7891.47
236.524	7909.36
236.596	7957.31
236.668	7983.14
236.74	8003.52
236.812	8026.94
236.884	8053.98
236.956	8061
237.028	8058.6
237.1	8043.98
237.172	8097.72
237.244	8156.73
237.316	8073.56
237.388	8059.38
237.46	8039.12
237.532	8084.53
237.604	8072.8
237.675	8128.95
237.747	8164.75
237.819	8154.89
237.891	8150.51
237.963	8143.11
238.035	8139.4
238.107	8054.42
238.178	8104.52
238.25	8109.47
238.322	8184.46
238.394	8153.39
238.466	8158.48
238.538	8192.48
238.609	8221.72
238.681	8181.35
238.753	8169.71
238.825	8176.78
238.897	8204.15
238.968	8269.85
239.04	8251.95
239.112	8346.19
239.184	8320.06
239.255	8309.66
239.327	8340.25
239.399	8356.22
239.471	8392.44
239.542	8418.71
239.614	8472.26
239.686	8407.38
239.758	8450.49
239.829	8416.4
239.901	8463.31
239.973	8470.19
240.044	8496.32
240.116	8511.86
240.188	8524.37
240.259	8535.29
240.331	8526.92
240.403	8551.99
240.474	8512.41
240.546	8508.9
240.618	8458.17
240.689	8453.99
240.761	8474.15
240.833	8524.21
240.904	8529.45
240.976	8530.27
241.048	8544.18
241.119	8568.92
241.191	8605.35
241.262	8659.42
241.334	8670.39
241.405	8671.45
241.477	8676.55
241.549	8682.33
241.62	8698.4
241.692	8737.05
241.763	8785.82
241.835	8803.2
241.906	8812.29
241.978	8792.37
242.049	8844.39
242.121	8890.88
242.192	8942.29
242.264	8914.38
242.335	8878.47
242.407	8907.01
242.478	8908.31
242.55	8921.98
242.621	8915
242.693	8916.68
242.764	8906.62
242.836	8897.04
242.907	8921.59
242.979	8947.24
243.05	8966.12
243.122	8991.1
243.193	8987.25
243.264	8930.88
243.336	8939.5
243.407	8974.35
243.479	9035.01
243.55	9051.28
243.622	9068.28
243.693	9069
243.764	9126.38
243.836	9106.99
243.907	9098.42
243.978	9102.85
244.05	9123.98
244.121	9087.93
244.192	9117.35
244.264	9080.08
244.335	9098.57
244.407	9061.5
244.478	9067.13
244.549	9059.28
244.62	9020.44
244.692	9020.1
244.763	9058.85
244.834	9048.4
244.906	9029.76
244.977	9045.85
245.048	9092
245.119	9071.34
245.191	9053.14
245.262	9003.66
245.333	9061.75
245.405	9079.61
245.476	9105.6
245.547	9121.59
245.618	9168.43
245.689	9176.18
245.761	9202.52
245.832	9204.44
245.903	9245.85
245.974	9273.25
246.045	9288.51
246.117	9357.84
246.188	9348.51
246.259	9334.64
246.33	9345.52
246.401	9352.36
246.473	9325.2
246.544	9307.56
246.615	9351.29
246.686	9356.05
246.757	9421.34
246.828	9406.08
246.899	9456.41
246.97	9429.45
247.042	9417.6
247.113	9441.49
247.184	9515.59
247.255	9511.59
247.326	9537.02
247.397	9538.61
247.468	9546.99
247.539	9547.08
247.61	9510.63
247.681	9542.45
247.752	9583.86
247.823	9569.95
247.894	9583.09
247.965	9562.44
248.037	9547.46
248.108	9511.68
248.179	9512.59
248.25	9503.3
248.321	9529.83
248.392	9498.13
248.463	9568.82
248.534	9569.15
248.605	9586.35
248.675	9560.67
248.746	9580.8
248.817	9591.49
248.888	9600.84
248.959	9548.78
249.03	9578.5
249.101	9584.28
249.172	9575.22
249.243	9517.55
249.314	9568.2
249.385	9578.08
249.456	9600.51
249.527	9600.66
249.598	9613.95
249.669	9610.86
249.739	9616.11
249.81	9625.51
249.881	9595.7
249.952	9577.64
250.023	9580.38
250.094	9541.9
250.165	9520.07
250.235	9510.53
250.306	9509.81
250.377	9490.93
250.448	9524.11
250.519	9473.64
250.59	9514.24
250.66	9509.04
250.731	9565.23
250.802	9568.7
250.873	9586.33
250.944	9603.86
251.014	9598.37
251.085	9671.21
251.156	9703.18
251.227	9741.62
251.297	9783.48
251.368	9825.38
251.439	9859.01
251.51	9894.7
251.58	9882.32
251.651	9885.31
251.722	9934.25
251.792	9902.32
251.863	9908.82
251.934	9953.28
252.005	10046.77
252.075	10053.9
252.146	10095.7
252.217	10133.47
252.287	10159.73
252.358	10162.81
252.429	10220.29
252.499	10214.17
252.57	10224.87
252.641	10260.52
252.711	10267.74
252.782	10233.59
252.852	10294.78
252.923	10299.65
252.994	10317.28
253.064	10358.94
253.135	10340.73
253.205	10320.74
253.276	10376.42
253.347	10422.33
253.417	10403.49
253.488	10377.9
253.558	10376.75
253.629	10377.95
253.699	10392.5
253.77	10416.12
253.841	10405.76
253.911	10416.84
253.982	10424.64
254.052	10449.42
254.123	10454.91
254.193	10458.76
254.264	10562.03
254.334	10535.77
254.405	10509.94
254.475	10478.44
254.546	10480.03
254.616	10524.68
254.687	10553.74
254.757	10569.44
254.827	10574.65
254.898	10597.77
254.968	10615.26
255.039	10603.32
255.109	10634.87
255.18	10602.01
255.25	10542.8
255.321	10568.28
255.391	10536.72
255.461	10612.9
255.532	10546.88
255.602	10541.53
255.673	10497.97
255.743	10478.26
255.813	10414.48
255.884	10452.79
255.954	10478.71
256.024	10535.23
256.095	10542.84
256.165	10511.33
256.235	10537.93
256.306	10518.13
256.376	10549.6
256.446	10576.3
256.517	10602.46
256.587	10636.34
256.657	10659.22
256.728	10681.96
256.798	10693.04
256.868	10687.31
256.938	10666.92
257.009	10704.36
257.079	10731.83
257.149	10807.14
257.219	10752.78
257.29	10784.57
257.36	10740.72
257.43	10779.56
257.5	10728.73
257.571	10720.49
257.641	10750.26
257.711	10712.48
257.781	10742.06
257.852	10756.91
257.922	10709.59
257.992	10708.48
258.062	10700.1
258.132	10737.44
258.202	10742.6
258.273	10750.02
258.343	10813.77
258.413	10793.39
258.483	10791.66
258.553	10768.43
258.623	10749.68
258.693	10776.96
258.764	10834.68
258.834	10891.05
258.904	10892.4
258.974	10884.4
259.044	10894.62
259.114	10915
259.184	10940.69
259.254	10950.76
259.324	10916.4
259.394	10951.57
259.464	11012.88
259.535	11022.08
259.605	11015.19
259.675	11006.9
259.745	11035.38
259.815	11010.27
259.885	11015.38
259.955	11108.89
260.025	11100.99
260.095	11116.36
260.165	11136.56
260.235	11181.43
260.305	11175.69
260.375	11161.19
260.445	11233.18
260.515	11280.99
260.585	11313.71
260.655	11323.54
260.725	11356.12
260.795	11383.16
260.865	11441.24
260.934	11417.76
261.004	11434.39
261.074	11443.11
261.144	11497.95
261.214	11527.88
261.284	11531.84
261.354	11566.96
261.424	11529.8
261.494	11582.42
261.564	11585.99
261.634	11608.5
261.703	11561.84
261.773	11578.85
261.843	11599.53
261.913	11596.3
261.983	11556.05
262.053	11579.91
262.123	11582.71
262.192	11552.44
262.262	11582.52
262.332	11544.39
262.402	11568.06
262.472	11576.3
262.541	11526.76
262.611	11562.62
262.681	11547.2
262.751	11580.84
262.821	11585.61
262.89	11557.17
262.96	11580.26
263.03	11638.83
263.1	11657.34
263.169	11672.95
263.239	11692.47
263.309	11754.51
263.379	11773.74
263.448	11797.35
263.518	11816.68
263.588	11824.25
263.657	11880.35
263.727	11908.5
263.797	11913.18
263.867	11914.91
263.936	11884.98
264.006	11935
264.076	11922.71
264.145	11914.61
264.215	11898.08
264.285	11926.76
264.354	11895.62
264.424	11885.74
264.494	11846.65
264.563	11836.05
264.633	11897.99
264.702	11918.52
264.772	11863.23
264.842	11861.4
264.911	11878.41
264.981	11844.77
265.05	11852.86
265.12	11847.37
265.19	11852.38
265.259	11896.82
265.329	11922.47
265.398	11949.46
265.468	12026.2
265.537	12027.5
265.607	12062.44
265.676	12100.43
265.746	12115.61
265.815	12163.18
265.885	12172.53
265.955	12165.74
266.024	12168.34
266.094	12123.85
266.163	12181.64
266.232	12243.54
266.302	12259.73
266.371	12283.3
266.441	12305.48
266.51	12343.85
266.58	12349.2
266.649	12344.86
266.719	12378.94
266.788	12403.09
266.858	12457.37
266.927	12405.4
266.996	12427.77
267.066	12451.44
267.135	12432.01
267.205	12469.71
267.274	12488.51
267.343	12527.65
267.413	12541.82
267.482	12593.69
267.552	12639.82
267.621	12599.42
267.69	12562.84
267.76	12582.31
267.829	12603.91
267.898	12616.68
267.968	12609.06
268.037	12646.38
268.106	12683.64
268.176	12663.34
268.245	12672.36
268.314	12668.55
268.384	12712.13
268.453	12723.26
268.522	12740.23
268.592	12788.58
268.661	12779.18
268.73	12809.02
268.799	12796.15
268.869	12866.33
268.938	12828.15
269.007	12824.54
269.076	12842.28
269.146	12889.33
269.215	12910.3
269.284	12961.83
269.353	12959.9
269.422	12965.93
269.492	12947.99
269.561	12885.67
269.63	12904.51
269.699	12904.56
269.768	12922.11
269.838	12939.37
269.907	12977.31
269.976	12953.73
270.045	12920.42
270.114	12943.8
270.183	12944.72
270.253	12976.15
270.322	12933.68
270.391	12958.99
270.46	13010.95
270.529	13042.29
270.598	13080.27
270.667	13082.83
270.736	13057.62
270.806	13081.96
270.875	13123.27
270.944	13144.97
271.013	13250.68
271.082	13278.4
271.151	13298.98
271.22	13262.73
271.289	13277.34
271.358	13283.9
271.427	13316.77
271.496	13333.45
271.565	13332.83
271.634	13352.49
271.703	13452.71
271.772	13509.69
271.841	13526.03
271.91	13505.16
271.979	13525.74
272.048	13487.37
272.117	13522.32
272.186	13525.55
272.255	13567.11
272.324	13598.15
272.393	13622.25
272.462	13612.47
272.531	13635.17
272.6	13646.21
272.669	13710.95
272.738	13720.64
272.807	13748.6
272.876	13734.43
272.945	13845.26
273.013	13895.73
273.082	13944.32
273.151	13875.19
273.22	13895.54
273.289	13909.13
273.358	13971.99
273.427	13978.5
273.496	14020.54
273.564	14054.28
273.633	14106.44
273.702	14095.35
273.771	14106.2
273.84	14135.07
273.909	14164.14
273.977	14187.52
274.046	14205.94
274.115	14246.96
274.184	14243.63
274.253	14251.1
274.322	14312.42
274.39	14269.13
274.459	14267.06
274.528	14228.88
274.597	14244.69
274.665	14268.51
274.734	14319.32
274.803	14317.34
274.872	14337.1
274.94	14343.03
275.009	14518.04
275.078	14504.78
275.147	14541.51
275.215	14562.68
275.284	14620.95
275.353	14627.17
275.421	14598.88
275.49	14666.46
275.559	14670.51
275.627	14691.09
275.696	14719.58
275.765	14751.73
275.833	14762.53
275.902	14794.2
275.971	14864.29
276.039	14934.14
276.108	14970.34
276.177	14998.49
276.245	15010.64
276.314	15031.41
276.383	15075.04
276.451	14943.46
276.52	14997.21
276.588	15057.18
276.657	15108.17
276.725	15108.56
276.794	15148.23
276.863	15226.42
276.931	15205.74
277	15262.66
277.068	15328.32
277.137	15400.81
277.205	15426.02
277.274	15505.75
277.342	15573.18
277.411	15555.01
277.48	15560.64
277.548	15571.44
277.617	15612.41
277.685	15635.6
277.754	15678.88
277.822	15700.09
277.89	15776.29
277.959	15783.47
278.027	15765.5
278.096	15772.53
278.164	15876.2
278.233	15889.22
278.301	15886.62
278.37	15931.39
278.438	15936.65
278.507	15961.66
278.575	15933.18
278.643	15962.92
278.712	15954.48
278.78	15941.95
278.849	16015.94
278.917	16076.09
278.985	16103.8
279.054	16144.63
279.122	16206.37
279.191	16240.93
279.259	16260.98
279.327	16232.49
279.396	16311.44
279.464	16339.35
279.532	16393.14
279.601	16415.45
279.669	16438.92
279.737	16510.4
279.806	16550.64
279.874	16604.62
279.942	16643.9
280.011	16666.17
280.079	16713.21
280.147	16780.49
280.215	16825.65
280.284	16835.96
280.352	16830.18
280.42	16879.72
280.488	16895.1
280.557	16910.13
280.625	16948.02
280.693	16984.6
280.761	17030.14
280.83	17027.3
280.898	17096.51
280.966	17082.48
281.034	17032.65
281.102	17028.55
281.171	17039.54
281.239	17097.28
281.307	17104.17
281.375	17113.37
281.443	17211.49
281.512	17238.53
281.58	17290.29
281.648	17290
281.716	17322.68
281.784	17356.31
281.852	17373.9
281.92	17398.29
281.989	17458.77
282.057	17453.95
282.125	17564.07
282.193	17598.91
282.261	17632.98
282.329	17652.31
282.397	17696.89
282.465	17743.73
282.533	17824.31
282.601	17837.08
282.67	17809.32
282.738	17825.47
282.806	17889.03
282.874	17889.23
282.942	17935.54
283.01	17962.38
283.078	18021.41
283.146	18057.27
283.214	18118.28
283.282	18160.88
283.35	18226.37
283.418	18250.22
283.486	18297.74
283.554	18270.61
283.622	18300.97
283.69	18334.99
283.758	18361.21
283.826	18412.63
283.894	18463.71
283.962	18549.15
284.03	18620.71
284.098	18673.14
284.165	18708.23
284.233	18737.48
284.301	18759.93
284.369	18770.39
284.437	18778.44
284.505	18794.49
284.573	18869.47
284.641	18875.01
284.709	18939.01
284.777	18927.35
284.845	18978.62
284.912	19037.75
284.98	19084.2
285.048	19099.67
285.116	19151.38
285.184	19218.89
285.252	19258.65
285.319	19256.68
285.387	19268.96
285.455	19266.89
285.523	19317.2
285.591	19342.94
285.659	19378.11
285.726	19444.23
285.794	19443.56
285.862	19476.81
285.93	19511.94
285.997	19524.9
286.065	19555.94
286.133	19563.36
286.201	19595.93
286.269	19601.33
286.336	19608.17
286.404	19627.02
286.472	19692.36
286.539	19669.14
286.607	19666.2
286.675	19704.12
286.743	19768.79
286.81	19794.14
286.878	19863.1
286.946	19880.74
287.013	19921.8
287.081	19954.67
287.149	19952.31
287.216	20047.77
287.284	20071.24
287.352	20102.9
287.419	20141.84
287.487	20225.84
287.555	20269.84
287.622	20298.18
287.69	20341.46
287.758	20413.65
287.825	20432.83
287.893	20438.81
287.96	20498.9
288.028	20559.72
288.096	20588.64
288.163	20627.53
288.231	20626.76
288.298	20663.48
288.366	20739.1
288.433	20763.97
288.501	20781.47
288.569	20831.15
288.636	20848.75
288.704	20921.43
288.771	20985.62
288.839	20991.93
288.906	20992.9
288.974	21051.37
289.041	21086.45
289.109	21102.98
289.176	21151.91
289.244	21205.98
289.311	21265.17
289.379	21324.4
289.446	21365.71
289.514	21406.92
289.581	21436.03
289.649	21484.42
289.716	21516.19
289.783	21518.07
289.851	21603.14
289.918	21649.22
289.986	21714.29
290.053	21764.85
290.121	21796.24
290.188	21833.5
290.255	21945.43
290.323	21965.09
290.39	21986.6
290.458	22038.7
290.525	22106.43
290.592	22124.6
290.66	22157.77
290.727	22190.74
290.794	22258.42
290.862	22285.03
290.929	22329.1
290.996	22362.65
291.064	22425.41
291.131	22493.35
291.198	22561.08
291.266	22595.26
291.333	22632.86
291.4	22669.99
291.468	22743.38
291.535	22769.46
291.602	22816.37
291.669	22836.05
291.737	22888.64
291.804	22918.78
291.871	23003.49
291.938	23060.49
292.006	23167.85
292.073	23248.56
292.14	23305.46
292.207	23324.22
292.275	23369.06
292.342	23430.01
292.409	23533.65
292.476	23634.26
292.543	23639.52
292.611	23682.73
292.678	23757.63
292.745	23853.45
292.812	23912.2
292.879	23931.93
292.946	23975.66
293.014	24040.78
293.081	24099.24
293.148	24165.98
293.215	24249.04
293.282	24261.15
293.349	24314.5
293.416	24297.14
293.484	24359.46
293.551	24420.58
293.618	24496.56
293.685	24594.68
293.752	24598.45
293.819	24624.98
293.886	24611.14
293.953	24679.15
294.02	24739.27
294.087	24795.29
294.154	24811.64
294.221	24883.74
294.288	24922.29
294.356	25004.89
294.423	25055.41
294.49	25060.91
294.557	25136.19
294.624	25149.6
294.691	25236.94
294.758	25280.27
294.825	25345.37
294.892	25365.4
294.959	25404.83
295.026	25458.59
295.093	25493.74
295.16	25548.59
295.226	25596.33
295.293	25704.6
295.36	25757.3
295.427	25821.65
295.494	25891.04
295.561	25962.9
295.628	26056.12
295.695	26141.37
295.762	26187.33
295.829	26249.91
295.896	26341.96
295.963	26412.02
296.03	26481.15
296.096	26535.81
296.163	26608.15
296.23	26681.64
296.297	26751.65
296.364	26783.76
296.431	26836.83
296.498	26852.47
296.564	26960.63
296.631	27015.49
296.698	27013.41
296.765	27098.13
296.832	27113.05
296.899	27116.19
296.965	27198.55
297.032	27187
297.099	27262.18
297.166	27324.98
297.233	27357.05
297.299	27374.05
297.366	27410.58
297.433	27450.53
297.5	27518.12
297.566	27559.1
297.633	27597.56
297.7	27656.8
297.767	27706.16
297.833	27765.5
297.9	27822.21
297.967	27817.91
298.033	27880.63
298.1	28004.79
298.167	28023.3
298.234	28081.72
298.3	28148.45
298.367	28172.47
298.434	28231.92
298.5	28247.97
298.567	28272.57
298.634	28317.9
298.7	28410.94
298.767	28452.6
298.834	28532.07
298.9	28556.29
298.967	28559.38
299.033	28613
299.1	28678.85
299.167	28752.94
299.233	28783.4
299.3	28852.87
299.366	28927.78
299.433	28996.94
299.5	28958.4
299.566	29007.52
299.633	29087.55
299.699	29159.51
299.766	29194.03
299.832	29239.64
299.899	29305.23
299.965	29381.78
300.032	29410.88
300.099	29458.43
300.165	29506.89
300.232	29541.62
300.298	29580.07
300.365	29662.47
300.431	29709.73
300.498	29726.03
300.564	29787.66
300.631	29844.11
300.697	29920.66
300.763	29961.14
300.83	30009.58
300.896	30105.41
300.963	30171.83
301.029	30223.91
301.096	30261.31
301.162	30329.68
301.229	30366.21
301.295	30377.39
301.361	30423.32
301.428	30472.56
301.494	30465.25
301.561	30526.19
301.627	30563.74
301.693	30608.93
301.76	30661.97
301.826	30685.59
301.892	30764.63
301.959	30821.46
302.025	30855.49
302.092	30872.29
302.158	30939.12
302.224	30970.02
302.291	30989.52
302.357	31017.79
302.423	31039.82
302.49	31057.39
302.556	31117.53
302.622	31148.22
302.688	31212.08
302.755	31283.7
302.821	31349.63
302.887	31428.72
302.954	31457.87
303.02	31513.65
303.086	31571.12
303.152	31600.99
303.219	31641.95
303.285	31687.63
303.351	31733.26
303.417	31772.23
303.483	31797.51
303.55	31810.83
303.616	31851.95
303.682	31888.9
303.748	31910.93
303.815	31989.31
303.881	32059.4
303.947	32066.13
304.013	32114.85
304.079	32133.16
304.145	32120.47
304.212	32147.64
304.278	32168.12
304.344	32188.08
304.41	32190.5
304.476	32209.01
304.542	32235.21
304.608	32274.73
304.674	32269.6
304.741	32288.16
304.807	32330.21
304.873	32381.31
304.939	32464.35
305.005	32451.56
305.071	32474.43
305.137	32510.76
305.203	32478.58
305.269	32497.77
305.335	32576.23
305.401	32596.87
305.467	32621.38
305.533	32673.62
305.599	32733.95
305.666	32786.76
305.732	32825.08
305.798	32902.52
305.864	32995.53
305.93	33050.67
305.996	33093.8
306.062	33133.05
306.128	33157.97
306.194	33164.99
306.259	33194.46
306.325	33191.94
306.391	33254.89
306.457	33309.36
306.523	33355.83
306.589	33447.64
306.655	33451.08
306.721	33415.59
306.787	33427.13
306.853	33500.9
306.919	33498.58
306.985	33507.06
307.051	33526.25
307.117	33542
307.183	33565.13
307.248	33525.67
307.314	33560.19
307.38	33588.3
307.446	33634.8
307.512	33644.83
307.578	33682.39
307.644	33700.86
307.709	33741.88
307.775	33763.31
307.841	33770.14
307.907	33792.3
307.973	33771.64
308.039	33818.08
308.104	33874.07
308.17	33914.26
308.236	33910.77
308.302	33940.19
308.368	33935.15
308.433	33963.27
308.499	33986
308.565	33984.21
308.631	34023.19
308.696	33990.42
308.762	33995.07
308.828	34015.97
308.894	34003.95
308.959	33995.52
309.025	33999.15
309.091	34017.68
309.156	34032.18
309.222	34090.03
309.288	34098.07
309.354	34084.99
309.419	34118.01
309.485	34110.16
309.551	34149.39
309.616	34148.56
309.682	34167.42
309.748	34194.67
309.813	34212.13
309.879	34212.66
309.945	34205.49
310.01	34228.13
310.076	34273.86
310.141	34289.47
310.207	34284.91
310.273	34325.44
310.338	34367.04
310.404	34362.19
310.469	34348.57
310.535	34351.28
310.601	34308.51
310.666	34360.06
310.732	34416.36
310.797	34404.92
310.863	34408.75
310.928	34407.68
310.994	34443.37
311.059	34478.83
311.125	34486.97
311.191	34547.42
311.256	34554.3
311.322	34600.42
311.387	34570.21
311.453	35338.92
311.518	35335.23
311.584	35356.33
311.649	35396.06
311.715	35398.67
311.78	35442.22
311.846	35462.83
311.911	35502.17
311.976	35543.49
312.042	35529.91
312.107	35518.51
312.173	35521.08
312.238	35542.08
312.304	35569.24
312.369	35568.9
312.434	35559.25
312.5	35578.26
312.565	35510.44
312.631	35559.91
312.696	35571.6
312.761	35614.14
312.827	34872.78
312.892	34964.95
312.958	34985.57
313.023	35003.08
313.088	35028.6
313.154	35013.71
313.219	35014.39
313.284	35010.85
313.35	35028.02
313.415	35027.19
313.48	35028.7
313.546	35065.9
313.611	35119.36
313.676	35114.66
313.741	35124.02
313.807	35170.88
313.872	35207.26
313.937	35260.91
314.003	35309
314.068	35329.66
314.133	35368.72
314.198	35381.57
314.264	35361.63
314.329	35353.82
314.394	35374.73
314.459	35387.88
314.525	35467.58
314.59	35504.6
314.655	35497.03
314.72	35542.16
314.785	35573.74
314.851	35588.82
314.916	35571.16
314.981	35554.86
315.046	35562.28
315.111	35558.69
315.176	35553.36
315.242	35590.04
315.307	35602.66
315.372	35573.54
315.437	35588.97
315.502	35590.52
315.567	35635.02
315.632	35623.13
315.698	35657.24
315.763	35655.64
315.828	35658.02
315.893	35668.16
315.958	35654.82
316.023	35675.63
316.088	35629.97
316.153	35587.53
316.218	35595.97
316.283	35567.35
316.348	35533.44
316.413	35538.97
316.479	35515.06
316.544	35438.77
316.609	35357.12
316.674	35273.49
316.739	35174.66
316.804	35064.75
316.869	34961.15
316.934	34853.8
316.999	34753.94
317.064	34605.4
317.129	34476.98
317.194	34362.89
317.259	34207.11
317.324	34051.12
317.389	33891.57
317.454	33771.62
317.518	33663.81
317.583	33565.87
317.648	33464.37
317.713	33345.81
317.778	33151.63
317.843	33045.15
317.908	32904.01
317.973	32761.59
318.038	32647.28
318.103	32527.93
318.168	32425.31
318.233	32299.84
318.297	32126.19
318.362	31986.55
318.427	31850.34
318.492	31742.42
318.557	31580.96
318.622	31469.18
318.687	31373.67
318.751	31239.85
318.816	31101.91
318.881	30970.82
318.946	30779.07
319.011	30617.86
319.075	30453.37
319.14	30308.19
319.205	30126.25
319.27	29995.55
319.335	29831.32
319.399	29669.21
319.464	29541.46
319.529	29329.61
319.594	29168.42
319.658	29029.31
319.723	28861.98
319.788	28721.26
319.853	28521.11
319.917	28376.08
319.982	28163
320.047	27986.22
320.112	27846.28
320.176	27639.49
320.241	27467.08
320.306	27321.08
320.37	27146.71
320.435	26987.75
320.5	26847.6
320.564	26676.26
320.629	26477.2
320.694	26313.86
320.758	26126.91
320.823	25923.23
320.888	25787.75
320.952	25587.01
321.017	25397.72
321.082	25217.53
321.146	25042.16
321.211	24871.64
321.275	24677.5
321.34	24481.95
321.405	24299.17
321.469	24090
321.534	23908.81
321.598	23692.45
321.663	23509.39
321.727	23345.81
321.792	23141.29
321.857	22944.34
321.921	22758.8
321.986	22574.4
322.05	22341.35
322.115	22160.18
322.179	21967.25
322.244	21726.18
322.308	21560.41
322.373	21359.7
322.437	21164.97
322.502	21009.08
322.566	20805.29
322.631	20638.92
322.695	20454.48
322.76	20247.49
322.824	20073.75
322.889	19877.6
322.953	19679.44
323.018	19427.58
323.082	19173.94
323.146	18948.3
323.211	18729.51
323.275	18528.17
323.34	18320.7
323.404	18144.31
323.468	17932.8
323.533	17725.81
323.597	17525.89
323.662	17294.95
323.726	17112.73
323.79	16904
323.855	16644.18
323.919	16436.94
323.983	16220.77
324.048	15914.65
324.112	15974.65
324.177	15336
324.241	14497.56
324.305	13672.58
324.37	12868.44
324.434	12079.85
324.498	11863.14
324.562	11607.52
324.627	11323.45
324.691	11049.54
324.755	10736.58
324.82	10382.9
324.884	10010.23
324.948	9634.26
325.012	9175.29
325.077	8602.79
