Data from 20250626_urea_1M_exp2_MAYP1162681_18-44-00-199.txt Node
Date: Thu Jun 26 18:44:00 BST 2025
User: adleo
Spectrometer: MAYP116268
Trigger mode: 0
Integration Time (sec): 3.000000E0
Scans to average: 1
Electric dark correction enabled: true
Nonlinearity correction enabled: true
Boxcar width: 10
XAxis mode: Wavelengths
Number of Pixels in Spectrum: 2068
>>>>>Begin Spectral Data<<<<<
179.565	3136.06
179.642	3303.44
179.718	3428.98
179.795	3549.66
179.871	3646.87
179.948	3704.91
180.024	3765.82
180.101	3834.99
180.177	3875.35
180.254	3937.55
180.33	4003.37
180.407	4224.32
180.483	4470.43
180.56	4723.51
180.636	4953.77
180.712	4927.56
180.789	4957.06
180.865	4989.8
180.942	5013.93
181.018	5044.01
181.095	5080.19
181.171	5096.62
181.248	5099.78
181.324	5146.37
181.4	5161.94
181.477	5190.98
181.553	5218.94
181.63	5277.51
181.706	5317.05
181.782	5345.68
181.859	5350.62
181.935	5364.08
182.011	5355.98
182.088	5401.14
182.164	5450.78
182.24	5484.22
182.317	5508.76
182.393	5505.74
182.469	5544.7
182.546	5577.59
182.622	5593.12
182.698	5580.6
182.775	5614.55
182.851	5653.38
182.927	5629.84
183.003	5621.21
183.08	5605.59
183.156	5633.87
183.232	5630.51
183.308	5602.03
183.385	5621.49
183.461	5665.27
183.537	5667.86
183.613	5702.67
183.69	5679.27
183.766	5650.53
183.842	5675.09
183.918	5689.42
183.995	5720.83
184.071	5730.28
184.147	5719.82
184.223	5686.33
184.299	5719.09
184.375	5682.84
184.452	5696.9
184.528	5807.63
184.604	5837.54
184.68	5869.62
184.756	5888.09
184.832	5890.3
184.908	5905.73
184.985	5907.93
185.061	5861.71
185.137	5892.46
185.213	5859.61
185.289	5858.66
185.365	5835.45
185.441	5828.45
185.517	5866.36
185.593	5862.14
185.669	5854.32
185.745	5880.32
185.822	5928.63
185.898	5909.49
185.974	5938.3
186.05	5916.08
186.126	5847.09
186.202	5822.25
186.278	5809.45
186.354	5788.05
186.43	5807.34
186.506	5801.83
186.582	5796.7
186.658	5822.25
186.734	5763.37
186.81	5769.41
186.886	5778.71
186.962	5813.32
187.038	5801.96
187.114	5776.37
187.19	5791.63
187.266	5766.12
187.341	5772.22
187.417	5748.82
187.493	5744.6
187.569	5753.38
187.645	5742.2
187.721	5712.03
187.797	5737.58
187.873	5754.8
187.949	5732.08
188.025	5713.08
188.101	5723.15
188.176	5736.48
188.252	5721.09
188.328	5740.64
188.404	5737.57
188.48	5729.23
188.556	5708.51
188.632	5708.85
188.707	5711.87
188.783	5707.07
188.859	5695.43
188.935	5663.77
189.011	5687.26
189.086	5675.61
189.162	5650.68
189.238	5644.92
189.314	5640.61
189.39	5624.69
189.465	5604.83
189.541	5653.98
189.617	5618.07
189.693	5600.77
189.768	5612.09
189.844	5678.64
189.92	5656.46
189.996	5681.11
190.071	5707.29
190.147	5705.18
190.223	5728.78
190.298	5707.24
190.374	5669.89
190.45	5702.53
190.526	5724.79
190.601	5710.49
190.677	5711.5
190.753	5795.07
190.828	5802.84
190.904	5839.87
190.98	5878.88
191.055	5907.23
191.131	5889.86
191.207	5945.01
191.282	5970.9
191.358	5940.68
191.433	5902.67
191.509	5940.53
191.585	5934.68
191.66	5935.92
191.736	5962.97
191.811	5937.46
191.887	5982.71
191.963	6048.38
192.038	6065.89
192.114	6067.91
192.189	6075.77
192.265	6070.45
192.34	6001.46
192.416	5996.47
192.491	5985.29
192.567	5996.62
192.642	6001.85
192.718	6001.71
192.793	5968.51
192.869	5958.34
192.944	5967.16
193.02	5987.08
193.095	5993.46
193.171	6014.14
193.246	6016.59
193.322	6008.29
193.397	6011.02
193.473	5974.06
193.548	5924.21
193.624	5937.84
193.699	5932.18
193.775	5979.5
193.85	5984.44
193.925	6008.72
194.001	6008.52
194.076	5992.36
194.152	5961.16
194.227	5940.24
194.302	5911.14
194.378	5923.85
194.453	5916.94
194.529	5954.46
194.604	5915.22
194.679	5904.66
194.755	5845.74
194.83	5881.12
194.905	5870.86
194.981	5896.28
195.056	5873.46
195.131	5892.02
195.207	5882.9
195.282	5853.07
195.357	5800.66
195.433	5840.86
195.508	5810.2
195.583	5836.68
195.659	5873.87
195.734	5889.9
195.809	5887.31
195.884	5911.18
195.96	5908.64
196.035	5948.31
196.11	5938.47
196.185	5971.95
196.261	5970.66
196.336	6060.03
196.411	6013.9
196.486	6028.1
196.561	6013.27
196.637	6045.31
196.712	6091.54
196.787	6099.22
196.862	6147.57
196.937	6171.6
197.013	6191.86
197.088	6219.45
197.163	6272.03
197.238	6313.78
197.313	6315.08
197.388	6355.2
197.464	6444.19
197.539	6478.17
197.614	6459.31
197.689	6486.92
197.764	6530.14
197.839	6589.23
197.914	6572.42
197.989	6641.9
198.065	6681.41
198.14	6819.16
198.215	6888.66
198.29	6919.27
198.365	6958.95
198.44	6991.51
198.515	7070.21
198.59	7101.77
198.665	7174.61
198.74	7194.89
198.815	7204.03
198.89	7268.89
198.965	7349.99
199.04	7329.42
199.115	7368
199.19	7487.12
199.265	7497.78
199.34	7519.27
199.415	7612.62
199.49	7671.44
199.565	7694.37
199.64	7760.28
199.715	7749.16
199.79	7762.05
199.865	7778.4
199.94	7770.62
200.015	7854.25
200.09	7866.28
200.165	7886.57
200.24	7903.16
200.315	8008.13
200.39	8046.66
200.464	8058.49
200.539	8060.94
200.614	8108.35
200.689	8176.56
200.764	8193.55
200.839	8241.1
200.914	8260.82
200.989	8231.75
201.063	8268.98
201.138	8221.59
201.213	8223.09
201.288	8171.33
201.363	8185.09
201.438	8184.41
201.512	8228.93
201.587	8180.43
201.662	8192.12
201.737	8229.74
201.812	8256.83
201.886	8167.93
201.961	8193.34
202.036	8161.85
202.111	8154.34
202.186	8073.3
202.26	8018.7
202.335	7959.24
202.41	7948.61
202.485	7899.91
202.559	7845.43
202.634	7773.54
202.709	7796.89
202.784	7741.35
202.858	7741.59
202.933	7691.4
203.008	7671.3
203.082	7615.59
203.157	7617.37
203.232	7501.23
203.306	7438.08
203.381	7348.12
203.456	7284.29
203.53	7215.93
203.605	7166.5
203.68	7100.59
203.754	7087.1
203.829	7050.71
203.904	6993.64
203.978	6958.65
204.053	6978.45
204.127	6946.75
204.202	6935.75
204.277	6883.87
204.351	6867.49
204.426	6846.06
204.5	6823.82
204.575	6724.97
204.65	6754.81
204.724	6729.24
204.799	6757.84
204.873	6747.31
204.948	6740.49
205.022	6710.73
205.097	6689.54
205.171	6722.29
205.246	6746.75
205.32	6740.46
205.395	6740.03
205.469	6717.14
205.544	6730.45
205.618	6674.3
205.693	6702.06
205.767	6672.24
205.842	6731.28
205.916	6711.21
205.991	6683.59
206.065	6698.09
206.14	6742.8
206.214	6732.56
206.289	6707.72
206.363	6733.9
206.438	6744.33
206.512	6765.66
206.586	6818.43
206.661	6846.02
206.735	6787.12
206.81	6787.84
206.884	6832.83
206.958	6793.61
207.033	6837.86
207.107	6854.21
207.181	6942.34
207.256	6927.74
207.33	6980.62
207.405	7014.81
207.479	7067.65
207.553	7087.77
207.628	7045.96
207.702	7081.69
207.776	7057.72
207.851	7068.24
207.925	7108.81
207.999	7094.4
208.073	7087.57
208.148	7095.98
208.222	7065.7
208.296	7156.12
208.371	7204.7
208.445	7236.43
208.519	7322.08
208.593	7359.52
208.668	7348.41
208.742	7353.03
208.816	7359.85
208.89	7398.66
208.965	7395.48
209.039	7417.46
209.113	7459.9
209.187	7516.03
209.261	7510.5
209.336	7567.56
209.41	7623.04
209.484	7622.99
209.558	7689.34
209.632	7722.84
209.707	7754.72
209.781	7812.51
209.855	7854.17
209.929	7894.27
210.003	7903.88
210.077	7893.45
210.151	8021.97
210.226	8122.1
210.3	8199.47
210.374	8268.22
210.448	8275.72
210.522	8300.65
210.596	8333.12
210.67	8359.87
210.744	8493.55
210.818	8583.44
210.892	8641.19
210.966	8626.28
211.041	8670.64
211.115	8661.93
211.189	8737.38
211.263	8783.33
211.337	8798.44
211.411	8838.11
211.485	8821.4
211.559	8859.46
211.633	8872.3
211.707	8787.79
211.781	8804.41
211.855	8704.68
211.929	8679.81
212.003	8634.08
212.077	8669.12
212.151	8692.85
212.225	8721.59
212.299	8694.47
212.373	8655.35
212.447	8638.74
212.52	8716.18
212.594	8726.04
212.668	8754.77
212.742	8706.26
212.816	8686.28
212.89	8671.94
212.964	8667.03
213.038	8674.83
213.112	8708.92
213.186	8746.35
213.26	8681.04
213.333	8549.97
213.407	8563.29
213.481	8571.47
213.555	8597.09
213.629	8559.06
213.703	8513.25
213.777	8503.09
213.85	8436.62
213.924	8527.08
213.998	8525.44
214.072	8504.35
214.146	8460.61
214.219	8447.76
214.293	8432.12
214.367	8435.45
214.441	8452.72
214.515	8407.43
214.588	8335.93
214.662	8224.22
214.736	8158.04
214.81	8178.27
214.883	8198.32
214.957	8162.5
215.031	8113.75
215.105	8041.53
215.178	7990.3
215.252	7959.81
215.326	7879.6
215.4	7815.48
215.473	7666.71
215.547	7593.08
215.621	7539.37
215.694	7538.03
215.768	7460.57
215.842	7410.19
215.915	7353.15
215.989	7263
216.063	7223.99
216.136	7208.32
216.21	7195.35
216.284	7205.59
216.357	7188.86
216.431	7152.68
216.504	7144.75
216.578	7189.79
216.652	7195.93
216.725	7176.37
216.799	7186.71
216.873	7172.44
216.946	7179.55
217.02	7148.73
217.093	7128.83
217.167	7048.93
217.24	6974.58
217.314	6939.48
217.387	6900.5
217.461	6861.49
217.535	6878.02
217.608	6817.3
217.682	6796.4
217.755	6805.19
217.829	6761.37
217.902	6742.68
217.976	6722.56
218.049	6682.27
218.123	6620.27
218.196	6620.32
218.27	6592.13
218.343	6533.89
218.417	6530.29
218.49	6512.23
218.563	6549.16
218.637	6561.84
218.71	6625.54
218.784	6655.71
218.857	6684.41
218.931	6704.33
219.004	6710.62
219.077	6728.89
219.151	6750.82
219.224	6745.16
219.298	6738.81
219.371	6774.03
219.444	6743.11
219.518	6755.64
219.591	6773.36
219.665	6859.46
219.738	6876.17
219.811	6861.77
219.885	6896.31
219.958	6924.65
220.031	6923.5
220.105	6936.62
220.178	6940.94
220.251	6916.96
220.325	6935.51
220.398	6947.95
220.471	6963.99
220.544	6992.48
220.618	6970.09
220.691	6994.63
220.764	7008.52
220.838	7031.77
220.911	7017.12
220.984	7084.75
221.057	7117.76
221.131	7141.58
221.204	7060.48
221.277	7115.71
221.35	7221.06
221.424	7217.02
221.497	7230.77
221.57	7253.48
221.643	7284.4
221.716	7316.13
221.79	7319.3
221.863	7325.31
221.936	7335.54
222.009	7348.03
222.082	7369.81
222.155	7378.46
222.229	7432.79
222.302	7457.69
222.375	7466.92
222.448	7500.95
222.521	7507.49
222.594	7505.47
222.667	7478.96
222.74	7527.26
222.814	7519.94
222.887	7500.85
222.96	7546.57
223.033	7576.82
223.106	7600.36
223.179	7619.85
223.252	7631.25
223.325	7653.65
223.398	7663.12
223.471	7684.08
223.544	7696.43
223.617	7712.59
223.69	7735.42
223.763	7702.04
223.837	7717
223.91	7736.09
223.983	7694.56
224.056	7666.05
224.129	7682.88
224.202	7733.48
224.275	7724.1
224.348	7698.14
224.42	7670.39
224.493	7623.52
224.566	7605.62
224.639	7620.43
224.712	7598.59
224.785	7587.87
224.858	7582.1
224.931	7565.56
225.004	7534.07
225.077	7539.36
225.15	7465.78
225.223	7460.25
225.296	7527.22
225.369	7480.84
225.442	7459.01
225.514	7480.77
225.587	7501.54
225.66	7516.11
225.733	7515.44
225.806	7516.93
225.879	7514.09
225.952	7487.08
226.025	7526.6
226.097	7565.47
226.17	7552.4
226.243	7496.41
226.316	7488.47
226.389	7491.93
226.461	7510.93
226.534	7527.22
226.607	7520.39
226.68	7587.1
226.753	7581.19
226.825	7507.68
226.898	7555.5
226.971	7555.46
227.044	7568.77
227.117	7567.38
227.189	7577.96
227.262	7607.68
227.335	7627.74
227.407	7624.47
227.48	7654.84
227.553	7660.42
227.626	7645.55
227.698	7660.12
227.771	7697.02
227.844	7684.66
227.916	7701.54
227.989	7671.25
228.062	7673.32
228.134	7749.17
228.207	7746.09
228.28	7742.59
228.352	7759.99
228.425	7766.48
228.498	7810.88
228.57	7791.98
228.643	7841.67
228.716	7842.97
228.788	7830.71
228.861	7829.65
228.934	7878.31
229.006	7883.6
229.079	7882.83
229.151	7873.83
229.224	7841.19
229.296	7864.51
229.369	7951.79
229.442	7990.86
229.514	7980.96
229.587	8018.52
229.659	7951.89
229.732	7967.67
229.804	8005.99
229.877	8068.98
229.949	8097.13
230.022	8128.36
230.094	8139.04
230.167	8129.8
230.239	8089.21
230.312	8076.61
230.384	8131.76
230.457	8136.42
230.529	8144.6
230.602	8152.2
230.674	8161.63
230.747	8192.15
230.819	8216.83
230.892	8115.57
230.964	8113.35
231.037	8138.01
231.109	8132.86
231.181	8166.24
231.254	8135.26
231.326	8119.44
231.399	8100.62
231.471	8072.23
231.544	8009.73
231.616	8044.35
231.688	8051.28
231.761	8048.11
231.833	8041.91
231.905	7967.67
231.978	7967.38
232.05	7958.92
232.122	7957.95
232.195	7936.69
232.267	7971.52
232.339	7947.37
232.412	8001.37
232.484	7981.92
232.556	7955.59
232.629	8010.79
232.701	8024.02
232.773	8031.28
232.846	8023.97
232.918	8027.29
232.99	8042.3
233.062	8074.72
233.135	8079.82
233.207	8053.51
233.279	8088.08
233.351	8120.06
233.424	8127.18
233.496	8100.72
233.568	8164.13
233.64	8136.96
233.713	8147.88
233.785	8145.61
233.857	8160.19
233.929	8114.12
234.001	8169.24
234.074	8231.22
234.146	8172.07
234.218	8168.51
234.29	8170.72
234.362	8165.29
234.434	8122.51
234.507	8098.9
234.579	8055.32
234.651	8041.75
234.723	8058.73
234.795	8071.67
234.867	8066.96
234.939	8114.92
235.012	8127.28
235.084	8129.16
235.156	8159.8
235.228	8152.25
235.3	8139.4
235.372	8150.95
235.444	8210.35
235.516	8143.88
235.588	8144.65
235.66	8153.74
235.732	8133.54
235.804	8299.76
235.876	8332.41
235.948	8397.62
236.02	8404.59
236.092	8423.59
236.164	8431.09
236.236	8434.56
236.308	8437.01
236.38	8459.63
236.452	8445.38
236.524	8460.73
236.596	8521.79
236.668	8549.08
236.74	8562.5
236.812	8580.88
236.884	8606.92
236.956	8613.66
237.028	8606.2
237.1	8594.9
237.172	8657.71
237.244	8723.07
237.316	8620.26
237.388	8599.58
237.46	8573.1
237.532	8627.82
237.604	8619.55
237.675	8683.23
237.747	8716.83
237.819	8704.85
237.891	8709.71
237.963	8703.16
238.035	8707.45
238.107	8610.67
238.178	8662.96
238.25	8669.89
238.322	8749.44
238.394	8719.02
238.466	8716.71
238.538	8749.18
238.609	8782.15
238.681	8741.13
238.753	8723.8
238.825	8740.7
238.897	8776.2
238.968	8842.55
239.04	8831.48
239.112	8926.68
239.184	8892.07
239.255	8890.72
239.327	8921.42
239.399	8931.09
239.471	8971.76
239.542	9002.52
239.614	9057.73
239.686	8996
239.758	9040.14
239.829	9006.57
239.901	9053.55
239.973	9065.97
240.044	9098.89
240.116	9107.89
240.188	9113.24
240.259	9124.07
240.331	9118.1
240.403	9150.59
240.474	9108.3
240.546	9089.63
240.618	9039.51
240.689	9042.59
240.761	9062.28
240.833	9120.26
240.904	9122.9
240.976	9116.45
241.048	9130.03
241.119	9165.91
241.191	9201.49
241.262	9255.63
241.334	9264.58
241.405	9267.43
241.477	9277.05
241.549	9289.28
241.62	9315.38
241.692	9355.25
241.763	9407.26
241.835	9427.2
241.906	9443.96
241.978	9426.72
242.049	9486.76
242.121	9530.04
242.192	9584.12
242.264	9553.74
242.335	9510.59
242.407	9549.79
242.478	9560.57
242.55	9576.61
242.621	9562.64
242.693	9566.01
242.764	9560.37
242.836	9560.13
242.907	9594.38
242.979	9620.09
243.05	9637.14
243.122	9661.56
243.193	9662
243.264	9603.1
243.336	9599.53
243.407	9626.12
243.479	9694.31
243.55	9710.02
243.622	9732.32
243.693	9727.35
243.764	9791.5
243.836	9775.66
243.907	9767.52
243.978	9771.13
244.05	9794.3
244.121	9756.21
244.192	9785.26
244.264	9742.1
244.335	9757.17
244.407	9713.35
244.478	9726.98
244.549	9718.64
244.62	9674.63
244.692	9666.63
244.763	9704.58
244.834	9697.98
244.906	9678.9
244.977	9692.97
245.048	9737.06
245.119	9722.51
245.191	9711.82
245.262	9660.82
245.333	9721.49
245.405	9739.26
245.476	9769.8
245.547	9784.88
245.618	9828.65
245.689	9839.06
245.761	9868.05
245.832	9871.71
245.903	9913.47
245.974	9934.86
246.045	9950.13
246.117	10024.83
246.188	10022.09
246.259	10009.47
246.33	10029.41
246.401	10043.43
246.473	10007.3
246.544	10002
246.615	10045.74
246.686	10055.32
246.757	10118.95
246.828	10105.03
246.899	10157.64
246.97	10127.16
247.042	10115.35
247.113	10156.16
247.184	10236.06
247.255	10241.26
247.326	10260.63
247.397	10262.22
247.468	10265.45
247.539	10278.02
247.61	10240.01
247.681	10280.28
247.752	10324.35
247.823	10299.4
247.894	10311.26
247.965	10294.06
248.037	10276.33
248.108	10231.91
248.179	10229.55
248.25	10218.37
248.321	10240.82
248.392	10206.03
248.463	10278.96
248.534	10278.34
248.605	10290.05
248.675	10259.54
248.746	10271.05
248.817	10285.94
248.888	10300.05
248.959	10259.59
249.03	10274.62
249.101	10283.53
249.172	10257.96
249.243	10200.4
249.314	10255.6
249.385	10261.82
249.456	10289.61
249.527	10285.51
249.598	10307.09
249.669	10307.52
249.739	10321.21
249.81	10330.6
249.881	10296.64
249.952	10287.1
250.023	10280.02
250.094	10239.06
250.165	10213.52
250.235	10214.2
250.306	10221.28
250.377	10200.47
250.448	10222.96
250.519	10179.99
250.59	10225.57
250.66	10233.61
250.731	10291.95
250.802	10294.16
250.873	10311.17
250.944	10331.5
251.014	10326.59
251.085	10403.11
251.156	10428.93
251.227	10470.13
251.297	10517.21
251.368	10562.88
251.439	10597.1
251.51	10647.54
251.58	10637.72
251.651	10635.6
251.722	10676.56
251.792	10634.59
251.863	10637.43
251.934	10689.09
252.005	10782.46
252.075	10787.91
252.146	10834.06
252.217	10872.28
252.287	10901.53
252.358	10906.93
252.429	10964.85
252.499	10960.08
252.57	10967.26
252.641	11006.73
252.711	11010.2
252.782	10974.54
252.852	11036.47
252.923	11034.06
252.994	11050.44
253.064	11092.89
253.135	11079.25
253.205	11060.36
253.276	11118.76
253.347	11170.37
253.417	11148.97
253.488	11129.06
253.558	11128.1
253.629	11122.7
253.699	11129.79
253.77	11160.78
253.841	11148.44
253.911	11158.13
253.982	11172.63
254.052	11196.69
254.123	11203.87
254.193	11203.05
254.264	11314.77
254.334	11287.15
254.405	11261.32
254.475	11229.32
254.546	11227.54
254.616	11276.31
254.687	11303.73
254.757	11322.77
254.827	11325.71
254.898	11353.42
254.968	11358.91
255.039	11339.25
255.109	11368.5
255.18	11351.25
255.25	11293.61
255.321	11333.99
255.391	11295.53
255.461	11369.41
255.532	11301.16
255.602	11292.97
255.673	11257.4
255.743	11232.96
255.813	11172.4
255.884	11217.17
255.954	11248.44
256.024	11308.01
256.095	11310.62
256.165	11281.94
256.235	11308.93
256.306	11297.66
256.376	11334.19
256.446	11366.97
256.517	11395.64
256.587	11432.61
256.657	11450.3
256.728	11469.14
256.798	11470.34
256.868	11474.87
256.938	11446.68
257.009	11492.27
257.079	11517.72
257.149	11592.76
257.219	11546.97
257.29	11578.33
257.36	11523.1
257.43	11554.24
257.5	11500.31
257.571	11497.13
257.641	11535.15
257.711	11498.95
257.781	11524.88
257.852	11536.36
257.922	11484.74
257.992	11489.99
258.062	11485.12
258.132	11513.7
258.202	11511.39
258.273	11521.03
258.343	11582.48
258.413	11570.82
258.483	11567.25
258.553	11550.34
258.623	11531.73
258.693	11543.15
258.764	11602.05
258.834	11668.6
258.904	11679.26
258.974	11668.94
259.044	11673.72
259.114	11691.79
259.184	11720.81
259.254	11722.64
259.324	11681.57
259.394	11729
259.464	11789.59
259.535	11792.67
259.605	11797.3
259.675	11792.48
259.745	11825.93
259.815	11807.47
259.885	11807.32
259.955	11905.61
260.025	11901.37
260.095	11918.58
260.165	11949
260.235	12004.14
260.305	11989.88
260.375	11972.43
260.445	12051.08
260.515	12110.13
260.585	12149.47
260.655	12152.45
260.725	12189.13
260.795	12223.65
260.865	12280.14
260.934	12255.85
261.004	12285.25
261.074	12286.5
261.144	12342.27
261.214	12367.14
261.284	12366.85
261.354	12406.71
261.424	12366.7
261.494	12415.43
261.564	12417.6
261.634	12435.53
261.703	12373.01
261.773	12392.24
261.843	12419.28
261.913	12414.56
261.983	12370.5
262.053	12390.65
262.123	12392.77
262.192	12360.29
262.262	12389.79
262.332	12341.29
262.402	12370.5
262.472	12379.33
262.541	12327.61
262.611	12362.75
262.681	12341.06
262.751	12372.58
262.821	12372.01
262.89	12340.14
262.96	12372.49
263.03	12431.06
263.1	12453.18
263.169	12475.98
263.239	12508.13
263.309	12556.97
263.379	12579.53
263.448	12594.81
263.518	12608.02
263.588	12620.89
263.657	12681.38
263.727	12710.4
263.797	12725.3
263.867	12723.08
263.936	12687.55
264.006	12745.78
264.076	12735.51
264.145	12738.35
264.215	12724.08
264.285	12757.97
264.354	12720.52
264.424	12704.75
264.494	12663.97
264.563	12656.21
264.633	12723.51
264.702	12744.48
264.772	12705.62
264.842	12703.98
264.911	12729.24
264.981	12693.91
265.05	12702.34
265.12	12700.32
265.19	12706.01
265.259	12745.44
265.329	12767.61
265.398	12792.97
265.468	12867.45
265.537	12874.34
265.607	12905.53
265.676	12946.21
265.746	12971.91
265.815	13029.41
265.885	13036.89
265.955	13032.45
266.024	13030.52
266.094	12973.3
266.163	13019.29
266.232	13067.93
266.302	13069.81
266.371	13091.07
266.441	13112.91
266.51	13153.16
266.58	13159.72
266.649	13151.42
266.719	13189.99
266.788	13222.24
266.858	13273.29
266.927	13225.32
266.996	13246.68
267.066	13266.11
267.135	13244.27
267.205	13271.65
267.274	13289.25
267.343	13331.43
267.413	13345.46
267.482	13394.24
267.552	13447.32
267.621	13402.53
267.69	13364.98
267.76	13398.14
267.829	13419.98
267.898	13437.38
267.968	13423.89
268.037	13454.21
268.106	13499.28
268.176	13470.26
268.245	13477.78
268.314	13480.91
268.384	13524.2
268.453	13538.71
268.522	13554.67
268.592	13607.31
268.661	13596.51
268.73	13619.03
268.799	13610.4
268.869	13679.38
268.938	13648.48
269.007	13639.71
269.076	13663.62
269.146	13711.63
269.215	13736.17
269.284	13795.56
269.353	13790.93
269.422	13796.86
269.492	13787.75
269.561	13717.32
269.63	13753.14
269.699	13744.7
269.768	13761.14
269.838	13778.88
269.907	13817.39
269.976	13795.75
270.045	13748.31
270.114	13779.84
270.183	13793.34
270.253	13820.82
270.322	13778.93
270.391	13794.79
270.46	13853.31
270.529	13894.14
270.598	13930.24
270.667	13928.75
270.736	13904.5
270.806	13929.71
270.875	13977.58
270.944	13993.93
271.013	14097.66
271.082	14114.34
271.151	14149.77
271.22	14121.19
271.289	14130.78
271.358	14132.03
271.427	14169.2
271.496	14195.14
271.565	14193.55
271.634	14204.78
271.703	14290.34
271.772	14336.76
271.841	14347.46
271.91	14314.3
271.979	14324.76
272.048	14303.55
272.117	14341.29
272.186	14345.01
272.255	14396.29
272.324	14431.39
272.393	14460.5
272.462	14454.29
272.531	14470.87
272.6	14468.94
272.669	14528.47
272.738	14539.22
272.807	14570.41
272.876	14552.48
272.945	14664.51
273.013	14716.32
273.082	14767.61
273.151	14697.67
273.22	14730.98
273.289	14754.02
273.358	14827.78
273.427	14833.03
273.496	14872.7
273.564	14903.46
273.633	14948.24
273.702	14923.85
273.771	14929.24
273.84	14955.37
273.909	14995.67
273.977	15032.35
274.046	15052.35
274.115	15097.86
274.184	15094.92
274.253	15109.57
274.322	15176.57
274.39	15134.25
274.459	15130.49
274.528	15098.34
274.597	15125.58
274.665	15149.92
274.734	15213.26
274.803	15228.25
274.872	15248.06
274.94	15241.41
275.009	15425.08
275.078	15419.39
275.147	15457.52
275.215	15488.37
275.284	15538.64
275.353	15539.55
275.421	15506.25
275.49	15578.69
275.559	15581.15
275.627	15603.03
275.696	15615.95
275.765	15646.85
275.833	15656.15
275.902	15692.45
275.971	15756.75
276.039	15833.29
276.108	15873.83
276.177	15894.31
276.245	15889.59
276.314	15916
276.383	15968.78
276.451	15836.73
276.52	15876.98
276.588	15945.42
276.657	15989.24
276.725	15993.91
276.794	16034.2
276.863	16110.6
276.931	16088.33
277	16139.47
277.068	16197.41
277.137	16280.36
277.205	16313.18
277.274	16401.38
277.342	16459.99
277.411	16439.6
277.48	16439.74
277.548	16446.64
277.617	16482.78
277.685	16504.81
277.754	16553.68
277.822	16569.25
277.89	16638.02
277.959	16666.65
278.027	16648.77
278.096	16647.13
278.164	16757.16
278.233	16768.15
278.301	16768.53
278.37	16810.7
278.438	16816.29
278.507	16860.3
278.575	16823.14
278.643	16837.84
278.712	16819.67
278.78	16816.44
278.849	16891.48
278.917	16952.11
278.985	16972.83
279.054	17004.59
279.122	17071.78
279.191	17100.98
279.259	17119.97
279.327	17093.37
279.396	17160.89
279.464	17189.61
279.532	17255.16
279.601	17279.97
279.669	17304.65
279.737	17383.83
279.806	17432.99
279.874	17496.26
279.942	17528.31
280.011	17555.2
280.079	17621.76
280.147	17697.66
280.215	17736.31
280.284	17748.31
280.352	17747.35
280.42	17809.42
280.488	17826.62
280.557	17843.3
280.625	17881.85
280.693	17931.3
280.761	17977.66
280.83	17969.37
280.898	18035.1
280.966	18009.85
281.034	17958.48
281.102	17955.54
281.171	17957.32
281.239	18015.39
281.307	18018.33
281.375	18014.72
281.443	18120.16
281.512	18133.41
281.58	18185.17
281.648	18180.49
281.716	18214.61
281.784	18252.58
281.852	18264.78
281.92	18294.37
281.989	18355.57
282.057	18347.91
282.125	18460.28
282.193	18493.2
282.261	18529.68
282.329	18543.65
282.397	18590.4
282.465	18630.11
282.533	18702.68
282.601	18713.04
282.67	18681.67
282.738	18699.89
282.806	18772.03
282.874	18766.49
282.942	18813.62
283.01	18825.95
283.078	18883.64
283.146	18917.42
283.214	18980.02
283.282	19018.57
283.35	19082.28
283.418	19107.43
283.486	19157.89
283.554	19107.62
283.622	19135.67
283.69	19179.19
283.758	19211.38
283.826	19265.4
283.894	19332.91
283.962	19425.2
284.03	19499.89
284.098	19543.94
284.165	19573.19
284.233	19606.54
284.301	19628.94
284.369	19644.22
284.437	19661.33
284.505	19690.48
284.573	19772.94
284.641	19771.59
284.709	19828.5
284.777	19828.31
284.845	19886.67
284.912	19935.25
284.98	19990.71
285.048	20016.98
285.116	20063.97
285.184	20129.6
285.252	20162.61
285.319	20154.13
285.387	20159.14
285.455	20158.71
285.523	20210.32
285.591	20237.65
285.659	20277.7
285.726	20349.89
285.794	20347.72
285.862	20377.02
285.93	20408.49
285.997	20425.55
286.065	20447.38
286.133	20450.23
286.201	20482.32
286.269	20473.21
286.336	20492.49
286.404	20518.42
286.472	20575.38
286.539	20551.77
286.607	20548.97
286.675	20588.69
286.743	20644.4
286.81	20662.13
286.878	20726.86
286.946	20746.09
287.013	20788.35
287.081	20820.02
287.149	20813.66
287.216	20912.02
287.284	20940.41
287.352	20975.55
287.419	21000.51
287.487	21086.74
287.555	21147.32
287.622	21174.36
287.69	21225.84
287.758	21289.12
287.825	21304.16
287.893	21306.09
287.96	21362.47
288.028	21429.09
288.096	21470.59
288.163	21512.67
288.231	21533.87
288.298	21575.18
288.366	21650.57
288.433	21673.56
288.501	21686.72
288.569	21733.81
288.636	21753.62
288.704	21825.74
288.771	21880.54
288.839	21892.54
288.906	21898.71
288.974	21954.54
289.041	21993.54
289.109	22001.97
289.176	22058.96
289.244	22113.76
289.311	22190.99
289.379	22245.03
289.446	22285.28
289.514	22315.27
289.581	22354.22
289.649	22395.1
289.716	22429.81
289.783	22439.45
289.851	22531.39
289.918	22568.17
289.986	22626.6
290.053	22668.35
290.121	22703.65
290.188	22752.01
290.255	22865.6
290.323	22883.92
290.39	22893.23
290.458	22944.33
290.525	23008.65
290.592	23025.24
290.66	23065.49
290.727	23084.06
290.794	23163.96
290.862	23192.8
290.929	23252.64
290.996	23276.41
291.064	23337.21
291.131	23404.01
291.198	23483.39
291.266	23503.93
291.333	23547.66
291.4	23592.71
291.468	23667.18
291.535	23685.79
291.602	23727.56
291.669	23746.71
291.737	23800.38
291.804	23849.67
291.871	23925.97
291.938	23991.86
292.006	24098.77
292.073	24167.45
292.14	24233.24
292.207	24241.78
292.275	24282.92
292.342	24329.81
292.409	24449.36
292.476	24547.35
292.543	24559.41
292.611	24587.63
292.678	24679.44
292.745	24789.14
292.812	24862.1
292.879	24890.57
292.946	24934.8
293.014	25002.06
293.081	25049.06
293.148	25124.61
293.215	25201.24
293.282	25222.18
293.349	25273.19
293.416	25264.31
293.484	25327.96
293.551	25395.33
293.618	25485.38
293.685	25594.99
293.752	25621.33
293.819	25642.72
293.886	25640.5
293.953	25696.14
294.02	25767.34
294.087	25821.16
294.154	25830.14
294.221	25902.18
294.288	25927.72
294.356	26018.94
294.423	26072.91
294.49	26094.2
294.557	26163.33
294.624	26176.56
294.691	26276.78
294.758	26319.32
294.825	26384.25
294.892	26408.92
294.959	26430.8
295.026	26474.88
295.093	26491.88
295.16	26524.8
295.226	26561.21
295.293	26678.87
295.36	26735.89
295.427	26796.36
295.494	26869.51
295.561	26934.84
295.628	27029.23
295.695	27124.42
295.762	27171.47
295.829	27248.77
295.896	27333.62
295.963	27399.56
296.03	27474.47
296.096	27517.47
296.163	27598.16
296.23	27669.33
296.297	27749.66
296.364	27798.93
296.431	27865.12
296.498	27890.77
296.564	28012.76
296.631	28073.39
296.698	28067.79
296.765	28164.29
296.832	28188.5
296.899	28191.35
296.965	28282.26
297.032	28255.62
297.099	28341.53
297.166	28402.53
297.233	28428.53
297.299	28451.49
297.366	28492.63
297.433	28534.43
297.5	28608.16
297.566	28638.33
297.633	28672.7
297.7	28718.48
297.767	28758.06
297.833	28809.75
297.9	28866.39
297.967	28854.12
298.033	28925.82
298.1	29052.78
298.167	29071.54
298.234	29123.52
298.3	29192.08
298.367	29209.54
298.434	29280.34
298.5	29291.08
298.567	29327.3
298.634	29354.92
298.7	29441.86
298.767	29493.27
298.834	29580.48
298.9	29601.91
298.967	29622.27
299.033	29694.11
299.1	29763.96
299.167	29839.74
299.233	29882.22
299.3	29959.95
299.366	30047.73
299.433	30121.05
299.5	30079.58
299.566	30130.86
299.633	30206.58
299.699	30268.33
299.766	30308.58
299.832	30361.87
299.899	30420.72
299.965	30488.7
300.032	30528.91
300.099	30583.83
300.165	30642.4
300.232	30667.42
300.298	30711.8
300.365	30800.51
300.431	30834.34
300.498	30858.98
300.564	30913.72
300.631	30967.16
300.697	31041.91
300.763	31071.39
300.83	31125.53
300.896	31207.23
300.963	31270.65
301.029	31318.83
301.096	31365.71
301.162	31435.9
301.229	31470.43
301.295	31482.05
301.361	31531.44
301.428	31586.53
301.494	31590.2
301.561	31620.38
301.627	31665.6
301.693	31724.19
301.76	31761.92
301.826	31801
301.892	31877.52
301.959	31945.28
302.025	31981.66
302.092	32003.41
302.158	32077.84
302.224	32096.93
302.291	32110.78
302.357	32137.27
302.423	32162.95
302.49	32169.92
302.556	32237.9
302.622	32270.31
302.688	32342.19
302.755	32410.27
302.821	32464.67
302.887	32545.94
302.954	32600.3
303.02	32668.23
303.086	32714.22
303.152	32750.6
303.219	32786.45
303.285	32834.34
303.351	32892.31
303.417	32936.06
303.483	32944.93
303.55	32971.96
303.616	33016.56
303.682	33065.88
303.748	33098.05
303.815	33189.95
303.881	33265.94
303.947	33278.64
304.013	33315.86
304.079	33332.58
304.145	33323.66
304.212	33369.26
304.278	33377.94
304.344	33389.62
304.41	33385.79
304.476	33393.83
304.542	33422.57
304.608	33463.29
304.674	33453.69
304.741	33467.56
304.807	33511.09
304.873	33574.54
304.939	33648.18
305.005	33631.55
305.071	33665.09
305.137	33697.03
305.203	33660.67
305.269	33685.1
305.335	33749.5
305.401	33782.08
305.467	33814.12
305.533	33865.66
305.599	33916.47
305.666	33965.72
305.732	34001.84
305.798	34061.67
305.864	34173.75
305.93	34225.43
305.996	34257.63
306.062	34301.36
306.128	34322.21
306.194	34325.03
306.259	34355.58
306.325	34363.19
306.391	34423.51
306.457	34470.25
306.523	34509.19
306.589	34602.11
306.655	34625.78
306.721	34597.07
306.787	34597.8
306.853	34672.97
306.919	34670.99
306.985	34683.69
307.051	34711
307.117	34734.66
307.183	34763.47
307.248	34712.1
307.314	34746.88
307.38	34780.2
307.446	34813.33
307.512	34818.28
307.578	34850.82
307.644	34868.23
307.709	34899.23
307.775	34926.39
307.841	34953.8
307.907	34996.58
307.973	34972.23
308.039	34996.24
308.104	35048.24
308.17	35106.1
308.236	35096.98
308.302	35125.16
308.368	35116.67
308.433	35140.19
308.499	35165.9
308.565	35172.31
308.631	35204.27
308.696	35175.07
308.762	35182.49
308.828	35212.52
308.894	35200.11
308.959	35186.77
309.025	35203.36
309.091	35216.12
309.156	35219.52
309.222	35256.68
309.288	35247.76
309.354	35224.47
309.419	35256.59
309.485	35259.41
309.551	35288.13
309.616	35284.45
309.682	35315.69
309.748	35338.49
309.813	35357.07
309.879	35362.94
309.945	35351.25
310.01	35375.17
310.076	35422.27
310.141	35447.36
310.207	35448.62
310.273	35490.24
310.338	35537.34
310.404	35522.25
310.469	35532.78
310.535	35553.06
310.601	35517.79
310.666	35571.17
310.732	35642.92
310.797	35640.3
310.863	35643.41
310.928	35644.28
310.994	35682.42
311.059	35705.81
311.125	35723.61
311.191	35787.92
311.256	35792.04
311.322	35847.26
311.387	35822.9
311.453	36817.03
311.518	36805.77
311.584	36825.72
311.649	36871.72
311.715	36884.19
311.78	36911.75
311.846	36910.49
311.911	36951.06
311.976	36991.57
312.042	36968.57
312.107	36951.15
312.173	36957.17
312.238	36964.3
312.304	36983.13
312.369	36985.8
312.434	36972.45
312.5	36992.64
312.565	36926.97
312.631	36972.93
312.696	36964.19
312.761	37007.52
312.827	36045.18
312.892	36148.42
312.958	36174.15
313.023	36196.96
313.088	36215.45
313.154	36212.54
313.219	36213.46
313.284	36208.85
313.35	36222.2
313.415	36236.22
313.48	36250.54
313.546	36285.04
313.611	36341.39
313.676	36348.91
313.741	36351.29
313.807	36403.03
313.872	36434.38
313.937	36482.96
314.003	36524.03
314.068	36570.96
314.133	36611.3
314.198	36620.18
314.264	36578.62
314.329	36571.15
314.394	36585.32
314.459	36592.8
314.525	36678.41
314.59	36712.97
314.655	36711.03
314.72	36758.31
314.785	36791.22
314.851	36797.04
314.916	36776.65
314.981	36754.42
315.046	36756.51
315.111	36764.32
315.176	36767.04
315.242	36797.48
315.307	36820.64
315.372	36796.85
315.437	36798.79
315.502	36807.53
315.567	36853.94
315.632	36840.59
315.698	36869.48
315.763	36867.39
315.828	36880.3
315.893	36876.8
315.958	36868.02
316.023	36860.79
316.088	36817.44
316.153	36761.43
316.218	36759.73
316.283	36722.32
316.348	36699.41
316.413	36702.61
316.479	36672.43
316.544	36576.93
316.609	36493.25
316.674	36388.87
316.739	36289.01
316.804	36192.05
316.869	36082.91
316.934	35977.83
316.999	35890.88
317.064	35743.87
317.129	35614.9
317.194	35493.71
317.259	35358.57
317.324	35202.34
317.389	35063.23
317.454	34936.43
317.518	34826.68
317.583	34730.24
317.648	34640.95
317.713	34520.72
317.778	34328.28
317.843	34193.24
317.908	34061.87
317.973	33925.23
318.038	33820.27
318.103	33689.12
318.168	33568.26
318.233	33437.96
318.297	33256.39
318.362	33103.15
318.427	32957.22
318.492	32854.13
318.557	32688.69
318.622	32556.39
318.687	32457.53
318.751	32301.44
318.816	32163.43
318.881	32021.76
318.946	31822.64
319.011	31647.23
319.075	31478.09
319.14	31328.41
319.205	31164.01
319.27	31028.58
319.335	30849.63
319.399	30681.52
319.464	30536.35
319.529	30324.08
319.594	30153.11
319.658	30006.23
319.723	29830.16
319.788	29688.69
319.853	29469.3
319.917	29325.2
319.982	29116.84
320.047	28935.41
320.112	28805.26
320.176	28589.02
320.241	28415.77
320.306	28257.96
320.37	28075.82
320.435	27911.21
320.5	27762.96
320.564	27595.88
320.629	27387.59
320.694	27237.16
320.758	27053.85
320.823	26869.06
320.888	26732.5
320.952	26524.1
321.017	26328.26
321.082	26145.98
321.146	25978.49
321.211	25805.34
321.275	25607.84
321.34	25404.68
321.405	25215.55
321.469	24993.14
321.534	24812.13
321.598	24596.91
321.663	24439.61
321.727	24272.11
321.792	24063.48
321.857	23854.61
321.921	23663.42
321.986	23478.69
322.05	23232.12
322.115	23039.57
322.179	22824.86
322.244	22579.06
322.308	22404.49
322.373	22194.39
322.437	22005.03
322.502	21847.17
322.566	21643.46
322.631	21459.66
322.695	21276.84
322.76	21063.75
322.824	20885.57
322.889	20688.11
322.953	20484.01
323.018	20216.22
323.082	19957.75
323.146	19730.9
323.211	19502.9
323.275	19292.49
323.34	19081.85
323.404	18899.39
323.468	18679.44
323.533	18479.93
323.597	18270.24
323.662	18047.98
323.726	17870.01
323.79	17650.44
323.855	17369.08
323.919	17147.87
323.983	16921.36
324.048	16600.59
324.112	16761.47
324.177	16105.39
324.241	15226.27
324.305	14368.57
324.37	13523.99
324.434	12703.79
324.498	12477.45
324.562	12227.88
324.627	11936.23
324.691	11654.8
324.755	11333.2
324.82	10978.56
324.884	10599.01
324.948	10213.38
325.012	9737.67
325.077	9148.5
