Data from 20250626_urea_1M_exp2_MAYP1162681_19-24-00-006.txt Node
Date: Thu Jun 26 19:24:00 BST 2025
User: adleo
Spectrometer: MAYP116268
Trigger mode: 0
Integration Time (sec): 3.000000E0
Scans to average: 1
Electric dark correction enabled: true
Nonlinearity correction enabled: true
Boxcar width: 10
XAxis mode: Wavelengths
Number of Pixels in Spectrum: 2068
>>>>>Begin Spectral Data<<<<<
179.565	3055.97
179.642	3221.51
179.718	3341.08
179.795	3456.13
179.871	3544.18
179.948	3601.13
180.024	3662.61
180.101	3730.43
180.177	3767.95
180.254	3828.55
180.33	3890.38
180.407	4104.37
180.483	4342.87
180.56	4583.74
180.636	4809.31
180.712	4777.46
180.789	4802.07
180.865	4837.24
180.942	4870.99
181.018	4901.73
181.095	4942.45
181.171	4955.86
181.248	4953.9
181.324	5000.52
181.4	5017
181.477	5053.7
181.553	5085.29
181.63	5140.77
181.706	5178.63
181.782	5206.77
181.859	5215.63
181.935	5233.41
182.011	5230.25
182.088	5275.2
182.164	5328.95
182.24	5361.04
182.317	5392.13
182.393	5387.05
182.469	5424.72
182.546	5453.38
182.622	5462.29
182.698	5449.16
182.775	5487.55
182.851	5527.91
182.927	5503.17
183.003	5494.12
183.08	5474.85
183.156	5501.93
183.232	5493.83
183.308	5463.2
183.385	5487.12
183.461	5528.11
183.537	5528.11
183.613	5555.58
183.69	5530.27
183.766	5505.75
183.842	5525.41
183.918	5536.34
183.995	5572.67
184.071	5579.29
184.147	5565.05
184.223	5537.41
184.299	5570.21
184.375	5535.27
184.452	5554.22
184.528	5668.23
184.604	5699.82
184.68	5733.37
184.756	5751.93
184.832	5762.29
184.908	5784
184.985	5779.78
185.061	5737.25
185.137	5762.43
185.213	5732.71
185.289	5739.18
185.365	5712.87
185.441	5711.71
185.517	5742.23
185.593	5730.09
185.669	5723.76
185.745	5752.44
185.822	5796.43
185.898	5774.27
185.974	5802.12
186.05	5777.12
186.126	5706.36
186.202	5681.82
186.278	5668.25
186.354	5641.15
186.43	5654.25
186.506	5644.09
186.582	5643.04
186.658	5657.89
186.734	5604.49
186.81	5610.15
186.886	5616.33
186.962	5650.85
187.038	5634.02
187.114	5616.89
187.19	5637.03
187.266	5611.67
187.341	5614.02
187.417	5590.05
187.493	5589.81
187.569	5596.96
187.645	5585.21
187.721	5554.18
187.797	5577
187.873	5587.55
187.949	5569.63
188.025	5558.21
188.101	5569.42
188.176	5580.35
188.252	5573.98
188.328	5598.7
188.404	5593.19
188.48	5583.94
188.556	5558.29
188.632	5562.79
188.707	5563.42
188.783	5556.27
188.859	5547.31
188.935	5516.81
189.011	5542.84
189.086	5526.55
189.162	5504.3
189.238	5498.84
189.314	5494.52
189.39	5479.28
189.465	5464.03
189.541	5511.74
189.617	5470.18
189.693	5454.46
189.768	5467.84
189.844	5528.48
189.92	5503.09
189.996	5530.84
190.071	5554.43
190.147	5557.21
190.223	5582.92
190.298	5566.47
190.374	5533.3
190.45	5565.88
190.526	5586.74
190.601	5571.83
190.677	5570.68
190.753	5648.13
190.828	5656
190.904	5691.63
190.98	5732.49
191.055	5760.36
191.131	5737.24
191.207	5791.75
191.282	5815.18
191.358	5785.7
191.433	5747.83
191.509	5778.35
191.585	5772.26
191.66	5774.61
191.736	5801.47
191.811	5771.44
191.887	5814.1
191.963	5875.25
192.038	5887.43
192.114	5892.66
192.189	5906.23
192.265	5896.6
192.34	5830.74
192.416	5828.92
192.491	5819.85
192.567	5826.19
192.642	5834.35
192.718	5833.87
192.793	5803.41
192.869	5798.09
192.944	5801.4
193.02	5828.65
193.095	5843.95
193.171	5857.76
193.246	5861.88
193.322	5851.28
193.397	5851.72
193.473	5814
193.548	5767.42
193.624	5781.19
193.699	5778.31
193.775	5817.86
193.85	5830.89
193.925	5858.18
194.001	5853.77
194.076	5830.33
194.152	5797.31
194.227	5771.7
194.302	5752.29
194.378	5762.79
194.453	5752.38
194.529	5790.56
194.604	5744.94
194.679	5730.99
194.755	5679.46
194.83	5710.57
194.905	5702.99
194.981	5728.79
195.056	5702.91
195.131	5720.17
195.207	5715.18
195.282	5685.45
195.357	5633.68
195.433	5669.26
195.508	5632.9
195.583	5657.6
195.659	5701.01
195.734	5720.73
195.809	5723.84
195.884	5745.99
195.96	5745.46
196.035	5785.46
196.11	5774.71
196.185	5807.46
196.261	5813.22
196.336	5901.18
196.411	5856.55
196.486	5868.73
196.561	5853.24
196.637	5890.01
196.712	5930.85
196.787	5936.42
196.862	5980.92
196.937	6003.84
197.013	6022.52
197.088	6052.78
197.163	6106.64
197.238	6149.15
197.313	6151.79
197.388	6186.15
197.464	6262.73
197.539	6295.83
197.614	6276.84
197.689	6312.69
197.764	6355.52
197.839	6411.97
197.914	6396.02
197.989	6462.03
198.065	6500.52
198.14	6636.39
198.215	6701.61
198.29	6735.48
198.365	6774.18
198.44	6798.53
198.515	6876.63
198.59	6923.28
198.665	6994.12
198.74	7012.05
198.815	7016.38
198.89	7076.7
198.965	7158.65
199.04	7153.13
199.115	7194.77
199.19	7310.94
199.265	7314.35
199.34	7342.22
199.415	7426.04
199.49	7479.22
199.565	7502.34
199.64	7568.91
199.715	7558.27
199.79	7575.2
199.865	7593.66
199.94	7587.65
200.015	7674.01
200.09	7686.75
200.165	7698.14
200.24	7715.74
200.315	7818.19
200.39	7861.61
200.464	7878.92
200.539	7876.71
200.614	7917.15
200.689	7977.55
200.764	7994.54
200.839	8039.38
200.914	8049.72
200.989	8026.67
201.063	8067.17
201.138	8021.28
201.213	8021.09
201.288	7973.62
201.363	7983.53
201.438	7984.4
201.512	8029.24
201.587	7983.69
201.662	7999.32
201.737	8030.44
201.812	8052.86
201.886	7970.13
201.961	7995.54
202.036	7959.82
202.111	7956.02
202.186	7874.09
202.26	7826.9
202.335	7772.45
202.41	7760.24
202.485	7717.17
202.559	7663.62
202.634	7590.92
202.709	7615.85
202.784	7564.41
202.858	7567.34
202.933	7518.94
203.008	7492.5
203.082	7439.92
203.157	7438.38
203.232	7319.52
203.306	7260.04
203.381	7170.39
203.456	7107.49
203.53	7044.33
203.605	6993.91
203.68	6926.43
203.754	6908.39
203.829	6870.13
203.904	6811.15
203.978	6777.56
204.053	6790.1
204.127	6759.41
204.202	6754.27
204.277	6710.09
204.351	6689.49
204.426	6665.7
204.5	6646.83
204.575	6554.73
204.65	6582.31
204.724	6559.53
204.799	6582.46
204.873	6568.05
204.948	6564.83
205.022	6533.68
205.097	6503.36
205.171	6541.19
205.246	6567.8
205.32	6567.66
205.395	6565.88
205.469	6535.04
205.544	6552.67
205.618	6500.04
205.693	6531.84
205.767	6502.84
205.842	6559.08
205.916	6544.25
205.991	6517.03
206.065	6524.42
206.14	6571.52
206.214	6553.4
206.289	6534.42
206.363	6561.46
206.438	6575.87
206.512	6596.38
206.586	6648.8
206.661	6676.04
206.735	6615.82
206.81	6613.37
206.884	6656.86
206.958	6620.14
207.033	6667.54
207.107	6680.61
207.181	6763.82
207.256	6740.04
207.33	6786.96
207.405	6821.29
207.479	6872.11
207.553	6895.25
207.628	6857.72
207.702	6887.87
207.776	6869.24
207.851	6875.15
207.925	6921.19
207.999	6908.36
208.073	6899.33
208.148	6905.05
208.222	6873.1
208.296	6953.31
208.371	7000.62
208.445	7023.16
208.519	7099.28
208.593	7141.61
208.668	7132.81
208.742	7140.94
208.816	7153.81
208.89	7191.79
208.965	7180.25
209.039	7202.51
209.113	7240.47
209.187	7297.41
209.261	7287.27
209.336	7346.38
209.41	7399.73
209.484	7398.05
209.558	7466.12
209.632	7505.53
209.707	7534.7
209.781	7593.01
209.855	7637.15
209.929	7689.42
210.003	7710.28
210.077	7710.38
210.151	7834.07
210.226	7929.42
210.3	8005.9
210.374	8067.09
210.448	8075.89
210.522	8107.74
210.596	8136.51
210.67	8169.07
210.744	8299.94
210.818	8387.3
210.892	8441.62
210.966	8425.8
211.041	8465.39
211.115	8451.34
211.189	8515.52
211.263	8564.3
211.337	8580.37
211.411	8623.06
211.485	8597.83
211.559	8627.03
211.633	8632.65
211.707	8550.61
211.781	8565.69
211.855	8472.52
211.929	8446.17
212.003	8393.04
212.077	8416.29
212.151	8446.61
212.225	8468.94
212.299	8433.21
212.373	8403.76
212.447	8389.66
212.52	8468.04
212.594	8483.93
212.668	8511.59
212.742	8469.2
212.816	8458.32
212.89	8443.89
212.964	8436.19
213.038	8447.16
213.112	8482.35
213.186	8516.74
213.26	8451.59
213.333	8328
213.407	8342.24
213.481	8355.46
213.555	8386.89
213.629	8351.86
213.703	8298.49
213.777	8286.99
213.85	8232.57
213.924	8313.86
213.998	8309.96
214.072	8287.53
214.146	8239.61
214.219	8229.79
214.293	8219.35
214.367	8215.5
214.441	8241.29
214.515	8202.65
214.588	8126.79
214.662	8021.5
214.736	7966.15
214.81	7984.32
214.883	8004.07
214.957	7963.88
215.031	7916.25
215.105	7846.54
215.178	7798.02
215.252	7774.17
215.326	7702.28
215.4	7637.65
215.473	7498.15
215.547	7431.93
215.621	7381.41
215.694	7380.21
215.768	7300.36
215.842	7244.43
215.915	7183.21
215.989	7086.15
216.063	7039.85
216.136	7026.64
216.21	7012.28
216.284	7015.98
216.357	6998.39
216.431	6962.5
216.504	6954.33
216.578	6999.94
216.652	7006.47
216.725	6993.11
216.799	7004.7
216.873	6983.61
216.946	6990.58
217.02	6964.36
217.093	6944.43
217.167	6868.77
217.24	6796.74
217.314	6770.86
217.387	6735.93
217.461	6703.12
217.535	6721.27
217.608	6672.63
217.682	6654.86
217.755	6661.25
217.829	6624.3
217.902	6607.83
217.976	6596.16
218.049	6563.08
218.123	6495.76
218.196	6497.25
218.27	6466.18
218.343	6402.76
218.417	6402.62
218.49	6378.86
218.563	6408
218.637	6410.88
218.71	6464.33
218.784	6489.49
218.857	6513.64
218.931	6536.58
219.004	6541.95
219.077	6562.9
219.151	6581.67
219.224	6570.05
219.298	6572.98
219.371	6601.32
219.444	6568.54
219.518	6571.66
219.591	6586.44
219.665	6675.21
219.738	6687.5
219.811	6673.44
219.885	6714.22
219.958	6742.03
220.031	6751.48
220.105	6765.32
220.178	6769.64
220.251	6748.93
220.325	6773.83
220.398	6786.41
220.471	6797.84
220.544	6825.75
220.618	6801.77
220.691	6827.08
220.764	6845.14
220.838	6865.36
220.911	6853.88
220.984	6925.1
221.057	6960.4
221.131	6979.47
221.204	6898.09
221.277	6956.68
221.35	7056.08
221.424	7046.48
221.497	7057.96
221.57	7078.95
221.643	7107.16
221.716	7145.18
221.79	7151.81
221.863	7163.78
221.936	7169.88
222.009	7182.51
222.082	7204.19
222.155	7215.67
222.229	7265.81
222.302	7284.84
222.375	7288.16
222.448	7315.93
222.521	7318.96
222.594	7321.12
222.667	7298.41
222.74	7347.46
222.814	7340.39
222.887	7327.65
222.96	7368.12
223.033	7401.59
223.106	7417.78
223.179	7442.88
223.252	7445.82
223.325	7467.15
223.398	7471
223.471	7498.44
223.544	7514.97
223.617	7528.87
223.69	7545.06
223.763	7517.94
223.837	7543.23
223.91	7566.26
223.983	7530.27
224.056	7502.78
224.129	7515.52
224.202	7562.93
224.275	7556.49
224.348	7535.58
224.42	7507.84
224.493	7469.48
224.566	7444.47
224.639	7463.65
224.712	7442.63
224.785	7440.13
224.858	7440.66
224.931	7424.65
225.004	7390.05
225.077	7394.33
225.15	7321.15
225.223	7318.98
225.296	7380.17
225.369	7329.47
225.442	7309.62
225.514	7326.77
225.587	7346.85
225.66	7354.4
225.733	7353.63
225.806	7355.02
225.879	7341.76
225.952	7318.56
226.025	7356.14
226.097	7407.95
226.17	7391.8
226.243	7337.64
226.316	7329.76
226.389	7327.74
226.461	7348.85
226.534	7363.64
226.607	7352.83
226.68	7415.29
226.753	7415.63
226.825	7354.48
226.898	7401.24
226.971	7398.65
227.044	7414.12
227.117	7414.22
227.189	7427.3
227.262	7458.7
227.335	7474.9
227.407	7478.22
227.48	7506.71
227.553	7511.33
227.626	7490.06
227.698	7505.39
227.771	7541.47
227.844	7528.83
227.916	7545.08
227.989	7517.44
228.062	7516.72
228.134	7584.71
228.207	7588.37
228.28	7576.59
228.352	7586.4
228.425	7602.22
228.498	7642.52
228.57	7628.44
228.643	7678.16
228.716	7681
228.788	7670.23
228.861	7667.05
228.934	7721.19
229.006	7730.85
229.079	7736.77
229.151	7723.16
229.224	7690.57
229.296	7706.05
229.369	7792.07
229.442	7833.06
229.514	7818.35
229.587	7855.75
229.659	7793.91
229.732	7804.92
229.804	7840.98
229.877	7897.22
229.949	7914.83
230.022	7949.48
230.094	7953.37
230.167	7941.97
230.239	7906
230.312	7892.4
230.384	7946.71
230.457	7939.45
230.529	7946.28
230.602	7947.91
230.674	7959.46
230.747	7996.13
230.819	8023.25
230.892	7926.86
230.964	7925.32
231.037	7945.74
231.109	7944.88
231.181	7979.59
231.254	7958.29
231.326	7947.32
231.399	7931.2
231.471	7906.86
231.544	7843.5
231.616	7883.12
231.688	7890.38
231.761	7884.09
231.833	7878.7
231.905	7812.27
231.978	7807.36
232.05	7785.63
232.122	7788.76
232.195	7769.18
232.267	7800.73
232.339	7781.59
232.412	7836.74
232.484	7814.08
232.556	7794.71
232.629	7846.15
232.701	7864.19
232.773	7869.86
232.846	7864
232.918	7867.32
232.99	7880.69
233.062	7916.38
233.135	7921.62
233.207	7892.28
233.279	7931.56
233.351	7955.31
233.424	7957.86
233.496	7941.12
233.568	8014.62
233.64	7978.41
233.713	7986.2
233.785	7985.53
233.857	7998.66
233.929	7954.66
234.001	8006.3
234.074	8058.32
234.146	7999.71
234.218	7996.63
234.29	7991.63
234.362	7984.61
234.434	7944.2
234.507	7916.12
234.579	7879.52
234.651	7864.03
234.723	7891.49
234.795	7900.01
234.867	7898.9
234.939	7947.19
235.012	7961.57
235.084	7960.61
235.156	7997.06
235.228	7987.2
235.3	7972.81
235.372	7978.49
235.444	8030.48
235.516	7967.39
235.588	7971.96
235.66	7988.56
235.732	7963.02
235.804	8126.03
235.876	8162.05
235.948	8218.44
236.02	8238.06
236.092	8248.44
236.164	8255.61
236.236	8255.76
236.308	8255.03
236.38	8274.9
236.452	8257.29
236.524	8276.24
236.596	8329.12
236.668	8354.14
236.74	8372.99
236.812	8387.8
236.884	8414.66
236.956	8419.66
237.028	8417.64
237.1	8405.18
237.172	8457.5
237.244	8520.48
237.316	8423.18
237.388	8405.1
237.46	8383.1
237.532	8429.59
237.604	8423.72
237.675	8487.78
237.747	8526.33
237.819	8519.26
237.891	8532.3
237.963	8529.22
238.035	8524.07
238.107	8436.89
238.178	8490.62
238.25	8499.86
238.322	8575.11
238.394	8542.82
238.466	8539.98
238.538	8574.9
238.609	8608.05
238.681	8566.66
238.753	8548.27
238.825	8570.37
238.897	8602.07
238.968	8671.79
239.04	8652.92
239.112	8744.59
239.184	8711.72
239.255	8703.44
239.327	8729.22
239.399	8736.1
239.471	8768.92
239.542	8799.77
239.614	8856.37
239.686	8788.39
239.758	8830.12
239.829	8799.59
239.901	8850.17
239.973	8870.72
240.044	8895.75
240.116	8907.83
240.188	8918.13
240.259	8933.05
240.331	8920.48
240.403	8949.89
240.474	8910.26
240.546	8906.45
240.618	8856.82
240.689	8853.84
240.761	8877.43
240.833	8931.35
240.904	8937.12
240.976	8938.13
241.048	8949.06
241.119	8976.08
241.191	9016.03
241.262	9070.69
241.334	9073.2
241.405	9078.64
241.477	9077.67
241.549	9087.78
241.62	9104.44
241.692	9147.38
241.763	9204.31
241.835	9222.6
241.906	9233.68
241.978	9207.15
242.049	9262.18
242.121	9313.45
242.192	9369.69
242.264	9337.72
242.335	9296.31
242.407	9329.2
242.478	9336.32
242.55	9353.95
242.621	9344.02
242.693	9342.72
242.764	9334.15
242.836	9339.78
242.907	9366.99
242.979	9392.41
243.05	9411
243.122	9431.28
243.193	9430.41
243.264	9368.62
243.336	9366.31
243.407	9398.15
243.479	9469.6
243.55	9484.34
243.622	9497.49
243.693	9495.61
243.764	9560.18
243.836	9547.67
243.907	9538.09
243.978	9546.75
244.05	9568.04
244.121	9526.68
244.192	9562.46
244.264	9522.83
244.335	9535.2
244.407	9496.15
244.478	9510.16
244.549	9501.44
244.62	9468.89
244.692	9464.61
244.763	9507.8
244.834	9504.14
244.906	9481.74
244.977	9493.21
245.048	9534.69
245.119	9519.28
245.191	9504.3
245.262	9446.85
245.333	9509.34
245.405	9525.67
245.476	9551.91
245.547	9569.4
245.618	9621.6
245.689	9625.35
245.761	9653.86
245.832	9657.43
245.903	9694.41
245.974	9716.66
246.045	9729.96
246.117	9800.9
246.188	9790.16
246.259	9769.02
246.33	9782.84
246.401	9791.9
246.473	9768.58
246.544	9756.2
246.615	9802.25
246.686	9815.11
246.757	9877.18
246.828	9857.29
246.899	9916.21
246.97	9889.92
247.042	9879.51
247.113	9901.58
247.184	9974.29
247.255	9971.98
247.326	9994.86
247.397	9999.43
247.468	10007.72
247.539	10023.9
247.61	9986.04
247.681	10023.32
247.752	10069.46
247.823	10048.41
247.894	10062.24
247.965	10034.06
248.037	10020.04
248.108	9976.16
248.179	9976.5
248.25	9971.82
248.321	9995.66
248.392	9959.82
248.463	10025.37
248.534	10024.65
248.605	10045.27
248.675	10021.7
248.746	10037.74
248.817	10052.1
248.888	10064.09
248.959	10017.33
249.03	10025.27
249.101	10036.35
249.172	10021.42
249.243	9960.74
249.314	10014.78
249.385	10023.88
249.456	10055.62
249.527	10053.89
249.598	10075.32
249.669	10069.25
249.739	10076.62
249.81	10089.63
249.881	10054.03
249.952	10047.05
250.023	10042.95
250.094	9999.5
250.165	9978.01
250.235	9974.06
250.306	9979.65
250.377	9965.82
250.448	9992.36
250.519	9951.46
250.59	9993.43
250.66	9995.4
250.731	10054.06
250.802	10052.9
250.873	10070.3
250.944	10083.74
251.014	10073.96
251.085	10145.75
251.156	10176.63
251.227	10216.24
251.297	10260.56
251.368	10301.8
251.439	10339.91
251.51	10383.56
251.58	10376.53
251.651	10370.94
251.722	10414.06
251.792	10375.14
251.863	10372.83
251.934	10423.41
252.005	10516.25
252.075	10525.74
252.146	10568.14
252.217	10607.36
252.287	10645.42
252.358	10645.33
252.429	10705.03
252.499	10696.41
252.57	10703.11
252.641	10733.27
252.711	10736.31
252.782	10701.56
252.852	10760.5
252.923	10754.43
252.994	10771.92
253.064	10809.74
253.135	10798.65
253.205	10786.32
253.276	10846.98
253.347	10896.31
253.417	10877.57
253.488	10862.05
253.558	10857.66
253.629	10857.52
253.699	10866.39
253.77	10888.65
253.841	10888.75
253.911	10900.94
253.982	10925.94
254.052	10954.38
254.123	10970.77
254.193	10971.54
254.264	11074.39
254.334	11050.1
254.405	11020.27
254.475	10988.56
254.546	11001.28
254.616	11049.85
254.687	11074.43
254.757	11089.51
254.827	11090.09
254.898	11109.03
254.968	11111.82
255.039	11094.96
255.109	11118.52
255.18	11096.69
255.25	11040.94
255.321	11063.2
255.391	11029.94
255.461	11097.89
255.532	11028.49
255.602	11014.71
255.673	10976.45
255.743	10957.84
255.813	10902.92
255.884	10945.85
255.954	10974.76
256.024	11021.8
256.095	11021.22
256.165	10989.37
256.235	11009.03
256.306	10998.34
256.376	11035.45
256.446	11069.62
256.517	11091.11
256.587	11139.35
256.657	11157.86
256.728	11182.14
256.798	11192.89
256.868	11186.82
256.938	11154.77
257.009	11193.18
257.079	11218.96
257.149	11304.74
257.219	11248.59
257.29	11279.57
257.36	11236.88
257.43	11269.99
257.5	11217.31
257.571	11218.18
257.641	11256.49
257.711	11226.13
257.781	11251.33
257.852	11267.62
257.922	11218.18
257.992	11226.66
258.062	11210.56
258.132	11246.37
258.202	11246.08
258.273	11254.8
258.343	11316.49
258.413	11311.58
258.483	11314.86
258.553	11301.41
258.623	11276.78
258.693	11304.39
258.764	11359.38
258.834	11416.78
258.904	11425.89
258.974	11417.41
259.044	11420.01
259.114	11436.39
259.184	11462.37
259.254	11464.3
259.324	11422.75
259.394	11456.34
259.464	11520.54
259.535	11534.23
259.605	11528.83
259.675	11517.85
259.745	11555.01
259.815	11538.09
259.885	11543.34
259.955	11635.56
260.025	11625.63
260.095	11637.97
260.165	11660.77
260.235	11707.86
260.305	11695.91
260.375	11674.75
260.445	11756.44
260.515	11811.87
260.585	11849.76
260.655	11860.6
260.725	11908.12
260.795	11940.22
260.865	12007.51
260.934	11983.56
261.004	12005.44
261.074	12012.72
261.144	12068.86
261.214	12091.86
261.284	12092.29
261.354	12124.63
261.424	12088.09
261.494	12143.28
261.564	12143.28
261.634	12165.98
261.703	12118.02
261.773	12134.5
261.843	12162.79
261.913	12155.23
261.983	12115.8
262.053	12137.88
262.123	12127.22
262.192	12096.28
262.262	12130.55
262.332	12084.76
262.402	12112.67
262.472	12118.21
262.541	12066.69
262.611	12098.5
262.681	12078.11
262.751	12110.94
262.821	12114.84
262.89	12084.72
262.96	12105.4
263.03	12175.92
263.1	12196.98
263.169	12212.07
263.239	12246.92
263.309	12303.61
263.379	12327.66
263.448	12341.26
263.518	12354.85
263.588	12373.31
263.657	12434.63
263.727	12457.47
263.797	12468.99
263.867	12459.55
263.936	12429.23
264.006	12482.29
264.076	12479.83
264.145	12476.94
264.215	12459.73
264.285	12492.75
264.354	12464.26
264.424	12455.2
264.494	12409.84
264.563	12400.29
264.633	12463.73
264.702	12479.11
264.772	12433.27
264.842	12435.68
264.911	12464.26
264.981	12426.27
265.05	12439.67
265.12	12433.7
265.19	12448.16
265.259	12483.59
265.329	12510.3
265.398	12527.79
265.468	12610.13
265.537	12608.01
265.607	12638.28
265.676	12689.42
265.746	12705.14
265.815	12751.56
265.885	12755.08
265.955	12749.63
266.024	12751.51
266.094	12704.07
266.163	12757.01
266.232	12813.74
266.302	12818.61
266.371	12833.56
266.441	12860.21
266.51	12896.56
266.58	12892.42
266.649	12881.09
266.719	12923.51
266.788	12954.6
266.858	13019.1
266.927	12959.42
266.996	12980.15
267.066	13000.3
267.135	12972.77
267.205	13007.97
267.274	13028.16
267.343	13075.21
267.413	13084.27
267.482	13134.84
267.552	13189.89
267.621	13141.69
267.69	13103.51
267.76	13119.22
267.829	13143.28
267.898	13156.68
267.968	13141.88
268.037	13172.59
268.106	13217.18
268.176	13190.76
268.245	13199
268.314	13191.97
268.384	13248.95
268.453	13266.16
268.522	13286.84
268.592	13335.67
268.661	13324.68
268.73	13349.02
268.799	13335.52
268.869	13407.35
268.938	13373.08
269.007	13361.03
269.076	13387.64
269.146	13430.49
269.215	13455.99
269.284	13514.56
269.353	13508.44
269.422	13518.8
269.492	13510.51
269.561	13445.15
269.63	13481.59
269.699	13474.31
269.768	13486.07
269.838	13494.03
269.907	13530.86
269.976	13510.27
270.045	13466.6
270.114	13494.94
270.183	13496.58
270.253	13524.83
270.322	13485.11
270.391	13505.26
270.46	13560.07
270.529	13599.5
270.598	13638.02
270.667	13646.55
270.736	13621.73
270.806	13655.76
270.875	13701.94
270.944	13716.02
271.013	13812.91
271.082	13827.37
271.151	13864.83
271.22	13836.68
271.289	13845.11
271.358	13850.61
271.427	13882.76
271.496	13913.71
271.565	13909.76
271.634	13931.35
271.703	14032.15
271.772	14081.17
271.841	14095.69
271.91	14078.23
271.979	14089.51
272.048	14067.97
272.117	14107.3
272.186	14108.99
272.255	14147.6
272.324	14177.73
272.393	14216.44
272.462	14212.01
272.531	14231.34
272.6	14239.34
272.669	14305.72
272.738	14321.58
272.807	14352.62
272.876	14340.23
272.945	14448.4
273.013	14506.15
273.082	14565.73
273.151	14497.67
273.22	14530.6
273.289	14552.1
273.358	14614.28
273.427	14619.87
273.496	14662.39
273.564	14694.54
273.633	14741.44
273.702	14736.91
273.771	14750.36
273.84	14782.71
273.909	14821.03
273.977	14847.78
274.046	14855.73
274.115	14900.51
274.184	14895.02
274.253	14907.6
274.322	14973.26
274.39	14924.62
274.459	14913
274.528	14870
274.597	14891.46
274.665	14914.45
274.734	14969.69
274.803	14977.16
274.872	15000.4
274.94	14993.26
275.009	15169.75
275.078	15166.28
275.147	15193.42
275.215	15218.15
275.284	15264.81
275.353	15273.24
275.421	15242.15
275.49	15324.57
275.559	15322.5
275.627	15346.6
275.696	15375.38
275.765	15411.77
275.833	15429.66
275.902	15471.74
275.971	15538.59
276.039	15601.21
276.108	15647.82
276.177	15676.06
276.245	15686.38
276.314	15708.45
276.383	15766.49
276.451	15632.17
276.52	15686.25
276.588	15758.26
276.657	15809.45
276.725	15810.94
276.794	15836.44
276.863	15919.06
276.931	15892.31
277	15950.39
277.068	16016.38
277.137	16083.71
277.205	16109.49
277.274	16191.87
277.342	16240.4
277.411	16224.01
277.48	16236.06
277.548	16239.29
277.617	16272.07
277.685	16289.76
277.754	16345.91
277.822	16355.93
277.89	16426.78
277.959	16435.79
278.027	16414.49
278.096	16419.79
278.164	16529.96
278.233	16550.25
278.301	16550.3
278.37	16601.73
278.438	16604.09
278.507	16635.42
278.575	16605.3
278.643	16625.06
278.712	16602.79
278.78	16608.96
278.849	16677.69
278.917	16735.76
278.985	16762.08
279.054	16799.04
279.122	16857.02
279.191	16886.28
279.259	16905.94
279.327	16889.94
279.396	16971.48
279.464	17001.13
279.532	17051.34
279.601	17065.27
279.669	17093.7
279.737	17167.15
279.806	17210.72
279.874	17270
279.942	17298.91
280.011	17320.6
280.079	17385.04
280.147	17478.68
280.215	17531.83
280.284	17553.37
280.352	17556.99
280.42	17613.52
280.488	17634.39
280.557	17657.33
280.625	17698.53
280.693	17739.11
280.761	17790.63
280.83	17773.32
280.898	17840.46
280.966	17821.66
281.034	17780.36
281.102	17772.46
281.171	17784.51
281.239	17835.92
281.307	17841.27
281.375	17852.55
281.443	17956.16
281.512	17979.49
281.58	18027.48
281.648	18018.28
281.716	18056.21
281.784	18082.71
281.852	18102.08
281.92	18130.56
281.989	18193.79
282.057	18181.16
282.125	18305.4
282.193	18331.13
282.261	18371.95
282.329	18396.91
282.397	18449.97
282.465	18491.56
282.533	18582.02
282.601	18591.56
282.67	18569
282.738	18585.77
282.806	18661.67
282.874	18662.88
282.942	18706.25
283.01	18717.09
283.078	18772.75
283.146	18793.43
283.214	18859.88
283.282	18895.44
283.35	18964.07
283.418	18979.82
283.486	19029.99
283.554	18980.88
283.622	19011.29
283.69	19047.34
283.758	19063.43
283.826	19118.51
283.894	19180.53
283.962	19261.98
284.03	19341.92
284.098	19390.36
284.165	19421.87
284.233	19455.36
284.301	19472.28
284.369	19481.1
284.437	19503.79
284.505	19515.02
284.573	19596.46
284.641	19596.51
284.709	19656.85
284.777	19650.97
284.845	19712.41
284.912	19765.57
284.98	19821.76
285.048	19847.11
285.116	19899.3
285.184	19979.34
285.252	20010.81
285.319	20008.21
285.387	20013.32
285.455	20008.64
285.523	20046.52
285.591	20074.23
285.659	20112.21
285.726	20186.95
285.794	20190.13
285.862	20216.11
285.93	20261.55
285.997	20283.96
286.065	20309.07
286.133	20315.43
286.201	20341.31
286.269	20335.62
286.336	20349.89
286.404	20369.94
286.472	20432.88
286.539	20414.9
286.607	20397.41
286.675	20442.18
286.743	20495.24
286.81	20518.9
286.878	20588.74
286.946	20609.46
287.013	20659.39
287.081	20690.47
287.149	20684.74
287.216	20780.16
287.284	20795.2
287.352	20834.82
287.419	20863.78
287.487	20948.22
287.555	21002.88
287.622	21031.36
287.69	21087.75
287.758	21151.52
287.825	21169.3
287.893	21169.16
287.96	21217.21
288.028	21283.24
288.096	21317.27
288.163	21368.98
288.231	21372.26
288.298	21403.54
288.366	21472.9
288.433	21502.35
288.501	21518.16
288.569	21567.85
288.636	21581.11
288.704	21674.43
288.771	21736.32
288.839	21748.66
288.906	21754.69
288.974	21810.61
289.041	21850.37
289.109	21855.48
289.176	21912.61
289.244	21970.6
289.311	22040.01
289.379	22107.01
289.446	22152.91
289.514	22184.82
289.581	22208.73
289.649	22258.86
289.716	22305.62
289.783	22321.15
289.851	22401.94
289.918	22444.51
289.986	22506.65
290.053	22559.64
290.121	22581.33
290.188	22619.81
290.255	22732.73
290.323	22768.55
290.39	22783.2
290.458	22838.11
290.525	22918.82
290.592	22949.11
290.66	22991.48
290.727	23013.13
290.794	23081.99
290.862	23126.93
290.929	23176.88
290.996	23225.87
291.064	23297.77
291.131	23365.48
291.198	23451.12
291.266	23481.89
291.333	23522.15
291.4	23572.36
291.468	23647.79
291.535	23668.72
291.602	23720.95
291.669	23738.55
291.737	23787.64
291.804	23825.94
291.871	23901.03
291.938	23950.03
292.006	24050.96
292.073	24114.38
292.14	24168.06
292.207	24187.65
292.275	24216.92
292.342	24281.85
292.409	24389.82
292.476	24479.42
292.543	24478.74
292.611	24505.91
292.678	24589.12
292.745	24691.88
292.812	24752.05
292.879	24776.61
292.946	24822.04
293.014	24881.63
293.081	24930.75
293.148	25002.05
293.215	25082.63
293.282	25108.59
293.349	25161.91
293.416	25150.91
293.484	25220.25
293.551	25303.93
293.618	25391.9
293.685	25488.42
293.752	25498.84
293.819	25521.77
293.886	25518.05
293.953	25593.24
294.02	25659.21
294.087	25717.48
294.154	25723.18
294.221	25795.69
294.288	25835.27
294.356	25926.59
294.423	25980.61
294.49	26012.41
294.557	26082.08
294.624	26095.69
294.691	26184.56
294.758	26233.13
294.825	26297.87
294.892	26321.62
294.959	26345.33
295.026	26397.19
295.093	26427.32
295.16	26475.49
295.226	26521.56
295.293	26630.18
295.36	26677.5
295.427	26747.82
295.494	26815.3
295.561	26886.81
295.628	26983.13
295.695	27061.61
295.762	27117.49
295.829	27193.58
295.896	27276.89
295.963	27343.32
296.03	27417.88
296.096	27471.12
296.163	27543.06
296.23	27617.41
296.297	27692.04
296.364	27742.28
296.431	27801.23
296.498	27829.05
296.564	27937.64
296.631	27986.83
296.698	27986.93
296.765	28077.58
296.832	28090.29
296.899	28101.7
296.965	28199.37
297.032	28174.28
297.099	28270.82
297.166	28325.19
297.233	28352.89
297.299	28371.69
297.366	28418
297.433	28466.62
297.5	28536.1
297.566	28586.18
297.633	28627.95
297.7	28678.08
297.767	28713.6
297.833	28762.29
297.9	28815.64
297.967	28816.27
298.033	28886.24
298.1	29011.53
298.167	29022.85
298.234	29085.07
298.3	29140.13
298.367	29159.58
298.434	29241.84
298.5	29251.33
298.567	29286
298.634	29323.67
298.7	29417.77
298.767	29464.01
298.834	29545.7
298.9	29572.74
298.967	29577.53
299.033	29645.84
299.1	29724.36
299.167	29801.34
299.233	29835.69
299.3	29926
299.366	30016.15
299.433	30094.4
299.5	30071.56
299.566	30139.97
299.633	30228.37
299.699	30298.87
299.766	30334.72
299.832	30369.8
299.899	30436.06
299.965	30506.27
300.032	30536.02
300.099	30594.2
300.165	30646.81
300.232	30662.05
300.298	30703.48
300.365	30798.08
300.431	30839.62
300.498	30864.94
300.564	30924.37
300.631	30994.61
300.697	31066.65
300.763	31100
300.83	31148.24
300.896	31224.81
300.963	31288.72
301.029	31331.04
301.096	31375.83
301.162	31438.18
301.229	31474.4
301.295	31482.1
301.361	31526.65
301.428	31581.53
301.494	31577.8
301.561	31620.95
301.627	31676.97
301.693	31724.28
301.76	31764.86
301.826	31796.34
301.892	31864.78
301.959	31919.65
302.025	31952.1
302.092	31958.64
302.158	32022.91
302.224	32055.76
302.291	32069.12
302.357	32092.13
302.423	32117.57
302.49	32145.27
302.556	32223.71
302.622	32266
302.688	32334.25
302.755	32419.49
302.821	32481.34
302.887	32548.08
302.954	32591.01
303.02	32655.93
303.086	32713.78
303.152	32755.01
303.219	32789.36
303.285	32838.27
303.351	32903.11
303.417	32948.66
303.483	32969.88
303.55	32991.88
303.616	33030.17
303.682	33076.05
303.748	33100.18
303.815	33187.14
303.881	33257.36
303.947	33254.75
304.013	33302.39
304.079	33321.58
304.145	33291.38
304.212	33319.63
304.278	33344.45
304.344	33372.61
304.41	33373.82
304.476	33378.13
304.542	33397.13
304.608	33446.04
304.674	33439.69
304.741	33457.05
304.807	33501.94
304.873	33565.97
304.939	33636.55
305.005	33624.62
305.071	33650.7
305.137	33698.88
305.203	33662.17
305.269	33686.27
305.335	33758.03
305.401	33783.1
305.467	33823.68
305.533	33889.9
305.599	33951.13
305.666	34007.27
305.732	34039.03
305.798	34108.02
305.864	34216.99
305.93	34266.79
305.996	34289.14
306.062	34325.84
306.128	34358.04
306.194	34353.97
306.259	34380.98
306.325	34397.03
306.391	34457.7
306.457	34517.38
306.523	34544.83
306.589	34637.66
306.655	34647.7
306.721	34629.94
306.787	34627.76
306.853	34686.89
306.919	34680.39
306.985	34689.41
307.051	34714.34
307.117	34732.72
307.183	34743.24
307.248	34700.85
307.314	34743.39
307.38	34781.95
307.446	34833.36
307.512	34840.4
307.578	34886.13
307.644	34901.8
307.709	34934.98
307.775	34945.79
307.841	34962.24
307.907	35009.24
307.973	35000.31
308.039	35044.41
308.104	35098.4
308.17	35141.95
308.236	35132.34
308.302	35174.59
308.368	35171.58
308.433	35190.36
308.499	35213.74
308.565	35229.55
308.631	35262.97
308.696	35232.75
308.762	35242.31
308.828	35267.3
308.894	35247.8
308.959	35231.79
309.025	35246.88
309.091	35264.78
309.156	35289.72
309.222	35336.64
309.288	35323.98
309.354	35293.56
309.419	35315.06
309.485	35298.03
309.551	35337.28
309.616	35336.06
309.682	35357.17
309.748	35386.08
309.813	35391.37
309.879	35392.19
309.945	35389.67
310.01	35410.05
310.076	35458.95
310.141	35472.54
310.207	35462.54
310.273	35507.7
310.338	35553.01
310.404	35541.27
310.469	35529.77
310.535	35525.65
310.601	35484.79
310.666	35533.51
310.732	35591.83
310.797	35590.52
310.863	35603.37
310.928	35610.8
310.994	35649.76
311.059	35676.69
311.125	35694.98
311.191	35755.35
311.256	35766.99
311.322	35813.67
311.387	35793.88
311.453	36659.39
311.518	36655.6
311.584	36681.66
311.649	36725.19
311.715	36726.99
311.78	36762.94
311.846	36774.24
311.911	36835.05
311.976	36885.81
312.042	36882.89
312.107	36865.76
312.173	36871.54
312.238	36895.51
312.304	36916.82
312.369	36927.49
312.434	36921.43
312.5	36937.39
312.565	36886.82
312.631	36918.07
312.696	36918.65
312.761	36952.91
312.827	36122.29
312.892	36219.71
312.958	36244.27
313.023	36261.7
313.088	36279.9
313.154	36280.43
313.219	36288.34
313.284	36266.64
313.35	36273.34
313.415	36266.79
313.48	36297.26
313.546	36317.84
313.611	36353.27
313.676	36354.54
313.741	36353.71
313.807	36396.13
313.872	36421.81
313.937	36472.67
314.003	36523.44
314.068	36554.6
314.133	36608.33
314.198	36594.65
314.264	36561.05
314.329	36551.44
314.394	36564.93
314.459	36592.31
314.525	36663.07
314.59	36693.41
314.655	36700.45
314.72	36754.57
314.785	36797.04
314.851	36801.12
314.916	36789.28
314.981	36779.67
315.046	36796.37
315.111	36810.34
315.176	36802.53
315.242	36838.26
315.307	36857.14
315.372	36842.48
315.437	36849.57
315.502	36828.25
315.567	36884.71
315.632	36867.57
315.698	36904.13
315.763	36920.44
315.828	36914.33
315.893	36920.54
315.958	36929.33
316.023	36922.73
316.088	36873.11
316.153	36829.43
316.218	36831.47
316.283	36799.73
316.348	36763.53
316.413	36758.72
316.479	36717.71
316.544	36635.9
316.609	36565.71
316.674	36464.05
316.739	36360.93
316.804	36266.64
316.869	36172.51
316.934	36066.22
316.999	35979.36
317.064	35818.23
317.129	35679.54
317.194	35565.24
317.259	35416.56
317.324	35238.65
317.389	35096.39
317.454	34969
317.518	34843.63
317.583	34742.76
317.648	34651.44
317.713	34528.41
317.778	34333.44
317.843	34225.48
317.908	34085.97
317.973	33947.67
318.038	33843.77
318.103	33709.42
318.168	33581.82
318.233	33460.3
318.297	33273.42
318.362	33128.11
318.427	32987.95
318.492	32876.13
318.557	32713.02
318.622	32596.27
318.687	32494.51
318.751	32339.78
318.816	32200.51
318.881	32055.55
318.946	31858.84
319.011	31685.5
319.075	31523.49
319.14	31375.79
319.205	31181.45
319.27	31038.18
319.335	30856.9
319.399	30682.49
319.464	30551.05
319.529	30344.11
319.594	30177.98
319.658	30042.96
319.723	29861.35
319.788	29715.39
319.853	29500.59
319.917	29343.92
319.982	29125.78
320.047	28951.03
320.112	28817.5
320.176	28603.68
320.241	28448.16
320.306	28281.11
320.37	28088.96
320.435	27927.7
320.5	27765.96
320.564	27594.84
320.629	27402.54
320.694	27230.04
320.758	27039.25
320.823	26842.81
320.888	26699.83
320.952	26482.11
321.017	26284.67
321.082	26098.91
321.146	25927.91
321.211	25745.35
321.275	25562.52
321.34	25360.91
321.405	25171.4
321.469	24959.89
321.534	24773.91
321.598	24546.52
321.663	24383.33
321.727	24230.89
321.792	24022.98
321.857	23832.2
321.921	23648.15
321.986	23454.11
322.05	23218.36
322.115	23026.3
322.179	22818.87
322.244	22579.39
322.308	22407.18
322.373	22201.33
322.437	22006.72
322.502	21853.54
322.566	21643.7
322.631	21452.58
322.695	21257.67
322.76	21045.01
322.824	20859.98
322.889	20648.45
322.953	20440.69
323.018	20171.02
323.082	19900.21
323.146	19664.45
323.211	19425.41
323.275	19211.14
323.34	18997.7
323.404	18817.03
323.468	18602.53
323.533	18393.04
323.597	18176.22
323.662	17949.04
323.726	17764.51
323.79	17542
323.855	17260.65
323.919	17045.22
323.983	16825.64
324.048	16514.52
324.112	16675.15
324.177	16018.78
324.241	15155.14
324.305	14301.1
324.37	13463.6
324.434	12646.26
324.498	12423.6
324.562	12173.51
324.627	11886.25
324.691	11606.8
324.755	11285.34
324.82	10931.61
324.884	10550.85
324.948	10174.26
325.012	9704.62
325.077	9118.77
