Data from 20250626_urea_1M_exp2_MAYP1162681_23-13-58-862.txt Node
Date: Thu Jun 26 23:13:58 BST 2025
User: adleo
Spectrometer: MAYP116268
Trigger mode: 0
Integration Time (sec): 3.000000E0
Scans to average: 1
Electric dark correction enabled: true
Nonlinearity correction enabled: true
Boxcar width: 10
XAxis mode: Wavelengths
Number of Pixels in Spectrum: 2068
>>>>>Begin Spectral Data<<<<<
179.565	2842.45
179.642	2993.49
179.718	3107.15
179.795	3216.42
179.871	3299.99
179.948	3353.72
180.024	3406.98
180.101	3468
180.177	3500.33
180.254	3561.18
180.33	3619.34
180.407	3812.92
180.483	4034.62
180.56	4259.88
180.636	4468.41
180.712	4440.26
180.789	4457.11
180.865	4489.58
180.942	4516.56
181.018	4547.85
181.095	4588.83
181.171	4598.83
181.248	4600.27
181.324	4645.71
181.4	4660.41
181.477	4689.32
181.553	4715.73
181.63	4769.88
181.706	4810.48
181.782	4838.94
181.859	4837.56
181.935	4852.35
182.011	4849.43
182.088	4893.39
182.164	4942.17
182.24	4974.62
182.317	4997.17
182.393	4996.6
182.469	5027.34
182.546	5064.31
182.622	5072.17
182.698	5058.85
182.775	5095.77
182.851	5132.66
182.927	5110.95
183.003	5100.37
183.08	5089.64
183.156	5118
183.232	5111.62
183.308	5083.7
183.385	5099.07
183.461	5142.66
183.537	5144.72
183.613	5172.12
183.69	5148.17
183.766	5122.76
183.842	5142.7
183.918	5160.23
183.995	5192.75
184.071	5203.1
184.147	5184.85
184.223	5158.9
184.299	5190.63
184.375	5162.22
184.452	5179.2
184.528	5279.7
184.604	5306.05
184.68	5336.75
184.756	5352.52
184.832	5364.94
184.908	5380.74
184.985	5383.28
185.061	5345.29
185.137	5363.26
185.213	5335.95
185.289	5343.18
185.365	5323.35
185.441	5317.55
185.517	5347.52
185.593	5339.23
185.669	5333.38
185.745	5361.18
185.822	5403.17
185.898	5378.35
185.974	5397.74
186.05	5374.73
186.126	5308.87
186.202	5292.15
186.278	5279.5
186.354	5255.44
186.43	5268.1
186.506	5256.17
186.582	5257.32
186.658	5269.15
186.734	5220.92
186.81	5227.58
186.886	5231.36
186.962	5261.74
187.038	5253.97
187.114	5233.02
187.19	5249.03
187.266	5225.08
187.341	5228.34
187.417	5209.37
187.493	5212.34
187.569	5222.93
187.645	5208.51
187.721	5181.14
187.797	5203.75
187.873	5212.86
187.949	5197.1
188.025	5184.35
188.101	5196.51
188.176	5205.76
188.252	5195.75
188.328	5216.04
188.404	5216.95
188.48	5205.99
188.556	5184.04
188.632	5184.76
188.707	5191.47
188.783	5186.15
188.859	5169.73
188.935	5139.88
189.011	5160.09
189.086	5145.25
189.162	5126.94
189.238	5120
189.314	5111.76
189.39	5093.12
189.465	5076.4
189.541	5120.96
189.617	5082.93
189.693	5069.95
189.768	5079.01
189.844	5141.18
189.92	5120.98
189.996	5141.34
190.071	5168.08
190.147	5173.35
190.223	5194.34
190.298	5172.53
190.374	5139.86
190.45	5179.32
190.526	5200.11
190.601	5190.05
190.677	5192.73
190.753	5266.64
190.828	5277.8
190.904	5317.43
190.98	5355.2
191.055	5378.63
191.131	5354.66
191.207	5406.56
191.282	5431.7
191.358	5407.51
191.433	5375.76
191.509	5413.06
191.585	5403.47
191.66	5406.4
191.736	5425.13
191.811	5397.05
191.887	5440.78
191.963	5501.27
192.038	5507.79
192.114	5513.35
192.189	5518.71
192.265	5512.49
192.34	5448.64
192.416	5446.53
192.491	5438.19
192.567	5446.2
192.642	5456.32
192.718	5459.34
192.793	5428.8
192.869	5417.35
192.944	5427.7
193.02	5440.59
193.095	5448.07
193.171	5466.57
193.246	5460.24
193.322	5454.16
193.397	5459.57
193.473	5424.13
193.548	5379.93
193.624	5397
193.699	5385.92
193.775	5421.5
193.85	5427.01
193.925	5449.78
194.001	5448.96
194.076	5428.02
194.152	5400.21
194.227	5377.39
194.302	5355.93
194.378	5362.4
194.453	5350.76
194.529	5380.77
194.604	5348.03
194.679	5335.48
194.755	5285.23
194.83	5318.85
194.905	5308.21
194.981	5329.25
195.056	5308.12
195.131	5325.09
195.207	5315.4
195.282	5290.49
195.357	5246.09
195.433	5280.55
195.508	5249.87
195.583	5270.29
195.659	5309.17
195.734	5325.47
195.809	5330.26
195.884	5352.68
195.96	5353.78
196.035	5395.57
196.11	5381.04
196.185	5407.59
196.261	5412.38
196.336	5489.87
196.411	5448.11
196.486	5466.03
196.561	5451.75
196.637	5479.63
196.712	5519.26
196.787	5534.99
196.862	5580.32
196.937	5602.56
197.013	5616.61
197.088	5647.96
197.163	5696.31
197.238	5734.67
197.313	5736.49
197.388	5765.02
197.464	5838.68
197.539	5869.36
197.614	5852.73
197.689	5885.15
197.764	5926.84
197.839	5981.52
197.914	5971.45
197.989	6036.4
198.065	6065.75
198.14	6197.57
198.215	6262.88
198.29	6290.5
198.365	6319.87
198.44	6344.05
198.515	6421.24
198.59	6462.96
198.665	6526.71
198.74	6551.92
198.815	6554.18
198.89	6615.77
198.965	6691.18
199.04	6681.48
199.115	6721.51
199.19	6830.41
199.265	6842.6
199.34	6868.34
199.415	6951.68
199.49	7003.39
199.565	7025.49
199.64	7095.58
199.715	7082.69
199.79	7094.7
199.865	7108.39
199.94	7102.44
200.015	7186.54
200.09	7201.1
200.165	7219.07
200.24	7234.64
200.315	7330.99
200.39	7370.63
200.464	7381.4
200.539	7384.14
200.614	7424.26
200.689	7488.34
200.764	7505.61
200.839	7541.44
200.914	7556.34
200.989	7530.46
201.063	7567.67
201.138	7525.17
201.213	7521.37
201.288	7472.54
201.363	7487.01
201.438	7489.99
201.512	7531.49
201.587	7479.57
201.662	7486.25
201.737	7515.82
201.812	7537.12
201.886	7456.78
201.961	7480.44
202.036	7449.7
202.111	7444.02
202.186	7369.39
202.26	7319.1
202.335	7264.49
202.41	7256.56
202.485	7210.16
202.559	7158.12
202.634	7085.9
202.709	7112.45
202.784	7062.43
202.858	7060.65
202.933	7011.84
203.008	6992.29
203.082	6948.53
203.157	6947.23
203.232	6836.53
203.306	6778.52
203.381	6695.31
203.456	6630.91
203.53	6567.21
203.605	6521.77
203.68	6462.87
203.754	6442.44
203.829	6399.7
203.904	6344.46
203.978	6311.22
204.053	6326.97
204.127	6295.11
204.202	6293.33
204.277	6242.75
204.351	6222.01
204.426	6205.98
204.5	6185.05
204.575	6096.41
204.65	6115.62
204.724	6092.23
204.799	6117.92
204.873	6106.45
204.948	6102.56
205.022	6077.86
205.097	6061.87
205.171	6093.97
205.246	6116.39
205.32	6122.05
205.395	6123.63
205.469	6103.93
205.544	6118.19
205.618	6066.55
205.693	6097.99
205.767	6065.7
205.842	6124.3
205.916	6112.36
205.991	6085.54
206.065	6102.04
206.14	6142.97
206.214	6132.27
206.289	6117.82
206.363	6143.97
206.438	6154.53
206.512	6176.99
206.586	6224.78
206.661	6244.52
206.735	6185.48
206.81	6185.2
206.884	6219.11
206.958	6188.65
207.033	6227.31
207.107	6241.57
207.181	6322.32
207.256	6306.29
207.33	6353.31
207.405	6380.32
207.479	6428.08
207.553	6451.69
207.628	6407.7
207.702	6435.01
207.776	6420.94
207.851	6432.51
207.925	6474.3
207.999	6462.2
208.073	6450.63
208.148	6456.15
208.222	6428.93
208.296	6514.37
208.371	6558.63
208.445	6583.65
208.519	6654.35
208.593	6689.02
208.668	6687
208.742	6698.3
208.816	6701.13
208.89	6737.36
208.965	6737.36
209.039	6760.47
209.113	6800.43
209.187	6854.64
209.261	6847.25
209.336	6900.66
209.41	6947.4
209.484	6946.54
209.558	7005.97
209.632	7040.3
209.707	7069.41
209.781	7124.03
209.855	7161.14
209.929	7195.82
210.003	7210.23
210.077	7210.04
210.151	7328.47
210.226	7413.82
210.3	7481.56
210.374	7545.45
210.448	7558.43
210.522	7586.76
210.596	7610.99
210.67	7638.63
210.744	7765.59
210.818	7845.93
210.892	7895.75
210.966	7886.28
211.041	7925.86
211.115	7913.55
211.189	7972.69
211.263	8014.81
211.337	8029.23
211.411	8061.7
211.485	8049.77
211.559	8086.45
211.633	8095.63
211.707	8018.3
211.781	8034.18
211.855	7944.19
211.929	7920.73
212.003	7873.59
212.077	7894.38
212.151	7925.36
212.225	7944.55
212.299	7909.02
212.373	7881.28
212.447	7866.46
212.52	7937.4
212.594	7945.49
212.668	7980.49
212.742	7949.61
212.816	7935.52
212.89	7923.5
212.964	7919.94
213.038	7933.17
213.112	7961.12
213.186	7992.47
213.26	7938.03
213.333	7820.22
213.407	7835.45
213.481	7844.29
213.555	7866.34
213.629	7832.19
213.703	7785.68
213.777	7780.82
213.85	7722.58
213.924	7808.36
213.998	7807.06
214.072	7783.1
214.146	7739.38
214.219	7724.57
214.293	7708.04
214.367	7712.89
214.441	7732.66
214.515	7700.34
214.588	7631.48
214.662	7535.72
214.736	7477.7
214.81	7488.37
214.883	7506.62
214.957	7468.23
215.031	7422.6
215.105	7353.62
215.178	7305.75
215.252	7273.02
215.326	7197.95
215.4	7142.01
215.473	7004.16
215.547	6936.62
215.621	6889.07
215.694	6888.88
215.768	6818.44
215.842	6775.5
215.915	6716.96
215.989	6630.96
216.063	6585.07
216.136	6569.32
216.21	6548.44
216.284	6558.52
216.357	6540.47
216.431	6505.37
216.504	6499.41
216.578	6542.55
216.652	6555.74
216.725	6543.39
216.799	6553.67
216.873	6535.77
216.946	6542.3
217.02	6514.57
217.093	6490.04
217.167	6414
217.24	6350.94
217.314	6320.72
217.387	6282.68
217.461	6253.3
217.535	6270.24
217.608	6229.59
217.682	6211.83
217.755	6225.22
217.829	6181.92
217.902	6174.62
217.976	6162.53
218.049	6128.75
218.123	6070.83
218.196	6072.22
218.27	6045.16
218.343	5992.35
218.417	5989.32
218.49	5969.99
218.563	6001.8
218.637	6017.49
218.71	6077.77
218.784	6100.24
218.857	6126.81
218.931	6144.55
219.004	6145.47
219.077	6161.17
219.151	6168.6
219.224	6159.82
219.298	6158.29
219.371	6189.92
219.444	6152.98
219.518	6163.44
219.591	6175.67
219.665	6254.74
219.738	6261.6
219.811	6252.77
219.885	6282.53
219.958	6311.23
220.031	6315.22
220.105	6333.75
220.178	6330.58
220.251	6309.79
220.325	6325.06
220.398	6337.54
220.471	6350.49
220.544	6376.9
220.618	6356.34
220.691	6379.19
220.764	6393.3
220.838	6409.96
220.911	6399.3
220.984	6467.25
221.057	6495.39
221.131	6514.44
221.204	6446.17
221.277	6506.4
221.35	6598.23
221.424	6597.12
221.497	6605.91
221.57	6624.34
221.643	6641.97
221.716	6677.03
221.79	6683.8
221.863	6694.56
221.936	6704.98
222.009	6717.27
222.082	6742.25
222.155	6755.69
222.229	6806.04
222.302	6830.25
222.375	6836.15
222.448	6864.15
222.521	6871.55
222.594	6867.04
222.667	6849.04
222.74	6891.06
222.814	6878.52
222.887	6859.67
222.96	6902.48
223.033	6933.62
223.106	6954.79
223.179	6979.21
223.252	6987.91
223.325	7008.85
223.398	7021.25
223.471	7035.37
223.544	7055.88
223.617	7071.45
223.69	7086.15
223.763	7061.06
223.837	7078.36
223.91	7104.79
223.983	7075.44
224.056	7046.62
224.129	7063.63
224.202	7104.34
224.275	7096.65
224.348	7072.87
224.42	7049.81
224.493	7006.48
224.566	6990.37
224.639	7004.55
224.712	6984.88
224.785	6978.49
224.858	6973.69
224.931	6954.37
225.004	6930.17
225.077	6930.12
225.15	6853.04
225.223	6855.2
225.296	6916.89
225.369	6867.95
225.442	6843.1
225.514	6852.04
225.587	6866.49
225.66	6870.72
225.733	6874.75
225.806	6875.57
225.879	6876.39
225.952	6854.3
226.025	6891.91
226.097	6931.96
226.17	6925.14
226.243	6879.75
226.316	6876
226.389	6877.06
226.461	6894.98
226.534	6905.36
226.607	6897.86
226.68	6960.62
226.753	6951.92
226.825	6891.29
226.898	6938.5
226.971	6936.01
227.044	6956.13
227.117	6961.94
227.189	6978.81
227.262	7005.92
227.335	7026.68
227.407	7024.52
227.48	7052.85
227.553	7056.55
227.626	7040.25
227.698	7042.08
227.771	7069.59
227.844	7055.71
227.916	7071.13
227.989	7045.04
228.062	7049.75
228.134	7114.59
228.207	7115.84
228.28	7106.38
228.352	7112
228.425	7121.42
228.498	7160.63
228.57	7147.23
228.643	7194.29
228.716	7200.4
228.788	7190.4
228.861	7182.32
228.934	7232.44
229.006	7237.49
229.079	7244.79
229.151	7235.51
229.224	7214.48
229.296	7235.62
229.369	7313.99
229.442	7354.86
229.514	7344.49
229.587	7381.16
229.659	7322.7
229.732	7338.61
229.804	7374.99
229.877	7435.67
229.949	7455.1
230.022	7498.87
230.094	7498
230.167	7492.71
230.239	7459.22
230.312	7451.43
230.384	7504.04
230.457	7496.88
230.529	7506.15
230.602	7506.15
230.674	7512.88
230.747	7544.15
230.819	7566.12
230.892	7472.96
230.964	7472.77
231.037	7495.87
231.109	7487.12
231.181	7520.04
231.254	7492.55
231.326	7479.67
231.399	7462.59
231.471	7446
231.544	7379.59
231.616	7412.55
231.688	7411.49
231.761	7401.12
231.833	7395.3
231.905	7334.09
231.978	7340.1
232.05	7323.28
232.122	7321.74
232.195	7301.36
232.267	7332.71
232.339	7314.24
232.412	7369.89
232.484	7348.39
232.556	7328.65
232.629	7379.44
232.701	7388.33
232.773	7395.92
232.846	7393.66
232.918	7398.09
232.99	7406.41
233.062	7439.14
233.135	7449.14
233.207	7425.2
233.279	7458.21
233.351	7477.82
233.424	7478.15
233.496	7449.22
233.568	7513.59
233.64	7489.66
233.713	7504.75
233.785	7502.35
233.857	7516.48
233.929	7477.17
234.001	7529.99
234.074	7581.5
234.146	7522.21
234.218	7523.75
234.29	7524.9
234.362	7518.85
234.434	7481.77
234.507	7456.63
234.579	7417.02
234.651	7401.4
234.723	7421.3
234.795	7433.8
234.867	7433.99
234.939	7480.48
235.012	7499.23
235.084	7503.85
235.156	7533.02
235.228	7517.11
235.3	7498.84
235.372	7501.05
235.444	7545.37
235.516	7480.14
235.588	7484.66
235.66	7500.52
235.732	7476.01
235.804	7624.86
235.876	7653.55
235.948	7705.4
236.02	7718.37
236.092	7733.17
236.164	7742.21
236.236	7746.4
236.308	7748.32
236.38	7770.1
236.452	7753.12
236.524	7771.06
236.596	7820.11
236.668	7843.62
236.74	7870.93
236.812	7898.48
236.884	7930.85
236.956	7943.45
237.028	7941
237.1	7927.73
237.172	7980.11
237.244	8042.78
237.316	7954.81
237.388	7938.03
237.46	7915.9
237.532	7960.05
237.604	7957.07
237.675	8017.64
237.747	8046.5
237.819	8033.13
237.891	8040.16
237.963	8034.24
238.035	8025.01
238.107	7940.08
238.178	7985.85
238.25	7986.85
238.322	8050.72
238.394	8020.65
238.466	8015.55
238.538	8043.92
238.609	8075.23
238.681	8040.01
238.753	8024.32
238.825	8039
238.897	8067.13
238.968	8131.81
239.04	8120.31
239.112	8199.68
239.184	8168.5
239.255	8168.93
239.327	8201.24
239.399	8212.36
239.471	8248.57
239.542	8279.79
239.614	8326.35
239.686	8266.93
239.758	8305.99
239.829	8278.88
239.901	8318.77
239.973	8337.24
240.044	8363.17
240.116	8370.72
240.188	8381.06
240.259	8390.3
240.331	8378.32
240.403	8408.72
240.474	8372.18
240.546	8365.26
240.618	8321.37
240.689	8317.28
240.761	8333.07
240.833	8376.23
240.904	8374.98
240.976	8372.77
241.048	8385.81
241.119	8415.61
241.191	8454
241.262	8505.17
241.334	8514.66
241.405	8518.84
241.477	8515.04
241.549	8523.03
241.62	8538.33
241.692	8574.52
241.763	8618.52
241.835	8637.19
241.906	8647.35
241.978	8626.32
242.049	8676.75
242.121	8726.27
242.192	8780.07
242.264	8752.93
242.335	8720.78
242.407	8756.49
242.478	8759.38
242.55	8775.7
242.621	8764.62
242.693	8757.89
242.764	8749.17
242.836	8745.8
242.907	8772.33
242.979	8800.14
243.05	8816.8
243.122	8839.66
243.193	8831.77
243.264	8782.38
243.336	8786.86
243.407	8811.6
243.479	8880.43
243.55	8888.33
243.622	8892.18
243.693	8893.72
243.764	8951.09
243.836	8935.07
243.907	8924.29
243.978	8931.51
244.05	8945.23
244.121	8912.26
244.192	8947.74
244.264	8909.27
244.335	8923.71
244.407	8889.2
244.478	8900.75
244.549	8895.17
244.62	8859.51
244.692	8860.9
244.763	8895.07
244.834	8884.15
244.906	8868.84
244.977	8873.99
245.048	8916.95
245.119	8906.74
245.191	8886.48
245.262	8836.27
245.333	8891.8
245.405	8905.81
245.476	8933.97
245.547	8951.84
245.618	8993.03
245.689	8996.79
245.761	9023.89
245.832	9023.12
245.903	9056.72
245.974	9075.4
246.045	9084.89
246.117	9156.91
246.188	9145.02
246.259	9128.8
246.33	9144.88
246.401	9152.92
246.473	9127.4
246.544	9125.47
246.615	9172.08
246.686	9178.48
246.757	9236.25
246.828	9220.07
246.899	9276.66
246.97	9252.16
247.042	9245.28
247.113	9277.35
247.184	9348.98
247.255	9352.4
247.326	9373.68
247.397	9375.41
247.468	9387.12
247.539	9398.62
247.61	9354.85
247.681	9387.44
247.752	9424.03
247.823	9404.68
247.894	9419.36
247.965	9399.67
248.037	9383.1
248.108	9336.83
248.179	9341.64
248.25	9334.66
248.321	9363.69
248.392	9329.11
248.463	9393.53
248.534	9389.53
248.605	9400.03
248.675	9383.75
248.746	9392.32
248.817	9409.03
248.888	9423.77
248.959	9379.66
249.03	9400.03
249.101	9410.62
249.172	9398.68
249.243	9351.36
249.314	9402.35
249.385	9412.13
249.456	9436.25
249.527	9431.43
249.598	9444.96
249.669	9439.57
249.739	9454.3
249.81	9459.46
249.881	9432.3
249.952	9415.3
250.023	9415.63
250.094	9379.46
250.165	9351.81
250.235	9350.51
250.306	9357.88
250.377	9341.32
250.448	9368.18
250.519	9316.28
250.59	9361.98
250.66	9365.3
250.731	9418.16
250.802	9416.67
250.873	9426.64
250.944	9443.11
251.014	9436.13
251.085	9512.71
251.156	9534.48
251.227	9562.8
251.297	9600.47
251.368	9631.04
251.439	9671.36
251.51	9710.42
251.58	9700.07
251.651	9693.33
251.722	9736.92
251.792	9697.38
251.863	9693.72
251.934	9731.82
252.005	9818.17
252.075	9821.39
252.146	9863.82
252.217	9898.5
252.287	9932.51
252.358	9936.31
252.429	9992.53
252.499	9988.25
252.57	9993.35
252.641	10031.93
252.711	10045.42
252.782	10014.69
252.852	10075.15
252.923	10067.3
252.994	10082.24
253.064	10123.46
253.135	10107.13
253.205	10088.97
253.276	10145.03
253.347	10198.64
253.417	10183.27
253.488	10168.87
253.558	10161.93
253.629	10159.67
253.699	10175.37
253.77	10196.09
253.841	10192.58
253.911	10197.78
253.982	10212.9
254.052	10232.08
254.123	10241.38
254.193	10243.31
254.264	10352.64
254.334	10323.63
254.405	10301.18
254.475	10272.62
254.546	10281.72
254.616	10330.32
254.687	10353.11
254.757	10363.42
254.827	10359.28
254.898	10382.3
254.968	10385.48
255.039	10373.68
255.109	10401.05
255.18	10378.59
255.25	10318.95
255.321	10348.72
255.391	10318.9
255.461	10385.58
255.532	10324.33
255.602	10322.5
255.673	10277.56
255.743	10245.84
255.813	10196.72
255.884	10236.22
255.954	10265.8
256.024	10309.69
256.095	10323.23
256.165	10296.69
256.235	10318.57
256.306	10312.4
256.376	10349.69
256.446	10388.39
256.517	10416.18
256.587	10451.41
256.657	10462.87
256.728	10483.34
256.798	10487.34
256.868	10480.12
256.938	10456.89
257.009	10501.07
257.079	10524.63
257.149	10599.26
257.219	10558.35
257.29	10587.68
257.36	10545.72
257.43	10577.24
257.5	10527.7
257.571	10509.59
257.641	10542.25
257.711	10512.04
257.781	10532.75
257.852	10540.27
257.922	10493.1
257.992	10490.12
258.062	10482.89
258.132	10515.27
258.202	10517.15
258.273	10529.96
258.343	10589.91
258.413	10575.93
258.483	10573.86
258.553	10554.01
258.623	10529.91
258.693	10548.56
258.764	10607.1
258.834	10661.49
258.904	10674.02
258.974	10666.89
259.044	10680.05
259.114	10703.32
259.184	10728.57
259.254	10736.14
259.324	10697.78
259.394	10727.51
259.464	10786.2
259.535	10793.09
259.605	10789.62
259.675	10786.44
259.745	10816.99
259.815	10804.95
259.885	10809.81
259.955	10898.35
260.025	10885.49
260.095	10908.86
260.165	10936.09
260.235	10974.12
260.305	10970.84
260.375	10945.68
260.445	11023.07
260.515	11075.31
260.585	11105
260.655	11113.62
260.725	11150.58
260.795	11179.59
260.865	11238.05
260.934	11220.89
261.004	11242.24
261.074	11247.74
261.144	11297.65
261.214	11316.26
261.284	11313.7
261.354	11349.36
261.424	11323.04
261.494	11382.46
261.564	11382.89
261.634	11397.16
261.703	11348.86
261.773	11364.81
261.843	11391.51
261.913	11378.31
261.983	11337.25
262.053	11358.45
262.123	11352.62
262.192	11312.53
262.262	11343.71
262.332	11308.91
262.402	11335.04
262.472	11341.59
262.541	11293.17
262.611	11331.72
262.681	11315.92
262.751	11351.92
262.821	11353.6
262.89	11329.55
262.96	11342.9
263.03	11405.03
263.1	11419.49
263.169	11437.71
263.239	11464.65
263.309	11520.9
263.379	11547.17
263.448	11564.03
263.518	11581.34
263.588	11600.42
263.657	11665.1
263.727	11695.95
263.797	11708.67
263.867	11708.67
263.936	11681.2
264.006	11732.13
264.076	11727.98
264.145	11726.39
264.215	11709.62
264.285	11738.59
264.354	11695.7
264.424	11692.61
264.494	11649.86
264.563	11648.8
264.633	11707.7
264.702	11718.54
264.772	11673.66
264.842	11672.07
264.911	11700.56
264.981	11670.29
265.05	11674.05
265.12	11677.52
265.19	11690.77
265.259	11728.13
265.329	11754.3
265.398	11777.15
265.468	11861.5
265.537	11856.63
265.607	11889.94
265.676	11928.3
265.746	11947.68
265.815	11994.96
265.885	12001.95
265.955	11997.66
266.024	12005.47
266.094	11957.31
266.163	12008.94
266.232	12059.02
266.302	12072.28
266.371	12089.73
266.441	12107.13
266.51	12150.07
266.58	12147.42
266.649	12137.35
266.719	12174.13
266.788	12201.03
266.858	12259.3
266.927	12207.24
266.996	12230.23
267.066	12256.36
267.135	12235.1
267.205	12272.22
267.274	12297.43
267.343	12340.38
267.413	12358.94
267.482	12405.36
267.552	12462.33
267.621	12425.6
267.69	12397.3
267.76	12416.92
267.829	12443.77
267.898	12461.75
267.968	12444.74
268.037	12481.18
268.106	12519.26
268.176	12492.75
268.245	12496.89
268.314	12491.98
268.384	12535.94
268.453	12554.3
268.522	12564.96
268.592	12619.09
268.661	12603.81
268.73	12622.46
268.799	12612.82
268.869	12672.74
268.938	12635.53
269.007	12621.74
269.076	12642.08
269.146	12681.56
269.215	12708.65
269.284	12755.56
269.353	12763.22
269.422	12772.82
269.492	12764.48
269.561	12705.67
269.63	12731.02
269.699	12731.17
269.768	12744.42
269.838	12769.1
269.907	12804.78
269.976	12788.24
270.045	12749.49
270.114	12781.01
270.183	12793.55
270.253	12820.11
270.322	12787.91
270.391	12809.5
270.46	12873.62
270.529	12912.13
270.598	12953.11
270.667	12955.08
270.736	12939.8
270.806	12954.75
270.875	13009.41
270.944	13020.26
271.013	13115.27
271.082	13147.23
271.151	13180.45
271.22	13156.44
271.289	13160.92
271.358	13164.54
271.427	13199.1
271.496	13225.13
271.565	13225.08
271.634	13244.22
271.703	13305.97
271.772	13359.58
271.841	13372.79
271.91	13346.76
271.979	13364.3
272.048	13341.07
272.117	13381.27
272.186	13385.61
272.255	13431.79
272.324	13461.1
272.393	13493.74
272.462	13495.62
272.531	13505.45
272.6	13513.41
272.669	13576.46
272.738	13587.4
272.807	13620.33
272.876	13606.11
272.945	13711.82
273.013	13757.86
273.082	13804.86
273.151	13774.3
273.22	13795.22
273.289	13815.95
273.358	13880.01
273.427	13890.14
273.496	13929.62
273.564	13956.71
273.633	14005.5
273.702	13995.28
273.771	14005.5
273.84	14035.77
273.909	14065.22
273.977	14098.87
274.046	14114.34
274.115	14151.56
274.184	14151.95
274.253	14160.33
274.322	14220.88
274.39	14174.8
274.459	14171.86
274.528	14140.91
274.597	14160.14
274.665	14184.15
274.734	14241.9
274.803	14245.08
274.872	14264.65
274.94	14267.5
275.009	14434.36
275.078	14421.87
275.147	14448.82
275.215	14473.89
275.284	14523.59
275.353	14527.68
275.421	14504.83
275.49	14572.27
275.559	14584.9
275.627	14606.06
275.696	14625.01
275.765	14659.76
275.833	14680.68
275.902	14718.67
275.971	14780.28
276.039	14849.64
276.108	14890.13
276.177	14916.88
276.245	14933.03
276.314	14955.5
276.383	15001.19
276.451	14885.67
276.52	14932.91
276.588	15000.1
276.657	15047.49
276.725	15054.67
276.794	15096.27
276.863	15168.67
276.931	15150.45
277	15202.55
277.068	15257.85
277.137	15341.81
277.205	15372.52
277.274	15448.58
277.342	15514.37
277.411	15502.95
277.48	15511.87
277.548	15530.23
277.617	15567.34
277.685	15589.04
277.754	15641.33
277.822	15664.42
277.89	15736.53
277.959	15752.43
278.027	15744.34
278.096	15752.58
278.164	15864.59
278.233	15878.66
278.301	15876.54
278.37	15927.54
278.438	15930.24
278.507	15976.75
278.575	15948.99
278.643	15982.53
278.712	15975.35
278.78	15972.07
278.849	16037.43
278.917	16101.25
278.985	16124.48
279.054	16166.12
279.122	16227.91
279.191	16252.88
279.259	16270.18
279.327	16243.29
279.396	16325.75
279.464	16351.4
279.532	16403.06
279.601	16411.83
279.669	16445.19
279.737	16519.41
279.806	16562.74
279.874	16626.84
279.942	16653.2
280.011	16675.33
280.079	16723.42
280.147	16795.67
280.215	16842.66
280.284	16869.22
280.352	16867.96
280.42	16920.74
280.488	16937.99
280.557	16956.11
280.625	17001.99
280.693	17044.36
280.761	17091.54
280.83	17083.73
280.898	17152.51
280.966	17140.27
281.034	17103.3
281.102	17098.19
281.171	17119.98
281.239	17173.81
281.307	17182.34
281.375	17201.18
281.443	17306.72
281.512	17332.99
281.58	17392.89
281.648	17391.69
281.716	17420.65
281.784	17454.68
281.852	17463.59
281.92	17494.92
281.989	17560.79
282.057	17555.64
282.125	17674.96
282.193	17710.77
282.261	17744.93
282.329	17768.98
282.397	17814.48
282.465	17857.08
282.533	17935.83
282.601	17942.09
282.67	17921.13
282.738	17940.5
282.806	18008.16
282.874	18004.5
282.942	18050.62
283.01	18064.74
283.078	18118.57
283.146	18151.96
283.214	18213.17
283.282	18266.75
283.35	18339.04
283.418	18356.48
283.486	18413.4
283.554	18369.4
283.622	18389.64
283.69	18435.13
283.758	18457.3
283.826	18517.92
283.894	18582.45
283.962	18664.81
284.03	18742.73
284.098	18789.38
284.165	18822.53
284.233	18851.69
284.301	18879.49
284.369	18896.46
284.437	18912.31
284.505	18935.54
284.573	19016.06
284.641	19024.01
284.709	19082.52
284.777	19070.57
284.845	19128.15
284.912	19171.04
284.98	19223.23
285.048	19261.4
285.116	19304.96
285.184	19374.45
285.252	19412.28
285.319	19409.68
285.387	19434.11
285.455	19432.81
285.523	19488.28
285.591	19513.63
285.659	19552.27
285.726	19610.05
285.794	19615.31
285.862	19643.06
285.93	19680.65
285.997	19707.21
286.065	19730.96
286.133	19747.73
286.201	19780.36
286.269	19775.06
286.336	19797.9
286.404	19827.87
286.472	19891.2
286.539	19877.85
286.607	19877.42
286.675	19913.22
286.743	19971.2
286.81	19982.81
286.878	20053.07
286.946	20061.41
287.013	20101.41
287.081	20139.48
287.149	20147.24
287.216	20230.18
287.284	20260.93
287.352	20300.25
287.419	20328.92
287.487	20419.82
287.555	20458.28
287.622	20489.84
287.69	20549.99
287.758	20615.82
287.825	20634.81
287.893	20639.49
287.96	20692.83
288.028	20766.43
288.096	20809.42
288.163	20856.94
288.231	20871.3
288.298	20894.24
288.366	20978.25
288.433	21014.88
288.501	21030.97
288.569	21082.01
288.636	21106.55
288.704	21181.83
288.771	21237.64
288.839	21252.87
288.906	21255.47
288.974	21320.36
289.041	21358.62
289.109	21373.52
289.176	21432.9
289.244	21483.17
289.311	21551.62
289.379	21618.32
289.446	21652.21
289.514	21691.3
289.581	21732.57
289.649	21787.32
289.716	21840.49
289.783	21857.22
289.851	21944.7
289.918	21981.09
289.986	22033.2
290.053	22083.63
290.121	22112.36
290.188	22155.7
290.255	22262.96
290.323	22305.19
290.39	22319.94
290.458	22369.78
290.525	22447.25
290.592	22457.43
290.66	22497.19
290.727	22521.59
290.794	22589.47
290.862	22635.81
290.929	22677.17
290.996	22710.78
291.064	22768.92
291.131	22841.39
291.198	22911.93
291.266	22940.67
291.333	22982.9
291.4	23039.7
291.468	23119.56
291.535	23147.86
291.602	23201.77
291.669	23232.64
291.737	23272.75
291.804	23310.37
291.871	23391.13
291.938	23430.29
292.006	23546.92
292.073	23614.96
292.14	23681.12
292.207	23706.15
292.275	23732.34
292.342	23794.46
292.409	23898.65
292.476	23989.04
292.543	23999.27
292.611	24026.37
292.678	24106.64
292.745	24213.13
292.812	24277.15
292.879	24298.37
292.946	24348.05
293.014	24408.01
293.081	24451.18
293.148	24526.38
293.215	24613.46
293.282	24639.31
293.349	24704.25
293.416	24681.67
293.484	24766.25
293.551	24830.8
293.618	24909.59
293.685	25013.09
293.752	25031.85
293.819	25054.01
293.886	25055.31
293.953	25107.7
294.02	25185.01
294.087	25241.91
294.154	25267.29
294.221	25336.75
294.288	25376.75
294.356	25456.28
294.423	25522.69
294.49	25549.95
294.557	25610.77
294.624	25631.86
294.691	25718.25
294.758	25761.45
294.825	25826.46
294.892	25833.99
294.959	25871.01
295.026	25925.95
295.093	25951.44
295.16	26002.11
295.226	26046.77
295.293	26156.95
295.36	26208.99
295.427	26276.3
295.494	26346.09
295.561	26406.05
295.628	26508.76
295.695	26593.17
295.762	26649.47
295.829	26712.45
295.896	26788.69
295.963	26859.88
296.03	26923.71
296.096	26975.53
296.163	27050.59
296.23	27126.7
296.297	27212.23
296.364	27256.51
296.431	27313.61
296.498	27349.06
296.564	27451.21
296.631	27508.11
296.698	27513.81
296.765	27609.02
296.832	27626.61
296.899	27638.78
296.965	27726.67
297.032	27701.3
297.099	27790.37
297.166	27856.08
297.233	27886.19
297.299	27913.58
297.366	27958.24
297.433	28016.17
297.5	28086.44
297.566	28130.52
297.633	28177.31
297.7	28216.79
297.767	28252.35
297.833	28309.53
297.9	28361.91
297.967	28370.71
298.033	28439.69
298.1	28557.42
298.167	28575.88
298.234	28623.34
298.3	28684.54
298.367	28702.81
298.434	28774.03
298.5	28785.98
298.567	28805.65
298.634	28842.3
298.7	28928.15
298.767	28976.65
298.834	29045.56
298.9	29075.54
298.967	29092.27
299.033	29160.08
299.1	29237.06
299.167	29324.14
299.233	29356.45
299.3	29432.71
299.366	29511.96
299.433	29587.14
299.5	29560.63
299.566	29622.68
299.633	29717.34
299.699	29784.19
299.766	29830.34
299.832	29880.61
299.899	29940.36
299.965	30019.3
300.032	30057.27
300.099	30116.49
300.165	30171.51
300.232	30205.76
300.298	30245.77
300.365	30327.73
300.431	30372.3
300.498	30388.7
300.564	30456.75
300.631	30524.88
300.697	30603.88
300.763	30645.2
300.83	30689.35
300.896	30759.13
300.963	30823.69
301.029	30866.68
301.096	30919.98
301.162	30981.11
301.229	31015.29
301.295	31035.62
301.361	31086.93
301.428	31135.71
301.494	31150.57
301.561	31190.85
301.627	31238.82
301.693	31288.44
301.76	31342.09
301.826	31361.16
301.892	31439.4
301.959	31488.22
302.025	31515.09
302.092	31526.95
302.158	31592.08
302.224	31628.36
302.291	31651.7
302.357	31686.27
302.423	31710
302.49	31723.76
302.556	31793.02
302.622	31835.93
302.688	31904.31
302.755	31973.25
302.821	32040.66
302.887	32107.73
302.954	32151.86
303.02	32206.2
303.086	32263.41
303.152	32292.38
303.219	32329.14
303.285	32388.06
303.351	32440.48
303.417	32493.24
303.483	32528.55
303.55	32550.79
303.616	32583.3
303.682	32631.74
303.748	32644.96
303.815	32721.67
303.881	32787.52
303.947	32806.85
304.013	32847.51
304.079	32872.99
304.145	32860.1
304.212	32896.78
304.278	32910.25
304.344	32925.95
304.41	32931.91
304.476	32938.79
304.542	32965.54
304.608	33018.21
304.674	33001.93
304.741	33023.16
304.807	33067.56
304.873	33113.55
304.939	33187.76
305.005	33180.15
305.071	33207.91
305.137	33258.07
305.203	33240.47
305.269	33283.42
305.335	33341.7
305.401	33369.67
305.467	33386.34
305.533	33432.67
305.599	33477.71
305.666	33527.87
305.732	33564.32
305.798	33630
305.864	33729.34
305.93	33776.17
305.996	33814.08
306.062	33872.68
306.128	33902.41
306.194	33904.35
306.259	33929.07
306.325	33928.93
306.391	33994.08
306.457	34045.22
306.523	34085.75
306.589	34171.83
306.655	34176.09
306.721	34168.67
306.787	34178.37
306.853	34255.23
306.919	34259.74
306.985	34282.72
307.051	34301.63
307.117	34335.62
307.183	34355.94
307.248	34323.11
307.314	34366.46
307.38	34396.34
307.446	34434.8
307.512	34438.19
307.578	34481.64
307.644	34513.5
307.709	34559.28
307.775	34582.13
307.841	34607.54
307.907	34640.61
307.973	34618.69
308.039	34645.9
308.104	34681.3
308.17	34717.96
308.236	34712.63
308.302	34765.44
308.368	34760.39
308.433	34801.67
308.499	34815.15
308.565	34816.02
308.631	34858.7
308.696	34833.14
308.762	34828.87
308.828	34842.51
308.894	34832.66
308.959	34805.07
309.025	34823.89
309.091	34835.38
309.156	34849.65
309.222	34890.44
309.288	34884.04
309.354	34869.54
309.419	34908.64
309.485	34905.39
309.551	34940.95
309.616	34940.32
309.682	34957.15
309.748	34973.16
309.813	34981.31
309.879	34991.15
309.945	35002.79
310.01	35004.88
310.076	35042.57
310.141	35062.31
310.207	35063.86
310.273	35100.92
310.338	35149.47
310.404	35128.41
310.469	35120.46
310.535	35124.39
310.601	35082.76
310.666	35145.45
310.732	35205.7
310.797	35194.73
310.863	35207
310.928	35222.29
310.994	35261.44
311.059	35293.22
311.125	35324.65
311.191	35378.37
311.256	35384.72
311.322	35439.79
311.387	35433
311.453	36404.46
311.518	36406.21
311.584	36431.29
311.649	36466.52
311.715	36461.32
311.78	36496.64
311.846	36513.81
311.911	36557.14
311.976	36598.96
312.042	36570.43
312.107	36551.07
312.173	36561.31
312.238	36583.87
312.304	36590.66
312.369	36586.2
312.434	36569.99
312.5	36582.56
312.565	36543.64
312.631	36583.37
312.696	36578.08
312.761	36615.73
312.827	35681.97
312.892	35784.18
312.958	35809.7
313.023	35835.96
313.088	35884.19
313.154	35885.79
313.219	35893.41
313.284	35904.91
313.35	35927.81
313.415	35939.41
313.48	35962.21
313.546	35995.07
313.611	36027.58
313.676	36035.83
313.741	36041.46
313.807	36091.69
313.872	36121.92
313.937	36163.31
314.003	36221.65
314.068	36247.86
314.133	36286.59
314.198	36289.4
314.264	36251.54
314.329	36249.16
314.394	36271.54
314.459	36284.01
314.525	36355.06
314.59	36370.69
314.655	36366.17
314.72	36407.38
314.785	36434.61
314.851	36446.93
314.916	36426.79
314.981	36416.26
315.046	36419.03
315.111	36422.81
315.176	36415.43
315.242	36451.06
315.307	36453.83
315.372	36424.9
315.437	36423.73
315.502	36421.35
315.567	36473.1
315.632	36463.39
315.698	36489.65
315.763	36502.22
315.828	36496.45
315.893	36489.84
315.958	36512.36
316.023	36502.12
316.088	36472.08
316.153	36428.16
316.218	36422.63
316.283	36394.1
316.348	36369.26
316.413	36379.2
316.479	36340.15
316.544	36257.56
316.609	36171.42
316.674	36082.1
316.739	35992.92
316.804	35898.66
316.869	35804.33
316.934	35698.35
316.999	35611.12
317.064	35460
317.129	35311.05
317.194	35189.93
317.259	35045.07
317.324	34874.11
317.389	34736.32
317.454	34608.02
317.518	34491.41
317.583	34393.57
317.648	34290.14
317.713	34169.79
317.778	33973.01
317.843	33874.49
317.908	33740.42
317.973	33601.67
318.038	33491.35
318.103	33343.15
318.168	33221.85
318.233	33090.65
318.297	32905.92
318.362	32760.11
318.427	32618.56
318.492	32502.27
318.557	32335.76
318.622	32216.87
318.687	32106.06
318.751	31944.58
318.816	31786.49
318.881	31646.46
318.946	31447.23
319.011	31275.45
319.075	31094.83
319.14	30943.77
319.205	30754.41
319.27	30608.36
319.335	30423.07
319.399	30245.18
319.464	30112.66
319.529	29909.1
319.594	29744.75
319.658	29596.21
319.723	29422.23
319.788	29276.82
319.853	29067.27
319.917	28912.97
319.982	28702.04
320.047	28527.47
320.112	28386.43
320.176	28193.34
320.241	28019.83
320.306	27858.15
320.37	27682.12
320.435	27524.77
320.5	27369.25
320.564	27187.01
320.629	26986.25
320.694	26828.91
320.758	26645.84
320.823	26451.81
320.888	26296.6
320.952	26078.96
321.017	25885.63
321.082	25689.13
321.146	25503.29
321.211	25325.41
321.275	25131.53
321.34	24927.92
321.405	24734.87
321.469	24524.99
321.534	24327.27
321.598	24119.26
321.663	23957.93
321.727	23785.68
321.792	23575.88
321.857	23373.94
321.921	23187.23
321.986	22999.04
322.05	22759.46
322.115	22575.95
322.179	22367.72
322.244	22139.31
322.308	21976.13
322.373	21774.39
322.437	21584.03
322.502	21438.68
322.566	21236.19
322.631	21060.03
322.695	20868.59
322.76	20651.08
322.824	20470.2
322.889	20263.74
322.953	20047.69
323.018	19773.22
323.082	19509.79
323.146	19280.01
323.211	19051.82
323.275	18846.09
323.34	18636.89
323.404	18460.41
323.468	18242.58
323.533	18034.15
323.597	17818.96
323.662	17579.54
323.726	17384.02
323.79	17163.62
323.855	16888.1
323.919	16667.75
323.983	16455.06
324.048	16141.18
324.112	16272.02
324.177	15610.49
324.241	14762.75
324.305	13928.72
324.37	13114.83
324.434	12317.14
324.498	12097.43
324.562	11849.16
324.627	11565.31
324.691	11281
324.755	10959.5
324.82	10603.1
324.884	10225.14
324.948	9850.46
325.012	9388.88
325.077	8826.62
