Data from 20250704_urea_1.5M_MAYP1162681_11-48-34-583.txt Node
Date: Fri Jul 04 11:48:34 BST 2025
User: adleo
Spectrometer: MAYP116268
Trigger mode: 0
Integration Time (sec): 1.000000E0
Scans to average: 1
Electric dark correction enabled: true
Nonlinearity correction enabled: true
Boxcar width: 10
XAxis mode: Wavelengths
Number of Pixels in Spectrum: 2068
>>>>>Begin Spectral Data<<<<<
179.565	1261.6
179.642	1320.93
179.718	1371.44
179.795	1413.87
179.871	1447.99
179.948	1465.43
180.024	1488.03
180.101	1513.34
180.177	1525.69
180.254	1549.83
180.33	1569.63
180.407	1627.89
180.483	1726.9
180.56	1820.97
180.636	1910.33
180.712	1897.25
180.789	1910.66
180.865	1924.01
180.942	1933.9
181.018	1946.02
181.095	1957.54
181.171	1964.29
181.248	1966.9
181.324	1981.55
181.4	1987.12
181.477	1997.72
181.553	2013.51
181.63	2032.48
181.706	2048.37
181.782	2057.64
181.859	2056.07
181.935	2064.77
182.011	2059.83
182.088	2080.28
182.164	2101.45
182.24	2115.53
182.317	2123.57
182.393	2122.09
182.469	2137.31
182.546	2150.59
182.622	2154.96
182.698	2149.49
182.775	2158.53
182.851	2167.76
182.927	2155.39
183.003	2152.58
183.08	2145.5
183.156	2153.68
183.232	2149.44
183.308	2137.46
183.385	2148.35
183.461	2166.71
183.537	2170.8
183.613	2185.41
183.69	2173.23
183.766	2162.95
183.842	2170.75
183.918	2178.74
183.995	2190.16
184.071	2192.87
184.147	2188.11
184.223	2177.7
184.299	2190.88
184.375	2182.7
184.452	2193.07
184.528	2248.99
184.604	2259.89
184.68	2272.35
184.756	2280.58
184.832	2287.1
184.908	2292.52
184.985	2290.43
185.061	2275.87
185.137	2281.44
185.213	2269.07
185.289	2272.49
185.365	2264.31
185.441	2261.12
185.517	2273.07
185.593	2269.74
185.669	2267.36
185.745	2276.31
185.822	2290.15
185.898	2283.2
185.974	2291.72
186.05	2284
186.126	2246.98
186.202	2239.17
186.278	2236.13
186.354	2226.13
186.43	2236.37
186.506	2236.56
186.582	2238.75
186.658	2242.89
186.734	2222.76
186.81	2225.47
186.886	2227.85
186.962	2238.8
187.038	2236.56
187.114	2229.8
187.19	2235.27
187.266	2225.66
187.341	2225.57
187.417	2220.86
187.493	2218.48
187.569	2223.85
187.645	2216.34
187.721	2202.87
187.797	2210.2
187.873	2217.62
187.949	2214.43
188.025	2204.96
188.101	2203.53
188.176	2206.81
188.252	2203.58
188.328	2213.09
188.404	2214.71
188.48	2207.38
188.556	2200.58
188.632	2197.96
188.707	2198.53
188.783	2197.77
188.859	2192.83
188.935	2181.5
189.011	2187.83
189.086	2184.02
189.162	2171.94
189.238	2170.23
189.314	2166.8
189.39	2159.95
189.465	2153
189.541	2166.75
189.617	2153.72
189.693	2153.01
189.768	2156.38
189.844	2182.42
189.92	2172.34
189.996	2180.09
190.071	2193.27
190.147	2192.8
190.223	2204.65
190.298	2192.85
190.374	2180.86
190.45	2192.03
190.526	2202.74
190.601	2197.55
190.677	2197.17
190.753	2227.07
190.828	2230.97
190.904	2250.67
190.98	2268.04
191.055	2276.13
191.131	2267.57
191.207	2289.31
191.282	2297.59
191.358	2287.89
191.433	2272.03
191.509	2287.39
191.585	2283.06
191.66	2283.02
191.736	2293.2
191.811	2282.21
191.887	2301.29
191.963	2326.33
192.038	2330.13
192.114	2329.66
192.189	2336.37
192.265	2335.22
192.34	2311.94
192.416	2313.61
192.491	2307.32
192.567	2308.56
192.642	2310.37
192.718	2310.32
192.793	2295
192.869	2289.19
192.944	2292.85
193.02	2298.8
193.095	2301.18
193.171	2309.7
193.246	2310.27
193.322	2307.7
193.397	2309.94
193.473	2296.51
193.548	2277.33
193.624	2282.9
193.699	2280.95
193.775	2295.18
193.85	2296.42
193.925	2305.51
194.001	2302.13
194.076	2297.04
194.152	2287.04
194.227	2281.9
194.302	2272.39
194.378	2277.15
194.453	2273.3
194.529	2282.43
194.604	2269.3
194.679	2264.87
194.755	2241.94
194.83	2254.18
194.905	2249.09
194.981	2257.65
195.056	2253.66
195.131	2262.65
195.207	2263.18
195.282	2254.37
195.357	2234.33
195.433	2251.04
195.508	2241.42
195.583	2249.18
195.659	2261.46
195.734	2270.26
195.809	2267.17
195.884	2274.83
195.96	2275.88
196.035	2294.29
196.11	2293.39
196.185	2306.19
196.261	2308.81
196.336	2344.78
196.411	2331.93
196.486	2339.3
196.561	2334.31
196.637	2340.21
196.712	2354.97
196.787	2359.68
196.862	2375.96
196.937	2389.19
197.013	2392.38
197.088	2403.85
197.163	2426.19
197.238	2444.24
197.313	2440
197.388	2459.19
197.464	2490.95
197.539	2500.28
197.614	2490.95
197.689	2503.24
197.764	2516.67
197.839	2539.05
197.914	2531.09
197.989	2553.57
198.065	2567.1
198.14	2618
198.215	2647.48
198.29	2657.44
198.365	2669.11
198.44	2677.16
198.515	2704.98
198.59	2720.94
198.665	2744.19
198.74	2753.11
198.815	2752.01
198.89	2779.59
198.965	2808.53
199.04	2804.14
199.115	2821.06
199.19	2864.75
199.265	2867.46
199.34	2877.37
199.415	2915.77
199.49	2936.35
199.565	2944.31
199.64	2969.81
199.715	2965.95
199.79	2973.57
199.865	2978.72
199.94	2979.82
200.015	3015.24
200.09	3021.11
200.165	3032.36
200.24	3039.9
200.315	3080.84
200.39	3100.44
200.464	3105.78
200.539	3107.93
200.614	3126.47
200.689	3154.33
200.764	3163.35
200.839	3184.7
200.914	3193.19
200.989	3178.63
201.063	3196.47
201.138	3182.84
201.213	3182.22
201.288	3163.57
201.363	3166.62
201.438	3168.96
201.512	3182.4
201.587	3163.47
201.662	3164.85
201.737	3175.2
201.812	3184.69
201.886	3148.85
201.961	3159.3
202.036	3147.53
202.111	3141.8
202.186	3112.73
202.26	3089.69
202.335	3066.75
202.41	3058.45
202.485	3044.82
202.559	3023.07
202.634	2995.66
202.709	3003.81
202.784	2983.93
202.858	2987.6
202.933	2967.62
203.008	2962.66
203.082	2942.55
203.157	2943.65
203.232	2900.96
203.306	2879.21
203.381	2845.36
203.456	2823.25
203.53	2798.73
203.605	2778.82
203.68	2755.6
203.754	2747.89
203.829	2734.83
203.904	2712.63
203.978	2700.05
204.053	2702.67
204.127	2688.67
204.202	2687.95
204.277	2669.57
204.351	2662.9
204.426	2649.08
204.5	2641.17
204.575	2604.17
204.65	2615.79
204.724	2606.02
204.799	2613.59
204.873	2608.2
204.948	2611.44
205.022	2597.11
205.097	2586.01
205.171	2598.29
205.246	2605.2
205.32	2602.54
205.395	2602.87
205.469	2595.59
205.544	2601.31
205.618	2579.82
205.693	2594.3
205.767	2579.68
205.842	2603.55
205.916	2596.17
205.991	2588.22
206.065	2594.41
206.14	2611.16
206.214	2607.3
206.289	2600.73
206.363	2614.4
206.438	2618.16
206.512	2621.93
206.586	2647.98
206.661	2654.98
206.735	2632.13
206.81	2632.18
206.884	2648.61
206.958	2634.66
207.033	2653.84
207.107	2663.33
207.181	2699.16
207.256	2691.97
207.33	2709.26
207.405	2717.84
207.479	2736.42
207.553	2744.85
207.628	2726.95
207.702	2737.61
207.776	2728.56
207.851	2732.71
207.925	2746.63
207.999	2741.24
208.073	2738.24
208.148	2737.29
208.222	2727.14
208.296	2760.33
208.371	2778.78
208.445	2791.31
208.519	2818.76
208.593	2831.67
208.668	2825.28
208.742	2827.57
208.816	2830.91
208.89	2846.3
208.965	2844.63
209.039	2855.12
209.113	2872.95
209.187	2897.43
209.261	2893.86
209.336	2916.3
209.41	2935.66
209.484	2938.38
209.558	2962.16
209.632	2975.7
209.707	2988.24
209.781	3014.22
209.855	3032.2
209.929	3050.95
210.003	3057.11
210.077	3061.01
210.151	3110.13
210.226	3148.87
210.3	3178.57
210.374	3204.26
210.448	3215.47
210.522	3228.4
210.596	3241.81
210.67	3254.83
210.744	3303.93
210.818	3342.46
210.892	3367.66
210.966	3370.19
211.041	3391.85
211.115	3395.72
211.189	3427.3
211.263	3450.45
211.337	3462.85
211.411	3487.3
211.485	3489.25
211.559	3513.83
211.633	3525.52
211.707	3507.98
211.781	3528.72
211.855	3508.14
211.929	3516.11
212.003	3508.48
212.077	3538.71
212.151	3570.42
212.225	3601.56
212.299	3615.42
212.373	3625.97
212.447	3650.91
212.52	3712.2
212.594	3742.88
212.668	3789.02
212.742	3811.38
212.816	3844.97
212.89	3879.37
212.964	3916.9
213.038	3965.57
213.112	4022.85
213.186	4087.32
213.26	4113.64
213.333	4119.76
213.407	4181.23
213.481	4245.38
213.555	4319.97
213.629	4369.25
213.703	4425.77
213.777	4492.3
213.85	4539.15
213.924	4649.12
213.998	4724.1
214.072	4796.6
214.146	4863.68
214.219	4942.75
214.293	5025.03
214.367	5112.65
214.441	5210.48
214.515	5293.4
214.588	5361.02
214.662	5424.05
214.736	5500.64
214.81	5610.27
214.883	5719.06
214.957	5811.11
215.031	5898.86
215.105	5987.66
215.178	6086.88
215.252	6184.25
215.326	6266.27
215.4	6367.1
215.473	6435.05
215.547	6530.77
215.621	6625.36
215.694	6751.79
215.768	6849.98
215.842	6954.27
215.915	7063.61
215.989	7163.48
216.063	7277.45
216.136	7406.94
216.21	7533.89
216.284	7674.48
216.357	7800.8
216.431	7923.57
216.504	8060.88
216.578	8215.01
216.652	8348.19
216.725	8476.66
216.799	8615.89
216.873	8755
216.946	8893.61
217.02	9011.56
217.093	9138.51
217.167	9251.11
217.24	9362.01
217.314	9487.82
217.387	9616.14
217.461	9738.66
217.535	9875.68
217.608	9990.02
217.682	10110.69
217.755	10242.58
217.829	10360.95
217.902	10495.62
217.976	10626.37
218.049	10743.65
218.123	10852.02
218.196	10985.06
218.27	11108.04
218.343	11221.78
218.417	11345.34
218.49	11465.2
218.563	11611.47
218.637	11737.6
218.71	11885.47
218.784	12015.41
218.857	12152.2
218.931	12273.57
219.004	12404.39
219.077	12538.16
219.151	12667.82
219.224	12794.16
219.298	12917.95
219.371	13050.27
219.444	13145.53
219.518	13261.9
219.591	13379.9
219.665	13526.59
219.738	13643.44
219.811	13753.35
219.885	13863.69
219.958	13974.66
220.031	14083.08
220.105	14199.4
220.178	14306.7
220.251	14398.77
220.325	14515.62
220.398	14613.24
220.471	14726.03
220.544	14829.09
220.618	14907.47
220.691	15012.27
220.764	15108.14
220.838	15198.19
220.911	15275.84
220.984	15385.26
221.057	15484.22
221.131	15578.26
221.204	15630.46
221.277	15732.98
221.35	15839.65
221.424	15918.79
221.497	16006.08
221.57	16091.73
221.643	16167.59
221.716	16260.86
221.79	16334.94
221.863	16400.97
221.936	16470.71
222.009	16544.21
222.082	16626.82
222.155	16699.26
222.229	16778.2
222.302	16849.82
222.375	16918.83
222.448	16989.54
222.521	17057.54
222.594	17120.58
222.667	17171.62
222.74	17243.96
222.814	17298.8
222.887	17356.15
222.96	17433.98
223.033	17501.93
223.106	17561.93
223.179	17624.87
223.252	17676.1
223.325	17728.05
223.398	17780.63
223.471	17838.41
223.544	17883.71
223.617	17914.65
223.69	17973.73
223.763	18007.47
223.837	18051.8
223.91	18107.85
223.983	18143.85
224.056	18167.17
224.129	18213.53
224.202	18268.71
224.275	18301
224.348	18322.88
224.42	18344.08
224.493	18366.34
224.566	18395.21
224.639	18425.81
224.712	18450.96
224.785	18462.1
224.858	18494.87
224.931	18520.98
225.004	18534.29
225.077	18571.87
225.15	18578.67
225.223	18596.93
225.296	18644.01
225.369	18646.33
225.442	18654.52
225.514	18672.35
225.587	18704.78
225.66	18730.13
225.733	18749.12
225.806	18772.15
225.879	18791.86
225.952	18805.4
226.025	18830.89
226.097	18861.25
226.17	18877.3
226.243	18869.73
226.316	18895.28
226.389	18907.66
226.461	18924.29
226.534	18954.6
226.607	18958.79
226.68	18995.03
226.753	19000.81
226.825	18990.26
226.898	19021.24
226.971	19032.04
227.044	19057.58
227.117	19067.7
227.189	19072.04
227.262	19080.47
227.335	19097.82
227.407	19106.3
227.48	19116.47
227.553	19117
227.626	19111.98
227.698	19123.69
227.771	19139.89
227.844	19139.55
227.916	19148.46
227.989	19135.21
228.062	19124.75
228.134	19148.46
228.207	19147.5
228.28	19157.33
228.352	19155.98
228.425	19160.37
228.498	19170.44
228.57	19158.1
228.643	19178.2
228.716	19172.56
228.788	19172.46
228.861	19160.03
228.934	19171.98
229.006	19162.68
229.079	19164.37
229.151	19156.95
229.224	19138.73
229.296	19132.22
229.369	19156.51
229.442	19167.07
229.514	19164.61
229.587	19171.6
229.659	19156.51
229.732	19156.22
229.804	19153.86
229.877	19183.55
229.949	19193.76
230.022	19208.51
230.094	19199.45
230.167	19187.5
230.239	19170.63
230.312	19156.32
230.384	19174.92
230.457	19168.51
230.529	19172.37
230.602	19167.16
230.674	19165.86
230.747	19172.03
230.819	19187.21
230.892	19150.63
230.964	19148.61
231.037	19149.04
231.109	19148.22
231.181	19139.31
231.254	19119.65
231.326	19107.94
231.399	19078.97
231.471	19060.37
231.544	19020.52
231.616	19027.99
231.688	19021.39
231.761	19018.5
231.833	19013.92
231.905	18981.1
231.978	18972.14
232.05	18957.54
232.122	18951.71
232.195	18937.63
232.267	18937.92
232.339	18909.64
232.412	18918.45
232.484	18898.46
232.556	18881.4
232.629	18891.9
232.701	18890.17
232.773	18886.07
232.846	18869.01
232.918	18854.12
232.99	18841.45
233.062	18846.51
233.135	18833.35
233.207	18813.21
233.279	18810.85
233.351	18804.29
233.424	18788.73
233.496	18769.36
233.568	18777.79
233.64	18745.69
233.713	18726.66
233.785	18705.99
233.857	18705.26
233.929	18663.58
234.001	18670.86
234.074	18662.42
234.146	18627
234.218	18599.97
234.29	18572.5
234.362	18555.25
234.434	18530.14
234.507	18500.55
234.579	18464.22
234.651	18452.36
234.723	18441.86
234.795	18425.23
234.867	18394.68
234.939	18395.21
235.012	18375.02
235.084	18356.27
235.156	18345.19
235.228	18327.21
235.3	18302.63
235.372	18281.67
235.444	18287.6
235.516	18234.98
235.588	18223.22
235.66	18204.13
235.732	18178.4
235.804	18230.25
235.876	18218.54
235.948	18217.48
236.02	18196.33
236.092	18182.01
236.164	18151.6
236.236	18124.76
236.308	18094.93
236.38	18081.34
236.452	18053.44
236.524	18031.37
236.596	18028.91
236.668	18016
236.74	17995.13
236.812	17977.59
236.884	17967.95
236.956	17939.13
237.028	17906.46
237.1	17876.87
237.172	17874.75
237.244	17871.61
237.316	17806.08
237.388	17781.74
237.46	17747.91
237.532	17743.81
237.604	17706.46
237.675	17700.05
237.747	17683.38
237.819	17656.34
237.891	17639.57
237.963	17603.38
238.035	17578.51
238.107	17510.17
238.178	17501.45
238.25	17475.91
238.322	17475.38
238.394	17431.28
238.466	17413.98
238.538	17410.42
238.609	17399.86
238.681	17352.15
238.753	17321.93
238.825	17301.5
238.897	17274.42
238.968	17268.68
239.04	17239.43
239.112	17253.31
239.184	17213.98
239.255	17188.25
239.327	17166.27
239.399	17142.99
239.471	17131.23
239.542	17118.32
239.614	17112.63
239.686	17060.44
239.758	17050.6
239.829	17014.6
239.901	17006.7
239.973	16969.54
240.044	16942.65
240.116	16920.48
240.188	16894.6
240.259	16868
240.331	16840.43
240.403	16831.51
240.474	16789.49
240.546	16753.29
240.618	16700.32
240.689	16666.49
240.761	16639.74
240.833	16630.87
240.904	16598.92
240.976	16570.34
241.048	16539.59
241.119	16524.84
241.191	16507.88
241.262	16497.03
241.334	16466.28
241.405	16435.44
241.477	16407.63
241.549	16371.05
241.62	16346.9
241.692	16332.3
241.763	16324.82
241.835	16289.35
241.906	16256.38
241.978	16208.48
242.049	16200.62
242.121	16191.65
242.192	16188.42
242.264	16144.08
242.335	16107.64
242.407	16089.38
242.478	16052.31
242.55	16031.49
242.621	15989.27
242.693	15965.12
242.764	15929.41
242.836	15896.39
242.907	15871.86
242.979	15856.33
243.05	15850.89
243.122	15820.86
243.193	15792.47
243.264	15733.33
243.336	15707.4
243.407	15688.55
243.479	15692.89
243.55	15664.16
243.622	15634.52
243.693	15603.48
243.764	15604.06
243.836	15560.34
243.907	15525.39
243.978	15505.82
244.05	15482.93
244.121	15438.29
244.192	15411.01
244.264	15362.04
244.335	15339.29
244.407	15295.66
244.478	15270.12
244.549	15227.94
244.62	15182.39
244.692	15150.72
244.763	15134.47
244.834	15108.88
244.906	15080.2
244.977	15055.42
245.048	15041.35
245.119	15007.22
245.191	14975.79
245.262	14913.95
245.333	14913.99
245.405	14895.58
245.476	14877.84
245.547	14857.93
245.618	14852.44
245.689	14839.71
245.761	14823.8
245.832	14793.73
245.903	14777.77
245.974	14749.71
246.045	14716.94
246.117	14714.28
246.188	14669.55
246.259	14638.31
246.33	14599.94
246.401	14568.51
246.473	14524.26
246.544	14490.86
246.615	14480.88
246.686	14444
246.757	14445.64
246.828	14397.48
246.899	14391.31
246.97	14341.37
247.042	14298.42
247.113	14271.57
247.184	14254.89
247.255	14216.04
247.326	14196.18
247.397	14173.47
247.468	14152.45
247.539	14129.8
247.61	14081.11
247.681	14065.73
247.752	14046.26
247.823	14011.79
247.894	13981.66
247.965	13948.54
248.037	13916.63
248.108	13875.17
248.179	13855.45
248.25	13828.6
248.321	13815.68
248.392	13762.08
248.463	13764.39
248.534	13740.15
248.605	13733.11
248.675	13711.27
248.746	13700.95
248.817	13682.39
248.888	13650.77
248.959	13608.11
249.03	13594.47
249.101	13581.26
249.172	13551.9
249.243	13508.42
249.314	13505.28
249.385	13489.23
249.456	13475.3
249.527	13449.22
249.598	13427.82
249.669	13403.62
249.739	13381.15
249.81	13364.18
249.881	13336.99
249.952	13311.69
250.023	13288.4
250.094	13241.3
250.165	13197.77
250.235	13170.1
250.306	13147.4
250.377	13122.52
250.448	13101.17
250.519	13058.36
250.59	13047.8
250.66	13025.44
250.731	13016.61
250.802	12987.88
250.873	12970.72
250.944	12955.34
251.014	12923.34
251.085	12928.88
251.156	12911.38
251.227	12899.33
251.297	12887.23
251.368	12881.97
251.439	12871.22
251.51	12863.03
251.58	12833.34
251.651	12809.96
251.722	12801.18
251.792	12757.41
251.863	12729.36
251.934	12732.35
252.005	12744.35
252.075	12718.94
252.146	12707.23
252.217	12709.88
252.287	12704.43
252.358	12681.68
252.429	12672.81
252.499	12648.71
252.57	12629.04
252.641	12616.89
252.711	12595.06
252.782	12554.85
252.852	12551.24
252.923	12528.29
252.994	12509.16
253.064	12505.69
253.135	12475.99
253.205	12448.42
253.276	12452.57
253.347	12458.06
253.417	12423.93
253.488	12398.34
253.558	12380.11
253.629	12364.74
253.699	12340.78
253.77	12327.52
253.841	12298.36
253.911	12282.79
253.982	12271.85
254.052	12256.04
254.123	12239.02
254.193	12221.81
254.264	12251.22
254.334	12221.91
254.405	12195.11
254.475	12168.45
254.546	12140.79
254.616	12141.41
254.687	12126.18
254.757	12115.82
254.827	12087.28
254.898	12073.64
254.968	12053.06
255.039	12024.14
255.109	12009.68
255.18	11979.36
255.25	11934.78
255.321	11931.64
255.391	11904.7
255.461	11909.18
255.532	11863.39
255.602	11836.06
255.673	11796.63
255.743	11759.95
255.813	11715.66
255.884	11712.86
255.954	11700.23
256.024	11709.25
256.095	11685.24
256.165	11656.32
256.235	11635.45
256.306	11617.81
256.376	11615.21
256.446	11607.31
256.517	11592.32
256.587	11583.64
256.657	11568.36
256.728	11555.93
256.798	11533.66
256.868	11509.23
256.938	11476.36
257.009	11467.29
257.079	11461.9
257.149	11476.55
257.219	11440.01
257.29	11426.95
257.36	11381.51
257.43	11376.74
257.5	11331.63
257.571	11319.67
257.641	11313.84
257.711	11287
257.781	11268.15
257.852	11251.04
257.922	11214.51
257.992	11205.36
258.062	11185.07
258.132	11184.1
258.202	11165.12
258.273	11153.26
258.343	11153.16
258.413	11125.74
258.483	11109.98
258.553	11081.5
258.623	11048.83
258.693	11036.59
258.764	11040.49
258.834	11038.08
258.904	11019.14
258.974	10993.17
259.044	10966.91
259.114	10952.88
259.184	10940.74
259.254	10921.32
259.324	10882.87
259.394	10872.6
259.464	10870.53
259.535	10856.17
259.605	10828.89
259.675	10812.08
259.745	10796.85
259.815	10766.63
259.885	10754.54
259.955	10770.97
260.025	10749.15
260.095	10735.51
260.165	10726.98
260.235	10725.92
260.305	10699.61
260.375	10669.31
260.445	10685.01
260.515	10689.06
260.585	10686.22
260.655	10667.18
260.725	10665.21
260.795	10657.6
260.865	10661.79
260.934	10637.84
261.004	10632.11
261.074	10615.68
261.144	10618.23
261.214	10611.72
261.284	10599.77
261.354	10595.73
261.424	10568.79
261.494	10573.61
261.564	10561.13
261.634	10550.09
261.703	10514.63
261.773	10515.59
261.843	10512.37
261.913	10487.94
261.983	10452.29
262.053	10435.95
262.123	10423.23
262.192	10398.37
262.262	10396.4
262.332	10366.91
262.402	10358.14
262.472	10337.33
262.541	10304.57
262.611	10298.41
262.681	10276.73
262.751	10268.44
262.821	10253.55
262.89	10221.71
262.96	10209.52
263.03	10212.5
263.1	10201.37
263.169	10190.49
263.239	10177.09
263.309	10182.11
263.379	10178.73
263.448	10169.1
263.518	10154.79
263.588	10135.57
263.657	10140
263.727	10135.57
263.797	10120.16
263.867	10104.93
263.936	10080.32
264.006	10080.37
264.076	10062.83
264.145	10044.53
264.215	10021.26
264.285	10009.07
264.354	9978.54
264.424	9959.41
264.494	9930.75
264.563	9909.07
264.633	9913.02
264.702	9906.28
264.772	9869.14
264.842	9850.21
264.911	9850.06
264.981	9826.17
265.05	9818.71
265.12	9802.95
265.19	9787.64
265.259	9783.93
265.329	9775.83
265.398	9766.49
265.468	9782.92
265.537	9759.32
265.607	9756.57
265.676	9752.33
265.746	9750.94
265.815	9750.74
265.885	9738.46
265.955	9712.79
266.024	9692.04
266.094	9655.05
266.163	9655.91
266.232	9658.27
266.302	9642.33
266.371	9624.85
266.441	9621.53
266.51	9617.15
266.58	9598.65
266.649	9582.76
266.719	9585.46
266.788	9579.87
266.858	9582.23
266.927	9546.69
266.996	9537.15
267.066	9530.46
267.135	9508.11
267.205	9502
267.274	9495.25
267.343	9490.05
267.413	9483.36
267.482	9492.03
267.552	9498.67
267.621	9461.16
267.69	9437.32
267.76	9433.86
267.829	9427.26
267.898	9418.21
267.968	9393.65
268.037	9386.67
268.106	9380.31
268.176	9355.46
268.245	9339.86
268.314	9324.3
268.384	9328.54
268.453	9322.38
268.522	9314.19
268.592	9314.72
268.661	9290.26
268.73	9280
268.799	9264.31
268.869	9271.58
268.938	9246.97
269.007	9228.48
269.076	9229.83
269.146	9225.74
269.215	9219.81
269.284	9229.3
269.353	9211.49
269.422	9202.05
269.492	9187.66
269.561	9152.99
269.63	9147.46
269.699	9128.34
269.768	9117.65
269.838	9101.96
269.907	9104.41
269.976	9077.07
270.045	9053.09
270.114	9053.48
270.183	9041.35
270.253	9037.78
270.322	9007.89
270.391	8994.55
270.46	8998.26
270.529	8998.6
270.598	8999.85
270.667	8986.13
270.736	8963.84
270.806	8958.93
270.875	8962.78
270.944	8951.13
271.013	8974.91
271.082	8963.26
271.151	8960.52
271.22	8935.2
271.289	8929.04
271.358	8915.22
271.427	8915.07
271.496	8903.24
271.565	8886.77
271.634	8888.02
271.703	8885.04
271.772	8882.92
271.841	8877.82
271.91	8851.25
271.979	8839.07
272.048	8816.44
272.117	8814.66
272.186	8801.04
272.255	8797.91
272.324	8799.07
272.393	8795.31
272.462	8782.07
272.531	8779.18
272.6	8765.42
272.669	8775.62
272.738	8759.59
272.807	8756.66
272.876	8733.08
272.945	8764.94
273.013	8766.09
273.082	8765.95
273.151	8745.69
273.22	8749.15
273.289	8740.49
273.358	8755.17
273.427	8743.47
273.496	8745.45
273.564	8743.91
273.633	8741.84
273.702	8723.5
273.771	8714.84
273.84	8712.67
273.909	8705.16
273.977	8699.05
274.046	8694.14
274.115	8698.18
274.184	8681.34
274.253	8671.43
274.322	8686.83
274.39	8654.53
274.459	8643.84
274.528	8621.42
274.597	8622.09
274.665	8622.96
274.734	8631.28
274.803	8625.07
274.872	8615.01
274.94	8595.57
275.009	8624.65
275.078	8615.32
275.147	8615.6
275.215	8606.41
275.284	8614.02
275.353	8601.84
275.421	8581.77
275.49	8596.26
275.559	8582.49
275.627	8585.57
275.696	8578.11
275.765	8578.74
275.833	8571.09
275.902	8566.85
275.971	8572.63
276.039	8580.81
276.108	8582.93
276.177	8581.58
276.245	8568.73
276.314	8567.19
276.383	8579.03
276.451	8541.43
276.52	8541.09
276.588	8551.05
276.657	8558.71
276.725	8551.3
276.794	8553.12
276.863	8569.53
276.931	8549.32
277	8558.22
277.068	8566.21
277.137	8585.37
277.205	8578.73
277.274	8597.59
277.342	8611.06
277.411	8595.86
277.48	8582.38
277.548	8567.66
277.617	8564.48
277.685	8557.17
277.754	8567.56
277.822	8563.04
277.89	8580.9
277.959	8573.2
278.027	8552.7
278.096	8540.04
278.164	8567.29
278.233	8561.32
278.301	8545.1
278.37	8553.47
278.438	8539.42
278.507	8540.72
278.575	8509.44
278.643	8506.79
278.712	8485.72
278.78	8470.03
278.849	8474.65
278.917	8489.52
278.985	8487.26
279.054	8491.73
279.122	8502.94
279.191	8497.99
279.259	8490.87
279.327	8461.12
279.396	8481.48
279.464	8484.61
279.532	8490.57
279.601	8483.59
279.669	8480.46
279.737	8493.36
279.806	8490.04
279.874	8499.52
279.942	8495.04
280.011	8495.48
280.079	8502.7
280.147	8523.48
280.215	8527.91
280.284	8524.78
280.352	8508.47
280.42	8522.81
280.488	8508.42
280.557	8501.93
280.625	8507.89
280.693	8504.62
280.761	8512.71
280.83	8495.48
280.898	8511.84
280.966	8490.47
281.034	8450.44
281.102	8437.25
281.171	8433.45
281.239	8442.07
281.307	8435.91
281.375	8426.62
281.443	8452.8
281.512	8450.25
281.58	8456.89
281.648	8444.14
281.716	8448.37
281.784	8452.27
281.852	8440.91
281.92	8447.84
281.989	8461.41
282.057	8438.17
282.125	8480.91
282.193	8479.95
282.261	8480.05
282.329	8471.67
282.397	8479.08
282.465	8492.17
282.533	8506.65
282.601	8496.02
282.67	8473.54
282.738	8467.96
282.806	8478.55
282.874	8467.28
282.942	8466.18
283.01	8460.06
283.078	8470.41
283.146	8465.5
283.214	8467.81
283.282	8472.34
283.35	8481.48
283.418	8478.3
283.486	8486.72
283.554	8449.9
283.622	8450.72
283.69	8450.67
283.758	8444.99
283.826	8458.03
283.894	8463.28
283.962	8482.24
284.03	8493.6
284.098	8496.19
284.165	8490.08
284.233	8491.82
284.301	8482.62
284.369	8476.99
284.437	8465.59
284.505	8451.15
284.573	8469.2
284.641	8464.39
284.709	8471.7
284.777	8456.59
284.845	8455.34
284.912	8459.53
284.98	8462.7
285.048	8453.7
285.116	8459.67
285.184	8475.98
285.252	8469.2
285.319	8458.37
285.387	8449.95
285.455	8436.24
285.523	8449.95
285.591	8450.19
285.659	8452.74
285.726	8467.76
285.794	8455.97
285.862	8457.03
285.93	8461.36
285.997	8456.64
286.065	8450.96
286.133	8435.32
286.201	8431.42
286.269	8416.7
286.336	8412.95
286.404	8405.15
286.472	8415.69
286.539	8393.17
286.607	8372.87
286.675	8368.97
286.743	8372.05
286.81	8369.16
286.878	8381.24
286.946	8371.71
287.013	8372.19
287.081	8378.06
287.149	8357.95
287.216	8378.45
287.284	8376.52
287.352	8374.5
287.419	8365.31
287.487	8385.95
287.555	8395.72
287.622	8395.53
287.69	8406.31
287.758	8416.56
287.825	8416.17
287.893	8406.84
287.96	8411.98
288.028	8427.29
288.096	8433.11
288.163	8437.78
288.231	8424.4
288.298	8428.68
288.366	8443.07
288.433	8438.6
288.501	8424.98
288.569	8430.03
288.636	8422.52
288.704	8431.52
288.771	8438.98
288.839	8432.92
288.906	8419.92
288.974	8427.14
289.041	8426.71
289.109	8420.7
289.176	8430.47
289.244	8437.15
289.311	8455.83
289.379	8476.66
289.446	8478.97
289.514	8484.07
289.581	8485.52
289.649	8493.45
289.716	8494.37
289.783	8486.33
289.851	8507.26
289.918	8507.74
289.986	8516.89
290.053	8523.53
290.121	8516.89
290.188	8524.97
290.255	8554.86
290.323	8557.21
290.39	8553.17
290.458	8560.97
290.525	8568.71
290.592	8559.86
290.66	8561.54
290.727	8548.88
290.794	8562.41
290.862	8559.33
290.929	8564.96
290.996	8568.91
291.064	8577.33
291.131	8587.34
291.198	8595.13
291.266	8594.99
291.333	8602.26
291.4	8613.09
291.468	8625.6
291.535	8624.83
291.602	8632.34
291.669	8632.19
291.737	8631.9
291.804	8631.62
291.871	8649.61
291.938	8658.61
292.006	8685.52
292.073	8700.54
292.14	8714.16
292.207	8701.84
292.275	8710.74
292.342	8716.18
292.409	8740.87
292.476	8766.29
292.543	8758.01
292.611	8763.5
292.678	8778.27
292.745	8800.56
292.812	8811.05
292.879	8810.09
292.946	8819.96
293.014	8828.52
293.081	8837.86
293.148	8853.79
293.215	8869.68
293.282	8860.1
293.349	8872.76
293.416	8854.9
293.484	8860.29
293.551	8874.68
293.618	8889.41
293.685	8908.43
293.752	8902.94
293.819	8897.45
293.886	8882.63
293.953	8889.99
294.02	8899.76
294.087	8906.74
294.154	8900.44
294.221	8911.94
294.288	8912.57
294.356	8933.6
294.423	8942.51
294.49	8928.21
294.557	8940.68
294.624	8930.28
294.691	8956.37
294.758	8955.51
294.825	8967.78
294.892	8962.34
294.959	8961.62
295.026	8965.62
295.093	8960.08
295.16	8963.64
295.226	8968.7
295.293	8996.19
295.36	9008.99
295.427	9022.67
295.494	9040.53
295.561	9051.36
295.628	9076.31
295.695	9091.47
295.762	9088.49
295.829	9093.64
295.896	9108.17
295.963	9116.74
296.03	9129.31
296.096	9132.73
296.163	9140.91
296.23	9157.09
296.297	9172.64
296.364	9171.19
296.431	9180.44
296.498	9170.67
296.564	9193.15
296.631	9195.94
296.698	9178.46
296.765	9191.17
296.832	9179.86
296.899	9163.73
296.965	9181.11
297.032	9161.17
297.099	9180.24
297.166	9192.85
297.233	9189.82
297.299	9190.11
297.366	9191.03
297.433	9194.83
297.5	9205.81
297.566	9212.84
297.633	9209.76
297.7	9210
297.767	9204.56
297.833	9212.6
297.9	9223.24
297.967	9208.5
298.033	9217.8
298.1	9250.21
298.167	9245.49
298.234	9246.64
298.3	9253.33
298.367	9248.23
298.434	9251.46
298.5	9240
298.567	9231.71
298.634	9233.21
298.7	9249.34
298.767	9254.73
298.834	9270.62
298.9	9259.98
298.967	9252.71
299.033	9262.19
299.1	9279.67
299.167	9295.61
299.233	9291.03
299.3	9304.71
299.366	9322.28
299.433	9340.63
299.5	9312.99
299.566	9311.16
299.633	9335.52
299.699	9348.76
299.766	9344.72
299.832	9355.31
299.899	9361.57
299.965	9376.74
300.032	9373.27
300.099	9383.39
300.165	9387.67
300.232	9379.54
300.298	9379.39
300.365	9400.29
300.431	9404.38
300.498	9395.43
300.564	9405.73
300.631	9420.08
300.697	9436.99
300.763	9441.46
300.83	9435.64
300.896	9446.04
300.963	9459.23
301.029	9466.84
301.096	9476.86
301.162	9491.59
301.229	9483.16
301.295	9476.52
301.361	9476.76
301.428	9485.19
301.494	9470.16
301.561	9472.76
301.627	9482.87
301.693	9487.5
301.76	9478.64
301.826	9472.57
301.892	9490.14
301.959	9496.45
302.025	9487.74
302.092	9478.73
302.158	9479.36
302.224	9484.65
302.291	9481.77
302.357	9478.78
302.423	9462.89
302.49	9447.19
302.556	9453.98
302.622	9454.36
302.688	9468.04
302.755	9484.75
302.821	9489.37
302.887	9498.38
302.954	9490.58
303.02	9497.85
303.086	9507.38
303.152	9509.41
303.219	9506.61
303.285	9510.27
303.351	9518.17
303.417	9524.29
303.483	9521.64
303.55	9520.44
303.616	9518.17
303.682	9516.63
303.748	9510.18
303.815	9528.62
303.881	9537.29
303.947	9523.62
304.013	9525.69
304.079	9515.86
304.145	9490.24
304.212	9493.47
304.278	9485.19
304.344	9484.75
304.41	9466.55
304.476	9453.36
304.542	9445.03
304.608	9448.64
304.674	9430.29
304.741	9423.79
304.807	9426
304.873	9428.07
304.939	9444.64
305.005	9423.31
305.071	9425.09
305.137	9431.93
305.203	9407.27
305.269	9406.84
305.335	9424.03
305.401	9417.62
305.467	9417.43
305.533	9429.9
305.599	9434.82
305.666	9445.65
305.732	9452.39
305.798	9466.12
305.864	9491.93
305.93	9500.07
305.996	9500.64
306.062	9503.24
306.128	9499.58
306.194	9486.58
306.259	9484.17
306.325	9471.75
306.391	9484.89
306.457	9491.4
306.523	9495.83
306.589	9524.77
306.655	9517.16
306.721	9496.55
306.787	9486.87
306.853	9503.34
306.919	9485.57
306.985	9479.26
307.051	9477.72
307.117	9470.02
307.183	9464.91
307.248	9440.64
307.314	9446.66
307.38	9450.32
307.446	9458.8
307.512	9449.79
307.578	9456.44
307.644	9448.97
307.709	9451.67
307.775	9449.5
307.841	9442.76
307.907	9438.38
307.973	9412.71
308.039	9417.33
308.104	9425.42
308.17	9432.65
308.236	9413.38
308.302	9420.51
308.368	9409.05
308.433	9402.07
308.499	9390.41
308.565	9380.88
308.631	9387.72
308.696	9363.59
308.762	9348.71
308.828	9345.44
308.894	9321.61
308.959	9297.48
309.025	9296.14
309.091	9291.27
309.156	9282.36
309.222	9284.53
309.288	9278.95
309.354	9257.43
309.419	9247.36
309.485	9229.35
309.551	9228.63
309.616	9218.95
309.682	9216.5
309.748	9209.95
309.813	9208.94
309.879	9203.83
309.945	9193.1
310.01	9180.67
310.076	9178.41
310.141	9175.38
310.207	9159.87
310.273	9167.34
310.338	9175.62
310.404	9154.72
310.469	9136.76
310.535	9127.9
310.601	9103.73
310.666	9104.75
310.732	9119.09
310.797	9101.33
310.863	9096.66
310.928	9088.95
310.994	9089.1
311.059	9084.76
311.125	9083.42
311.191	9091.65
311.256	9084.72
311.322	9085.83
311.387	9070.08
311.453	9422.91
311.518	9400.38
311.584	9391.91
311.649	9399.46
311.715	9383.82
311.78	9385.79
311.846	9376.17
311.911	9385.36
311.976	9395.33
312.042	9381.03
312.107	9359.51
312.173	9358.64
312.238	9349.69
312.304	9347.28
312.369	9335.25
312.434	9322.25
312.5	9310.07
312.565	9277.33
312.631	9289.27
312.696	9285.47
312.761	9285.13
312.827	8930.96
312.892	8972.31
312.958	8972.79
313.023	8966.68
313.088	8967.98
313.154	8954.21
313.219	8953.59
313.284	8937.99
313.35	8931.73
313.415	8915.89
313.48	8918.54
313.546	8922.97
313.611	8932.02
313.676	8921.72
313.741	8913.34
313.807	8923.02
313.872	8932.45
313.937	8939.67
314.003	8942.32
314.068	8944.34
314.133	8951.76
314.198	8937.08
314.264	8910.26
314.329	8901.69
314.394	8899.86
314.459	8899.67
314.525	8924.31
314.59	8917.81
314.655	8906.69
314.72	8907.61
314.785	8912.57
314.851	8905.11
314.916	8889.41
314.981	8876.08
315.046	8870.11
315.111	8866.07
315.176	8853.46
315.242	8854.9
315.307	8851.82
315.372	8828.91
315.437	8814.51
315.502	8805.75
315.567	8820.34
315.632	8804.74
315.698	8808.16
315.763	8799.45
315.828	8794.34
315.893	8785.2
315.958	8786.35
316.023	8778.94
316.088	8766.47
316.153	8743.66
316.218	8736.49
316.283	8718.78
316.348	8700.4
316.413	8695.06
316.479	8679.85
316.544	8643.91
316.609	8609.45
316.674	8574.03
316.739	8547.13
316.804	8520.57
316.869	8482.32
316.934	8441.51
316.999	8411.1
317.064	8360.53
317.129	8321.55
317.194	8283.73
317.259	8235.66
317.324	8179.19
317.389	8138.49
317.454	8096.88
317.518	8065.57
317.583	8042.38
317.648	8021.74
317.713	7990.91
317.778	7938.09
317.843	7907.98
317.908	7872.93
317.973	7838.54
318.038	7806.46
318.103	7770.45
318.168	7741.64
318.233	7716.97
318.297	7669.18
318.362	7637.97
318.427	7599.18
318.492	7571.29
318.557	7524.13
318.622	7500.33
318.687	7481.15
318.751	7442.89
318.816	7413.52
318.881	7380.6
318.946	7327
319.011	7279.42
319.075	7239.81
319.14	7200.56
319.205	7156.44
319.27	7126.6
319.335	7084.32
319.399	7046.41
319.464	7012.25
319.529	6956.9
319.594	6913.08
319.658	6886.52
319.723	6842.42
319.788	6818.64
319.853	6766.04
319.917	6735.36
319.982	6679.54
320.047	6642.66
320.112	6612.98
320.176	6558.58
320.241	6529.91
320.306	6503.83
320.37	6465.76
320.435	6434.89
320.5	6413.91
320.564	6377.81
320.629	6335.81
320.694	6301.59
320.758	6261.23
320.823	6221.54
320.888	6195.38
320.952	6151.48
321.017	6107.19
321.082	6072.69
321.146	6038.47
321.211	6007.38
321.275	5970.64
321.34	5928.96
321.405	5883.49
321.469	5840.95
321.534	5799.52
321.598	5748.25
321.663	5712.42
321.727	5681.15
321.792	5630.09
321.857	5583.61
321.921	5547.66
321.986	5506.73
322.05	5450.75
322.115	5415.57
322.179	5369.28
322.244	5312.65
322.308	5281.45
322.373	5236.94
322.437	5192.29
322.502	5160.31
322.566	5116.57
322.631	5080.07
322.695	5040.32
322.76	4996.7
322.824	4960.59
322.889	4922.39
322.953	4873.8
323.018	4810.16
323.082	4745.26
323.146	4698.07
323.211	4644.32
323.275	4595.45
323.34	4551.62
323.404	4519.95
323.468	4472.34
323.533	4432.92
323.597	4389.75
323.662	4334.98
323.726	4307.04
323.79	4256.68
323.855	4195.73
323.919	4144.76
323.983	4099.9
324.048	4037.36
324.112	4204.3
324.177	4078.16
324.241	3868.91
324.305	3666.44
324.37	3465.18
324.434	3272.66
324.498	3228.62
324.562	3179.57
324.627	3122.11
324.691	3067.82
324.755	3003.85
324.82	2931.96
324.884	2854.82
324.948	2786.95
325.012	2698.41
325.077	2568.14
