Data from 20250704_urea_0.1M_MAYP1162681_11-23-27-670.txt Node
Date: Fri Jul 04 11:23:27 BST 2025
User: adleo
Spectrometer: MAYP116268
Trigger mode: 0
Integration Time (sec): 1.000000E0
Scans to average: 1
Electric dark correction enabled: true
Nonlinearity correction enabled: true
Boxcar width: 10
XAxis mode: Wavelengths
Number of Pixels in Spectrum: 2068
>>>>>Begin Spectral Data<<<<<
179.565	1244.17
179.642	1301.29
179.718	1348.39
179.795	1386.7
179.871	1419.3
179.948	1438.16
180.024	1459.49
180.101	1481.5
180.177	1496.16
180.254	1519.73
180.33	1545.28
180.407	1599.03
180.483	1699.08
180.56	1794.11
180.636	1879.9
180.712	1867.49
180.789	1879
180.865	1890.73
180.942	1896.82
181.018	1910.42
181.095	1922.45
181.171	1929.01
181.248	1930.81
181.324	1945.7
181.4	1952.83
181.477	1965.58
181.553	1978.98
181.63	2001.48
181.706	2019.6
181.782	2030.05
181.859	2028.44
181.935	2031.53
182.011	2029.48
182.088	2043.85
182.164	2060.36
182.24	2075.38
182.317	2085.8
182.393	2082.99
182.469	2098.35
182.546	2112.15
182.622	2115
182.698	2112.53
182.775	2124.42
182.851	2138.69
182.927	2131.79
183.003	2128.18
183.08	2122.04
183.156	2131.08
183.232	2123.7
183.308	2112.24
183.385	2119.23
183.461	2139.02
183.537	2138.26
183.613	2151.1
183.69	2143.59
183.766	2133.97
183.842	2143.16
183.918	2150.1
183.995	2164.52
184.071	2168.56
184.147	2159.62
184.223	2147.78
184.299	2159.2
184.375	2145.69
184.452	2151.26
184.528	2201.51
184.604	2214.83
184.68	2225.43
184.756	2233.52
184.832	2242.85
184.908	2246.23
184.985	2245.51
185.061	2228.62
185.137	2241.85
185.213	2231.48
185.289	2234.91
185.365	2226.3
185.441	2222.54
185.517	2235.77
185.593	2232.68
185.669	2230.16
185.745	2244.48
185.822	2260.69
185.898	2254.94
185.974	2267.68
186.05	2259.74
186.126	2223.62
186.202	2217.05
186.278	2214.53
186.354	2203.21
186.43	2210.01
186.506	2209.87
186.582	2209.35
186.658	2214.58
186.734	2190.32
186.81	2194.46
186.886	2196.03
186.962	2208.68
187.038	2205.25
187.114	2195.59
187.19	2201.3
187.266	2190.88
187.341	2190.79
187.417	2183.22
187.493	2179.75
187.569	2183.65
187.645	2176.18
187.721	2165.71
187.797	2170.52
187.873	2175.61
187.949	2171.38
188.025	2164.62
188.101	2167.95
188.176	2173.8
188.252	2172.7
188.328	2181.5
188.404	2179.98
188.48	2175.27
188.556	2170.37
188.632	2171.46
188.707	2174.37
188.783	2172.84
188.859	2167.37
188.935	2159.43
189.011	2170.13
189.086	2166.99
189.162	2157.91
189.238	2157.81
189.314	2156.1
189.39	2151.91
189.465	2142.21
189.541	2159.14
189.617	2142.83
189.693	2139.74
189.768	2142.92
189.844	2167.96
189.92	2159.88
189.996	2169.2
190.071	2177.29
190.147	2172.87
190.223	2180.48
190.298	2168.72
190.374	2153.03
190.45	2164.3
190.526	2170.72
190.601	2162.92
190.677	2164.11
190.753	2190.53
190.828	2195.05
190.904	2210.89
190.98	2225.07
191.055	2236.92
191.131	2226.93
191.207	2246.2
191.282	2254.38
191.358	2244.82
191.433	2226.68
191.509	2241.14
191.585	2236.52
191.66	2239.71
191.736	2253.46
191.811	2248.51
191.887	2264.88
191.963	2291.2
192.038	2299.62
192.114	2299.24
192.189	2305.04
192.265	2300.71
192.34	2277.86
192.416	2275.86
192.491	2268.39
192.567	2270.15
192.642	2272.25
192.718	2272.29
192.793	2260.92
192.869	2254.69
192.944	2258.4
193.02	2268.44
193.095	2274.2
193.171	2278.1
193.246	2277.63
193.322	2270.53
193.397	2269.92
193.473	2257.45
193.548	2237.5
193.624	2241.22
193.699	2239.36
193.775	2255.45
193.85	2257.78
193.925	2266.21
194.001	2264.92
194.076	2258.97
194.152	2250.21
194.227	2243.5
194.302	2234.61
194.378	2239.8
194.453	2237.7
194.529	2249.93
194.604	2233.85
194.679	2225.33
194.755	2209.97
194.83	2222.01
194.905	2220.87
194.981	2227.53
195.056	2222.02
195.131	2229.44
195.207	2228.72
195.282	2218.5
195.357	2197.6
195.433	2213.21
195.508	2203.17
195.583	2212.73
195.659	2229.63
195.734	2235.05
195.809	2233.43
195.884	2243.99
195.96	2244.71
196.035	2260.55
196.11	2255.55
196.185	2269.02
196.261	2274.3
196.336	2305.61
196.411	2293.81
196.486	2300.04
196.561	2294.19
196.637	2302.56
196.712	2320.84
196.787	2324.94
196.862	2344.88
196.937	2358.92
197.013	2362.68
197.088	2375
197.163	2396.86
197.238	2413.96
197.313	2415.68
197.388	2431.1
197.464	2462.91
197.539	2474.38
197.614	2469.2
197.689	2482.24
197.764	2500.2
197.839	2520.81
197.914	2516.38
197.989	2538.19
198.065	2554.48
198.14	2604.51
198.215	2629.99
198.29	2639.61
198.365	2650.19
198.44	2657.71
198.515	2680.91
198.59	2696.92
198.665	2722.93
198.74	2733.22
198.815	2730.65
198.89	2757.19
198.965	2789.5
199.04	2783.21
199.115	2798.22
199.19	2839.1
199.265	2842.86
199.34	2852.06
199.415	2884.48
199.49	2904.35
199.565	2913.31
199.64	2934.33
199.715	2934.66
199.79	2946.29
199.865	2954.64
199.94	2956.02
200.015	2988.25
200.09	2997.02
200.165	3005.74
200.24	3012.8
200.315	3051.84
200.39	3069.38
200.464	3072.67
200.539	3073.29
200.614	3091.55
200.689	3117.73
200.764	3128.71
200.839	3148.39
200.914	3151.49
200.989	3143.24
201.063	3156.59
201.138	3140.82
201.213	3141.29
201.288	3120.22
201.363	3122.27
201.438	3122.84
201.512	3138.43
201.587	3123.69
201.662	3126.36
201.737	3139
201.812	3147.39
201.886	3112.22
201.961	3123.34
202.036	3112.85
202.111	3111.8
202.186	3083.73
202.26	3064.89
202.335	3042.95
202.41	3038.7
202.485	3026.21
202.559	3010.14
202.634	2989.36
202.709	3002.8
202.784	2988.78
202.858	2992.69
202.933	2980.05
203.008	2976.81
203.082	2965.99
203.157	2970.57
203.232	2938.87
203.306	2927.19
203.381	2903.73
203.456	2892.19
203.53	2878.55
203.605	2872.78
203.68	2864.82
203.754	2873.34
203.829	2876.06
203.904	2872.72
203.978	2880.78
204.053	2908.87
204.127	2916.31
204.202	2938.48
204.277	2949.02
204.351	2968.85
204.426	2990.36
204.5	3014.25
204.575	3015.3
204.65	3060.68
204.724	3095.57
204.799	3143.78
204.873	3184.68
204.948	3231.2
205.022	3272.56
205.097	3323.28
205.171	3389.71
205.246	3460.65
205.32	3519.58
205.395	3585.64
205.469	3648.41
205.544	3726.26
205.618	3785.18
205.693	3880.14
205.767	3954.99
205.842	4064.45
205.916	4154.47
205.991	4245
206.065	4349.86
206.14	4469.01
206.214	4569.69
206.289	4673.65
206.363	4798.06
206.438	4915.6
206.512	5041.95
206.586	5185.13
206.661	5316.29
206.735	5425.24
206.81	5553.58
206.884	5712.26
206.958	5832.61
207.033	5992.88
207.107	6142.54
207.181	6326.11
207.256	6469.26
207.33	6640.91
207.405	6809.13
207.479	6984.7
207.553	7147.25
207.628	7288.98
207.702	7465.88
207.776	7627.21
207.851	7791.4
207.925	7981.05
207.999	8151.46
208.073	8321.36
208.148	8499.15
208.222	8663.06
208.296	8878.81
208.371	9069.84
208.445	9260.87
208.519	9475.81
208.593	9669.23
208.668	9852.05
208.742	10034.34
208.816	10229.31
208.89	10431.31
208.965	10610.36
209.039	10806.89
209.113	11017.06
209.187	11228.37
209.261	11415.29
209.336	11625.11
209.41	11837.45
209.484	12023.69
209.558	12234.98
209.632	12446.09
209.707	12647.62
209.781	12862.74
209.855	13063.02
209.929	13277.86
210.003	13470.1
210.077	13653.61
210.151	13887.88
210.226	14114.68
210.3	14328.89
210.374	14523.92
210.448	14710.33
210.522	14908.68
210.596	15093.3
210.67	15279.84
210.744	15510.87
210.818	15717.84
210.892	15922.69
210.966	16094.18
211.041	16287.61
211.115	16456.64
211.189	16639.11
211.263	16828.57
211.337	16993.69
211.411	17171.63
211.485	17322.23
211.559	17494.63
211.633	17659.65
211.707	17786.97
211.781	17952.12
211.855	18074
211.929	18234.72
212.003	18367.53
212.077	18521.6
212.151	18687.72
212.225	18843.61
212.299	18967.7
212.373	19103.22
212.447	19231.45
212.52	19392.94
212.594	19528.07
212.668	19676.5
212.742	19798.52
212.816	19921.26
212.89	20051.43
212.964	20178.27
213.038	20316.83
213.112	20459.14
213.186	20608.11
213.26	20706.37
213.333	20767.77
213.407	20893.03
213.481	21002.63
213.555	21133.24
213.629	21237.15
213.703	21337.89
213.777	21459.74
213.85	21559.85
213.924	21697.76
213.998	21806.08
214.072	21920.57
214.146	22017.51
214.219	22126.21
214.293	22233.42
214.367	22333.4
214.441	22450.55
214.515	22542.97
214.588	22614.47
214.662	22676.37
214.736	22756.84
214.81	22868.78
214.883	22975.76
214.957	23045.67
215.031	23130.38
215.105	23196
215.178	23266.01
215.252	23348.18
215.326	23400.4
215.4	23464.87
215.473	23500.27
215.547	23556.5
215.621	23619.06
215.694	23694.63
215.768	23745.46
215.842	23806.23
215.915	23868.74
215.989	23891.16
216.063	23942.58
216.136	24011.17
216.21	24061.13
216.284	24126.88
216.357	24183.65
216.431	24243.95
216.504	24325.47
216.578	24390.01
216.652	24455.52
216.725	24513.26
216.799	24563.96
216.873	24612.73
216.946	24676.41
217.02	24707.24
217.093	24763.69
217.167	24782.7
217.24	24816.08
217.314	24859.65
217.387	24899.16
217.461	24929.76
217.535	25001.31
217.608	25039.57
217.682	25074.65
217.755	25136.7
217.829	25156.63
217.902	25201.31
217.976	25232.97
218.049	25243.2
218.123	25281.61
218.196	25324.81
218.27	25355.16
218.343	25381.94
218.417	25421.32
218.49	25440.63
218.563	25506.5
218.637	25540.09
218.71	25594.44
218.784	25641.26
218.857	25676.25
218.931	25702.75
219.004	25744.35
219.077	25792.09
219.151	25819.51
219.224	25855.62
219.298	25877.77
219.371	25932.17
219.444	25941.39
219.518	25971.03
219.591	26008.97
219.665	26065.31
219.738	26095.1
219.811	26113.83
219.885	26148.49
219.958	26189.48
220.031	26221.58
220.105	26252.43
220.178	26270.39
220.251	26287.39
220.325	26307.28
220.398	26328.67
220.471	26358.36
220.544	26384.86
220.618	26386.75
220.691	26413.98
220.764	26428.07
220.838	26455.4
220.911	26453.81
220.984	26494.12
221.057	26526.33
221.131	26548.54
221.204	26517.34
221.277	26538.15
221.35	26587.79
221.424	26594.79
221.497	26594.31
221.57	26602.09
221.643	26611.26
221.716	26622.17
221.79	26612.71
221.863	26615.7
221.936	26614.79
222.009	26623.57
222.082	26622.13
222.155	26614.88
222.229	26634.63
222.302	26638.64
222.375	26638.79
222.448	26654.96
222.521	26654.77
222.594	26637.72
222.667	26631.4
222.74	26658.44
222.814	26656.94
222.887	26654.04
222.96	26666.21
223.033	26675.92
223.106	26682.68
223.179	26687.8
223.252	26697.8
223.325	26705.43
223.398	26701.71
223.471	26700.35
223.544	26697.55
223.617	26703.25
223.69	26692.49
223.763	26670.66
223.837	26663.03
223.91	26657.72
223.983	26632.13
224.056	26605.62
224.129	26611.94
224.202	26608.66
224.275	26578.82
224.348	26557.09
224.42	26525.56
224.493	26487.41
224.566	26470.03
224.639	26457.81
224.712	26423.04
224.785	26393.4
224.858	26377.56
224.931	26356.56
225.004	26330.1
225.077	26308.57
225.15	26258.21
225.223	26248.7
225.296	26257.68
225.369	26217.09
225.442	26194.3
225.514	26178.37
225.587	26158.28
225.66	26136.94
225.733	26104.6
225.806	26077.52
225.879	26051.11
225.952	26011.39
226.025	25993.86
226.097	25981.55
226.17	25953.31
226.243	25915.08
226.316	25884.38
226.389	25858.99
226.461	25842.77
226.534	25829.93
226.607	25799.52
226.68	25793.64
226.753	25769.02
226.825	25718.62
226.898	25720.36
226.971	25694.49
227.044	25667.26
227.117	25641.68
227.189	25620.11
227.262	25606.3
227.335	25593.66
227.407	25556.79
227.48	25543.66
227.553	25517.7
227.626	25481.3
227.698	25450.56
227.771	25429.28
227.844	25401.92
227.916	25369.63
227.989	25323.79
228.062	25291.31
228.134	25289.24
228.207	25269.98
228.28	25230.41
228.352	25194.99
228.425	25160.88
228.498	25138.19
228.57	25092.7
228.643	25081.55
228.716	25031.8
228.788	24999.18
228.861	24965.26
228.934	24951.55
229.006	24911.9
229.079	24892.45
229.151	24848.54
229.224	24797.93
229.296	24778.35
229.369	24771.78
229.442	24761.89
229.514	24727.55
229.587	24713.8
229.659	24665.16
229.732	24630.38
229.804	24616.58
229.877	24606.01
229.949	24584.3
230.022	24565.82
230.094	24545.13
230.167	24511.21
230.239	24481.64
230.312	24449.61
230.384	24436.15
230.457	24412.27
230.529	24388.54
230.602	24360.08
230.674	24340.06
230.747	24333.79
230.819	24307.5
230.892	24242.58
230.964	24209.73
231.037	24180.88
231.109	24128.36
231.181	24100.43
231.254	24056.83
231.326	24014.77
231.399	23975.22
231.471	23926.65
231.544	23867.76
231.616	23840.94
231.688	23803.56
231.761	23757.32
231.833	23714.01
231.905	23657.19
231.978	23619.72
232.05	23576.42
232.122	23538.94
232.195	23491.34
232.267	23464
232.339	23419.49
232.412	23406.61
232.484	23363.79
232.556	23334.13
232.629	23318.61
232.701	23284.13
232.773	23248.69
232.846	23206.26
232.918	23163.19
232.99	23131.47
233.062	23102.44
233.135	23065.41
233.207	23018.59
233.279	22999.64
233.351	22971.1
233.424	22933.97
233.496	22880.6
233.568	22870.14
233.64	22809.73
233.713	22773.37
233.785	22725.78
233.857	22691.75
233.929	22636.06
234.001	22622.08
234.074	22584.19
234.146	22530.14
234.218	22501.07
234.29	22458.21
234.362	22417.67
234.434	22366.47
234.507	22323.37
234.579	22276.66
234.651	22237.32
234.723	22214.43
234.795	22178.13
234.867	22132.81
234.939	22105.77
235.012	22077.47
235.084	22038.38
235.156	22017.55
235.228	21969.16
235.3	21917.87
235.372	21880.41
235.444	21842.96
235.516	21771.04
235.588	21736.77
235.66	21702.98
235.732	21641.42
235.804	21665.14
235.876	21634.15
235.948	21608.55
236.02	21559.87
236.092	21516.49
236.164	21470.47
236.236	21411.95
236.308	21378.26
236.38	21337.58
236.452	21289.67
236.524	21238.1
236.596	21214.96
236.668	21172.31
236.74	21129.51
236.812	21096.83
236.884	21059.63
236.956	21028.64
237.028	20974.71
237.1	20917.16
237.172	20891.71
237.244	20872.92
237.316	20787.07
237.388	20746.16
237.46	20703.7
237.532	20684.42
237.604	20633.33
237.675	20608.23
237.747	20574.83
237.819	20507.79
237.891	20476.37
237.963	20426.73
238.035	20378.73
238.107	20286.01
238.178	20258.73
238.25	20227.94
238.322	20219.21
238.394	20159.89
238.466	20113.24
238.538	20089.72
238.609	20056.04
238.681	19983.75
238.753	19927.37
238.825	19887.27
238.897	19849.44
238.968	19826.79
239.04	19766.55
239.112	19753.06
239.184	19700.29
239.255	19654.12
239.327	19618.99
239.399	19577.07
239.471	19542.51
239.542	19509.99
239.614	19492.45
239.686	19428.16
239.758	19397.08
239.829	19330.33
239.901	19295.73
239.973	19248.07
240.044	19202.53
240.116	19159.11
240.188	19119.98
240.259	19083.31
240.331	19030.06
240.403	18983.85
240.474	18928.57
240.546	18884.19
240.618	18813.88
240.689	18768.97
240.761	18732.06
240.833	18706.13
240.904	18657.46
240.976	18611
241.048	18577.17
241.119	18542.67
241.191	18506.53
241.262	18474.96
241.334	18429.18
241.405	18388.12
241.477	18352.42
241.549	18311.26
241.62	18274.11
241.692	18244.95
241.763	18213.39
241.835	18172.38
241.906	18129.24
241.978	18064.96
242.049	18040.96
242.121	18021.3
242.192	17999.47
242.264	17957.25
242.335	17899.37
242.407	17870.36
242.478	17831.71
242.55	17788.48
242.621	17747.18
242.693	17703.67
242.764	17648.82
242.836	17614.32
242.907	17582.9
242.979	17545.21
243.05	17515.48
243.122	17484.68
243.193	17440.06
243.264	17378.61
243.336	17340.78
243.407	17319.52
243.479	17298.66
243.55	17258.37
243.622	17227.14
243.693	17178.56
243.764	17150.22
243.836	17106.94
243.907	17057.01
243.978	17011.13
244.05	16982.26
244.121	16920.19
244.192	16893.1
244.264	16849.49
244.335	16809.44
244.407	16755.26
244.478	16719.17
244.549	16675.55
244.62	16627.93
244.692	16593.71
244.763	16570.14
244.834	16526.29
244.906	16483.1
244.977	16452.88
245.048	16433.75
245.119	16387.96
245.191	16344.83
245.262	16278.46
245.333	16254.31
245.405	16223.9
245.476	16200.43
245.547	16165.87
245.618	16144.61
245.689	16112.13
245.761	16078.53
245.832	16039.35
245.903	16015.83
245.974	15980.83
246.045	15944.97
246.117	15936.25
246.188	15887.33
246.259	15833.29
246.33	15795.94
246.401	15752.9
246.473	15701.18
246.544	15653.08
246.615	15624.25
246.686	15591.14
246.757	15573.35
246.828	15532.19
246.899	15511.75
246.97	15458
247.042	15414.29
247.113	15378.04
247.184	15362.28
247.255	15321.06
247.326	15294.26
247.397	15258.84
247.468	15229.58
247.539	15192.03
247.61	15131.34
247.681	15108.88
247.752	15093.98
247.823	15054.6
247.894	15022.69
247.965	14983.65
248.037	14956.65
248.108	14909.22
248.179	14867.96
248.25	14835.71
248.321	14812.38
248.392	14766.63
248.463	14751.59
248.534	14715.25
248.605	14703.87
248.675	14662.08
248.746	14641.4
248.817	14617.44
248.888	14593.24
248.959	14543.79
249.03	14523.59
249.101	14499.29
249.172	14464.1
249.243	14412.62
249.314	14405.34
249.385	14380.56
249.456	14361.42
249.527	14323.15
249.598	14301.6
249.669	14276.15
249.739	14258.79
249.81	14236.14
249.881	14197.43
249.952	14175.5
250.023	14148.36
250.094	14093.69
250.165	14057.2
250.235	14023.74
250.306	13988.55
250.377	13945.65
250.448	13926.95
250.519	13868.52
250.59	13848.18
250.66	13815.64
250.731	13807.97
250.802	13774.18
250.873	13747.04
250.944	13720.67
251.014	13688.08
251.085	13683.36
251.156	13664.51
251.227	13649.61
251.297	13632.4
251.368	13616.4
251.439	13598.61
251.51	13586.99
251.58	13556.77
251.651	13528.76
251.722	13517.05
251.792	13473.42
251.863	13441.65
251.934	13429.89
252.005	13441.55
252.075	13420.92
252.146	13407.38
252.217	13395.28
252.287	13382.21
252.358	13352.66
252.429	13354.35
252.499	13321.23
252.57	13288.84
252.641	13266.42
252.711	13239.09
252.782	13198.79
252.852	13202.35
252.923	13174.2
252.994	13145.04
253.064	13138.82
253.135	13101.6
253.205	13066.94
253.276	13067.28
253.347	13065.5
253.417	13035.32
253.488	13004.47
253.558	12976.22
253.629	12956.98
253.699	12928.25
253.77	12912.1
253.841	12893.88
253.911	12865.3
253.982	12847.41
254.052	12838.45
254.123	12820.8
254.193	12793.23
254.264	12813.04
254.334	12772.74
254.405	12741.79
254.475	12710.27
254.546	12681.1
254.616	12676.62
254.687	12662.64
254.757	12644.23
254.827	12616.89
254.898	12596.12
254.968	12578.09
255.039	12543.43
255.109	12525.31
255.18	12495.13
255.25	12449.72
255.321	12435.02
255.391	12396.17
255.461	12398.53
255.532	12348.49
255.602	12327.33
255.673	12284.96
255.743	12249.1
255.813	12199.88
255.884	12186.92
255.954	12178.29
256.024	12177.08
256.095	12150.47
256.165	12112.88
256.235	12098.13
256.306	12069.93
256.376	12066.31
256.446	12047.66
256.517	12037.68
256.587	12030.98
256.657	12015.37
256.728	11994.45
256.798	11974.35
256.868	11952.32
256.938	11919.98
257.009	11911.4
257.079	11894.33
257.149	11900.21
257.219	11851.05
257.29	11839.53
257.36	11800.54
257.43	11788.63
257.5	11745.25
257.571	11725.83
257.641	11724.77
257.711	11690.3
257.781	11683.8
257.852	11662.01
257.922	11624.9
257.992	11605.91
258.062	11581.09
258.132	11567.45
258.202	11548.5
258.273	11529.51
258.343	11535.01
258.413	11508.31
258.483	11495.54
258.553	11467.1
258.623	11440.54
258.693	11429.46
258.764	11430.47
258.834	11427.72
258.904	11410.08
258.974	11379
259.044	11351.58
259.114	11330.32
259.184	11316.44
259.254	11295.86
259.324	11251.04
259.394	11237.84
259.464	11238.27
259.535	11218.03
259.605	11195.28
259.675	11175.82
259.745	11157.07
259.815	11117.07
259.885	11097.79
259.955	11103.82
260.025	11076.78
260.095	11063.87
260.165	11050.71
260.235	11045.12
260.305	11022.76
260.375	10993.6
260.445	11008.74
260.515	11013.07
260.585	11007.43
260.655	10981.56
260.725	10972.79
260.795	10973.22
260.865	10982.23
260.934	10952.06
261.004	10940.11
261.074	10924.26
261.144	10925.99
261.214	10919.92
261.284	10906.72
261.354	10897.9
261.424	10865.27
261.494	10873.66
261.564	10847.83
261.634	10837.71
261.703	10798.58
261.773	10781.53
261.843	10774.06
261.913	10749.34
261.983	10712.67
262.053	10694.45
262.123	10686.99
262.192	10656.49
262.262	10647.33
262.332	10610.03
262.402	10599.48
262.472	10579.73
262.541	10547.11
262.611	10536.94
262.681	10512.03
262.751	10509.09
262.821	10493.67
262.89	10461.1
262.96	10445.2
263.03	10452.86
263.1	10442.12
263.169	10433.73
263.239	10433.45
263.309	10436.96
263.379	10433.93
263.448	10425.06
263.518	10416.82
263.588	10401.26
263.657	10404.88
263.727	10398.66
263.797	10379.92
263.867	10359.4
263.936	10333.96
264.006	10331.17
264.076	10309.29
264.145	10290.7
264.215	10261.12
264.285	10249.75
264.354	10221.18
264.424	10195.89
264.494	10166.55
264.563	10145.64
264.633	10152.72
264.702	10135
264.772	10102.86
264.842	10081.18
264.911	10069.04
264.981	10040.62
265.05	10020.29
265.12	10001.5
265.19	9983.73
265.259	9990.42
265.329	9983.97
265.398	9975.11
265.468	9992.4
265.537	9971.21
265.607	9962.92
265.676	9963.06
265.746	9960.32
265.815	9963.02
265.885	9948.09
265.955	9922.22
266.024	9906.81
266.094	9862.64
266.163	9869.38
266.232	9870.06
266.302	9849.68
266.371	9835.47
266.441	9832.34
266.51	9829.89
266.58	9811.87
266.649	9789.86
266.719	9780.13
266.788	9768.28
266.858	9772.09
266.927	9728.54
266.996	9721.8
267.066	9718.38
267.135	9690.5
267.205	9680.24
267.274	9672.24
267.343	9677.2
267.413	9666.03
267.482	9666.66
267.552	9676.39
267.621	9639.15
267.69	9601.68
267.76	9597.16
267.829	9598.41
267.898	9581.6
267.968	9564.17
268.037	9566.91
268.106	9568.55
268.176	9541.97
268.245	9535.32
268.314	9518.42
268.384	9524.48
268.453	9514.47
268.522	9504.26
268.592	9508.78
268.661	9490.48
268.73	9474.35
268.799	9449.65
268.869	9461.2
268.938	9434.77
269.007	9411.84
269.076	9407.7
269.146	9406.64
269.215	9399.32
269.284	9402.12
269.353	9383.29
269.422	9370.34
269.492	9345.49
269.561	9305.24
269.63	9301
269.699	9282.66
269.768	9272.93
269.838	9263.39
269.907	9263.83
269.976	9243.12
270.045	9211.11
270.114	9204.56
270.183	9191.75
270.253	9187.27
270.322	9158.53
270.391	9151.93
270.46	9156.89
270.529	9149.96
270.598	9152.46
270.667	9136.34
270.736	9116.5
270.806	9116.93
270.875	9122.95
270.944	9115.1
271.013	9142.06
271.082	9139.36
271.151	9132.67
271.22	9104.61
271.289	9087.27
271.358	9071
271.427	9060.65
271.496	9054.35
271.565	9046.3
271.634	9046.69
271.703	9076.02
271.772	9077.89
271.841	9068.79
271.91	9046.84
271.979	9041.98
272.048	9017.04
272.117	9018.39
272.186	8999.23
272.255	8994.61
272.324	8989.31
272.393	8980.36
272.462	8960.67
272.531	8949.74
272.6	8942.47
272.669	8952.05
272.738	8942.66
272.807	8936.5
272.876	8924.27
272.945	8955.9
273.013	8950.7
273.082	8947.28
273.151	8897.79
273.22	8893.07
273.289	8882.29
273.358	8888.02
273.427	8871.36
273.496	8881.37
273.564	8882.58
273.633	8879.55
273.702	8860.1
273.771	8843.44
273.84	8839.5
273.909	8835.21
273.977	8833
274.046	8820.77
274.115	8824.67
274.184	8810.57
274.253	8804.12
274.322	8806.14
274.39	8767.06
274.459	8752.37
274.528	8724.27
274.597	8722.68
274.665	8721.19
274.734	8731.58
274.803	8722.29
274.872	8724.75
274.94	8701.89
275.009	8749.85
275.078	8741.38
275.147	8743.4
275.215	8743.88
275.284	8749.08
275.353	8741.91
275.421	8717.8
275.49	8735.7
275.559	8724.1
275.627	8717.08
275.696	8707.89
275.765	8710.48
275.833	8703.51
275.902	8701.44
275.971	8714.67
276.039	8726.66
276.108	8729.54
276.177	8723.82
276.245	8714.91
276.314	8707.6
276.383	8715.2
276.451	8654.96
276.52	8663.62
276.588	8677.73
276.657	8682.93
276.725	8674.26
276.794	8672.43
276.863	8684.13
276.931	8660.49
277	8666.08
277.068	8677.82
277.137	8692.5
277.205	8687.3
277.274	8708.52
277.342	8718.92
277.411	8699.19
277.48	8683.69
277.548	8673.2
277.617	8676.18
277.685	8671.32
277.754	8674.55
277.822	8665.5
277.89	8679.37
277.959	8664.3
278.027	8638.75
278.096	8625.7
278.164	8655.6
278.233	8644.53
278.301	8632.06
278.37	8632.88
278.438	8614.93
278.507	8613.1
278.575	8591.83
278.643	8588.22
278.712	8574.45
278.78	8563.1
278.849	8574.4
278.917	8580.47
278.985	8571.52
279.054	8572.67
279.122	8584.32
279.191	8579.79
279.259	8573.87
279.327	8545.96
279.396	8561.36
279.464	8561.45
279.532	8573.05
279.601	8567.42
279.669	8565.83
279.737	8576.37
279.806	8583.21
279.874	8595.38
279.942	8593.41
280.011	8589.27
280.079	8596.15
280.147	8607.89
280.215	8614.58
280.284	8616.7
280.352	8605.15
280.42	8612.8
280.488	8599.33
280.557	8593.12
280.625	8600.87
280.693	8602.79
280.761	8605.39
280.83	8591.48
280.898	8601.16
280.966	8577.24
281.034	8543.55
281.102	8528.34
281.171	8528.49
281.239	8537.68
281.307	8531.14
281.375	8524.06
281.443	8546.68
281.512	8544.08
281.58	8547.79
281.648	8524.98
281.716	8520.31
281.784	8521.66
281.852	8519.11
281.92	8518.87
281.989	8524.16
282.057	8499.91
282.125	8543.71
282.193	8546.74
282.261	8546.26
282.329	8548.23
282.397	8554.15
282.465	8556.51
282.533	8576.33
282.601	8562.86
282.67	8538.03
282.738	8529.94
282.806	8542.55
282.874	8538.22
282.942	8541.83
283.01	8537.5
283.078	8551.64
283.146	8549.38
283.214	8560.16
283.282	8561.51
283.35	8572.67
283.418	8569.11
283.486	8583.26
283.554	8535.08
283.622	8537.39
283.69	8540.66
283.758	8528.29
283.826	8532
283.894	8546.63
283.962	8565.83
284.03	8581.76
284.098	8582.82
284.165	8581.71
284.233	8577.62
284.301	8563.71
284.369	8553.94
284.437	8542.59
284.505	8537.05
284.573	8556.93
284.641	8541.62
284.709	8546.48
284.777	8533.25
284.845	8540.18
284.912	8542.59
284.98	8552.69
285.048	8545.62
285.116	8546.43
285.184	8562.32
285.252	8563.9
285.319	8545.04
285.387	8531.8
285.455	8514.29
285.523	8518.42
285.591	8515.87
285.659	8521.02
285.726	8534.84
285.794	8519.05
285.862	8521.56
285.93	8522.61
285.997	8516.65
286.065	8517.9
286.133	8513.33
286.201	8505.15
286.269	8489.7
286.336	8484.16
286.404	8481.47
286.472	8491.91
286.539	8473.53
286.607	8454.81
286.675	8456.3
286.743	8463.95
286.81	8462.37
286.878	8480.6
286.946	8476.27
287.013	8474.35
287.081	8473.82
287.149	8459.57
287.216	8483.06
287.284	8472.13
287.352	8470.26
287.419	8467.08
287.487	8482.91
287.555	8485.03
287.622	8487.82
287.69	8497.35
287.758	8507.22
287.825	8505.05
287.893	8490.71
287.96	8494.94
288.028	8512.99
288.096	8517.18
288.163	8521.07
288.231	8508.61
288.298	8505.05
288.366	8521.8
288.433	8522.23
288.501	8512.75
288.569	8516.55
288.636	8512.17
288.704	8528.1
288.771	8534.84
288.839	8522.42
288.906	8509.67
288.974	8518.77
289.041	8515.88
289.109	8503.94
289.176	8510.15
289.244	8506.4
289.311	8526.47
289.379	8537.97
289.446	8534.84
289.514	8526.08
289.581	8527.77
289.649	8530.41
289.716	8530.75
289.783	8522.47
289.851	8543.12
289.918	8542.63
289.986	8552.16
290.053	8555.82
290.121	8553.94
290.188	8561.4
290.255	8586.96
290.323	8585.9
290.39	8579.3
290.458	8590.95
290.525	8607.55
290.592	8602.74
290.66	8610.53
290.727	8598.16
290.794	8613.57
290.862	8611.64
290.929	8617.99
290.996	8610.2
291.064	8623.05
291.131	8641.29
291.198	8654.14
291.266	8650.63
291.333	8650.87
291.4	8652.36
291.468	8668.44
291.535	8662.47
291.602	8663.05
291.669	8662.81
291.737	8667.14
291.804	8664.73
291.871	8681.48
291.938	8691.15
292.006	8723.41
292.073	8734.33
292.14	8750.17
292.207	8744.44
292.275	8753.63
292.342	8767.78
292.409	8805.28
292.476	8827.04
292.543	8818.52
292.611	8817.32
292.678	8833.2
292.745	8860.83
292.812	8876.47
292.879	8880.23
292.946	8893.46
293.014	8907.66
293.081	8916.9
293.148	8933.85
293.215	8957.24
293.282	8949.25
293.349	8961.19
293.416	8935.77
293.484	8955.22
293.551	8968.36
293.618	8987.95
293.685	9010.87
293.752	9006.44
293.819	9001.87
293.886	8992.72
293.953	8995.32
294.02	9009.52
294.087	9017.94
294.154	9010.19
294.221	9029.65
294.288	9018.38
294.356	9032.29
294.423	9039.66
294.49	9029.89
294.557	9043.22
294.624	9034.56
294.691	9059.83
294.758	9055.79
294.825	9069.89
294.892	9059.78
294.959	9055.98
295.026	9061.71
295.093	9058.92
295.16	9061.95
295.226	9056.03
295.293	9080.63
295.36	9092.33
295.427	9104.27
295.494	9119.24
295.561	9130.99
295.628	9147.41
295.695	9167.92
295.762	9176.35
295.829	9185.83
295.896	9203.6
295.963	9213.61
296.03	9218.23
296.096	9216.45
296.163	9228.54
296.23	9237.88
296.297	9253.57
296.364	9248.62
296.431	9254.87
296.498	9247.89
296.564	9266.96
296.631	9274.9
296.698	9258.1
296.765	9278.71
296.832	9266.19
296.899	9250.49
296.965	9273.12
297.032	9250.78
297.099	9267.73
297.166	9273.99
297.233	9267.34
297.299	9263.06
297.366	9265.03
297.433	9268.4
297.5	9283.33
297.566	9280.05
297.633	9287.18
297.7	9288.91
297.767	9291.08
297.833	9295.94
297.9	9298.54
297.967	9288.67
298.033	9300.71
298.1	9331.63
298.167	9319.01
298.234	9334.52
298.3	9342.46
298.367	9332.88
298.434	9340.58
298.5	9331.67
298.567	9328.4
298.634	9326.81
298.7	9344.1
298.767	9349.15
298.834	9372.31
298.9	9365.14
298.967	9362.25
299.033	9367.84
299.1	9388.35
299.167	9406.5
299.233	9405.2
299.3	9421.57
299.366	9440.16
299.433	9458.65
299.5	9435.34
299.566	9441.99
299.633	9449.31
299.699	9460.67
299.766	9462.02
299.832	9469.25
299.899	9482.2
299.965	9489.23
300.032	9496.6
300.099	9507.63
300.165	9506.23
300.232	9500.4
300.298	9505.84
300.365	9524
300.431	9528.43
300.498	9516
300.564	9522.84
300.631	9532.04
300.697	9546.2
300.763	9541.77
300.83	9535.89
300.896	9550.34
300.963	9557.56
301.029	9563.05
301.096	9569.36
301.162	9573.5
301.229	9567.77
301.295	9555.45
301.361	9566.23
301.428	9575.05
301.494	9554.19
301.561	9557.52
301.627	9558.29
301.693	9559.35
301.76	9558.77
301.826	9549.71
301.892	9568.59
301.959	9577.31
302.025	9580.44
302.092	9577.36
302.158	9584.92
302.224	9586.46
302.291	9579.86
302.357	9576.49
302.423	9565.51
302.49	9556.27
302.556	9574.42
302.622	9576.44
302.688	9590.56
302.755	9604.14
302.821	9602.93
302.887	9621.14
302.954	9626.15
303.02	9634
303.086	9644.35
303.152	9649.02
303.219	9647.87
303.285	9646.76
303.351	9655.48
303.417	9652.49
303.483	9638.81
303.55	9633.28
303.616	9632.7
303.682	9632.36
303.748	9623.6
303.815	9646.33
303.881	9657.84
303.947	9643.2
304.013	9650.61
304.079	9637.23
304.145	9619.36
304.212	9618.63
304.278	9610.74
304.344	9604.04
304.41	9594.8
304.476	9584.59
304.542	9573.75
304.608	9582.61
304.674	9570.86
304.741	9567.05
304.807	9566.48
304.873	9571.77
304.939	9593.93
305.005	9581.02
305.071	9576.83
305.137	9588.44
305.203	9564.89
305.269	9565.13
305.335	9574.95
305.401	9573.55
305.467	9577.89
305.533	9588
305.599	9598.02
305.666	9609.1
305.732	9609.39
305.798	9620.7
305.864	9646.95
305.93	9653.65
305.996	9653.55
306.062	9649.41
306.128	9643.15
306.194	9637.61
306.259	9635.88
306.325	9622.1
306.391	9632.02
306.457	9645.65
306.523	9646.47
306.589	9666.31
306.655	9661.54
306.721	9647.48
306.787	9631.01
306.853	9644.69
306.919	9623.21
306.985	9611.46
307.051	9608.71
307.117	9608.14
307.183	9607.03
307.248	9578.76
307.314	9583.67
307.38	9578.8
307.446	9586.89
307.512	9577.46
307.578	9583.38
307.644	9582.99
307.709	9586.94
307.775	9586.08
307.841	9580.83
307.907	9579.53
307.973	9563.54
308.039	9555.25
308.104	9561.66
308.17	9563.44
308.236	9550.72
308.302	9562.43
308.368	9554.53
308.433	9544.95
308.499	9539.36
308.565	9518.46
308.631	9523.76
308.696	9503.24
308.762	9491.01
308.828	9486.15
308.894	9468.57
308.959	9442.86
309.025	9435.06
309.091	9430.72
309.156	9422.39
309.222	9422.82
309.288	9409.1
309.354	9385.41
309.419	9385.46
309.485	9378.33
309.551	9385.17
309.616	9366.58
309.682	9353.63
309.748	9349.97
309.813	9349.54
309.879	9333.36
309.945	9329.51
310.01	9318.38
310.076	9320.69
310.141	9321.13
310.207	9309.81
310.273	9314.96
310.338	9319.49
310.404	9307.21
310.469	9293.39
310.535	9282.02
310.601	9253.18
310.666	9258.53
310.732	9269.55
310.797	9257.85
310.863	9236.09
310.928	9223.81
310.994	9231.18
311.059	9231.03
311.125	9229.4
311.191	9232.57
311.256	9236.86
311.322	9244.03
311.387	9224.15
311.453	9473.65
311.518	9447.84
311.584	9440.91
311.649	9444.81
311.715	9433.78
311.78	9435.52
311.846	9419.77
311.911	9424.88
311.976	9436.43
312.042	9422.13
312.107	9409.18
312.173	9401.28
312.238	9403.55
312.304	9400.61
312.369	9392.57
312.434	9379.14
312.5	9370.42
312.565	9338.89
312.631	9332.05
312.696	9319.19
312.761	9323.14
312.827	9062.91
312.892	9104.6
312.958	9111.15
313.023	9103.16
313.088	9109.08
313.154	9096.9
313.219	9094.83
313.284	9084.33
313.35	9080.82
313.415	9070.71
313.48	9069.31
313.546	9076.01
313.611	9090.07
313.676	9086.55
313.741	9079.14
313.807	9085.35
313.872	9089.97
313.937	9104.17
314.003	9115.92
314.068	9118.37
314.133	9124.58
314.198	9113.61
314.264	9084.72
314.329	9067.58
314.394	9067.82
314.459	9064.35
314.525	9079.9
314.59	9075.47
314.655	9068.06
314.72	9071.77
314.785	9075.28
314.851	9063.87
314.916	9041.39
314.981	9018.76
315.046	9006.1
315.111	9000.57
315.176	8990.26
315.242	8987.66
315.307	8983.76
315.372	8966
315.437	8956.42
315.502	8946.93
315.567	8958.92
315.632	8952.23
315.698	8956.8
315.763	8954.64
315.828	8943.85
315.893	8939.96
315.958	8937.31
316.023	8928.55
316.088	8908.81
316.153	8886.38
316.218	8882.87
316.283	8868.29
316.348	8850.82
316.413	8848.99
316.479	8824.63
316.544	8794.7
316.609	8766.78
316.674	8728.57
316.739	8691.18
316.804	8661.15
316.869	8624.19
316.934	8584.53
316.999	8555.7
317.064	8500.99
317.129	8453.15
317.194	8414.28
317.259	8366.1
317.324	8313.62
317.389	8266.03
317.454	8223.89
317.518	8193.63
317.583	8164.9
317.648	8141.62
317.713	8108.14
317.778	8047.28
317.843	8018.71
317.908	7977.73
317.973	7939.63
318.038	7911.5
318.103	7876.49
318.168	7844.65
318.233	7814.45
318.297	7768.76
318.362	7727.36
318.427	7693.13
318.492	7667.35
318.557	7625.91
318.622	7594.65
318.687	7572.16
318.751	7536.44
318.816	7505.24
318.881	7468.27
318.946	7414.48
319.011	7369.53
319.075	7330.74
319.14	7294.7
319.205	7253.17
319.27	7219.01
319.335	7173.5
319.399	7127.37
319.464	7101.52
319.529	7046.41
319.594	7009.07
319.658	6981.88
319.723	6935.33
319.788	6906.74
319.853	6847.27
319.917	6815.28
319.982	6764.6
320.047	6729.82
320.112	6698.8
320.176	6646.26
320.241	6613.41
320.306	6586.23
320.37	6544.12
320.435	6514.93
320.5	6490.49
320.564	6450.21
320.629	6413.2
320.694	6383.48
320.758	6344.99
320.823	6296.36
320.888	6270.5
320.952	6221.5
321.017	6172.74
321.082	6136.46
321.146	6102.1
321.211	6074.42
321.275	6031.72
321.34	5985.82
321.405	5939.47
321.469	5893.76
321.534	5855.54
321.598	5804.32
321.663	5769.83
321.727	5741.1
321.792	5690.31
321.857	5645.94
321.921	5609.36
321.986	5564.68
322.05	5504.96
322.115	5469.01
322.179	5427.94
322.244	5371.44
322.308	5335.02
322.373	5292.85
322.437	5251.17
322.502	5221.2
322.566	5175.35
322.631	5138.46
322.695	5100.82
322.76	5051.4
322.824	5018.88
322.889	4979.66
322.953	4934.47
323.018	4871.64
323.082	4804.05
323.146	4749.77
323.211	4696.72
323.275	4646.18
323.34	4600.1
323.404	4568.9
323.468	4522.29
323.533	4478.42
323.597	4436.77
323.662	4384.25
323.726	4344.78
323.79	4298.1
323.855	4230.69
323.919	4180.33
323.983	4136.15
324.048	4071.31
324.112	4229.58
324.177	4094.8
324.241	3880.43
324.305	3674.24
324.37	3468.81
324.434	3274.29
324.498	3230.53
324.562	3177.93
324.627	3119.44
324.691	3065.22
324.755	2995.95
324.82	2919.98
324.884	2840.33
324.948	2763.72
325.012	2672.74
325.077	2550.99
