Data from 20250704_urea_2M_MAYP1162681_12-04-59-489.txt Node
Date: Fri Jul 04 12:04:59 BST 2025
User: adleo
Spectrometer: MAYP116268
Trigger mode: 0
Integration Time (sec): 1.000000E0
Scans to average: 1
Electric dark correction enabled: true
Nonlinearity correction enabled: true
Boxcar width: 10
XAxis mode: Wavelengths
Number of Pixels in Spectrum: 2068
>>>>>Begin Spectral Data<<<<<
179.565	1281.61
179.642	1340.56
179.718	1388.75
179.795	1431.13
179.871	1466.86
179.948	1487.33
180.024	1509.61
180.101	1531.7
180.177	1545.31
180.254	1571.09
180.33	1594.56
180.407	1653.2
180.483	1754.64
180.56	1848.52
180.636	1937.4
180.712	1922.8
180.789	1935.59
180.865	1948.09
180.942	1958.03
181.018	1966.73
181.095	1979.67
181.171	1982.43
181.248	1984.23
181.324	1999.03
181.4	2006.07
181.477	2015.48
181.553	2027.75
181.63	2046.2
181.706	2063.32
181.782	2073.17
181.859	2069.41
181.935	2073.5
182.011	2068.65
182.088	2086.87
182.164	2107.19
182.24	2121.88
182.317	2134.2
182.393	2131.25
182.469	2144.28
182.546	2159.08
182.622	2162.17
182.698	2154.89
182.775	2168.45
182.851	2182.05
182.927	2174.44
183.003	2169.97
183.08	2165.83
183.156	2174.68
183.232	2171.21
183.308	2158.55
183.385	2165.88
183.461	2186.24
183.537	2189
183.613	2202.27
183.69	2192.38
183.766	2184.71
183.842	2191.75
183.918	2195.51
183.995	2208.12
184.071	2212.07
184.147	2206.65
184.223	2198.09
184.299	2213.55
184.375	2202.42
184.452	2211.94
184.528	2261.29
184.604	2272.94
184.68	2285.22
184.756	2295.26
184.832	2299.97
184.908	2309.3
184.985	2309.63
185.061	2293.4
185.137	2299.11
185.213	2288.55
185.289	2289.79
185.365	2279.99
185.441	2277.99
185.517	2291.46
185.593	2288.94
185.669	2287.13
185.745	2297.65
185.822	2313.68
185.898	2307.2
185.974	2316.15
186.05	2304.77
186.126	2271.41
186.202	2262.71
186.278	2260.23
186.354	2246.57
186.43	2257.33
186.506	2256.38
186.582	2255.52
186.658	2262.9
186.734	2243.2
186.81	2246.01
186.886	2250.67
186.962	2264.47
187.038	2261
187.114	2252.47
187.19	2255.62
187.266	2243.91
187.341	2244.2
187.417	2237.92
187.493	2236.87
187.569	2238.77
187.645	2232.64
187.721	2220.45
187.797	2229.73
187.873	2231.63
187.949	2230.16
188.025	2222.4
188.101	2222.64
188.176	2229.3
188.252	2222.73
188.328	2234.81
188.404	2234.05
188.48	2227.2
188.556	2219.78
188.632	2218.92
188.707	2223.63
188.783	2226.01
188.859	2224.44
188.935	2211.83
189.011	2219.25
189.086	2211.36
189.162	2204.65
189.238	2201.51
189.314	2199.56
189.39	2192.33
189.465	2184.43
189.541	2199.04
189.617	2181.77
189.693	2177.01
189.768	2176.92
189.844	2202.38
189.92	2192.35
189.996	2202.58
190.071	2212.81
190.147	2210.05
190.223	2218.37
190.298	2207.43
190.374	2192.15
190.45	2204.66
190.526	2214.8
190.601	2208.71
190.677	2210.66
190.753	2236.7
190.828	2239.7
190.904	2255.5
190.98	2269.87
191.055	2279.77
191.131	2268.82
191.207	2292.33
191.282	2301.84
191.358	2297.37
191.433	2281.28
191.509	2294.41
191.585	2291.55
191.66	2292.6
191.736	2301.64
191.811	2293.03
191.887	2310.45
191.963	2334.86
192.038	2340.91
192.114	2339.48
192.189	2345.24
192.265	2343.76
192.34	2323.81
192.416	2324.86
192.491	2320.91
192.567	2326.05
192.642	2329.15
192.718	2329
192.793	2313.96
192.869	2308.82
192.944	2308.16
193.02	2319.3
193.095	2324.25
193.171	2329.15
193.246	2331.34
193.322	2329.29
193.397	2332.34
193.473	2313.58
193.548	2297.11
193.624	2300.35
193.699	2303.49
193.775	2318.15
193.85	2318.11
193.925	2328.48
194.001	2328.25
194.076	2317.78
194.152	2304.4
194.227	2297.97
194.302	2291.69
194.378	2297.88
194.453	2298.16
194.529	2310.78
194.604	2295.16
194.679	2286.12
194.755	2266.95
194.83	2276.52
194.905	2271.72
194.981	2279.19
195.056	2274
195.131	2278.57
195.207	2278.48
195.282	2267.05
195.357	2249.3
195.433	2265.24
195.508	2252.77
195.583	2259.43
195.659	2273.18
195.734	2280.13
195.809	2280.75
195.884	2288.08
195.96	2287.55
196.035	2302.69
196.11	2301.02
196.185	2310.68
196.261	2316.68
196.336	2348.85
196.411	2334
196.486	2341.47
196.561	2336.19
196.637	2345.65
196.712	2361.13
196.787	2361.75
196.862	2376.17
196.937	2383.45
197.013	2385.69
197.088	2393.06
197.163	2415.73
197.238	2436.12
197.313	2438.07
197.388	2453.03
197.464	2485.65
197.539	2495.55
197.614	2487.03
197.689	2500.03
197.764	2517.7
197.839	2539.89
197.914	2534.41
197.989	2557.51
198.065	2574.75
198.14	2627.36
198.215	2657.56
198.29	2669.33
198.365	2684.05
198.44	2696.67
198.515	2729.97
198.59	2747.51
198.665	2777.09
198.74	2786.91
198.815	2787.53
198.89	2811.88
198.965	2842.48
199.04	2841.1
199.115	2859.01
199.19	2902.42
199.265	2903.95
199.34	2916.58
199.415	2949.34
199.49	2972.78
199.565	2985.03
199.64	3004.48
199.715	2999.66
199.79	3006.2
199.865	3012.63
199.94	3012.2
200.015	3041.91
200.09	3041.77
200.165	3052.11
200.24	3058.45
200.315	3103.27
200.39	3119.87
200.464	3125.07
200.539	3125.64
200.614	3139.75
200.689	3164.32
200.764	3172.86
200.839	3191.69
200.914	3197.27
200.989	3189.15
201.063	3203.13
201.138	3187.21
201.213	3190.79
201.288	3172.9
201.363	3179.39
201.438	3183.78
201.512	3198.79
201.587	3182.62
201.662	3190.35
201.737	3203.99
201.812	3210.48
201.886	3171.91
201.961	3182.5
202.036	3169.87
202.111	3168.82
202.186	3140.08
202.26	3122.91
202.335	3098.82
202.41	3096.24
202.485	3076.41
202.559	3054.57
202.634	3025.39
202.709	3035.35
202.784	3014.9
202.858	3012.23
202.933	2991.63
203.008	2983.67
203.082	2962.65
203.157	2962.79
203.232	2920.52
203.306	2894.44
203.381	2863.45
203.456	2837.53
203.53	2810.86
203.605	2793.85
203.68	2765.2
203.754	2755.73
203.829	2742.38
203.904	2719.23
203.978	2703.17
204.053	2706.5
204.127	2691.35
204.202	2688.59
204.277	2667.87
204.351	2662.82
204.426	2655.24
204.5	2645.95
204.575	2607.23
204.65	2619.15
204.724	2608.9
204.799	2613.18
204.873	2609.7
204.948	2608.08
205.022	2600.7
205.097	2594.84
205.171	2605.22
205.246	2612.51
205.32	2612.89
205.395	2609.61
205.469	2604.04
205.544	2608.8
205.618	2592.99
205.693	2606.75
205.767	2597.37
205.842	2618.53
205.916	2611.33
205.991	2601.81
206.065	2605.48
206.14	2624.8
206.214	2619.89
206.289	2615.74
206.363	2628.65
206.438	2631.42
206.512	2637.89
206.586	2655.23
206.661	2662.91
206.735	2641.67
206.81	2642.91
206.884	2659.72
206.958	2648.53
207.033	2666.62
207.107	2675.39
207.181	2706.51
207.256	2701.13
207.33	2719.47
207.405	2735.54
207.479	2757.7
207.553	2768.08
207.628	2753.03
207.702	2765.09
207.776	2762.04
207.851	2762.61
207.925	2778.29
207.999	2775.33
208.073	2778.24
208.148	2779.53
208.222	2768.66
208.296	2802.71
208.371	2822.79
208.445	2835.33
208.519	2861.29
208.593	2871.11
208.668	2865.72
208.742	2866.82
208.816	2866.15
208.89	2880.74
208.965	2878.26
209.039	2883.5
209.113	2900.14
209.187	2920.05
209.261	2914.61
209.336	2930.92
209.41	2953.08
209.484	2953.51
209.558	2978.83
209.632	2988.46
209.707	3001.95
209.781	3027.55
209.855	3046.78
209.929	3064.29
210.003	3071.21
210.077	3072.5
210.151	3124.81
210.226	3161.83
210.3	3192.43
210.374	3220.13
210.448	3226.28
210.522	3238.21
210.596	3249.75
210.67	3259.2
210.744	3312.21
210.818	3346.44
210.892	3368.59
210.966	3361.96
211.041	3380.75
211.115	3379.32
211.189	3404.37
211.263	3423.98
211.337	3428.42
211.411	3440.78
211.485	3439.87
211.559	3453.66
211.633	3459.39
211.707	3431.21
211.781	3443.87
211.855	3411.84
211.929	3409.26
212.003	3396.48
212.077	3412.38
212.151	3435.92
212.225	3455.2
212.299	3451
212.373	3452.67
212.447	3464.47
212.52	3513.6
212.594	3530.74
212.668	3557
212.742	3562.49
212.816	3577.29
212.89	3594
212.964	3617.79
213.038	3646.75
213.112	3687.12
213.186	3736.55
213.26	3747.77
213.333	3736.54
213.407	3780.37
213.481	3822.87
213.555	3875.72
213.629	3907.17
213.703	3932.27
213.777	3981.85
213.85	4019.43
213.924	4108.44
213.998	4166.51
214.072	4215.9
214.146	4268.41
214.219	4327.2
214.293	4390.57
214.367	4466.51
214.441	4549.53
214.515	4616.56
214.588	4670.27
214.662	4717.8
214.736	4776.64
214.81	4871.91
214.883	4968.83
214.957	5053.3
215.031	5137.34
215.105	5213.09
215.178	5302.61
215.252	5403.16
215.326	5489.07
215.4	5578.47
215.473	5639.53
215.547	5730.73
215.621	5832.37
215.694	5957.76
215.768	6060.2
215.842	6172.58
215.915	6278.05
215.989	6385.22
216.063	6507.46
216.136	6636.92
216.21	6768.4
216.284	6919.38
216.357	7059.72
216.431	7198.83
216.504	7339.3
216.578	7505.63
216.652	7660.04
216.725	7805.41
216.799	7961.53
216.873	8108.23
216.946	8267.77
217.02	8408.94
217.093	8553.77
217.167	8681.68
217.24	8811.74
217.314	8958.95
217.387	9102.04
217.461	9247.53
217.535	9406.22
217.608	9537.63
217.682	9686.44
217.755	9849.7
217.829	9993.48
217.902	10143.77
217.976	10291.37
218.049	10438.73
218.123	10570.66
218.196	10730.81
218.27	10873.91
218.343	11003.83
218.417	11156.3
218.49	11298.13
218.563	11463.13
218.637	11613.31
218.71	11790.96
218.784	11945.24
218.857	12110.94
218.931	12261.32
219.004	12404.81
219.077	12551.93
219.151	12700
219.224	12843.51
219.298	12979.88
219.371	13132.4
219.444	13255.08
219.518	13391.69
219.591	13532.83
219.665	13697.79
219.738	13824.24
219.811	13947.11
219.885	14087
219.958	14214.55
220.031	14335.5
220.105	14467.77
220.178	14597.2
220.251	14695.2
220.325	14811.81
220.398	14926.63
220.471	15049.88
220.544	15181.14
220.618	15290.41
220.691	15414.34
220.764	15519.23
220.838	15631.34
220.911	15723.21
220.984	15843.42
221.057	15958.04
221.131	16059.74
221.204	16122.16
221.277	16240.2
221.35	16369.51
221.424	16458.44
221.497	16554.3
221.57	16647.13
221.643	16735.33
221.716	16832.44
221.79	16915.91
221.863	17013.65
221.936	17085.42
222.009	17170.38
222.082	17246.58
222.155	17318.1
222.229	17405.13
222.302	17494.82
222.375	17564.07
222.448	17641.18
222.521	17708.55
222.594	17779.2
222.667	17830.24
222.74	17913.18
222.814	17969.51
222.887	18023.49
222.96	18101.94
223.033	18176.54
223.106	18246.42
223.179	18308.58
223.252	18356.44
223.325	18423.81
223.398	18465.35
223.471	18532.57
223.544	18584.57
223.617	18635.6
223.69	18686.25
223.763	18727.36
223.837	18773.91
223.91	18830.34
223.983	18858.63
224.056	18891.2
224.129	18918.62
224.202	18976.16
224.275	19002.52
224.348	19031.72
224.42	19056.45
224.493	19076.11
224.566	19090.81
224.639	19131.09
224.712	19158.9
224.785	19198.8
224.858	19220.29
224.931	19250.36
225.004	19264.38
225.077	19291.37
225.15	19295.42
225.223	19328.96
225.296	19371.8
225.369	19375.03
225.442	19384.52
225.514	19411.27
225.587	19440.57
225.66	19472.52
225.733	19491.21
225.806	19513.33
225.879	19525.14
225.952	19532.27
226.025	19553.67
226.097	19585.47
226.17	19589.43
226.243	19581.62
226.316	19581.19
226.389	19597.76
226.461	19617.91
226.534	19637.76
226.607	19640.12
226.68	19675.06
226.753	19679.11
226.825	19655.88
226.898	19677.32
226.971	19678.58
227.044	19688.31
227.117	19692.7
227.189	19700.6
227.262	19725.37
227.335	19741.08
227.407	19746.24
227.48	19762.28
227.553	19773.42
227.626	19773.13
227.698	19781.08
227.771	19796.31
227.844	19793.99
227.916	19799.92
227.989	19784.45
228.062	19772.84
228.134	19800.45
228.207	19788.93
228.28	19779.3
228.352	19788.21
228.425	19796.84
228.498	19821.9
228.57	19816.98
228.643	19839.05
228.716	19836.16
228.788	19805.99
228.861	19787.34
228.934	19796.26
229.006	19801.85
229.079	19790.24
229.151	19785.75
229.224	19755.88
229.296	19757.56
229.369	19788.36
229.442	19808.26
229.514	19789.51
229.587	19804.55
229.659	19776.79
229.732	19785.66
229.804	19801.46
229.877	19817.03
229.949	19822.57
230.022	19831.34
230.094	19829.95
230.167	19820.98
230.239	19799.78
230.312	19804.12
230.384	19825.61
230.457	19832.26
230.529	19825.46
230.602	19824.02
230.674	19820.5
230.747	19831.83
230.819	19828.16
230.892	19779.15
230.964	19760.84
231.037	19780.79
231.109	19770.91
231.181	19770.04
231.254	19747.39
231.326	19727.73
231.399	19711.93
231.471	19692.12
231.544	19654.53
231.616	19652.27
231.688	19649.13
231.761	19642.82
231.833	19636.32
231.905	19602.24
231.978	19581.09
232.05	19554.39
232.122	19549.33
232.195	19525.04
232.267	19531.69
232.339	19517.14
232.412	19530.01
232.484	19515.21
232.556	19487.46
232.629	19493.82
232.701	19497.05
232.773	19490.54
232.846	19474.64
232.918	19465.91
232.99	19440.9
233.062	19437.39
233.135	19430.88
233.207	19396.91
233.279	19394.4
233.351	19376.91
233.424	19361.82
233.496	19338.02
233.568	19353.92
233.64	19317.3
233.713	19307.13
233.785	19284.24
233.857	19274.7
233.929	19241.78
234.001	19243.71
234.074	19243.13
234.146	19205.45
234.218	19171.14
234.29	19147.72
234.362	19125.21
234.434	19079.34
234.507	19055.24
234.579	19022.42
234.651	18988.16
234.723	18975.25
234.795	18954.38
234.867	18933.61
234.939	18931.35
235.012	18915.11
235.084	18891.44
235.156	18879.35
235.228	18846.48
235.3	18825.81
235.372	18810.24
235.444	18805.91
235.516	18748.8
235.588	18731.5
235.66	18705.96
235.732	18675.31
235.804	18713.58
235.876	18696.71
235.948	18694.54
236.02	18680.13
236.092	18659.27
236.164	18637.82
236.236	18607.8
236.308	18579.7
236.38	18564.52
236.452	18531.56
236.524	18507.61
236.596	18492.91
236.668	18481.73
236.74	18459.52
236.812	18437.64
236.884	18412.77
236.956	18382.22
237.028	18361.11
237.1	18325.65
237.172	18319.43
237.244	18319.62
237.316	18250.71
237.388	18222.28
237.46	18187.44
237.532	18168.06
237.604	18134.04
237.675	18131.39
237.747	18118.57
237.819	18088.55
237.891	18057.03
237.963	18019.63
238.035	17991.92
238.107	17932.6
238.178	17913.08
238.25	17889.76
238.322	17889.66
238.394	17846.53
238.466	17817.13
238.538	17799.79
238.609	17782.82
238.681	17736.65
238.753	17702.29
238.825	17681.91
238.897	17662.39
238.968	17659.55
239.04	17630.1
239.112	17624.8
239.184	17582.2
239.255	17551.6
239.327	17529.09
239.399	17508.75
239.471	17491.69
239.542	17478.25
239.614	17470.15
239.686	17419.93
239.758	17405.43
239.829	17354.3
239.901	17336.03
239.973	17315.79
240.044	17286.49
240.116	17258.05
240.188	17233.48
240.259	17206.63
240.331	17173.57
240.403	17153.86
240.474	17109.47
240.546	17075.74
240.618	17032.03
240.689	17002.43
240.761	16976.22
240.833	16981.08
240.904	16945.47
240.976	16920.5
241.048	16886.77
241.119	16867.68
241.191	16841.46
241.262	16829.99
241.334	16801.56
241.405	16779.39
241.477	16738.23
241.549	16712.2
241.62	16680.83
241.692	16649.4
241.763	16637.4
241.835	16609.31
241.906	16576.48
241.978	16533.4
242.049	16517.39
242.121	16498.84
242.192	16484.67
242.264	16445.34
242.335	16375.7
242.407	16360.8
242.478	16331.74
242.55	16304.99
242.621	16258.29
242.693	16234.43
242.764	16202.23
242.836	16166.42
242.907	16139.43
242.979	16118.66
243.05	16091.19
243.122	16067.86
243.193	16046.07
243.264	15983.51
243.336	15952.23
243.407	15929.82
243.479	15927.6
243.55	15903.74
243.622	15880.7
243.693	15844.5
243.764	15835.06
243.836	15802.81
243.907	15765.7
243.978	15732.92
244.05	15711.66
244.121	15663.27
244.192	15643.22
244.264	15599.11
244.335	15575.79
244.407	15533.03
244.478	15506.57
244.549	15472.92
244.62	15431.81
244.692	15403.08
244.763	15389.2
244.834	15351.99
244.906	15323.93
244.977	15291.93
245.048	15272.02
245.119	15229.84
245.191	15191.33
245.262	15136.28
245.333	15128.57
245.405	15106.11
245.476	15084.75
245.547	15053.86
245.618	15046.05
245.689	15015.05
245.761	14989.41
245.832	14961.26
245.903	14951.18
245.974	14927.85
246.045	14903.46
246.117	14898.59
246.188	14864.56
246.259	14819.01
246.33	14794.57
246.401	14751.47
246.473	14712.28
246.544	14683.41
246.615	14670.78
246.686	14647.79
246.757	14641.95
246.828	14600.88
246.899	14585.36
246.97	14536.53
247.042	14501.48
247.113	14483.31
247.184	14478.06
247.255	14435.01
247.326	14413.41
247.397	14379.91
247.468	14355.95
247.539	14327.85
247.61	14279.89
247.681	14263.21
247.752	14266.24
247.823	14228.79
247.894	14217.51
247.965	14173.64
248.037	14145.87
248.108	14102.87
248.179	14072.21
248.25	14039.77
248.321	14027
248.392	13992.82
248.463	13996.1
248.534	13973.54
248.605	13956.23
248.675	13924.37
248.746	13910.77
248.817	13889.08
248.888	13866.76
248.959	13824.24
249.03	13805.73
249.101	13790.59
249.172	13756.08
249.243	13703.77
249.314	13700.4
249.385	13668.73
249.456	13656.39
249.527	13627.32
249.598	13608.86
249.669	13588.7
249.739	13569.23
249.81	13545.56
249.881	13497.02
249.952	13470.02
250.023	13435.26
250.094	13387.49
250.165	13352.83
250.235	13326.8
250.306	13298.26
250.377	13263.26
250.448	13242.29
250.519	13198.91
250.59	13184.3
250.66	13154.65
250.731	13150.27
250.802	13116.86
250.873	13102.01
250.944	13086.25
251.014	13054.05
251.085	13069.47
251.156	13053.61
251.227	13046.82
251.297	13040.6
251.368	13036.4
251.439	13027.1
251.51	13026.47
251.58	12997.36
251.651	12973.16
251.722	12967.32
251.792	12931.65
251.863	12902.82
251.934	12896.56
252.005	12904.9
252.075	12878.05
252.146	12872.5
252.217	12865.71
252.287	12859.1
252.358	12836.88
252.429	12834.13
252.499	12805.88
252.57	12780.19
252.641	12763.41
252.711	12740.9
252.782	12699.25
252.852	12702.72
252.923	12683.01
252.994	12662.42
253.064	12662.38
253.135	12630.66
253.205	12611.28
253.276	12608.19
253.347	12611.95
253.417	12583.9
253.488	12559.89
253.558	12540.51
253.629	12516.94
253.699	12496.99
253.77	12483.68
253.841	12468.16
253.911	12453.22
253.982	12435.43
254.052	12414.85
254.123	12392.29
254.193	12362.78
254.264	12390.07
254.334	12360.81
254.405	12323.45
254.475	12300.99
254.546	12280.5
254.616	12278.48
254.687	12255.29
254.757	12241.51
254.827	12218.8
254.898	12211.23
254.968	12186.6
255.039	12156.77
255.109	12151.03
255.18	12118.49
255.25	12078.58
255.321	12060.03
255.391	12024.36
255.461	12035.1
255.532	11993.7
255.602	11976.25
255.673	11945.84
255.743	11907.51
255.813	11858.93
255.884	11858.98
255.954	11845.67
256.024	11843.94
256.095	11833.09
256.165	11805.67
256.235	11798.29
256.306	11771.16
256.376	11754.87
256.446	11746
256.517	11734.04
256.587	11728.02
256.657	11714.28
256.728	11701.94
256.798	11680.35
256.868	11648.69
256.938	11617.21
257.009	11611.43
257.079	11602.95
257.149	11606.9
257.219	11575.52
257.29	11565.64
257.36	11517.11
257.43	11500.19
257.5	11455.66
257.571	11421.53
257.641	11404.52
257.711	11368.9
257.781	11360.13
257.852	11352.04
257.922	11312.61
257.992	11299.41
258.062	11272.85
258.132	11266.68
258.202	11241
258.273	11225.28
258.343	11240.85
258.413	11214.49
258.483	11196.08
258.553	11160.56
258.623	11137.52
258.693	11119.6
258.764	11120.51
258.834	11127.89
258.904	11117.96
258.974	11096.56
259.044	11086.97
259.114	11079.07
259.184	11069.33
259.254	11050.2
259.324	11010.2
259.394	11010.49
259.464	11011.51
259.535	10997.92
259.605	10974.16
259.675	10955.61
259.745	10949.15
259.815	10917.87
259.885	10893.3
259.955	10904.43
260.025	10882.84
260.095	10864.1
260.165	10855.18
260.235	10855.86
260.305	10833.21
260.375	10800.25
260.445	10812.2
260.515	10809.36
260.585	10804.78
260.655	10786.85
260.725	10783.05
260.795	10778.28
260.865	10780.3
260.934	10753.46
261.004	10743.68
261.074	10726.52
261.144	10726.28
261.214	10715.1
261.284	10695.49
261.354	10697.9
261.424	10669.28
261.494	10679.63
261.564	10667.16
261.634	10652.51
261.703	10615.36
261.773	10603.46
261.843	10597.39
261.913	10573.97
261.983	10540
262.053	10523.18
262.123	10505.65
262.192	10468.69
262.262	10462.24
262.332	10426.68
262.402	10419.69
262.472	10403.89
262.541	10369.69
262.611	10367.95
262.681	10340.87
262.751	10339.38
262.821	10321.41
262.89	10292.21
262.96	10283.11
263.03	10286.62
263.1	10284.41
263.169	10276.46
263.239	10269.52
263.309	10276.84
263.379	10271.21
263.448	10261.91
263.518	10254.39
263.588	10244.13
263.657	10254.06
263.727	10248.03
263.797	10239.94
263.867	10224.43
263.936	10194.37
264.006	10191.91
264.076	10177.94
264.145	10165.95
264.215	10143.88
264.285	10142.05
264.354	10115.12
264.424	10091.81
264.494	10059.63
264.563	10037.9
264.633	10040.79
264.702	10034.91
264.772	10006.06
264.842	9985.2
264.911	9982.21
264.981	9957.84
265.05	9938.57
265.12	9925.42
265.19	9919.01
265.259	9912.56
265.329	9903.07
265.398	9891.51
265.468	9909.43
265.537	9885.44
265.607	9882.21
265.676	9881.2
265.746	9874.65
265.815	9871.04
265.885	9850.96
265.955	9831.16
266.024	9817.82
266.094	9779.14
266.163	9776.01
266.232	9774.13
266.302	9759.01
266.371	9744.56
266.441	9735.36
266.51	9730.98
266.58	9714.27
266.649	9691.05
266.719	9695.67
266.788	9694.13
266.858	9703.91
266.927	9664.37
266.996	9654.64
267.066	9646.84
267.135	9621.5
267.205	9615.97
267.274	9612.5
267.343	9620.54
267.413	9615.34
267.482	9614.23
267.552	9631.52
267.621	9602.43
267.69	9576.95
267.76	9571.18
267.829	9564.19
267.898	9549.12
267.968	9535.3
268.037	9527.64
268.106	9520.23
268.176	9488.87
268.245	9473.7
268.314	9458.48
268.384	9464.5
268.453	9456.56
268.522	9445.77
268.592	9449.77
268.661	9428.24
268.73	9416.92
268.799	9391.74
268.869	9396.75
268.938	9369.16
269.007	9335.83
269.076	9327.07
269.146	9324.23
269.215	9316.38
269.284	9328.76
269.353	9317.3
269.422	9307.33
269.492	9290.58
269.561	9250.71
269.63	9248.59
269.699	9231.21
269.768	9220.33
269.838	9211.42
269.907	9208.97
269.976	9182.73
270.045	9142.14
270.114	9133.67
270.183	9119.85
270.253	9117.83
270.322	9085.91
270.391	9073.97
270.46	9084.99
270.529	9081.77
270.598	9076.91
270.667	9066.99
270.736	9036.46
270.806	9030.2
270.875	9039.54
270.944	9027.31
271.013	9052.59
271.082	9045.41
271.151	9039.01
271.22	9003.44
271.289	8992.51
271.358	8979.85
271.427	8976.77
271.496	8977.39
271.565	8967.47
271.634	8959.87
271.703	8987.03
271.772	8993.57
271.841	8988.04
271.91	8962.52
271.979	8959.35
272.048	8941.77
272.117	8940.86
272.186	8923.24
272.255	8929.79
272.324	8915.97
272.393	8915.25
272.462	8902.06
272.531	8893.68
272.6	8882.32
272.669	8897.29
272.738	8884.68
272.807	8881.84
272.876	8867.35
272.945	8897.73
273.013	8901.53
273.082	8910.34
273.151	8869.03
273.22	8866.81
273.289	8861.28
273.358	8873.07
273.427	8860.36
273.496	8853.96
273.564	8851.56
273.633	8857.19
273.702	8832.93
273.771	8831.15
273.84	8829.8
273.909	8824.84
273.977	8826.52
274.046	8819.93
274.115	8820.8
274.184	8804
274.253	8797.31
274.322	8807.08
274.39	8772.47
274.459	8754.23
274.528	8726.07
274.597	8713.75
274.665	8710.67
274.734	8718.32
274.803	8710.09
274.872	8699.7
274.94	8686.65
275.009	8741.6
275.078	8731.25
275.147	8730.1
275.215	8721.82
275.284	8726.05
275.353	8717.1
275.421	8689.86
275.49	8703.82
275.559	8694.24
275.627	8689.96
275.696	8675.52
275.765	8670.28
275.833	8664.93
275.902	8660.7
275.971	8669.79
276.039	8688.18
276.108	8686.45
276.177	8683.37
276.245	8669.84
276.314	8670.76
276.383	8681.15
276.451	8619.37
276.52	8620.62
276.588	8631.55
276.657	8633.95
276.725	8621.87
276.794	8626.54
276.863	8635.49
276.931	8610.9
277	8617.01
277.068	8626.2
277.137	8646.99
277.205	8645.02
277.274	8657.15
277.342	8673.37
277.411	8658.11
277.48	8644.68
277.548	8633.81
277.617	8630.29
277.685	8624.09
277.754	8620.96
277.822	8607.92
277.89	8621.64
277.959	8612.73
278.027	8592.71
278.096	8581.11
278.164	8608.17
278.233	8594.69
278.301	8589.4
278.37	8599.26
278.438	8588.14
278.507	8590.6
278.575	8562.35
278.643	8562.11
278.712	8545.94
278.78	8530.25
278.849	8541.46
278.917	8546.71
278.985	8546.42
279.054	8553.69
279.122	8569.23
279.191	8567.69
279.259	8568.99
279.327	8544.54
279.396	8562.34
279.464	8562.68
279.532	8575.58
279.601	8570.04
279.669	8568.89
279.737	8579.09
279.806	8582.27
279.874	8588.72
279.942	8584.63
280.011	8580.78
280.079	8583.57
280.147	8607.01
280.215	8610.9
280.284	8607.53
280.352	8594.25
280.42	8605.71
280.488	8594.2
280.557	8587.37
280.625	8594.93
280.693	8597.19
280.761	8599.88
280.83	8579.24
280.898	8592.08
280.966	8568.12
281.034	8536.98
281.102	8518.41
281.171	8509.12
281.239	8514.8
281.307	8505.75
281.375	8499.02
281.443	8529.24
281.512	8523.56
281.58	8523.75
281.648	8513.45
281.716	8508.45
281.784	8508.11
281.852	8496.66
281.92	8492.81
281.989	8498.05
282.057	8481.5
282.125	8527.09
282.193	8526.12
282.261	8534.02
282.329	8531.99
282.397	8535.27
282.465	8535.94
282.533	8559.32
282.601	8552.97
282.67	8532.04
282.738	8524.72
282.806	8537.71
282.874	8526.89
282.942	8538
283.01	8533.09
283.078	8536.99
283.146	8539.4
283.214	8554.12
283.282	8559.8
283.35	8573.28
283.418	8565.58
283.486	8568.8
283.554	8527.35
283.622	8527.93
283.69	8526.53
283.758	8517.3
283.826	8527.64
283.894	8542.13
283.962	8555.65
284.03	8570.23
284.098	8568.5
284.165	8569.7
284.233	8567.44
284.301	8560.75
284.369	8547.28
284.437	8537.94
284.505	8528.89
284.573	8544.92
284.641	8532.93
284.709	8544.97
284.777	8525.24
284.845	8532.5
284.912	8542.8
284.98	8543.76
285.048	8535.58
285.116	8544.2
285.184	8561.76
285.252	8560.03
285.319	8543.14
285.387	8539.96
285.455	8520.72
285.523	8529.52
285.591	8522.79
285.659	8528.46
285.726	8541.75
285.794	8531.64
285.862	8527.46
285.93	8532.85
285.997	8525.67
286.065	8523.41
286.133	8505.89
286.201	8508.49
286.269	8493.67
286.336	8486.12
286.404	8479.52
286.472	8488.33
286.539	8462.59
286.607	8446.22
286.675	8440.4
286.743	8444.11
286.81	8435.01
286.878	8453.39
286.946	8443.96
287.013	8448.63
287.081	8446.08
287.149	8430.24
287.216	8443.67
287.284	8435.78
287.352	8436.4
287.419	8434.91
287.487	8449.35
287.555	8449.54
287.622	8446.36
287.69	8455.36
287.758	8462.72
287.825	8464.65
287.893	8452.48
287.96	8457.43
288.028	8466.48
288.096	8475.19
288.163	8477.59
288.231	8464.36
288.298	8461.81
288.366	8482.02
288.433	8475
288.501	8464.75
288.569	8471.1
288.636	8472.26
288.704	8490.2
288.771	8500.02
288.839	8486.21
288.906	8475.96
288.974	8490.4
289.041	8494.35
289.109	8485.4
289.176	8501.33
289.244	8496.56
289.311	8518.12
289.379	8533.09
289.446	8533.66
289.514	8534.96
289.581	8540.98
289.649	8545.74
289.716	8546.66
289.783	8536.84
289.851	8562.92
289.918	8570.57
289.986	8578.08
290.053	8582.27
290.121	8580.15
290.188	8579.47
290.255	8609.41
290.323	8606.28
290.39	8599.59
290.458	8604.26
290.525	8616.91
290.592	8603.29
290.66	8609.88
290.727	8597.95
290.794	8607.52
290.862	8608.49
290.929	8609.4
290.996	8608.82
291.064	8620.47
291.131	8629.37
291.198	8643.48
291.266	8641.07
291.333	8639.24
291.4	8639.96
291.468	8658.25
291.535	8657.34
291.602	8660.18
291.669	8654.07
291.737	8662.44
291.804	8664.41
291.871	8683.81
291.938	8691.94
292.006	8716.25
292.073	8727.61
292.14	8738.2
292.207	8728.77
292.275	8731.8
292.342	8737.24
292.409	8761.06
292.476	8781.95
292.543	8781.76
292.611	8779.84
292.678	8797.93
292.745	8825.08
292.812	8837.21
292.879	8831.29
292.946	8833.55
293.014	8849.29
293.081	8859.5
293.148	8867.39
293.215	8884.29
293.282	8878.94
293.349	8895.84
293.416	8882.07
293.484	8896.85
293.551	8907.49
293.618	8932.62
293.685	8961.36
293.752	8960.73
293.819	8961.31
293.886	8950.43
293.953	8957.7
294.02	8972.52
294.087	8971.46
294.154	8961.36
294.221	8977.24
294.288	8976.76
294.356	9000.59
294.423	9002.08
294.49	8994.43
294.557	9011.33
294.624	9001.7
294.691	9018.6
294.758	9008.2
294.825	9014.36
294.892	9010.03
294.959	9015.75
295.026	9024.28
295.093	9010.36
295.16	9011.61
295.226	9012.53
295.293	9044.16
295.36	9048.2
295.427	9054.9
295.494	9071.41
295.561	9080.75
295.628	9102.52
295.695	9124.57
295.762	9120.72
295.829	9136.8
295.896	9157.55
295.963	9164.77
296.03	9173.72
296.096	9183.4
296.163	9202.66
296.23	9221.1
296.297	9233.71
296.364	9229.86
296.431	9229.04
296.498	9231.55
296.564	9259.33
296.631	9256.1
296.698	9240.74
296.765	9253.88
296.832	9244.16
296.899	9233.23
296.965	9249.5
297.032	9229.23
297.099	9242.23
297.166	9251.76
297.233	9241.46
297.299	9225.14
297.366	9229.71
297.433	9235.97
297.5	9239.2
297.566	9235.64
297.633	9232.75
297.7	9238.19
297.767	9236.07
297.833	9242.67
297.9	9247.58
297.967	9234.67
298.033	9256
298.1	9287.98
298.167	9290.77
298.234	9299.05
298.3	9312.82
298.367	9306.9
298.434	9314.99
298.5	9302.28
298.567	9301.27
298.634	9304.97
298.7	9328.23
298.767	9330.59
298.834	9344.41
298.9	9338.77
298.967	9332.95
299.033	9345.13
299.1	9359.53
299.167	9381.15
299.233	9373.16
299.3	9387.36
299.366	9404.12
299.433	9410.18
299.5	9378.16
299.566	9381.87
299.633	9393.67
299.699	9400.21
299.766	9399.11
299.832	9405.99
299.899	9413.51
299.965	9433.49
300.032	9427.42
300.099	9440.38
300.165	9444.33
300.232	9441.63
300.298	9448.23
300.365	9466.67
300.431	9464.65
300.498	9456.99
300.564	9461.95
300.631	9482.03
300.697	9494.94
300.763	9494.65
300.83	9493.59
300.896	9512.37
300.963	9514.1
301.029	9521.81
301.096	9529.66
301.162	9542.66
301.229	9531.68
301.295	9526.24
301.361	9523.69
301.428	9533.32
301.494	9514.44
301.561	9516.75
301.627	9520.55
301.693	9523.73
301.76	9526.67
301.826	9525.61
301.892	9536.69
301.959	9544.73
302.025	9538.71
302.092	9530.76
302.158	9537.27
302.224	9549.4
302.291	9534.43
302.357	9531.83
302.423	9527.35
302.49	9518.1
302.556	9535.39
302.622	9540.3
302.688	9552.29
302.755	9565.15
302.821	9575.84
302.887	9581.72
302.954	9584.03
303.02	9587.74
303.086	9588.7
303.152	9585.76
303.219	9582.25
303.285	9588.65
303.351	9596.51
303.417	9598.38
303.483	9586.01
303.55	9575.85
303.616	9567.61
303.682	9571.94
303.748	9574.64
303.815	9593.09
303.881	9601.42
303.947	9581.58
304.013	9584.03
304.079	9575.41
304.145	9550.08
304.212	9547.91
304.278	9551.19
304.344	9546.56
304.41	9532.41
304.476	9522.29
304.542	9520.13
304.608	9528.65
304.674	9508.13
304.741	9503.9
304.807	9507.31
304.873	9513.72
304.939	9530.62
305.005	9512.61
305.071	9510.11
305.137	9504.33
305.203	9475.82
305.269	9471.97
305.335	9485.74
305.401	9481.74
305.467	9479.58
305.533	9495.8
305.599	9506.01
305.666	9509.92
305.732	9510.49
305.798	9533.32
305.864	9559.66
305.93	9568.33
305.996	9565.68
306.062	9564.53
306.128	9555.76
306.194	9547.77
306.259	9553.74
306.325	9545.07
306.391	9558.17
306.457	9566.4
306.523	9575.12
306.589	9602.91
306.655	9599.83
306.721	9583.69
306.787	9576.52
306.853	9587.59
306.919	9567.8
306.985	9556.44
307.051	9556.97
307.117	9550.9
307.183	9538.91
307.248	9509.19
307.314	9510.73
307.38	9514.97
307.446	9520.46
307.512	9508.47
307.578	9508.47
307.644	9503.51
307.709	9505.34
307.775	9505.53
307.841	9502.69
307.907	9500.72
307.973	9472.88
308.039	9469.36
308.104	9472.59
308.17	9474.13
308.236	9460.26
308.302	9465.61
308.368	9451.64
308.433	9446.78
308.499	9442.01
308.565	9426.75
308.631	9433.83
308.696	9412.01
308.762	9398.09
308.828	9399.97
308.894	9382.3
308.959	9363.86
309.025	9349.08
309.091	9337.95
309.156	9325.67
309.222	9322.74
309.288	9307.38
309.354	9290.96
309.419	9285.08
309.485	9273.29
309.551	9271.26
309.616	9258.5
309.682	9249.45
309.748	9245.6
309.813	9240.93
309.879	9230.19
309.945	9222.44
310.01	9216.33
310.076	9215.46
310.141	9211.17
310.207	9198.85
310.273	9207.66
310.338	9207.85
310.404	9193.65
310.469	9192.92
310.535	9183.01
310.601	9162.5
310.666	9165.14
310.732	9176.51
310.797	9163.02
310.863	9151.42
310.928	9148.73
310.994	9155.51
311.059	9157.15
311.125	9154.07
311.191	9165.24
311.256	9155.13
311.322	9155.95
311.387	9131.98
311.453	9534.02
311.518	9505.33
311.584	9500.13
311.649	9501.33
311.715	9497.43
311.78	9499.35
311.846	9479.86
311.911	9487.61
311.976	9491.51
312.042	9481.06
312.107	9462.67
312.173	9456.7
312.238	9450.35
312.304	9443.12
312.369	9430.56
312.434	9413.76
312.5	9404.32
312.565	9364.89
312.631	9369.61
312.696	9366.67
312.761	9370.57
312.827	8959.57
312.892	8999.34
312.958	9002.47
313.023	9001.27
313.088	8998.18
313.154	8985.77
313.219	8979.75
313.284	8965.5
313.35	8965.55
313.415	8950.72
313.48	8947.98
313.546	8954.24
313.611	8968.15
313.676	8956.64
313.741	8952.41
313.807	8964.78
313.872	8967.91
313.937	8975.8
314.003	8986.01
314.068	8988.08
314.133	8997.95
314.198	8988.51
314.264	8970.84
314.329	8951.82
314.394	8952.84
314.459	8945.57
314.525	8969.73
314.59	8966.75
314.655	8956.21
314.72	8957.99
314.785	8965.59
314.851	8958.61
314.916	8941.57
314.981	8923.23
315.046	8918.47
315.111	8912.64
315.176	8905.42
315.242	8912.02
315.307	8913.75
315.372	8895.84
315.437	8881.16
315.502	8871.58
315.567	8881.45
315.632	8862.58
315.698	8866.62
315.763	8851.46
315.828	8848.57
315.893	8842.6
315.958	8841.01
316.023	8834.8
316.088	8816.61
316.153	8792.78
316.218	8786.57
316.283	8772.62
316.348	8753.08
316.413	8749.76
316.479	8728.1
316.544	8685.95
316.609	8652.83
316.674	8612.89
316.739	8576.51
316.804	8546.78
316.869	8511.22
316.934	8471.42
316.999	8444.28
317.064	8400.63
317.129	8355.64
317.194	8318.21
317.259	8268.16
317.324	8217.51
317.389	8172.53
317.454	8134.71
317.518	8107.39
317.583	8082.52
317.648	8055.82
317.713	8022.05
317.778	7960.05
317.843	7933.45
317.908	7902.91
317.973	7866.17
318.038	7838.66
318.103	7800.96
318.168	7768.7
318.233	7738.01
318.297	7689.83
318.362	7655.74
318.427	7613.58
318.492	7594.77
318.557	7543.34
318.622	7515.79
318.687	7493.87
318.751	7456.38
318.816	7423.79
318.881	7386.54
318.946	7330.73
319.011	7285.78
319.075	7246.14
319.14	7220.19
319.205	7173.62
319.27	7137.77
319.335	7090.35
319.399	7051.09
319.464	7026.39
319.529	6979.75
319.594	6941.21
319.658	6916.23
319.723	6869.34
319.788	6840.33
319.853	6784.94
319.917	6762.42
319.982	6709.68
320.047	6670.68
320.112	6642.59
320.176	6592.31
320.241	6559.7
320.306	6532.47
320.37	6492.48
320.435	6467.13
320.5	6439.66
320.564	6404.28
320.629	6363.05
320.694	6336.37
320.758	6295.14
320.823	6249.73
320.888	6221.47
320.952	6174.92
321.017	6129.57
321.082	6093.06
321.146	6057.12
321.211	6023.77
321.275	5979.59
321.34	5934.36
321.405	5892.78
321.469	5850.38
321.534	5810.77
321.598	5760.84
321.663	5733.74
321.727	5701.32
321.792	5648.62
321.857	5602
321.921	5561.97
321.986	5519.6
322.05	5463.23
322.115	5427.47
322.179	5387.55
322.244	5332.45
322.308	5301.97
322.373	5256.12
322.437	5216.21
322.502	5191.66
322.566	5148.54
322.631	5110.8
322.695	5072.59
322.76	5025.51
322.824	4989.93
322.889	4945.93
322.953	4902.51
323.018	4837.9
323.082	4775.05
323.146	4726.9
323.211	4672.34
323.275	4626.29
323.34	4583.76
323.404	4548.45
323.468	4501.17
323.533	4457.73
323.597	4414.6
323.662	4357.34
323.726	4324.09
323.79	4278.08
323.855	4211.14
323.919	4162.37
323.983	4121.53
324.048	4057.8
324.112	4212.43
324.177	4084.66
324.241	3875.22
324.305	3667.4
324.37	3460.78
324.434	3266.3
324.498	3221.51
324.562	3172.06
324.627	3113.66
324.691	3057.9
324.755	2993.03
324.82	2919.18
324.884	2840.44
324.948	2767.57
325.012	2677.46
325.077	2553.08
