Data from 20250704_urea_0.5M_MAYP1162681_11-14-33-719.txt Node
Date: Fri Jul 04 11:14:33 BST 2025
User: adleo
Spectrometer: MAYP116268
Trigger mode: 0
Integration Time (sec): 1.000000E0
Scans to average: 1
Electric dark correction enabled: true
Nonlinearity correction enabled: true
Boxcar width: 10
XAxis mode: Wavelengths
Number of Pixels in Spectrum: 2068
>>>>>Begin Spectral Data<<<<<
179.565	1245.4
179.642	1303.7
179.718	1351.58
179.795	1391.34
179.871	1423.99
179.948	1441.15
180.024	1464.04
180.101	1487.99
180.177	1503.28
180.254	1526.22
180.33	1548.87
180.407	1606.23
180.483	1702.11
180.56	1797.37
180.636	1885.11
180.712	1872.7
180.789	1885.72
180.865	1899.79
180.942	1907.11
181.018	1918
181.095	1931.5
181.171	1934.31
181.248	1933.5
181.324	1946.77
181.4	1954.38
181.477	1965.41
181.553	1980.19
181.63	1999.02
181.706	2013.82
181.782	2022.85
181.859	2020.28
181.935	2025.65
182.011	2020.66
182.088	2040.54
182.164	2058.91
182.24	2070.46
182.317	2078.97
182.393	2075.31
182.469	2087.34
182.546	2100.66
182.622	2103.85
182.698	2098.38
182.775	2108.75
182.851	2125.59
182.927	2115.69
183.003	2111.51
183.08	2107.42
183.156	2115.69
183.232	2109.94
183.308	2099.95
183.385	2108.46
183.461	2128.06
183.537	2130.15
183.613	2143.57
183.69	2132.58
183.766	2122.2
183.842	2129.96
183.918	2134.14
183.995	2151.27
184.071	2155.98
184.147	2149.27
184.223	2138.86
184.299	2152.51
184.375	2145.19
184.452	2150.47
184.528	2202.23
184.604	2212.94
184.68	2222.31
184.756	2231.02
184.832	2239.87
184.908	2244.72
184.985	2243.15
185.061	2227.16
185.137	2233.73
185.213	2223.41
185.289	2224.69
185.365	2215.7
185.441	2215.79
185.517	2231.26
185.593	2223.7
185.669	2221.03
185.745	2234.45
185.822	2251.05
185.898	2242.1
185.974	2251.52
186.05	2243.67
186.126	2210.6
186.202	2203.47
186.278	2201.09
186.354	2190.14
186.43	2196.09
186.506	2193.33
186.582	2192.62
186.658	2199.37
186.734	2181.35
186.81	2183.44
186.886	2187.53
186.962	2203.66
187.038	2200.28
187.114	2191.47
187.19	2199.32
187.266	2189.76
187.341	2190.72
187.417	2185.05
187.493	2186.01
187.569	2186.62
187.645	2179.3
187.721	2167.31
187.797	2173.87
187.873	2181.1
187.949	2177.11
188.025	2171.21
188.101	2175.3
188.176	2178.67
188.252	2175.53
188.328	2183.62
188.404	2182.86
188.48	2179.05
188.556	2168.77
188.632	2167.63
188.707	2167.11
188.783	2165.63
188.859	2157.93
188.935	2143.99
189.011	2151.89
189.086	2146.42
189.162	2138.52
189.238	2137.57
189.314	2133.62
189.39	2127.34
189.465	2115.73
189.541	2131.43
189.617	2114.17
189.693	2109.17
189.768	2111.98
189.844	2136.68
189.92	2129.55
189.996	2138.59
190.071	2151.39
190.147	2150.01
190.223	2158.95
190.298	2152.1
190.374	2138.78
190.45	2152.1
190.526	2161.37
190.601	2153.81
190.677	2154.28
190.753	2180.75
190.828	2185.13
190.904	2202.06
190.98	2220.24
191.055	2234.61
191.131	2224.38
191.207	2247.55
191.282	2258.02
191.358	2250.69
191.433	2235.07
191.509	2247.15
191.585	2245.01
191.66	2243.4
191.736	2253.82
191.811	2245.96
191.887	2263.72
191.963	2287.46
192.038	2293.27
192.114	2295.17
192.189	2299.26
192.265	2293.7
192.34	2270.28
192.416	2268.9
192.491	2263.42
192.567	2263.38
192.642	2264.47
192.718	2264.52
192.793	2252.62
192.869	2247.05
192.944	2250.76
193.02	2258.24
193.095	2263.33
193.171	2267.75
193.246	2268.94
193.322	2264.04
193.397	2263.57
193.473	2248.95
193.548	2230.72
193.624	2238.05
193.699	2237.67
193.775	2253.33
193.85	2257.14
193.925	2267.13
194.001	2266.09
194.076	2259.9
194.152	2249.71
194.227	2241.1
194.302	2232.16
194.378	2235.06
194.453	2230.64
194.529	2241.72
194.604	2226.59
194.679	2220.31
194.755	2200.57
194.83	2210
194.905	2206.76
194.981	2215.47
195.056	2208.1
195.131	2215.23
195.207	2214.57
195.282	2206.95
195.357	2188.77
195.433	2202.81
195.508	2191.86
195.583	2200.05
195.659	2215.66
195.734	2225.32
195.809	2226.13
195.884	2235.12
195.96	2236.69
196.035	2255.05
196.11	2251.34
196.185	2263.33
196.261	2267.47
196.336	2300.78
196.411	2287.5
196.486	2295.02
196.561	2290.88
196.637	2299.34
196.712	2313.48
196.787	2314.29
196.862	2324.67
196.937	2337.04
197.013	2346.94
197.088	2355.75
197.163	2378.94
197.238	2394.32
197.313	2393.51
197.388	2405.37
197.464	2434.7
197.539	2446.17
197.614	2440.69
197.689	2453.45
197.764	2470.17
197.839	2488.07
197.914	2481.64
197.989	2505.59
198.065	2520.11
198.14	2566.43
198.215	2594.76
198.29	2605.1
198.365	2619.05
198.44	2632.39
198.515	2655.49
198.59	2667.11
198.665	2694.74
198.74	2702.22
198.815	2702.51
198.89	2724.42
198.965	2756.16
199.04	2754.06
199.115	2769.4
199.19	2812.53
199.265	2815.43
199.34	2826.39
199.415	2859.86
199.49	2884.11
199.565	2894.6
199.64	2918.67
199.715	2917.76
199.79	2924.34
199.865	2932.25
199.94	2931.87
200.015	2964.34
200.09	2973.54
200.165	2980.93
200.24	2988.7
200.315	3031.51
200.39	3047.38
200.464	3053.91
200.539	3054.63
200.614	3074.51
200.689	3099.26
200.764	3103.7
200.839	3120.33
200.914	3125.91
200.989	3119.18
201.063	3131.01
201.138	3113.04
201.213	3113.76
201.288	3095.3
201.363	3104.08
201.438	3104.84
201.512	3119.76
201.587	3102.11
201.662	3107.55
201.737	3123.77
201.812	3132.26
201.886	3096.17
201.961	3107.43
202.036	3094.71
202.111	3097.09
202.186	3064.3
202.26	3043.46
202.335	3020.71
202.41	3013.52
202.485	2995.79
202.559	2975.62
202.634	2951.35
202.709	2961.21
202.784	2942.38
202.858	2942.48
202.933	2921.36
203.008	2918.02
203.082	2900.49
203.157	2898.67
203.232	2853.22
203.306	2827.76
203.381	2795.58
203.456	2772.14
203.53	2746.76
203.605	2725.86
203.68	2697.69
203.754	2690.16
203.829	2677.87
203.904	2661.86
203.978	2652.91
204.053	2658.62
204.127	2643.53
204.202	2640.33
204.277	2622.14
204.351	2616.18
204.426	2607.08
204.5	2596.08
204.575	2557.89
204.65	2565.04
204.724	2559.08
204.799	2567.84
204.873	2563.65
204.948	2563.88
205.022	2553.31
205.097	2548.02
205.171	2564.21
205.246	2571.03
205.32	2571.41
205.395	2570.6
205.469	2558.7
205.544	2565.18
205.618	2546.98
205.693	2557.51
205.767	2545.56
205.842	2564.66
205.916	2557.66
205.991	2550.04
206.065	2556.8
206.14	2575.31
206.214	2570.12
206.289	2560.45
206.363	2574.78
206.438	2578.02
206.512	2586.6
206.586	2605.41
206.661	2612.37
206.735	2592.37
206.81	2590.27
206.884	2607.18
206.958	2596.03
207.033	2617.13
207.107	2625.32
207.181	2660.44
207.256	2658.82
207.33	2681.21
207.405	2698.23
207.479	2722.63
207.553	2737.01
207.628	2727.92
207.702	2742.02
207.776	2747.5
207.851	2759.98
207.925	2783.15
207.999	2792.54
208.073	2799.69
208.148	2815.99
208.222	2819.76
208.296	2868.55
208.371	2908.71
208.445	2940.7
208.519	2989.85
208.593	3022.08
208.668	3040.68
208.742	3069.8
208.816	3099.02
208.89	3143.87
208.965	3175.19
209.039	3214.33
209.113	3269.3
209.187	3330.53
209.261	3369.6
209.336	3431.41
209.41	3501.26
209.484	3554
209.558	3633.24
209.632	3702.86
209.707	3776.82
209.781	3860.81
209.855	3944.32
209.929	4029.67
210.003	4105.39
210.077	4183.48
210.151	4308.05
210.226	4423.6
210.3	4536.99
210.374	4653.52
210.448	4750.99
210.522	4861.47
210.596	4975.73
210.67	5089.83
210.744	5249.93
210.818	5401.6
210.892	5547.63
210.966	5663.2
211.041	5802.79
211.115	5923.61
211.189	6084.46
211.263	6230.57
211.337	6375.02
211.411	6530.1
211.485	6670.21
211.559	6837.84
211.633	6994.96
211.707	7126.17
211.781	7303.51
211.855	7431.47
211.929	7585.35
212.003	7736.04
212.077	7915.04
212.151	8102.24
212.225	8286.62
212.299	8452.48
212.373	8612.41
212.447	8779.77
212.52	8991.83
212.594	9175.19
212.668	9376.76
212.742	9544.23
212.816	9733.24
212.89	9919.22
212.964	10106.17
213.038	10295.58
213.112	10500.04
213.186	10702.76
213.26	10868.48
213.333	11000.99
213.407	11194.16
213.481	11393.35
213.555	11597.23
213.629	11779.36
213.703	11954.41
213.777	12144.51
213.85	12319.67
213.924	12553.1
213.998	12750.58
214.072	12934.43
214.146	13119.05
214.219	13301.07
214.293	13490.7
214.367	13673.4
214.441	13869.59
214.515	14043.42
214.588	14210.88
214.662	14360.12
214.736	14520.4
214.81	14704.97
214.883	14907.19
214.957	15075.51
215.031	15231.98
215.105	15385.41
215.178	15538.64
215.252	15702.77
215.326	15837.1
215.4	15976.06
215.473	16088.7
215.547	16227.8
215.621	16372
215.694	16520.11
215.768	16656.27
215.842	16789.82
215.915	16925.01
215.989	17047.27
216.063	17181.69
216.136	17318.94
216.21	17451.77
216.284	17598.37
216.357	17739.24
216.431	17859.04
216.504	17994.9
216.578	18157.49
216.652	18297.73
216.725	18431.99
216.799	18566.01
216.873	18695.93
216.946	18825.37
217.02	18949.18
217.093	19066.95
217.167	19161.94
217.24	19269.54
217.314	19374.94
217.387	19476.91
217.461	19577.14
217.535	19689.91
217.608	19782.77
217.682	19886.91
217.755	19998.09
217.829	20086.72
217.902	20181.51
217.976	20270.95
218.049	20355.58
218.123	20428.25
218.196	20515.34
218.27	20596.74
218.343	20661.56
218.417	20749.9
218.49	20838.92
218.563	20919.02
218.637	20991.07
218.71	21079.03
218.784	21155.81
218.857	21244.4
218.931	21331.49
219.004	21409.71
219.077	21481.19
219.151	21551.76
219.224	21608.01
219.298	21670.57
219.371	21746.15
219.444	21792.86
219.518	21871.38
219.591	21941.13
219.665	22021.3
219.738	22079.62
219.811	22116.16
219.885	22175.31
219.958	22225.83
220.031	22268.59
220.105	22331.07
220.178	22386.07
220.251	22436.74
220.325	22488.9
220.398	22532.73
220.471	22568.02
220.544	22620.61
220.618	22656.72
220.691	22698.52
220.764	22735.84
220.838	22773.83
220.911	22804.64
220.984	22858.44
221.057	22895.33
221.131	22926.09
221.204	22916.88
221.277	22966.49
221.35	23034.86
221.424	23061.48
221.497	23094.75
221.57	23124.21
221.643	23152.66
221.716	23179.37
221.79	23192.87
221.863	23210.71
221.936	23224.36
222.009	23245.53
222.082	23262.07
222.155	23283.67
222.229	23323.98
222.302	23346.98
222.375	23367.72
222.448	23386.72
222.521	23403.35
222.594	23408.66
222.667	23403.5
222.74	23442.85
222.814	23445.35
222.887	23450.23
222.96	23465.75
223.033	23477.86
223.106	23481.52
223.179	23487.31
223.252	23508.34
223.325	23515.14
223.398	23525.65
223.471	23543.93
223.544	23540.02
223.617	23534.38
223.69	23533.08
223.763	23501.87
223.837	23509.64
223.91	23505.39
223.983	23488.95
224.056	23477.47
224.129	23473.57
224.202	23485.09
224.275	23455.34
224.348	23429.98
224.42	23398.1
224.493	23373.94
224.566	23366.76
224.639	23366.47
224.712	23351.37
224.785	23328.9
224.858	23310.77
224.931	23288.44
225.004	23254.3
225.077	23252.03
225.15	23219.39
225.223	23199.62
225.296	23225.71
225.369	23188.58
225.442	23164.81
225.514	23151.74
225.587	23141.52
225.66	23128.11
225.733	23114.37
225.806	23109.79
225.879	23100.05
225.952	23082.31
226.025	23081.59
226.097	23077.29
226.17	23046.34
226.243	23004.25
226.316	22975.8
226.389	22961.53
226.461	22941.52
226.534	22940.26
226.607	22907.53
226.68	22908.59
226.753	22898.51
226.825	22847.69
226.898	22850.19
226.971	22828.16
227.044	22812.06
227.117	22782.36
227.189	22767.65
227.262	22759.17
227.335	22746.25
227.407	22712.59
227.48	22693.26
227.553	22666.07
227.626	22622.05
227.698	22602.67
227.771	22589.41
227.844	22560.05
227.916	22542.41
227.989	22516.08
228.062	22473.61
228.134	22484.07
228.207	22459.63
228.28	22429.69
228.352	22409.3
228.425	22381.39
228.498	22366.68
228.57	22342.77
228.643	22338.43
228.716	22301.02
228.788	22254.21
228.861	22223.79
228.934	22214.44
229.006	22185.08
229.079	22166.96
229.151	22148.98
229.224	22105.02
229.296	22081.35
229.369	22084.34
229.442	22067.32
229.514	22028.9
229.587	22011.84
229.659	21962.33
229.732	21939.58
229.804	21924.68
229.877	21915.53
229.949	21901.26
230.022	21901.69
230.094	21866.12
230.167	21841.34
230.239	21819.55
230.312	21807.65
230.384	21802.01
230.457	21781.96
230.529	21767.11
230.602	21738.62
230.674	21715.87
230.747	21704.59
230.819	21693.89
230.892	21631.47
230.964	21608.29
231.037	21591.42
231.109	21568.23
231.181	21548.23
231.254	21508.23
231.326	21476.46
231.399	21444.65
231.471	21414.57
231.544	21352.73
231.616	21348.39
231.688	21314.41
231.761	21280.24
231.833	21242.12
231.905	21184.62
231.978	21162.01
232.05	21133.38
232.122	21107.55
232.195	21063.93
232.267	21052.41
232.339	21010.67
232.412	21008.6
232.484	20967.54
232.556	20932.02
232.629	20926.72
232.701	20908.74
232.773	20879.29
232.846	20844.79
232.918	20819.39
232.99	20785.02
233.062	20775.34
233.135	20739.91
233.207	20706.95
233.279	20677.84
233.351	20648.83
233.424	20623.43
233.496	20582.99
233.568	20564.01
233.64	20523.38
233.713	20493.55
233.785	20466.99
233.857	20446.9
233.929	20393.45
234.001	20384.1
234.074	20367.96
234.146	20308.01
234.218	20267.48
234.29	20242.22
234.362	20192.73
234.434	20135.82
234.507	20093.7
234.579	20039.58
234.651	20003.34
234.723	19974.95
234.795	19955.53
234.867	19933.41
234.939	19919.2
235.012	19889.17
235.084	19865.17
235.156	19838.81
235.228	19799.06
235.3	19755.54
235.372	19723.3
235.444	19702.24
235.516	19641.42
235.588	19607.45
235.66	19581.62
235.732	19544.37
235.804	19565.14
235.876	19549.62
235.948	19538.97
236.02	19508.95
236.092	19478.16
236.164	19439.89
236.236	19398.74
236.308	19355.9
236.38	19319.8
236.452	19264.29
236.524	19232.58
236.596	19212.49
236.668	19182.03
236.74	19152.87
236.812	19125.55
236.884	19097.17
236.956	19067.14
237.028	19020.93
237.1	18982.28
237.172	18962.28
237.244	18949.37
237.316	18882.43
237.388	18846.77
237.46	18801.04
237.532	18781.28
237.604	18738.15
237.675	18720.03
237.747	18687.41
237.819	18639.07
237.891	18597.82
237.963	18555.03
238.035	18509.06
238.107	18430.17
238.178	18399.33
238.25	18362.8
238.322	18350.22
238.394	18295.09
238.466	18251.19
238.538	18229.84
238.609	18203.63
238.681	18144.16
238.753	18095
238.825	18057.85
238.897	18016.31
238.968	17997.08
239.04	17955.25
239.112	17951.3
239.184	17902.34
239.255	17872.8
239.327	17849.42
239.399	17819.01
239.471	17809.28
239.542	17786.53
239.614	17772.51
239.686	17723.59
239.758	17703.5
239.829	17649.52
239.901	17625.04
239.973	17589.28
240.044	17561.86
240.116	17528.71
240.188	17500.56
240.259	17464.03
240.331	17419.65
240.403	17399.5
240.474	17357.53
240.546	17312.75
240.618	17253.62
240.689	17209.38
240.761	17168.75
240.833	17152.7
240.904	17115.93
240.976	17070.19
241.048	17031.69
241.119	17000.7
241.191	16967.25
241.262	16950.96
241.334	16920.31
241.405	16887.68
241.477	16857.18
241.549	16820.64
241.62	16788.16
241.692	16762.66
241.763	16742.52
241.835	16716.2
241.906	16681.26
241.978	16632.39
242.049	16617.69
242.121	16606.27
242.192	16596.63
242.264	16559.04
242.335	16504.77
242.407	16483.85
242.478	16446.4
242.55	16423.6
242.621	16386.88
242.693	16355.74
242.764	16315.35
242.836	16271.93
242.907	16249.85
242.979	16222.04
243.05	16194.86
243.122	16167.72
243.193	16131.67
243.264	16075.28
243.336	16031.03
243.407	16003.13
243.479	15984.57
243.55	15942.39
243.622	15907.69
243.693	15867.3
243.764	15847.39
243.836	15818.52
243.907	15775.87
243.978	15748.92
244.05	15717.11
244.121	15662.16
244.192	15649.82
244.264	15598.01
244.335	15571.45
244.407	15521.42
244.478	15489.94
244.549	15460.59
244.62	15414.07
244.692	15372.14
244.763	15354.35
244.834	15322.73
244.906	15294.19
244.977	15267.78
245.048	15261.85
245.119	15223
245.191	15190.94
245.262	15141.97
245.333	15118.88
245.405	15093.38
245.476	15070.68
245.547	15039.54
245.618	15022.96
245.689	14984.49
245.761	14963.28
245.832	14923.8
245.903	14907.94
245.974	14884.76
246.045	14850.73
246.117	14846.1
246.188	14812.16
246.259	14773.31
246.33	14739.47
246.401	14697.97
246.473	14656.22
246.544	14613.42
246.615	14589.36
246.686	14547.95
246.757	14532.38
246.828	14491.94
246.899	14477.57
246.97	14428.02
247.042	14390.56
247.113	14368.34
247.184	14356.58
247.255	14325.82
247.326	14305.77
247.397	14266.72
247.468	14234.67
247.539	14205.7
247.61	14158.7
247.681	14145.25
247.752	14131.7
247.823	14091.74
247.894	14071.54
247.965	14030.52
248.037	13993.98
248.108	13952.28
248.179	13926.73
248.25	13898.91
248.321	13879.63
248.392	13837.35
248.463	13838.12
248.534	13808.77
248.605	13797.1
248.675	13766.64
248.746	13744.89
248.817	13727.35
248.888	13707.68
248.959	13666.27
249.03	13646.7
249.101	13622.06
249.172	13588.37
249.243	13531.87
249.314	13532.98
249.385	13502.17
249.456	13492.39
249.527	13475.47
249.598	13463.56
249.669	13442.25
249.739	13422.92
249.81	13407.11
249.881	13369.94
249.952	13338.85
250.023	13322.17
250.094	13280.09
250.165	13245.47
250.235	13224.46
250.306	13198.13
250.377	13161.69
250.448	13152.87
250.519	13106.93
250.59	13097.29
250.66	13078.1
250.731	13078.58
250.802	13052.5
250.873	13044.69
250.944	13020.01
251.014	12983.09
251.085	12978.41
251.156	12964.58
251.227	12956.04
251.297	12944.57
251.368	12938.3
251.439	12933.19
251.51	12920.56
251.58	12893.33
251.651	12867.2
251.722	12848.59
251.792	12808.87
251.863	12781.11
251.934	12778.02
252.005	12791.23
252.075	12768.72
252.146	12752.09
252.217	12744.23
252.287	12732.51
252.358	12701.71
252.429	12701.52
252.499	12672.02
252.57	12655.29
252.641	12638.8
252.711	12615.14
252.782	12577.68
252.852	12574.02
252.923	12545.14
252.994	12524.41
253.064	12510.19
253.135	12480.64
253.205	12456.25
253.276	12458.57
253.347	12458.81
253.417	12425.16
253.488	12397.3
253.558	12375.12
253.629	12357.34
253.699	12337.04
253.77	12323.84
253.841	12300.51
253.911	12275.05
253.982	12263.15
254.052	12246.86
254.123	12231.29
254.193	12209.5
254.264	12227.67
254.334	12198.7
254.405	12173.78
254.475	12144.18
254.546	12120.9
254.616	12112.71
254.687	12092.08
254.757	12075.01
254.827	12055.11
254.898	12032.6
254.968	12011.44
255.039	11981.79
255.109	11970.32
255.18	11945.21
255.25	11904.91
255.321	11891.56
255.391	11870.02
255.461	11874.35
255.532	11831.31
255.602	11806.63
255.673	11771.3
255.743	11740.69
255.813	11694.28
255.884	11680.06
255.954	11670.08
256.024	11672.49
256.095	11656.97
256.165	11627.53
256.235	11616.73
256.306	11592.2
256.376	11588.53
256.446	11577.74
256.517	11570.17
256.587	11558.12
256.657	11540.24
256.728	11528.82
256.798	11516.43
256.868	11491.08
256.938	11465.05
257.009	11453.92
257.079	11442.5
257.149	11453.73
257.219	11411.89
257.29	11406.78
257.36	11370.11
257.43	11357.48
257.5	11319.12
257.571	11297.29
257.641	11286.4
257.711	11254.44
257.781	11246.25
257.852	11232.61
257.922	11194.39
257.992	11172.22
258.062	11155.55
258.132	11143.5
258.202	11123.84
258.273	11110.01
258.343	11115.26
258.413	11087.69
258.483	11067.12
258.553	11039.41
258.623	11010.3
258.693	10995.41
258.764	10991.46
258.834	10995.36
258.904	10982.59
258.974	10956.14
259.044	10936.33
259.114	10931.61
259.184	10915.08
259.254	10898.26
259.324	10859.42
259.394	10855.04
259.464	10856.48
259.535	10833.64
259.605	10813.64
259.675	10788.06
259.745	10775.29
259.815	10746.37
259.885	10731.53
259.955	10749.12
260.025	10726.72
260.095	10712.89
260.165	10711.44
260.235	10711.2
260.305	10689.61
260.375	10663.64
260.445	10679.25
260.515	10687.4
260.585	10685.76
260.655	10670.97
260.725	10665.81
260.795	10665.04
260.865	10662.87
260.934	10630.54
261.004	10620.32
261.074	10609.82
261.144	10613.63
261.214	10606.25
261.284	10581.15
261.354	10574.79
261.424	10549.3
261.494	10552.43
261.564	10532.19
261.634	10517.26
261.703	10486.18
261.773	10473.7
261.843	10469.99
261.913	10450.96
261.983	10412.56
262.053	10395.79
262.123	10379.85
262.192	10345.06
262.262	10341.88
262.332	10320.78
262.402	10317.55
262.472	10311.19
262.541	10273.62
262.611	10270.05
262.681	10242.06
262.751	10242.64
262.821	10222.94
262.89	10187.53
262.96	10180.78
263.03	10193.12
263.1	10183.34
263.169	10173.51
263.239	10164.84
263.309	10156.84
263.379	10142.53
263.448	10136.08
263.518	10126.1
263.588	10110.88
263.657	10120.9
263.727	10110.35
263.797	10093.49
263.867	10077.55
263.936	10048.4
264.006	10053.75
264.076	10032.36
264.145	10026.63
264.215	10001.1
264.285	10000.81
264.354	9972.1
264.424	9951.39
264.494	9916.22
264.563	9898.26
264.633	9902.54
264.702	9893.68
264.772	9866.9
264.842	9849.61
264.911	9838.96
264.981	9814.25
265.05	9801.82
265.12	9781.16
265.19	9769.79
265.259	9765.55
265.329	9759.29
265.398	9746.77
265.468	9756.84
265.537	9738.39
265.607	9725.82
265.676	9727.41
265.746	9715.95
265.815	9724.95
265.885	9705.98
265.955	9686.09
266.024	9672.02
266.094	9637.15
266.163	9638.21
266.232	9641.05
266.302	9630.22
266.371	9622.22
266.441	9611.58
266.51	9610.62
266.58	9596.51
266.649	9574.93
266.719	9574.11
266.788	9569.01
266.858	9575.12
266.927	9537.7
266.996	9534.62
267.066	9526.67
267.135	9501.35
267.205	9501.59
267.274	9497.69
267.343	9500.91
267.413	9487.14
267.482	9494.41
267.552	9502.55
267.621	9472.4
267.69	9442.26
267.76	9431.52
267.829	9425.6
267.898	9414.04
267.968	9393.48
268.037	9388.71
268.106	9388.52
268.176	9362.47
268.245	9349.23
268.314	9337.57
268.384	9346.24
268.453	9336.17
268.522	9330.69
268.592	9331.36
268.661	9305.12
268.73	9295.1
268.799	9271.65
268.869	9282.77
268.938	9246.52
269.007	9221.77
269.076	9213.44
269.146	9216.04
269.215	9215.17
269.284	9220.71
269.353	9201.98
269.422	9190.96
269.492	9176.51
269.561	9134.15
269.63	9134.68
269.699	9120.95
269.768	9104.97
269.838	9092.07
269.907	9089.85
269.976	9064.04
270.045	9039.83
270.114	9039.16
270.183	9022.55
270.253	9020.81
270.322	8996.84
270.391	8991.59
270.46	8996.21
270.529	8998.96
270.598	8994
270.667	8978.98
270.736	8952.45
270.806	8951.15
270.875	8954.57
270.944	8944.7
271.013	8973.49
271.082	8965.69
271.151	8956.4
271.22	8931.56
271.289	8918.37
271.358	8903.45
271.427	8900.56
271.496	8892.47
271.565	8879.38
271.634	8869.32
271.703	8895.41
271.772	8891.37
271.841	8884.92
271.91	8865.86
271.979	8860.18
272.048	8840.15
272.117	8843.86
272.186	8831.1
272.255	8833.22
272.324	8827.93
272.393	8821.38
272.462	8801.26
272.531	8790.14
272.6	8778.78
272.669	8786
272.738	8774.5
272.807	8770.16
272.876	8749.52
272.945	8777.34
273.013	8782.2
273.082	8780.61
273.151	8739.93
273.22	8740.85
273.289	8731.8
273.358	8742.77
273.427	8726.46
273.496	8727.76
273.564	8718.51
273.633	8725.06
273.702	8705.09
273.771	8696.28
273.84	8695.12
273.909	8689.3
273.977	8684.05
274.046	8675.39
274.115	8679
274.184	8665.96
274.253	8659.08
274.322	8672.31
274.39	8639.29
274.459	8619.22
274.528	8600.26
274.597	8596.41
274.665	8593.09
274.734	8599.59
274.803	8587.41
274.872	8584.04
274.94	8565.61
275.009	8594.64
275.078	8578.86
275.147	8576.69
275.215	8577.03
275.284	8579.96
275.353	8571.35
275.421	8551.09
275.49	8562.35
275.559	8549.26
275.627	8545.12
275.696	8533.67
275.765	8534.3
275.833	8529.2
275.902	8531.99
275.971	8545.7
276.039	8554.84
276.108	8559.95
276.177	8555.86
276.245	8544.26
276.314	8542.14
276.383	8551.09
276.451	8515.37
276.52	8517.01
276.588	8531.2
276.657	8534.91
276.725	8524.37
276.794	8526.87
276.863	8543.81
276.931	8526.05
277	8536.59
277.068	8549.34
277.137	8569.27
277.205	8562.15
277.274	8576.44
277.342	8581.68
277.411	8563.25
277.48	8549.78
277.548	8535.97
277.617	8540.68
277.685	8532.7
277.754	8534.43
277.822	8528.51
277.89	8538.86
277.959	8532.12
278.027	8512
278.096	8495.31
278.164	8522.4
278.233	8516.44
278.301	8501.13
278.37	8513.84
278.438	8504.31
278.507	8503.11
278.575	8482.75
278.643	8484.87
278.712	8471.15
278.78	8461.34
278.849	8468.84
278.917	8477.94
278.985	8473.99
279.054	8470.81
279.122	8481.3
279.191	8479.14
279.259	8473.56
279.327	8454.98
279.396	8477.26
279.464	8474.71
279.532	8488.04
279.601	8483.76
279.669	8480.05
279.737	8497.04
279.806	8496.56
279.874	8498.43
279.942	8494.49
280.011	8487.32
280.079	8485.35
280.147	8499.98
280.215	8502.67
280.284	8500.46
280.352	8486.17
280.42	8496.94
280.488	8483.09
280.557	8480.92
280.625	8480.82
280.693	8485.97
280.761	8492.13
280.83	8474.76
280.898	8490.54
280.966	8468.6
281.034	8432.75
281.102	8414.8
281.171	8406.33
281.239	8413.17
281.307	8403.64
281.375	8394.84
281.443	8420.15
281.512	8426.89
281.58	8430.06
281.648	8417.41
281.716	8415.63
281.784	8419.81
281.852	8410.48
281.92	8415.72
281.989	8426.31
282.057	8413.32
282.125	8454.47
282.193	8443.45
282.261	8443.5
282.329	8432.87
282.397	8439.75
282.465	8454.37
282.533	8476.79
282.601	8467.65
282.67	8441.23
282.738	8440.6
282.806	8452.92
282.874	8437.04
282.942	8434.3
283.01	8427.08
283.078	8429.63
283.146	8430.45
283.214	8433.72
283.282	8440.5
283.35	8453.69
283.418	8448.54
283.486	8455.08
283.554	8410.47
283.622	8418.4
283.69	8414.84
283.758	8414.36
283.826	8417.68
283.894	8428.22
283.962	8448.05
284.03	8464.8
284.098	8469.37
284.165	8462.3
284.233	8463.4
284.301	8463.26
284.369	8453.59
284.437	8453.63
284.505	8450.55
284.573	8465.18
284.641	8459.5
284.709	8462.39
284.777	8448.05
284.845	8451.13
284.912	8452.82
284.98	8463.45
285.048	8456.86
285.116	8462.39
285.184	8477.02
285.252	8474.42
285.319	8456.86
285.387	8443.67
285.455	8424.09
285.523	8431.69
285.591	8433.61
285.659	8434.14
285.726	8443.14
285.794	8435.2
285.862	8434.82
285.93	8443.48
285.997	8432.89
286.065	8428.13
286.133	8419.03
286.201	8414.17
286.269	8403.1
286.336	8393.05
286.404	8381.36
286.472	8391.8
286.539	8372.89
286.607	8354.65
286.675	8357.2
286.743	8362.88
286.81	8358.12
286.878	8376.59
286.946	8366.92
287.013	8365
287.081	8363.55
287.149	8348.35
287.216	8361.58
287.284	8349.94
287.352	8352.82
287.419	8357.2
287.487	8369.28
287.555	8372.31
287.622	8376.16
287.69	8376.69
287.758	8393.67
287.825	8392.81
287.893	8383.57
287.96	8389.73
288.028	8402.96
288.096	8409.36
288.163	8411.77
288.231	8403.15
288.298	8398.77
288.366	8413.69
288.433	8412.78
288.501	8406.71
288.569	8413.88
288.636	8410.47
288.704	8425
288.771	8429.57
288.839	8419.51
288.906	8416.96
288.974	8425.29
289.041	8420.57
289.109	8416.96
289.176	8422.07
289.244	8422.93
289.311	8438.76
289.379	8446.17
289.446	8443.48
289.514	8442.56
289.581	8441.46
289.649	8446.27
289.716	8447.09
289.783	8444.58
289.851	8465.52
289.918	8469.94
289.986	8475.76
290.053	8483.32
290.121	8480.87
290.188	8483.75
290.255	8508.68
290.323	8504.16
290.39	8500.89
290.458	8512.24
290.525	8525.67
290.592	8521.91
290.66	8529.95
290.727	8520.47
290.794	8536.06
290.862	8540.34
290.929	8545.68
290.996	8543.61
291.064	8550.45
291.131	8560.22
291.198	8567.73
291.266	8563.92
291.333	8561.52
291.4	8569.46
291.468	8588.33
291.535	8588.9
291.602	8591.98
291.669	8586.06
291.737	8589.67
291.804	8590.68
291.871	8604.74
291.938	8611.76
292.006	8635.4
292.073	8645.46
292.14	8654.6
292.207	8645.02
292.275	8647.48
292.342	8656.48
292.409	8684.59
292.476	8710.29
292.543	8702.4
292.611	8709.81
292.678	8728.77
292.745	8755.1
292.812	8765.45
292.879	8765.74
292.946	8774.35
293.014	8783.11
293.081	8792.64
293.148	8808.57
293.215	8826.91
293.282	8821.23
293.349	8831.29
293.416	8816.9
293.484	8828.98
293.551	8844.77
293.618	8865.22
293.685	8894.35
293.752	8888.91
293.819	8887.85
293.886	8872.49
293.953	8882.36
294.02	8889.63
294.087	8892.37
294.154	8883.18
294.221	8895.45
294.288	8890.26
294.356	8908.07
294.423	8913.22
294.49	8906.57
294.557	8926.36
294.624	8915.29
294.691	8932.71
294.758	8930.21
294.825	8939.65
294.892	8937.86
294.959	8935.12
295.026	8944.46
295.093	8937.82
295.16	8939.69
295.226	8938.78
295.293	8969.06
295.36	8974.21
295.427	8985.62
295.494	9001.7
295.561	9012.39
295.628	9038.63
295.695	9054.62
295.762	9050.43
295.829	9067.52
295.896	9083.31
295.963	9091.74
296.03	9102.08
296.096	9107.28
296.163	9119.85
296.23	9132.08
296.297	9147.44
296.364	9148.98
296.431	9152.3
296.498	9142.53
296.564	9170.11
296.631	9174.92
296.698	9158.22
296.765	9182.96
296.832	9171.6
296.899	9157.54
296.965	9176.85
297.032	9160.28
297.099	9182.53
297.166	9194.81
297.233	9191.87
297.299	9188.69
297.366	9176.17
297.433	9180.12
297.5	9189.56
297.566	9190.67
297.633	9194.42
297.7	9196.49
297.767	9190.19
297.833	9198.52
297.9	9206.6
297.967	9185.42
298.033	9198.9
298.1	9230.11
298.167	9218.26
298.234	9229.53
298.3	9245.08
298.367	9235.16
298.434	9244.21
298.5	9225.24
298.567	9222.78
298.634	9216.04
298.7	9226.35
298.767	9237.76
298.834	9255.48
298.9	9252.44
298.967	9249.27
299.033	9255.14
299.1	9269.06
299.167	9288.51
299.233	9279.6
299.3	9292.5
299.366	9316
299.433	9327.94
299.5	9304.05
299.566	9312
299.633	9324.95
299.699	9337.23
299.766	9341.66
299.832	9335.88
299.899	9349.56
299.965	9357.94
300.032	9352.69
300.099	9361.36
300.165	9363.57
300.232	9357.89
300.298	9359.14
300.365	9371.95
300.431	9374.98
300.498	9367.23
300.564	9373.44
300.631	9390.29
300.697	9407.01
300.763	9404.16
300.83	9402.91
300.896	9414.95
300.963	9420.05
301.029	9421.98
301.096	9423.38
301.162	9435.61
301.229	9430.79
301.295	9414.57
301.361	9418.32
301.428	9426.84
301.494	9419.38
301.561	9423.23
301.627	9419.86
301.693	9424.82
301.76	9432.91
301.826	9424.58
301.892	9438.02
301.959	9455.59
302.025	9451.5
302.092	9438.16
302.158	9441.58
302.224	9447.55
302.291	9435.42
302.357	9431.85
302.423	9430.51
302.49	9426.85
302.556	9442.45
302.622	9448.13
302.688	9463.2
302.755	9478.09
302.821	9484.35
302.887	9494.55
302.954	9497.88
303.02	9515.16
303.086	9519.69
303.152	9517.62
303.219	9521.66
303.285	9526.67
303.351	9521.04
303.417	9520.17
303.483	9517.48
303.55	9513.67
303.616	9509.43
303.682	9513.43
303.748	9511.79
303.815	9527.88
303.881	9530.14
303.947	9508.86
304.013	9507.03
304.079	9501.29
304.145	9483.04
304.212	9486.08
304.278	9477.22
304.344	9470.72
304.41	9454.53
304.476	9446.88
304.542	9437.15
304.608	9440.04
304.674	9417.65
304.741	9413.26
304.807	9420.54
304.873	9425.45
304.939	9440.47
305.005	9426.03
305.071	9424.39
305.137	9421.11
305.203	9393.62
305.269	9392.41
305.335	9404.21
305.401	9403.97
305.467	9402.28
305.533	9408.93
305.599	9420.39
305.666	9429.64
305.732	9434.02
305.798	9448.75
305.864	9473.8
305.93	9480.25
305.996	9479.53
306.062	9485.64
306.128	9482.18
306.194	9467.3
306.259	9467.39
306.325	9461.71
306.391	9469.17
306.457	9480.2
306.523	9484.05
306.589	9508.23
306.655	9500.72
306.721	9484.63
306.787	9473.07
306.853	9486.8
306.919	9470.33
306.985	9457.76
307.051	9444.95
307.117	9433.4
307.183	9423.96
307.248	9392.94
307.314	9398.68
307.38	9401.23
307.446	9402.43
307.512	9397.23
307.578	9400.22
307.644	9396.41
307.709	9400.75
307.775	9398.48
307.841	9395.69
307.907	9401.81
307.973	9380.37
308.039	9383.17
308.104	9393.76
308.17	9397.28
308.236	9380.95
308.302	9384.37
308.368	9372
308.433	9378.01
308.499	9379.41
308.565	9368.87
308.631	9375.8
308.696	9345.46
308.762	9327.94
308.828	9330.35
308.894	9312.72
308.959	9293.03
309.025	9280.85
309.091	9269.77
309.156	9261.25
309.222	9263.61
309.288	9245.75
309.354	9226.83
309.419	9217.29
309.485	9200.34
309.551	9202.99
309.616	9186.81
309.682	9186.19
309.748	9180.65
309.813	9177.81
309.879	9163.51
309.945	9152.82
310.01	9143.29
310.076	9151.43
310.141	9149.02
310.207	9130.62
310.273	9132.12
310.338	9135.2
310.404	9125.42
310.469	9111.27
310.535	9100.63
310.601	9071.55
310.666	9082.19
310.732	9087.87
310.797	9080.7
310.863	9068.32
310.928	9060.81
310.994	9060.14
311.059	9054.36
311.125	9049.55
311.191	9057.49
311.256	9048.25
311.322	9052.34
311.387	9035.54
311.453	9382.92
311.518	9365.93
311.584	9364.63
311.649	9369.97
311.715	9363.96
311.78	9362.03
311.846	9357.17
311.911	9368.92
311.976	9372.91
312.042	9352.88
312.107	9340.27
312.173	9328.67
312.238	9321.84
312.304	9316.3
312.369	9318.75
312.434	9306.09
312.5	9306.33
312.565	9268.83
312.631	9277.01
312.696	9270.18
312.761	9269.79
312.827	8910.95
312.892	8938.59
312.958	8934.16
313.023	8929.01
313.088	8925.64
313.154	8911.77
313.219	8897.09
313.284	8879.33
313.35	8874.37
313.415	8867.73
313.48	8865.95
313.546	8870.14
313.611	8882.07
313.676	8870.42
313.741	8857.38
313.807	8867.05
313.872	8867.01
313.937	8878.03
314.003	8886.79
314.068	8888.09
314.133	8892.76
314.198	8888.38
314.264	8873.26
314.329	8865.66
314.394	8862.77
314.459	8860.46
314.525	8881.4
314.59	8882.94
314.655	8874.85
314.72	8882.12
314.785	8885.25
314.851	8878.6
314.916	8861.9
314.981	8849.15
315.046	8844.67
315.111	8831.77
315.176	8822.48
315.242	8822.58
315.307	8821.04
315.372	8798.56
315.437	8788.59
315.502	8780.27
315.567	8787.77
315.632	8773.09
315.698	8771.46
315.763	8764.33
315.828	8757.59
315.893	8745.8
315.958	8736.95
316.023	8726.12
316.088	8700.9
316.153	8681.79
316.218	8673.8
316.283	8658.16
316.348	8636.27
316.413	8630.59
316.479	8614.9
316.544	8579.87
316.609	8552.05
316.674	8514.52
316.739	8482.09
316.804	8454.57
316.869	8423.82
316.934	8385.56
316.999	8357.94
317.064	8310.07
317.129	8265.85
317.194	8231.26
317.259	8187.48
317.324	8141.06
317.389	8100.18
317.454	8068.96
317.518	8034.56
317.583	8009.31
317.648	7987.56
317.713	7954.57
317.778	7892.86
317.843	7864.44
317.908	7825.35
317.973	7782.3
318.038	7754.7
318.103	7716.48
318.168	7680.46
318.233	7651.51
318.297	7601.22
318.362	7561.7
318.427	7530.64
318.492	7507.37
318.557	7461.56
318.622	7438.72
318.687	7419.84
318.751	7381.34
318.816	7345.14
318.881	7310.63
318.946	7258.63
319.011	7209.89
319.075	7173.85
319.14	7145.88
319.205	7107.35
319.27	7077.61
319.335	7036.86
319.399	6999.48
319.464	6974.65
319.529	6922.96
319.594	6878.86
319.658	6850.9
319.723	6810.07
319.788	6774.77
319.853	6721.55
319.917	6690.53
319.982	6637.4
320.047	6596.34
320.112	6571.28
320.176	6520.67
320.241	6482.78
320.306	6454.55
320.37	6417.54
320.435	6386.57
320.5	6357.62
320.564	6318.26
320.629	6275.46
320.694	6245.55
320.758	6203.56
320.823	6159.84
320.888	6133.98
320.952	6088.83
321.017	6052.65
321.082	6015.47
321.146	5983.99
321.211	5952.04
321.275	5913.58
321.34	5870.65
321.405	5827.77
321.469	5779
321.534	5743.09
321.598	5696.81
321.663	5665.16
321.727	5632.17
321.792	5580.48
321.857	5539.39
321.921	5502
321.986	5461.26
322.05	5403.9
322.115	5367.24
322.179	5322.91
322.244	5266.14
322.308	5230.31
322.373	5183.74
322.437	5141.86
322.502	5117.08
322.566	5073.53
322.631	5036.22
322.695	4992.5
322.76	4947.4
322.824	4915.17
322.889	4870.27
322.953	4827.24
323.018	4761.55
323.082	4696.08
323.146	4649.56
323.211	4594.81
323.275	4555.32
323.34	4512.51
323.404	4482.32
323.468	4438.49
323.533	4401.37
323.597	4360.64
323.662	4312.24
323.726	4273.4
323.79	4227.06
323.855	4159.61
323.919	4111.27
323.983	4067.75
324.048	4005.41
324.112	4126.82
324.177	4000.11
324.241	3794.16
324.305	3589.93
324.37	3390.57
324.434	3201.5
324.498	3156.38
324.562	3107.15
324.627	3041.35
324.691	2984.04
324.755	2914.18
324.82	2834.94
324.884	2749.83
324.948	2676.16
325.012	2580.19
325.077	2457.19
