Data from 20250704_urea_1.5M_MAYP1162681_11-56-04-548.txt Node
Date: Fri Jul 04 11:56:04 BST 2025
User: adleo
Spectrometer: MAYP116268
Trigger mode: 0
Integration Time (sec): 1.000000E0
Scans to average: 1
Electric dark correction enabled: true
Nonlinearity correction enabled: true
Boxcar width: 10
XAxis mode: Wavelengths
Number of Pixels in Spectrum: 2068
>>>>>Begin Spectral Data<<<<<
179.565	1269.68
179.642	1326.17
179.718	1372.74
179.795	1413.94
179.871	1450.92
179.948	1469.92
180.024	1492.38
180.101	1517.67
180.177	1531.78
180.254	1556.52
180.33	1579.61
180.407	1637.59
180.483	1741.07
180.56	1838.18
180.636	1928.01
180.712	1914.36
180.789	1925.2
180.865	1936.99
180.942	1947.02
181.018	1956.96
181.095	1971.7
181.171	1974.32
181.248	1978.79
181.324	1994.82
181.4	2000.48
181.477	2011.66
181.553	2026.54
181.63	2049.7
181.706	2065.68
181.782	2072.57
181.859	2072.77
181.935	2077.71
182.011	2077.19
182.088	2090.08
182.164	2109.31
182.24	2121.38
182.317	2131.42
182.393	2131.7
182.469	2145.16
182.546	2160.62
182.622	2165.05
182.698	2158.34
182.775	2173.04
182.851	2184.22
182.927	2173.23
183.003	2171.09
183.08	2165.95
183.156	2171.52
183.232	2166
183.308	2154.53
183.385	2165.9
183.461	2184.12
183.537	2185.88
183.613	2197.54
183.69	2189.07
183.766	2178.36
183.842	2187.02
183.918	2193.68
183.995	2203.96
184.071	2211.57
184.147	2203.72
184.223	2192.78
184.299	2203.96
184.375	2193.54
184.452	2203.06
184.528	2258.79
184.604	2268.36
184.68	2278.87
184.756	2291.53
184.832	2296.05
184.908	2301.66
184.985	2301.71
185.061	2285.87
185.137	2294.05
185.213	2282.77
185.289	2282.68
185.365	2274.31
185.441	2271.12
185.517	2284.11
185.593	2283.68
185.669	2279.16
185.745	2290.11
185.822	2305.85
185.898	2300.62
185.974	2307.42
186.05	2297.81
186.126	2263.16
186.202	2257.78
186.278	2253.88
186.354	2241.08
186.43	2247.5
186.506	2245.03
186.582	2245.79
186.658	2250.78
186.734	2231.66
186.81	2232.9
186.886	2236.27
186.962	2248.74
187.038	2247.36
187.114	2242.17
187.19	2247.07
187.266	2237.32
187.341	2238.08
187.417	2228.09
187.493	2226.81
187.569	2229.47
187.645	2223.67
187.721	2211.05
187.797	2219.14
187.873	2224.14
187.949	2218.43
188.025	2212.86
188.101	2215.24
188.176	2219.04
188.252	2216.05
188.328	2221.94
188.404	2222.13
188.48	2219.61
188.556	2214.38
188.632	2211.57
188.707	2212.29
188.783	2209.91
188.859	2203.68
188.935	2193.16
189.011	2204.67
189.086	2198.35
189.162	2190.35
189.238	2187.55
189.314	2186.69
189.39	2181.74
189.465	2172.99
189.541	2190.78
189.617	2173.37
189.693	2171.28
189.768	2172.09
189.844	2196.98
189.92	2190.9
189.996	2201.36
190.071	2213.02
190.147	2210.79
190.223	2222.49
190.298	2214.02
190.374	2200.37
190.45	2213.07
190.526	2223.15
190.601	2216.16
190.677	2219.92
190.753	2246.77
190.828	2250.48
190.904	2264.09
190.98	2279.32
191.055	2289.93
191.131	2282.32
191.207	2305.63
191.282	2313.24
191.358	2305.01
191.433	2288.54
191.509	2300.9
191.585	2295.53
191.66	2295.57
191.736	2303.71
191.811	2292.24
191.887	2309.71
191.963	2335.03
192.038	2338.65
192.114	2335.94
192.189	2342.07
192.265	2337.41
192.34	2316.84
192.416	2316.8
192.491	2310.89
192.567	2310.32
192.642	2315.61
192.718	2314.23
192.793	2301.57
192.869	2296.48
192.944	2300.23
193.02	2309.23
193.095	2315.56
193.171	2321.79
193.246	2321.94
193.322	2318.37
193.397	2321.89
193.473	2305.61
193.548	2287.95
193.624	2295.09
193.699	2293.04
193.775	2306.04
193.85	2305.75
193.925	2314.22
194.001	2312.65
194.076	2305.23
194.152	2296.47
194.227	2287.38
194.302	2276.82
194.378	2279.96
194.453	2277.87
194.529	2291.33
194.604	2275.87
194.679	2267.11
194.755	2248.03
194.83	2257.79
194.905	2254.37
194.981	2259.94
195.056	2252.47
195.131	2258.41
195.207	2255.65
195.282	2246.95
195.357	2229.43
195.433	2248.18
195.508	2238.18
195.583	2245.61
195.659	2257.65
195.734	2264.93
195.809	2263.6
195.884	2274.02
195.96	2275.54
196.035	2290.81
196.11	2284.48
196.185	2296.71
196.261	2302.19
196.336	2334.83
196.411	2322.07
196.486	2329.5
196.561	2328.07
196.637	2332.64
196.712	2347.73
196.787	2354.44
196.862	2372.43
196.937	2383.9
197.013	2386.09
197.088	2396.8
197.163	2423.57
197.238	2443.39
197.313	2445.96
197.388	2460.14
197.464	2490.24
197.539	2499.91
197.614	2494.38
197.689	2509.24
197.764	2525.2
197.839	2546.1
197.914	2538.05
197.989	2560.77
198.065	2575.1
198.14	2622.95
198.215	2656.81
198.29	2670.2
198.365	2681.44
198.44	2691.35
198.515	2718.89
198.59	2736.99
198.665	2760.91
198.74	2765.43
198.815	2769.39
198.89	2790.45
198.965	2821.77
199.04	2820.67
199.115	2837.63
199.19	2880.66
199.265	2885.04
199.34	2894.43
199.415	2927.57
199.49	2951.78
199.565	2962.36
199.64	2987.86
199.715	2985.34
199.79	2993.97
199.865	3003.79
199.94	3001.69
200.015	3035.79
200.09	3039.98
200.165	3049.9
200.24	3058.72
200.315	3101.15
200.39	3113.93
200.464	3120.08
200.539	3123.85
200.614	3140.78
200.689	3168.58
200.764	3174.69
200.839	3191.23
200.914	3198.72
200.989	3189.27
201.063	3202.91
201.138	3184.71
201.213	3186.04
201.288	3169.35
201.363	3170.45
201.438	3167.49
201.512	3186.8
201.587	3167.48
201.662	3173.49
201.737	3182.74
201.812	3190.99
201.886	3156.67
201.961	3169.8
202.036	3157.73
202.111	3151.53
202.186	3118.74
202.26	3099.85
202.335	3079.05
202.41	3072
202.485	3057.27
202.559	3038.72
202.634	3011.4
202.709	3022.69
202.784	3000.09
202.858	2996.47
202.933	2980.02
203.008	2973.68
203.082	2952.99
203.157	2951.42
203.232	2908.86
203.306	2886.83
203.381	2854.8
203.456	2827.39
203.53	2801.11
203.605	2780.82
203.68	2758.36
203.754	2754.6
203.829	2736.35
203.904	2714.19
203.978	2703.81
204.053	2703.33
204.127	2689.32
204.202	2687.94
204.277	2670.7
204.351	2662.5
204.426	2655.64
204.5	2643.73
204.575	2610.39
204.65	2620.26
204.724	2615.49
204.799	2619.44
204.873	2616.11
204.948	2614.77
205.022	2607.15
205.097	2598.43
205.171	2614.77
205.246	2625.54
205.32	2621.06
205.395	2618.25
205.469	2609.64
205.544	2614.83
205.618	2599.68
205.693	2610.02
205.767	2596.31
205.842	2614.5
205.916	2612.46
205.991	2601.79
206.065	2610.31
206.14	2622.64
206.214	2615.68
206.289	2606.68
206.363	2619.3
206.438	2621.92
206.512	2629.68
206.586	2653.69
206.661	2662.8
206.735	2640.32
206.81	2639.03
206.884	2656.61
206.958	2646.8
207.033	2665.94
207.107	2673.28
207.181	2705.49
207.256	2700.4
207.33	2721.93
207.405	2738.04
207.479	2755.67
207.553	2767.25
207.628	2747.72
207.702	2760.2
207.776	2754.82
207.851	2754.39
207.925	2772.26
207.999	2770.21
208.073	2766.74
208.148	2766.83
208.222	2754.77
208.296	2787.45
208.371	2802.61
208.445	2815.86
208.519	2845.35
208.593	2855.69
208.668	2850.88
208.742	2853.46
208.816	2857.08
208.89	2872.86
208.965	2868.85
209.039	2875.38
209.113	2890.11
209.187	2915.16
209.261	2913.64
209.336	2934.99
209.41	2954.77
209.484	2956.77
209.558	2979.09
209.632	2993.1
209.707	3002.97
209.781	3028.9
209.855	3045.36
209.929	3065.12
210.003	3070.27
210.077	3073.08
210.151	3124.25
210.226	3162.51
210.3	3193.26
210.374	3219.15
210.448	3222.92
210.522	3237.32
210.596	3253.93
210.67	3271.2
210.744	3321.87
210.818	3357.69
210.892	3381.21
210.966	3385.08
211.041	3406.69
211.115	3410.7
211.189	3442.62
211.263	3467.73
211.337	3479.9
211.411	3502.62
211.485	3505.25
211.559	3528.44
211.633	3544.23
211.707	3527.37
211.781	3547.58
211.855	3525.04
211.929	3530.29
212.003	3528.72
212.077	3558.19
212.151	3589.14
212.225	3617.74
212.299	3631.13
212.373	3643.45
212.447	3668.38
212.52	3729.53
212.594	3762.74
212.668	3809.46
212.742	3831.63
212.816	3862.41
212.89	3895.66
212.964	3933.76
213.038	3982.82
213.112	4039.91
213.186	4105.54
213.26	4130.96
213.333	4137.7
213.407	4200.46
213.481	4259.62
213.555	4334.61
213.629	4383.13
213.703	4434.23
213.777	4499.66
213.85	4550.3
213.924	4660.08
213.998	4734.87
214.072	4803.33
214.146	4868.88
214.219	4943.99
214.293	5023.67
214.367	5112.54
214.441	5209.32
214.515	5287.77
214.588	5353.1
214.662	5416.08
214.736	5484.67
214.81	5597.23
214.883	5713.94
214.957	5809.31
215.031	5904.19
215.105	5988.2
215.178	6083.72
215.252	6182.81
215.326	6269.25
215.4	6361
215.473	6427.91
215.547	6525.35
215.621	6630.08
215.694	6755.02
215.768	6847.77
215.842	6964.85
215.915	7071.78
215.989	7167.8
216.063	7282.3
216.136	7407.26
216.21	7540.66
216.284	7685.43
216.357	7813.4
216.431	7932.48
216.504	8066.73
216.578	8226.78
216.652	8368.33
216.725	8504.98
216.799	8648.15
216.873	8785.35
216.946	8929.92
217.02	9055.72
217.093	9186.04
217.167	9298.18
217.24	9418.66
217.314	9552.7
217.387	9671.11
217.461	9795.07
217.535	9945
217.608	10068.74
217.682	10203.76
217.755	10334.55
217.829	10450.13
217.902	10576.41
217.976	10703.03
218.049	10820.98
218.123	10927.48
218.196	11060.23
218.27	11180.28
218.343	11290.93
218.417	11424.62
218.49	11544.81
218.563	11681.64
218.637	11816.3
218.71	11960.95
218.784	12089.35
218.857	12226.63
218.931	12359.37
219.004	12487.54
219.077	12608.34
219.151	12734.49
219.224	12848.49
219.298	12966.54
219.371	13105.28
219.444	13214.32
219.518	13335.89
219.591	13452.69
219.665	13592.01
219.738	13707.31
219.811	13804.79
219.885	13932.53
219.958	14052.56
220.031	14159.34
220.105	14285.25
220.178	14387.25
220.251	14481.3
220.325	14590.14
220.398	14691.66
220.471	14791.06
220.544	14893.2
220.618	14983.3
220.691	15081.2
220.764	15183.34
220.838	15289
220.911	15362.7
220.984	15469.66
221.057	15565.97
221.131	15661.98
221.204	15718.09
221.277	15820.42
221.35	15940
221.424	16011.48
221.497	16079.58
221.57	16175.02
221.643	16254.49
221.716	16345.78
221.79	16425.11
221.863	16498.27
221.936	16572.5
222.009	16640.46
222.082	16725.33
222.155	16794.92
222.229	16888.86
222.302	16967.08
222.375	17025.39
222.448	17101.68
222.521	17170.17
222.594	17240.48
222.667	17288.82
222.74	17373.93
222.814	17434.12
222.887	17490.56
222.96	17563.47
223.033	17633.69
223.106	17675.95
223.179	17729.74
223.252	17770.99
223.325	17822.51
223.398	17878.79
223.471	17937.68
223.544	17996.53
223.617	18044.04
223.69	18095.17
223.763	18118.4
223.837	18160.86
223.91	18208.66
223.983	18238.49
224.056	18267.46
224.129	18299.6
224.202	18350.05
224.275	18371.84
224.348	18389.52
224.42	18403.06
224.493	18417.76
224.566	18444.12
224.639	18486.38
224.712	18516.74
224.785	18546.09
224.858	18574.33
224.931	18589.51
225.004	18604.5
225.077	18627.2
225.15	18622.14
225.223	18654.95
225.296	18697.84
225.369	18703.14
225.442	18726.37
225.514	18752.92
225.587	18780.25
225.66	18797.79
225.733	18821.88
225.806	18848.53
225.879	18869.83
225.952	18887.28
226.025	18926.6
226.097	18963.37
226.17	18986.55
226.243	18981.29
226.316	19010.5
226.389	19031.17
226.461	19054.93
226.534	19072.57
226.607	19086.44
226.68	19124.42
226.753	19128.8
226.825	19117.57
226.898	19136.75
226.971	19138.97
227.044	19157.57
227.117	19167.31
227.189	19188.03
227.262	19212.89
227.335	19226.87
227.407	19228.84
227.48	19239.3
227.553	19242.14
227.626	19238.58
227.698	19231.11
227.771	19232.89
227.844	19212.03
227.916	19218.53
227.989	19203.01
228.062	19207.01
228.134	19241.13
228.207	19239.88
228.28	19235.54
228.352	19249.76
228.425	19254.05
228.498	19272.6
228.57	19263.78
228.643	19275.25
228.716	19274.58
228.788	19265.61
228.861	19260.75
228.934	19277.76
229.006	19272.6
229.079	19261.18
229.151	19256.55
229.224	19240.89
229.296	19239.98
229.369	19260.99
229.442	19261.32
229.514	19256.41
229.587	19262.96
229.659	19237.37
229.732	19237.66
229.804	19248.94
229.877	19265.71
229.949	19281.76
230.022	19291.54
230.094	19278.09
230.167	19274.87
230.239	19250.87
230.312	19232.41
230.384	19240.6
230.457	19233.04
230.529	19241.57
230.602	19244.6
230.674	19236.6
230.747	19254.82
230.819	19271.64
230.892	19243.16
230.964	19240.17
231.037	19237.52
231.109	19217.52
231.181	19213.71
231.254	19198.87
231.326	19186.49
231.399	19168.22
231.471	19142.54
231.544	19108.8
231.616	19108.51
231.688	19097.91
231.761	19087.46
231.833	19076.9
231.905	19045.29
231.978	19034.88
232.05	19016.47
232.122	19005.29
232.195	18986.59
232.267	18986.02
232.339	18968.33
232.412	18976.23
232.484	18960.62
232.556	18944.57
232.629	18960.81
232.701	18950.5
232.773	18937.3
232.846	18918.26
232.918	18900.34
232.99	18889.35
233.062	18881.3
233.135	18879.32
233.207	18851.37
233.279	18848.48
233.351	18852.15
233.424	18834.65
233.496	18813.35
233.568	18822.17
233.64	18796.87
233.713	18785.98
233.785	18758.08
233.857	18738.66
233.929	18702.71
234.001	18699.43
234.074	18703.43
234.146	18670.86
234.218	18653.7
234.29	18634.23
234.362	18605.94
234.434	18570.09
234.507	18541.8
234.579	18512.6
234.651	18486.87
234.723	18480.17
234.795	18471.49
234.867	18444.89
234.939	18442.58
235.012	18429.62
235.084	18416.12
235.156	18399.98
235.228	18376.56
235.3	18359.55
235.372	18338.25
235.444	18346.68
235.516	18308.56
235.588	18290.73
235.66	18266.35
235.732	18237.29
235.804	18275.7
235.876	18272.8
235.948	18281.29
236.02	18257.82
236.092	18226.44
236.164	18201
236.236	18171.6
236.308	18136.18
236.38	18108.57
236.452	18077.82
236.524	18061.97
236.596	18058.21
236.668	18046.89
236.74	18027.56
236.812	18005.87
236.884	18000.33
236.956	17969.68
237.028	17927.32
237.1	17892.34
237.172	17889.2
237.244	17894.94
237.316	17827.38
237.388	17796.48
237.46	17756.29
237.532	17755.96
237.604	17738.51
237.675	17736.44
237.747	17728.44
237.819	17707.18
237.891	17685.11
237.963	17655.43
238.035	17620.73
238.107	17551.38
238.178	17541.55
238.25	17511.38
238.322	17508.01
238.394	17466.51
238.466	17439.72
238.538	17441.31
238.609	17431.09
238.681	17380.39
238.753	17334.75
238.825	17323.62
238.897	17303.53
238.968	17300.2
239.04	17270.22
239.112	17269.74
239.184	17231.86
239.255	17203.33
239.327	17183.48
239.399	17161.79
239.471	17154.17
239.542	17132.24
239.614	17121.64
239.686	17066.22
239.758	17057.4
239.829	17024.72
239.901	17013.06
239.973	16991.81
240.044	16960.82
240.116	16928.53
240.188	16901.2
240.259	16873.73
240.331	16839.61
240.403	16820.33
240.474	16781.2
240.546	16741.58
240.618	16699.12
240.689	16669
240.761	16644.37
240.833	16633.28
240.904	16614.1
240.976	16583.3
241.048	16556.7
241.119	16540.36
241.191	16522.43
241.262	16511.64
241.334	16481.22
241.405	16450.48
241.477	16412.06
241.549	16391.05
241.62	16361.36
241.692	16347.91
241.763	16332.49
241.835	16300.39
241.906	16271.57
241.978	16232.86
242.049	16226.6
242.121	16210.45
242.192	16201.58
242.264	16159.99
242.335	16117.72
242.407	16090.68
242.478	16053.23
242.55	16038.19
242.621	15995.92
242.693	15971.29
242.764	15932.97
242.836	15904.78
242.907	15890.37
242.979	15873.74
243.05	15844.62
243.122	15832.43
243.193	15802.21
243.264	15752.95
243.336	15730.49
243.407	15722.15
243.479	15710.44
243.55	15684.79
243.622	15662.86
243.693	15633.6
243.764	15634.23
243.836	15599.04
243.907	15570.6
243.978	15548.77
244.05	15514.06
244.121	15478.44
244.192	15450.97
244.264	15410.62
244.335	15381.9
244.407	15333.16
244.478	15310.75
244.549	15279.42
244.62	15233.67
244.692	15208.56
244.763	15197.33
244.834	15163.3
244.906	15121.99
244.977	15099.91
245.048	15086.9
245.119	15048.05
245.191	15000.42
245.262	14936.07
245.333	14924.98
245.405	14905.37
245.476	14884.3
245.547	14862.27
245.618	14843.18
245.689	14826.84
245.761	14807.13
245.832	14775.89
245.903	14760.46
245.974	14736.36
246.045	14712.26
246.117	14700.74
246.188	14661.45
246.259	14621.44
246.33	14595.12
246.401	14561.28
246.473	14517.18
246.544	14478.27
246.615	14468.39
246.686	14440.63
246.757	14430.6
246.828	14387.26
246.899	14372.75
246.97	14328.4
247.042	14289.6
247.113	14281.4
247.184	14274.56
247.255	14241.01
247.326	14222.74
247.397	14191.5
247.468	14166.48
247.539	14153.13
247.61	14115.72
247.681	14097.45
247.752	14086.22
247.823	14049.87
247.894	14029.48
247.965	13994.43
248.037	13960.3
248.108	13916.39
248.179	13894.31
248.25	13869.96
248.321	13859.21
248.392	13825.81
248.463	13823.54
248.534	13805.85
248.605	13775
248.675	13743.47
248.746	13719.37
248.817	13702.06
248.888	13686.93
248.959	13636.79
249.03	13608.06
249.101	13585.79
249.172	13557.11
249.243	13512.61
249.314	13506.92
249.385	13488.51
249.456	13480.41
249.527	13459.49
249.598	13441.7
249.669	13423.52
249.739	13409.01
249.81	13395.47
249.881	13351.17
249.952	13329.71
250.023	13301.51
250.094	13261.55
250.165	13223.85
250.235	13202.5
250.306	13175.26
250.377	13138.33
250.448	13127.34
250.519	13082.03
250.59	13077.16
250.66	13060
250.731	13056.91
250.802	13027.99
250.873	13006.88
250.944	12985.76
251.014	12957.32
251.085	12958.33
251.156	12933.99
251.227	12925.41
251.297	12910.61
251.368	12896
251.439	12889.5
251.51	12886.22
251.58	12860.67
251.651	12838.01
251.722	12827.7
251.792	12785.13
251.863	12758.91
251.934	12752.3
252.005	12772.79
252.075	12745.84
252.146	12731.38
252.217	12719.96
252.287	12708.77
252.358	12688.96
252.429	12677.44
252.499	12656.62
252.57	12633.57
252.641	12626.05
252.711	12597.61
252.782	12557.22
252.852	12563.1
252.923	12537.65
252.994	12521.88
253.064	12519.57
253.135	12490.36
253.205	12462.16
253.276	12467.46
253.347	12471.22
253.417	12441.04
253.488	12407.4
253.558	12385.32
253.629	12363.48
253.699	12343.67
253.77	12336.06
253.841	12307.76
253.911	12295.13
253.982	12276.57
254.052	12261.68
254.123	12252.33
254.193	12240.95
254.264	12265.34
254.334	12233.72
254.405	12198.1
254.475	12160.02
254.546	12139.82
254.616	12135.58
254.687	12124.64
254.757	12110.8
254.827	12086.9
254.898	12077.35
254.968	12059.47
255.039	12033.06
255.109	12020.19
255.18	11992.42
255.25	11943.93
255.321	11928.56
255.391	11901.47
255.461	11906.92
255.532	11861.51
255.602	11830.71
255.673	11790.56
255.743	11761.59
255.813	11721.92
255.884	11716.33
255.954	11705.54
256.024	11700.47
256.095	11683.07
256.165	11657.24
256.235	11639.84
256.306	11607.02
256.376	11600.41
256.446	11590.82
256.517	11581.04
256.587	11576.7
256.657	11558.96
256.728	11555.01
256.798	11545.04
256.868	11517.76
256.938	11486.72
257.009	11488.6
257.079	11479.05
257.149	11483.92
257.219	11436.3
257.29	11420.83
257.36	11387.1
257.43	11388.59
257.5	11350.08
257.571	11328.83
257.641	11311.29
257.711	11284.73
257.781	11283.72
257.852	11269.94
257.922	11232.1
257.992	11213.93
258.062	11195.57
258.132	11197.6
258.202	11179.43
258.273	11162.8
258.343	11169.45
258.413	11142.71
258.483	11119.96
258.553	11092.54
258.623	11067.57
258.693	11068.87
258.764	11073.16
258.834	11068.2
258.904	11045.55
258.974	11024.25
259.044	11011.53
259.114	11000.3
259.184	10985.31
259.254	10966.09
259.324	10925.03
259.394	10921.75
259.464	10922.76
259.535	10899.78
259.605	10871.25
259.675	10838.19
259.745	10832.07
259.815	10796.9
259.885	10773.77
259.955	10789.91
260.025	10763.99
260.095	10746.4
260.165	10729.49
260.235	10732.72
260.305	10711.42
260.375	10684.68
260.445	10690.85
260.515	10688.72
260.585	10689.88
260.655	10673.4
260.725	10668.92
260.795	10659.67
260.865	10659.19
260.934	10629.51
261.004	10622.71
261.074	10611.53
261.144	10622.47
261.214	10606.71
261.284	10595.01
261.354	10594.67
261.424	10562.33
261.494	10568.11
261.564	10553.47
261.634	10545.37
261.703	10504.03
261.773	10496.23
261.843	10486.74
261.913	10466.69
261.983	10427.96
262.053	10412.3
262.123	10402.03
262.192	10371.25
262.262	10371.54
262.332	10333.57
262.402	10328.9
262.472	10309.24
262.541	10270.13
262.611	10262.13
262.681	10246.76
262.751	10244.3
262.821	10222.87
262.89	10199.5
262.96	10186.78
263.03	10194.68
263.1	10177.29
263.169	10165.87
263.239	10152.38
263.309	10162.4
263.379	10160.53
263.448	10151.23
263.518	10149.59
263.588	10134.85
263.657	10142.51
263.727	10138.37
263.797	10130.42
263.867	10113.9
263.936	10084.46
264.006	10090
264.076	10071.12
264.145	10050.7
264.215	10020.69
264.285	10023.48
264.354	9990.87
264.424	9974.25
264.494	9939.86
264.563	9922.23
264.633	9930.13
264.702	9925.26
264.772	9890.29
264.842	9866.15
264.911	9861.58
264.981	9819.09
265.05	9803.01
265.12	9781.67
265.19	9766.01
265.259	9756.86
265.329	9759.85
265.398	9758.11
265.468	9775.98
265.537	9762.45
265.607	9761.15
265.676	9764.66
265.746	9754.4
265.815	9751.8
265.885	9743.47
265.955	9723.25
266.024	9703.21
266.094	9659.82
266.163	9665.45
266.232	9667.38
266.302	9653.8
266.371	9644.79
266.441	9642
266.51	9642.29
266.58	9627.17
266.649	9602.8
266.719	9605.11
266.788	9588.16
266.858	9595.23
266.927	9543.42
266.996	9533.83
267.066	9526.41
267.135	9502.29
267.205	9498.44
267.274	9494.2
267.343	9494.29
267.413	9488.18
267.482	9502.14
267.552	9517.79
267.621	9489.33
267.69	9466.94
267.76	9459.43
267.829	9450.61
267.898	9438.72
267.968	9416.13
268.037	9414.93
268.106	9416.38
268.176	9391.58
268.245	9381.46
268.314	9362.05
268.384	9373.85
268.453	9361.24
268.522	9350.21
268.592	9355.36
268.661	9333.4
268.73	9327.58
268.799	9303.4
268.869	9312.65
268.938	9278.41
269.007	9261.7
269.076	9245.86
269.146	9237.15
269.215	9228.53
269.284	9234.5
269.353	9221.17
269.422	9214.52
269.492	9198.01
269.561	9159.73
269.63	9161.37
269.699	9143.75
269.768	9135.47
269.838	9125.21
269.907	9130.7
269.976	9105.57
270.045	9069.22
270.114	9069.95
270.183	9055.74
270.253	9045.06
270.322	9010.01
270.391	8999.56
270.46	9003.32
270.529	9007.6
270.598	9006.78
270.667	9002.45
270.736	8977.42
270.806	8971.21
270.875	8966.54
270.944	8951.13
271.013	8971.06
271.082	8961.91
271.151	8957.39
271.22	8927.35
271.289	8919.51
271.358	8895.87
271.427	8897.12
271.496	8895.92
271.565	8875.46
271.634	8868.57
271.703	8900.06
271.772	8897.85
271.841	8895.3
271.91	8866.17
271.979	8858.61
272.048	8838.3
272.117	8836.71
272.186	8819.63
272.255	8825.64
272.324	8826.41
272.393	8824.01
272.462	8811.15
272.531	8796.23
272.6	8789.15
272.669	8799.6
272.738	8789.49
272.807	8790.21
272.876	8765.76
272.945	8788.87
273.013	8794.69
273.082	8801.62
273.151	8760.03
273.22	8763.69
273.289	8751.7
273.358	8760.08
273.427	8750.64
273.496	8752.09
273.564	8748.96
273.633	8754.35
273.702	8735.05
273.771	8728.84
273.84	8731.58
273.909	8726.24
273.977	8729.27
274.046	8722.24
274.115	8727.3
274.184	8707.71
274.253	8703.09
274.322	8717.87
274.39	8687.25
274.459	8667.18
274.528	8633.83
274.597	8628.78
274.665	8623.68
274.734	8630.56
274.803	8623.25
274.872	8615.74
274.94	8597.4
275.009	8654.51
275.078	8643.16
275.147	8639.59
275.215	8627.51
275.284	8630.02
275.353	8627.08
275.421	8600.52
275.49	8612.17
275.559	8597.97
275.627	8594.02
275.696	8580.21
275.765	8580.07
275.833	8572.8
275.902	8584.88
275.971	8600.33
276.039	8608.65
276.108	8612.79
276.177	8615.44
276.245	8600.76
276.314	8598.21
276.383	8605.52
276.451	8536.52
276.52	8534.46
276.588	8540.47
276.657	8548.17
276.725	8544.51
276.794	8542.64
276.863	8555.72
276.931	8527.81
277	8534.31
277.068	8545.13
277.137	8565.59
277.205	8564.63
277.274	8579.3
277.342	8583.49
277.411	8562.9
277.48	8549.23
277.548	8538.16
277.617	8542.92
277.685	8542.3
277.754	8546.87
277.822	8543.89
277.89	8558.52
277.959	8557.22
278.027	8543.55
278.096	8529.69
278.164	8548.47
278.233	8535.19
278.301	8525.85
278.37	8530.23
278.438	8518.29
278.507	8521.86
278.575	8497.31
278.643	8490.04
278.712	8478.4
278.78	8464.78
278.849	8478.59
278.917	8492.06
278.985	8489.42
279.054	8484.89
279.122	8500.24
279.191	8489.56
279.259	8482.25
279.327	8456.88
279.396	8475.17
279.464	8474.83
279.532	8484.41
279.601	8482.15
279.669	8482.24
279.737	8496.01
279.806	8506.5
279.874	8515.78
279.942	8512.7
280.011	8506.88
280.079	8509.48
280.147	8526.32
280.215	8527.43
280.284	8520.55
280.352	8510.64
280.42	8516.7
280.488	8505.34
280.557	8497.07
280.625	8501.06
280.693	8504.81
280.761	8513.33
280.83	8495.86
280.898	8507.07
280.966	8491.29
281.034	8457.94
281.102	8447.3
281.171	8443.16
281.239	8452.5
281.307	8449.95
281.375	8441.19
281.443	8469.15
281.512	8468.48
281.58	8475.94
281.648	8463.04
281.716	8464.92
281.784	8465.16
281.852	8460.16
281.92	8464.82
281.989	8471.95
282.057	8458.52
282.125	8504.01
282.193	8497.18
282.261	8497.71
282.329	8498.76
282.397	8501.27
282.465	8506.17
282.533	8525.47
282.601	8513.97
282.67	8487.21
282.738	8478.12
282.806	8485.48
282.874	8466.52
282.942	8469.21
283.01	8463.24
283.078	8475.61
283.146	8472.63
283.214	8476.52
283.282	8483.02
283.35	8490.62
283.418	8487.11
283.486	8495.24
283.554	8450.28
283.622	8455.96
283.69	8455.24
283.758	8443.07
283.826	8447.88
283.894	8460.68
283.962	8478.97
284.03	8495.96
284.098	8499.37
284.165	8487.63
284.233	8492.06
284.301	8490.09
284.369	8480.03
284.437	8473.77
284.505	8471.94
284.573	8490.04
284.641	8482.96
284.709	8488.16
284.777	8476.42
284.845	8483.59
284.912	8485.23
284.98	8495.24
285.048	8486.96
285.116	8491.24
285.184	8505.58
285.252	8508.76
285.319	8485.95
285.387	8474.59
285.455	8459.14
285.523	8469.15
285.591	8469.34
285.659	8474.93
285.726	8489.75
285.794	8480.27
285.862	8476.13
285.93	8473.68
285.997	8468.77
286.065	8462.42
286.133	8457.32
286.201	8454.14
286.269	8442.35
286.336	8436
286.404	8426.09
286.472	8435.23
286.539	8413.43
286.607	8399.09
286.675	8398.56
286.743	8412.04
286.81	8402.51
286.878	8413
286.946	8401.79
287.013	8405.49
287.081	8400.34
287.149	8386.19
287.216	8406.16
287.284	8398.56
287.352	8397.36
287.419	8391.39
287.487	8408.04
287.555	8404.43
287.622	8397.31
287.69	8402.7
287.758	8414.39
287.825	8408.57
287.893	8398.51
287.96	8406.5
288.028	8415.35
288.096	8416.27
288.163	8419.63
288.231	8411.6
288.298	8411.45
288.366	8430.85
288.433	8429.07
288.501	8417.33
288.569	8417.95
288.636	8417.23
288.704	8430.61
288.771	8433.69
288.839	8423.49
288.906	8416.17
288.974	8428.35
289.041	8427.29
289.109	8413.05
289.176	8424.07
289.244	8431.38
289.311	8448.37
289.379	8456.5
289.446	8460.69
289.514	8459.29
289.581	8456.84
289.649	8459.53
289.716	8464.68
289.783	8459.19
289.851	8481.18
289.918	8481.42
289.986	8487.97
290.053	8484.22
290.121	8482.96
290.188	8489.56
290.255	8521.85
290.323	8517.18
290.39	8510.3
290.458	8520.79
290.525	8538.97
290.592	8530.22
290.66	8532.57
290.727	8524.15
290.794	8537.38
290.862	8538.3
290.929	8536.28
290.996	8539.79
291.064	8550.96
291.131	8557.55
291.198	8563.47
291.266	8558.95
291.333	8560.97
291.4	8572.37
291.468	8592.73
291.535	8591.53
291.602	8595.33
291.669	8590.37
291.737	8598.02
291.804	8598.55
291.871	8617.37
291.938	8622.04
292.006	8648.85
292.073	8661.41
292.14	8671.81
292.207	8664.15
292.275	8662.95
292.342	8679.07
292.409	8699.24
292.476	8721.19
292.543	8712.43
292.611	8713.54
292.678	8733.95
292.745	8769.42
292.812	8782.61
292.879	8777.31
292.946	8784.53
293.014	8795.41
293.081	8803.16
293.148	8821.59
293.215	8839.31
293.282	8832.76
293.349	8840.89
293.416	8822.75
293.484	8839.64
293.551	8850.47
293.618	8872.81
293.685	8903.95
293.752	8895.86
293.819	8893.65
293.886	8885.08
293.953	8892.4
294.02	8904.53
294.087	8915.74
294.154	8900.39
294.221	8915.07
294.288	8917.29
294.356	8934.91
294.423	8945.4
294.49	8937.75
294.557	8949.59
294.624	8942.61
294.691	8963.6
294.758	8969.57
294.825	8978.76
294.892	8969.81
294.959	8970.96
295.026	8978.18
295.093	8965.96
295.16	8970.43
295.226	8975.49
295.293	9001.63
295.36	9011.02
295.427	9021.7
295.494	9026.04
295.561	9040.14
295.628	9056.23
295.695	9072.88
295.762	9078.47
295.829	9080.39
295.896	9098.73
295.963	9107.88
296.03	9121.8
296.096	9130.9
296.163	9141.92
296.23	9157.47
296.297	9173.26
296.364	9168.74
296.431	9171.43
296.498	9170.23
296.564	9196.42
296.631	9202.05
296.698	9184
296.765	9201.71
296.832	9195.74
296.899	9183.61
296.965	9201.04
297.032	9178.02
297.099	9195.55
297.166	9193.82
297.233	9191.36
297.299	9181.78
297.366	9178.99
297.433	9174.94
297.5	9183.13
297.566	9182.89
297.633	9179.04
297.7	9176.39
297.767	9184.09
297.833	9192.66
297.9	9197.24
297.967	9182.89
298.033	9195.79
298.1	9225.74
298.167	9219.63
298.234	9223.67
298.3	9234.22
298.367	9235.23
298.434	9241.2
298.5	9231.33
298.567	9233.49
298.634	9235.66
298.7	9252.94
298.767	9255.35
298.834	9273.02
298.9	9258.53
298.967	9251.98
299.033	9266.81
299.1	9282.85
299.167	9296.28
299.233	9293.73
299.3	9309.14
299.366	9327.24
299.433	9340.96
299.5	9310.63
299.566	9318.14
299.633	9339.18
299.699	9353.29
299.766	9339.28
299.832	9353.87
299.899	9361.48
299.965	9369.18
300.032	9367.4
300.099	9376.5
300.165	9381.32
300.232	9375.97
300.298	9384.88
300.365	9398.8
300.431	9400.19
300.498	9398.17
300.564	9403.8
300.631	9412.62
300.697	9423.36
300.763	9426.44
300.83	9422.87
300.896	9441.6
300.963	9454.37
301.029	9444.97
301.096	9448.78
301.162	9467.12
301.229	9458.26
301.295	9445.6
301.361	9453.64
301.428	9458.36
301.494	9444.25
301.561	9448.3
301.627	9457.2
301.693	9461.78
301.76	9470.59
301.826	9459.85
301.892	9464.09
301.959	9476.81
302.025	9476.56
302.092	9469.49
302.158	9474.45
302.224	9476.13
302.291	9467.51
302.357	9464.19
302.423	9471.51
302.49	9455.86
302.556	9470.6
302.622	9470.55
302.688	9484.27
302.755	9493.86
302.821	9503.87
302.887	9517.11
302.954	9516.82
303.02	9520.15
303.086	9527.03
303.152	9523.13
303.219	9516.68
303.285	9528.96
303.351	9525.25
303.417	9526.6
303.483	9520.15
303.55	9510.04
303.616	9510.18
303.682	9515.77
303.748	9502.86
303.815	9519.33
303.881	9534.6
303.947	9513.75
304.013	9519.19
304.079	9514.47
304.145	9497.18
304.212	9494.96
304.278	9482.83
304.344	9476.67
304.41	9469.73
304.476	9456.97
304.542	9445.99
304.608	9458.94
304.674	9440.26
304.741	9437.66
304.807	9438.14
304.873	9448.49
304.939	9471.94
305.005	9450.71
305.071	9445.41
305.137	9447.77
305.203	9415.12
305.269	9407.7
305.335	9420.37
305.401	9418.83
305.467	9412.42
305.533	9424.61
305.599	9426.92
305.666	9444.73
305.732	9452.15
305.798	9460.96
305.864	9487.07
305.93	9491.35
305.996	9490.29
306.062	9489.91
306.128	9487.84
306.194	9477
306.259	9474.64
306.325	9453.64
306.391	9464.96
306.457	9476.47
306.523	9479.98
306.589	9505.7
306.655	9505.41
306.721	9493.52
306.787	9479.31
306.853	9498.86
306.919	9480.42
306.985	9480.52
307.051	9468.19
307.117	9458.03
307.183	9452.1
307.248	9418.97
307.314	9425.09
307.38	9425.76
307.446	9434.77
307.512	9424.22
307.578	9435.39
307.644	9430.58
307.709	9440.26
307.775	9435.44
307.841	9431.78
307.907	9432.12
307.973	9409.96
308.039	9408.14
308.104	9409.92
308.17	9410.83
308.236	9388.63
308.302	9391.66
308.368	9382.18
308.433	9384.83
308.499	9382.08
308.565	9368.02
308.631	9373.22
308.696	9354.54
308.762	9344.43
308.828	9341.2
308.894	9324.64
308.959	9302.1
309.025	9290.88
309.091	9283.57
309.156	9281.49
309.222	9280.29
309.288	9268.49
309.354	9254.87
309.419	9252.22
309.485	9239.46
309.551	9247.02
309.616	9237.2
309.682	9235.18
309.748	9227.47
309.813	9220.92
309.879	9211.01
309.945	9196.32
310.01	9193.96
310.076	9192.08
310.141	9188.43
310.207	9172.15
310.273	9176.72
310.338	9177.25
310.404	9165.07
310.469	9148.51
310.535	9130.65
310.601	9106.14
310.666	9116.11
310.732	9123.67
310.797	9114.28
310.863	9104.22
310.928	9093.86
310.994	9094.83
311.059	9091.65
311.125	9088.9
311.191	9098.34
311.256	9088.81
311.322	9103.16
311.387	9082.41
311.453	9475.14
311.518	9448.86
311.584	9446.79
311.649	9450.45
311.715	9441.44
311.78	9440.63
311.846	9435.14
311.911	9446.93
311.976	9453.38
312.042	9429.41
312.107	9405.53
312.173	9399.08
312.238	9392
312.304	9389.4
312.369	9385.02
312.434	9371.25
312.5	9355.27
312.565	9322.15
312.631	9319.79
312.696	9303.23
312.761	9307.8
312.827	8909.01
312.892	8947.71
312.958	8947.52
313.023	8942.42
313.088	8939.38
313.154	8928.41
313.219	8921.28
313.284	8910.31
313.35	8904.92
313.415	8895.67
313.48	8897.79
313.546	8901.35
313.611	8912.23
313.676	8898.03
313.741	8894.18
313.807	8903.23
313.872	8915.6
313.937	8924.56
314.003	8942.85
314.068	8952.14
314.133	8957.05
314.198	8945.06
314.264	8930.33
314.329	8917.77
314.394	8920.51
314.459	8920.27
314.525	8939.43
314.59	8933.6
314.655	8923.45
314.72	8930.52
314.785	8937.5
314.851	8933.22
314.916	8908.48
314.981	8891.49
315.046	8889.9
315.111	8875.65
315.176	8864.19
315.242	8868.81
315.307	8861.79
315.372	8837.04
315.437	8824.91
315.502	8818.32
315.567	8832.76
315.632	8812.3
315.698	8811.67
315.763	8798.24
315.828	8783.76
315.893	8777.55
315.958	8778.61
316.023	8777.79
316.088	8755.79
316.153	8732.45
316.218	8724.46
316.283	8716.28
316.348	8701.65
316.413	8698.04
316.479	8683.85
316.544	8649.25
316.609	8616.66
316.674	8583.65
316.739	8550.98
316.804	8515.18
316.869	8481.26
316.934	8444.78
316.999	8419.13
317.064	8371.59
317.129	8334.21
317.194	8313.61
317.259	8266.02
317.324	8214.07
317.389	8160.33
317.454	8126.42
317.518	8094.38
317.583	8070.91
317.648	8043.24
317.713	8009.57
317.778	7947.86
317.843	7923.04
317.908	7887.65
317.973	7852.44
318.038	7827.82
318.103	7794.26
318.168	7768.96
318.233	7739.87
318.297	7689.19
318.362	7648.79
318.427	7610.77
318.492	7586
318.557	7529.04
318.622	7500.77
318.687	7478.13
318.751	7443.72
318.816	7412.08
318.881	7382.04
318.946	7327.58
319.011	7283.7
319.075	7245.49
319.14	7210.99
319.205	7170.57
319.27	7134
319.335	7090.13
319.399	7051.73
319.464	7025.6
319.529	6969.3
319.594	6925.67
319.658	6896.7
319.723	6855.01
319.788	6825.09
319.853	6772.67
319.917	6748.52
319.982	6694.63
320.047	6657.31
320.112	6630.9
320.176	6576.4
320.241	6542.16
320.306	6516.42
320.37	6474.07
320.435	6443.97
320.5	6415.98
320.564	6370.56
320.629	6331.31
320.694	6300.15
320.758	6257.19
320.823	6215.92
320.888	6196.15
320.952	6149.07
321.017	6106.75
321.082	6066.02
321.146	6036.99
321.211	6001.96
321.275	5958.41
321.34	5918.89
321.405	5872.84
321.469	5826.56
321.534	5787.24
321.598	5733.25
321.663	5703.89
321.727	5674.15
321.792	5618.92
321.857	5579.79
321.921	5544.07
321.986	5502.71
322.05	5442.71
322.115	5406.09
322.179	5360.84
322.244	5303.01
322.308	5270.95
322.373	5226.35
322.437	5189.79
322.502	5164.24
322.566	5121.74
322.631	5089.7
322.695	5052.01
322.76	5015.23
322.824	4981.99
322.889	4939.96
322.953	4904.53
323.018	4834.19
323.082	4772.1
323.146	4722.58
323.211	4670.93
323.275	4622.73
323.34	4582.69
323.404	4546.24
323.468	4498.72
323.533	4455.61
323.597	4412.05
323.662	4361.87
323.726	4326.14
323.79	4277.08
323.855	4206.17
323.919	4157.25
323.983	4110.96
324.048	4044.59
324.112	4203.19
324.177	4073.42
324.241	3865.08
324.305	3655.01
324.37	3454.79
324.434	3260.36
324.498	3221.58
324.562	3170.26
324.627	3111.95
324.691	3055.41
324.755	2995.18
324.82	2920.57
324.884	2842.9
324.948	2772.34
325.012	2678.74
325.077	2560.18
