Data from 20250704_urea_1.5M_MAYP1162681_11-48-04-584.txt Node
Date: Fri Jul 04 11:48:04 BST 2025
User: adleo
Spectrometer: MAYP116268
Trigger mode: 0
Integration Time (sec): 1.000000E0
Scans to average: 1
Electric dark correction enabled: true
Nonlinearity correction enabled: true
Boxcar width: 10
XAxis mode: Wavelengths
Number of Pixels in Spectrum: 2068
>>>>>Begin Spectral Data<<<<<
179.565	1263.44
179.642	1321
179.718	1368.79
179.795	1412.11
179.871	1448.45
179.948	1467.33
180.024	1491.63
180.101	1518.72
180.177	1533.07
180.254	1555.88
180.33	1580.03
180.407	1639.15
180.483	1739.21
180.56	1836.47
180.636	1926.97
180.712	1914.51
180.789	1924.87
180.865	1939.51
180.942	1946.02
181.018	1955.06
181.095	1967.14
181.171	1974.17
181.248	1974.75
181.324	1990.11
181.4	1996.48
181.477	2007.14
181.553	2020.02
181.63	2039.33
181.706	2051.32
181.782	2061.77
181.859	2061.58
181.935	2066.58
182.011	2060.11
182.088	2077.14
182.164	2093.7
182.24	2104.16
182.317	2116.48
182.393	2117.57
182.469	2131.32
182.546	2145.97
182.622	2150.44
182.698	2147.87
182.775	2156.1
182.851	2173.27
182.927	2163.66
183.003	2159.34
183.08	2153.91
183.156	2161.05
183.232	2158.24
183.308	2146.78
183.385	2152.29
183.461	2170.56
183.537	2169.42
183.613	2183.69
183.69	2175.37
183.766	2164.66
183.842	2173.7
183.918	2178.22
183.995	2189.35
184.071	2193.16
184.147	2188.92
184.223	2178.79
184.299	2191.59
184.375	2180.32
184.452	2185.41
184.528	2235.9
184.604	2245.46
184.68	2255.5
184.756	2266.83
184.832	2272.01
184.908	2278.67
184.985	2279.29
185.061	2262.07
185.137	2272.82
185.213	2261.5
185.289	2261.69
185.365	2256.41
185.441	2256.12
185.517	2270.31
185.593	2266.79
185.669	2263.74
185.745	2275.59
185.822	2290.72
185.898	2282.1
185.974	2293.95
186.05	2287.14
186.126	2253.45
186.202	2250.74
186.278	2246.6
186.354	2237.03
186.43	2242.13
186.506	2239.18
186.582	2238.32
186.658	2245.31
186.734	2223.81
186.81	2226.62
186.886	2229.47
186.962	2242.99
187.038	2237.61
187.114	2229.32
187.19	2237.41
187.266	2228.28
187.341	2229.66
187.417	2225.09
187.493	2224.62
187.569	2225.76
187.645	2218.62
187.721	2207.77
187.797	2213.34
187.873	2220.29
187.949	2214.05
188.025	2207.72
188.101	2211.34
188.176	2213.15
188.252	2210.2
188.328	2217.9
188.404	2220.52
188.48	2217.14
188.556	2208.67
188.632	2210.48
188.707	2210.9
188.783	2208.52
188.859	2200.96
188.935	2187.92
189.011	2194.68
189.086	2190.3
189.162	2182.45
189.238	2177.32
189.314	2172.18
189.39	2164.23
189.465	2154.15
189.541	2171.28
189.617	2153.63
189.693	2150.25
189.768	2155.72
189.844	2182
189.92	2174.96
189.996	2182.05
190.071	2194.14
190.147	2192.14
190.223	2198.99
190.298	2190.95
190.374	2175.87
190.45	2192.47
190.526	2200.32
190.601	2194.8
190.677	2195.08
190.753	2222.98
190.828	2229.02
190.904	2246.63
190.98	2263.1
191.055	2274.37
191.131	2264.14
191.207	2287.93
191.282	2299.58
191.358	2291.88
191.433	2274.78
191.509	2288.34
191.585	2287.86
191.66	2286.63
191.736	2298.24
191.811	2292.91
191.887	2309.52
191.963	2331.03
192.038	2335.46
192.114	2335.41
192.189	2339.69
192.265	2337.12
192.34	2316.27
192.416	2316.93
192.491	2314.93
192.567	2316.17
192.642	2319.74
192.718	2320.07
192.793	2309.08
192.869	2302.09
192.944	2304.99
193.02	2314.89
193.095	2317.74
193.171	2321.17
193.246	2323.17
193.322	2316.51
193.397	2312.7
193.473	2296.52
193.548	2279.91
193.624	2282.67
193.699	2282.76
193.775	2299.81
193.85	2303.09
193.925	2311.32
194.001	2310.8
194.076	2299.61
194.152	2291.28
194.227	2282.05
194.302	2269.92
194.378	2273.11
194.453	2270.45
194.529	2285.2
194.604	2268.64
194.679	2262.59
194.755	2245.09
194.83	2255.42
194.905	2255.04
194.981	2264.41
195.056	2261.56
195.131	2269.55
195.207	2267.93
195.282	2257.23
195.357	2237.52
195.433	2252.37
195.508	2240.71
195.583	2247.18
195.659	2264.69
195.734	2270.83
195.809	2273.93
195.884	2285.72
195.96	2284.44
196.035	2301.05
196.11	2293.96
196.185	2308.95
196.261	2311.75
196.336	2342.41
196.411	2327.5
196.486	2330.83
196.561	2324.5
196.637	2331.69
196.712	2348.02
196.787	2352.97
196.862	2370.53
196.937	2379.34
197.013	2384.67
197.088	2397.71
197.163	2421.28
197.238	2437.67
197.313	2437.77
197.388	2450.96
197.464	2483.25
197.539	2497.58
197.614	2489.2
197.689	2504.86
197.764	2520.3
197.839	2544.1
197.914	2537.24
197.989	2564.68
198.065	2578.77
198.14	2632.43
198.215	2659.24
198.29	2670.92
198.365	2685.35
198.44	2693.97
198.515	2723.7
198.59	2738.38
198.665	2761.53
198.74	2770.06
198.815	2770.78
198.89	2794.31
198.965	2825.3
199.04	2820.44
199.115	2834.54
199.19	2881.52
199.265	2880.47
199.34	2889.34
199.415	2922.86
199.49	2944.88
199.565	2950.64
199.64	2977.58
199.715	2972.95
199.79	2981.72
199.865	2991.16
199.94	2990.92
200.015	3026.3
200.09	3030.88
200.165	3039.46
200.24	3049.66
200.315	3091.04
200.39	3106.97
200.464	3115.12
200.539	3117.84
200.614	3137.68
200.689	3161.43
200.764	3167.78
200.839	3189.18
200.914	3196.66
200.989	3189.65
201.063	3203.05
201.138	3185.7
201.213	3186.56
201.288	3167.82
201.363	3171.35
201.438	3168.97
201.512	3184.7
201.587	3165.28
201.662	3168.91
201.737	3181.55
201.812	3187.23
201.886	3150.76
201.961	3161.02
202.036	3146.1
202.111	3140.04
202.186	3108.72
202.26	3091.03
202.335	3065.46
202.41	3056.31
202.485	3037.67
202.559	3012.83
202.634	2987.75
202.709	2996.37
202.784	2975.2
202.858	2976.63
202.933	2956.95
203.008	2951.41
203.082	2929.39
203.157	2929.3
203.232	2887.56
203.306	2865.05
203.381	2834.35
203.456	2809.04
203.53	2786.67
203.605	2769.95
203.68	2745.26
203.754	2737.97
203.829	2724.39
203.904	2704.81
203.978	2697.57
204.053	2704
204.127	2691.04
204.202	2688.09
204.277	2669.18
204.351	2663.56
204.426	2655.84
204.5	2647.17
204.575	2609.6
204.65	2618.17
204.724	2612.69
204.799	2616.07
204.873	2610.83
204.948	2608.07
205.022	2597.31
205.097	2587.44
205.171	2598.3
205.246	2608.92
205.32	2606.35
205.395	2604.54
205.469	2597.78
205.544	2600.45
205.618	2580.02
205.693	2592.83
205.767	2581.64
205.842	2601.69
205.916	2590.02
205.991	2578.02
206.065	2583.26
206.14	2599.35
206.214	2594.3
206.289	2585.05
206.363	2602.43
206.438	2604.48
206.512	2610.53
206.586	2632.3
206.661	2640.49
206.735	2618.59
206.81	2617.5
206.884	2634.07
206.958	2622.88
207.033	2638.54
207.107	2645.27
207.181	2677.05
207.256	2671.52
207.33	2690.19
207.405	2706.02
207.479	2727.6
207.553	2737.84
207.628	2722.98
207.702	2734.51
207.776	2730.84
207.851	2732.37
207.925	2748.96
207.999	2748.62
208.073	2747.29
208.148	2748.58
208.222	2735.52
208.296	2768.38
208.371	2785.59
208.445	2794.6
208.519	2822.61
208.593	2835.34
208.668	2833.29
208.742	2837.44
208.816	2840.34
208.89	2855.26
208.965	2855.65
209.039	2867.99
209.113	2884.15
209.187	2907.06
209.261	2904.77
209.336	2922.79
209.41	2946.1
209.484	2944.57
209.558	2968.22
209.632	2983.33
209.707	2995.06
209.781	3023.04
209.855	3039.97
209.929	3060.21
210.003	3069.89
210.077	3070.41
210.151	3120.91
210.226	3156.41
210.3	3185
210.374	3214.04
210.448	3221.82
210.522	3232.17
210.596	3244.19
210.67	3253.64
210.744	3303.65
210.818	3340.84
210.892	3367.13
210.966	3366.99
211.041	3391.28
211.115	3394.33
211.189	3427.07
211.263	3456.18
211.337	3465.48
211.411	3487.35
211.485	3491.93
211.559	3516.32
211.633	3532.25
211.707	3513.95
211.781	3536.36
211.855	3517.02
211.929	3520.79
212.003	3518.07
212.077	3550.55
212.151	3582.36
212.225	3617.31
212.299	3627.68
212.373	3641.86
212.447	3668.33
212.52	3727.62
212.594	3759.49
212.668	3800.23
212.742	3820.44
212.816	3848.54
212.89	3882.46
212.964	3924.96
213.038	3969.57
213.112	4027.19
213.186	4094.68
213.26	4122.3
213.333	4127.56
213.407	4191.03
213.481	4254.12
213.555	4328.97
213.629	4379.5
213.703	4429.31
213.777	4492.05
213.85	4548.91
213.924	4654.96
213.998	4727.4
214.072	4801.42
214.146	4871.87
214.219	4954.34
214.293	5034.41
214.367	5124.86
214.441	5225.13
214.515	5305.17
214.588	5375.39
214.662	5439.09
214.736	5509.36
214.81	5617.37
214.883	5732.53
214.957	5821.62
215.031	5918.87
215.105	6004.17
215.178	6099.37
215.252	6208.69
215.326	6298.29
215.4	6384.19
215.473	6451.57
215.547	6543.14
215.621	6642.59
215.694	6766.15
215.768	6862.71
215.842	6972.09
215.915	7078.35
215.989	7180.82
216.063	7297.83
216.136	7422.47
216.21	7541.38
216.284	7682.11
216.357	7807.9
216.431	7922.21
216.504	8056.73
216.578	8200.66
216.652	8343.18
216.725	8471.51
216.799	8607.77
216.873	8744.87
216.946	8892.36
217.02	9020.04
217.093	9157.14
217.167	9263.16
217.24	9375.16
217.314	9506.13
217.387	9629.01
217.461	9752.73
217.535	9886.57
217.608	9999.72
217.682	10132.52
217.755	10276.17
217.829	10390.49
217.902	10523.27
217.976	10661.64
218.049	10785.86
218.123	10908.74
218.196	11037.16
218.27	11161.87
218.343	11262.5
218.417	11387.9
218.49	11503.85
218.563	11642.02
218.637	11769.36
218.71	11915.83
218.784	12040.38
218.857	12175.53
218.931	12299.07
219.004	12425.36
219.077	12555.84
219.151	12680.78
219.224	12786.83
219.298	12898.19
219.371	13029.54
219.444	13125.04
219.518	13233.45
219.591	13342.45
219.665	13471.11
219.738	13582.61
219.811	13683.31
219.885	13807.49
219.958	13921.54
220.031	14026.68
220.105	14139.77
220.178	14246.16
220.251	14340.4
220.325	14453.82
220.398	14551.92
220.471	14660.14
220.544	14762.67
220.618	14855.85
220.691	14951.14
220.764	15061.1
220.838	15168.11
220.911	15255.5
220.984	15372.72
221.057	15478.09
221.131	15570.01
221.204	15622.22
221.277	15729.94
221.35	15854.2
221.424	15936.91
221.497	16018.13
221.57	16108.5
221.643	16185.47
221.716	16275.03
221.79	16352
221.863	16434.9
221.936	16511
222.009	16586.91
222.082	16667.73
222.155	16731.16
222.229	16819.46
222.302	16889
222.375	16957.68
222.448	17031.8
222.521	17096.58
222.594	17152.34
222.667	17210.56
222.74	17290.37
222.814	17334.41
222.887	17380.87
222.96	17445.74
223.033	17520.44
223.106	17574.85
223.179	17647.71
223.252	17703.28
223.325	17756.58
223.398	17803.52
223.471	17855.61
223.544	17901.11
223.617	17951.47
223.69	18000.28
223.763	18034.79
223.837	18078.93
223.91	18116.14
223.983	18138.69
224.056	18170.64
224.129	18218.25
224.202	18267.36
224.275	18304.13
224.348	18343.02
224.42	18361.76
224.493	18382.78
224.566	18405.47
224.639	18444.75
224.712	18462
224.785	18477.95
224.858	18514.09
224.931	18530.29
225.004	18545.95
225.077	18577.42
225.15	18570.09
225.223	18596.06
225.296	18648.93
225.369	18660.74
225.442	18680.73
225.514	18713.65
225.587	18734.47
225.66	18755.33
225.733	18780.73
225.806	18796.92
225.879	18811.86
225.952	18833.93
226.025	18862.99
226.097	18901.64
226.17	18922.31
226.243	18911.95
226.316	18927.66
226.389	18928.24
226.461	18951.03
226.534	18959.51
226.607	18965.34
226.68	19013.2
226.753	19023.85
226.825	19004.81
226.898	19032.23
226.971	19038.64
227.044	19051.6
227.117	19066.06
227.189	19077.34
227.262	19094.88
227.335	19115.89
227.407	19121.29
227.48	19125.53
227.553	19126.59
227.626	19110.78
227.698	19112.8
227.771	19127.74
227.844	19126.63
227.916	19146.54
227.989	19136.42
228.062	19151.98
228.134	19177.86
228.207	19168.03
228.28	19159.4
228.352	19166.49
228.425	19165.23
228.498	19181.52
228.57	19175.98
228.643	19194.44
228.716	19188.03
228.788	19174.97
228.861	19166.97
228.934	19177.28
229.006	19173.81
229.079	19177.91
229.151	19172.8
229.224	19156.99
229.296	19164.61
229.369	19193.28
229.442	19200.94
229.514	19194.29
229.587	19206.24
229.659	19190.77
229.732	19188.37
229.804	19207.16
229.877	19231.25
229.949	19228.12
230.022	19238.87
230.094	19232.56
230.167	19226.29
230.239	19216.12
230.312	19215.5
230.384	19232.22
230.457	19229.57
230.529	19225.28
230.602	19225.13
230.674	19224.36
230.747	19229.9
230.819	19236.89
230.892	19192.99
230.964	19193.47
231.037	19199.45
231.109	19184.7
231.181	19179.26
231.254	19168.56
231.326	19146.25
231.399	19115.17
231.471	19103.5
231.544	19058.78
231.616	19058.64
231.688	19043.51
231.761	19027.46
231.833	19010.55
231.905	18979.8
231.978	18969.63
232.05	18959.8
232.122	18946.79
232.195	18935.18
232.267	18935.13
232.339	18913.06
232.412	18927.71
232.484	18898.5
232.556	18874.84
232.629	18882.55
232.701	18887.37
232.773	18880.24
232.846	18873.73
232.918	18871.71
232.99	18860.48
233.062	18877.01
233.135	18873.45
233.207	18851.37
233.279	18849.06
233.351	18839.66
233.424	18819.52
233.496	18792.82
233.568	18801.98
233.64	18767.38
233.713	18744.59
233.785	18731.91
233.857	18725.31
233.929	18687.38
234.001	18688.4
234.074	18690.56
234.146	18650.33
234.218	18619.53
234.29	18597.75
234.362	18572.4
234.434	18543.78
234.507	18523.06
234.579	18479.16
234.651	18446.19
234.723	18435.78
234.795	18419.64
234.867	18400.85
234.939	18395.59
235.012	18382.2
235.084	18365.67
235.156	18364.8
235.228	18341.62
235.3	18314.88
235.372	18292.56
235.444	18286.11
235.516	18248.13
235.588	18230.4
235.66	18217.63
235.732	18187.65
235.804	18231.75
235.876	18218.4
235.948	18206.49
236.02	18180.57
236.092	18163.12
236.164	18145.77
236.236	18116.38
236.308	18088.62
236.38	18071.99
236.452	18046.26
236.524	18024.48
236.596	18010.16
236.668	17988.09
236.74	17973.49
236.812	17954.41
236.884	17939.66
236.956	17919.76
237.028	17893.49
237.1	17864.82
237.172	17853.93
237.244	17859.9
237.316	17797.74
237.388	17778.94
237.46	17744.54
237.532	17738.56
237.604	17713.74
237.675	17709.16
237.747	17702.51
237.819	17681.98
237.891	17659.33
237.963	17627.67
238.035	17599.48
238.107	17547.48
238.178	17548.39
238.25	17525.4
238.322	17529.12
238.394	17483.72
238.466	17454.99
238.538	17437.11
238.609	17412.34
238.681	17368.83
238.753	17327.52
238.825	17300.87
238.897	17281.26
238.968	17289.65
239.04	17255.57
239.112	17256.92
239.184	17211.57
239.255	17181.64
239.327	17156.58
239.399	17136.34
239.471	17129.74
239.542	17112.77
239.614	17099.76
239.686	17041.45
239.758	17022.31
239.829	16982.02
239.901	16983.18
239.973	16962.22
240.044	16939.61
240.116	16915.23
240.188	16892.57
240.259	16871.08
240.331	16835.85
240.403	16820.52
240.474	16769.97
240.546	16741.53
240.618	16691.12
240.689	16671.79
240.761	16645.96
240.833	16648.27
240.904	16622.63
240.976	16583.45
241.048	16566.39
241.119	16544.84
241.191	16527.59
241.262	16516.55
241.334	16486.29
241.405	16452.84
241.477	16424.26
241.549	16394.9
241.62	16375.67
241.692	16356.97
241.763	16344.78
241.835	16317.45
241.906	16279.66
241.978	16237.59
242.049	16222.5
242.121	16212.23
242.192	16199.75
242.264	16154.35
242.335	16097.86
242.407	16075.25
242.478	16051.59
242.55	16029.32
242.621	16000.69
242.693	15968.49
242.764	15937.55
242.836	15903.57
242.907	15886.7
242.979	15865.93
243.05	15852.24
243.122	15825.05
243.193	15796.86
243.264	15738.73
243.336	15707.78
243.407	15693.81
243.479	15690.62
243.55	15670.96
243.622	15645.8
243.693	15615.14
243.764	15618.37
243.836	15589.6
243.907	15552.34
243.978	15519.08
244.05	15492.08
244.121	15442.39
244.192	15426.53
244.264	15391.25
244.335	15375.29
244.407	15328.63
244.478	15300.87
244.549	15262.55
244.62	15224.56
244.692	15194.73
244.763	15183.01
244.834	15154.82
244.906	15111.14
244.977	15091.48
245.048	15074.56
245.119	15035.71
245.191	14994.25
245.262	14935.64
245.333	14925.66
245.405	14897.75
245.476	14880.39
245.547	14853.93
245.618	14846.65
245.689	14818.55
245.761	14791.03
245.832	14749.38
245.903	14725.47
245.974	14708.45
246.045	14677.79
246.117	14666.42
246.188	14623.8
246.259	14584.42
246.33	14560.46
246.401	14539.2
246.473	14487.19
246.544	14450.89
246.615	14438.84
246.686	14407.22
246.757	14401.58
246.828	14363.11
246.899	14359.69
246.97	14318.62
247.042	14277.84
247.113	14258.46
247.184	14258.36
247.255	14219.27
247.326	14201.72
247.397	14174.92
247.468	14149.03
247.539	14134.81
247.61	14102.85
247.681	14093.69
247.752	14080.48
247.823	14045.19
247.894	14018.68
247.965	13993.32
248.037	13962.81
248.108	13923.62
248.179	13901.64
248.25	13871.03
248.321	13849.77
248.392	13807.92
248.463	13804.31
248.534	13786.42
248.605	13763
248.675	13735.33
248.746	13724.86
248.817	13705.68
248.888	13685.91
248.959	13640.12
249.03	13614.37
249.101	13584.05
249.172	13550.65
249.243	13510.25
249.314	13500.46
249.385	13477.28
249.456	13457.99
249.527	13435.43
249.598	13420.78
249.669	13398.36
249.739	13383.9
249.81	13368.04
249.881	13332.08
249.952	13309.47
250.023	13281.03
250.094	13239.52
250.165	13204.81
250.235	13180.61
250.306	13163.26
250.377	13128.4
250.448	13111.34
250.519	13067.91
250.59	13058.07
250.66	13038.07
250.731	13030.02
250.802	13005
250.873	12979.4
250.944	12955.49
251.014	12916.11
251.085	12910.9
251.156	12894.51
251.227	12886.6
251.297	12883.23
251.368	12879.32
251.439	12868.28
251.51	12857.34
251.58	12830.49
251.651	12802.39
251.722	12787.2
251.792	12741.5
251.863	12714.7
251.934	12708.73
252.005	12715.28
252.075	12692.43
252.146	12676.91
252.217	12667.03
252.287	12656.66
252.358	12639.98
252.429	12652.37
252.499	12635.74
252.57	12611.35
252.641	12600.6
252.711	12577.99
252.782	12530.95
252.852	12525.26
252.923	12499.95
252.994	12477.44
253.064	12472.14
253.135	12432.27
253.205	12411.4
253.276	12418.29
253.347	12426.63
253.417	12399.83
253.488	12380.07
253.558	12357.02
253.629	12338.13
253.699	12321.64
253.77	12308.39
253.841	12294.84
253.911	12264.86
253.982	12247.8
254.052	12242.25
254.123	12226.54
254.193	12204.17
254.264	12227.6
254.334	12197.91
254.405	12163.97
254.475	12136.88
254.546	12114.18
254.616	12123.29
254.687	12106.32
254.757	12084.24
254.827	12063.61
254.898	12043.8
254.968	12020.52
255.039	11989.39
255.109	11979.12
255.18	11951.26
255.25	11911.83
255.321	11894.24
255.391	11863.39
255.461	11871.2
255.532	11830.03
255.602	11805.74
255.673	11766.27
255.743	11732.91
255.813	11686.69
255.884	11685.92
255.954	11678.01
256.024	11681.44
256.095	11660.23
256.165	11629.04
256.235	11621.04
256.306	11592.17
256.376	11593.76
256.446	11582.77
256.517	11582.97
256.587	11579.26
256.657	11571.93
256.728	11556.94
256.798	11542.53
256.868	11525.32
256.938	11494.09
257.009	11481.95
257.079	11476.36
257.149	11487.97
257.219	11455
257.29	11453.03
257.36	11412.79
257.43	11402.95
257.5	11363.48
257.571	11341.99
257.641	11335.34
257.711	11292.88
257.781	11279.62
257.852	11258.85
257.922	11227.77
257.992	11205.12
258.062	11179.48
258.132	11171.19
258.202	11150.61
258.273	11135.33
258.343	11134.66
258.413	11104.63
258.483	11092.63
258.553	11060.49
258.623	11035.09
258.693	11023.77
258.764	11020.73
258.834	11021.5
258.904	11001.17
258.974	10977.31
259.044	10957.32
259.114	10942.67
259.184	10934.09
259.254	10914.62
259.324	10881.66
259.394	10875.2
259.464	10881.13
259.535	10863.2
259.605	10838.77
259.675	10818.1
259.745	10804.85
259.815	10773.38
259.885	10758.16
259.955	10768.71
260.025	10746.69
260.095	10726.6
260.165	10711.03
260.235	10709.25
260.305	10686.46
260.375	10664.73
260.445	10670.56
260.515	10671.04
260.585	10672.24
260.655	10659.04
260.725	10659.52
260.795	10656.34
260.865	10657.31
260.934	10630.37
261.004	10627.48
261.074	10607.87
261.144	10606.13
261.214	10601.75
261.284	10586.52
261.354	10581.32
261.424	10549.42
261.494	10556.26
261.564	10535.45
261.634	10531.06
261.703	10495.6
261.773	10484.76
261.843	10480.33
261.913	10466.16
261.983	10437.06
262.053	10424.63
262.123	10408.59
262.192	10374.58
262.262	10364.31
262.332	10329.67
262.402	10322.06
262.472	10303.85
262.541	10271.14
262.611	10280.29
262.681	10259.14
262.751	10256.3
262.821	10245.22
262.89	10218.48
262.96	10212.99
263.03	10224.31
263.1	10216.55
263.169	10207.59
263.239	10198.58
263.309	10203.98
263.379	10194.06
263.448	10183.36
263.518	10169.05
263.588	10155.61
263.657	10164.72
263.727	10162.21
263.797	10154.75
263.867	10144.15
263.936	10120.3
264.006	10126.23
264.076	10098.67
264.145	10078.05
264.215	10053.39
264.285	10042.21
264.354	10011.49
264.424	9985.52
264.494	9959.27
264.563	9939.71
264.633	9947.41
264.702	9938.6
264.772	9902.52
264.842	9886.29
264.911	9874.92
264.981	9848.91
265.05	9838.94
265.12	9818.22
265.19	9805.65
265.259	9801.12
265.329	9786.34
265.398	9775.64
265.468	9786.43
265.537	9765.34
265.607	9758.98
265.676	9763.22
265.746	9759.56
265.815	9766.01
265.885	9749.16
265.955	9726.33
266.024	9704.65
266.094	9666.41
266.163	9669.5
266.232	9671.08
266.302	9660.68
266.371	9656.49
266.441	9646.96
266.51	9641.85
266.58	9624.61
266.649	9601.35
266.719	9594.94
266.788	9585.31
266.858	9594.17
266.927	9554.49
266.996	9553.67
267.066	9543.55
267.135	9516.78
267.205	9508.93
267.274	9496.7
267.343	9501.75
267.413	9495.4
267.482	9502.09
267.552	9507.73
267.621	9472.81
267.69	9441.17
267.76	9427.21
267.829	9412.67
267.898	9402.17
267.968	9380.02
268.037	9378.91
268.106	9378.96
268.176	9356.91
268.245	9346.94
268.314	9324.64
268.384	9329.36
268.453	9316.45
268.522	9307.98
268.592	9313.9
268.661	9299.31
268.73	9291.66
268.799	9268.06
268.869	9272.59
268.938	9241
269.007	9223.76
269.076	9224.58
269.146	9229.01
269.215	9224.73
269.284	9241.77
269.353	9225.26
269.422	9218.13
269.492	9205.66
269.561	9163.3
269.63	9160.02
269.699	9143.99
269.768	9136.24
269.838	9125.98
269.907	9124.78
269.976	9105.33
270.045	9073.89
270.114	9067.34
270.183	9054.63
270.253	9048.18
270.322	9019.15
270.391	9013.47
270.46	9019.73
270.529	9013.67
270.598	9010.25
270.667	8997.49
270.736	8959.65
270.806	8951.32
270.875	8952.47
270.944	8940.25
271.013	8965.42
271.082	8963.21
271.151	8957.67
271.22	8924.7
271.289	8918.16
271.358	8906.65
271.427	8903.23
271.496	8894.57
271.565	8878.49
271.634	8865.3
271.703	8865.4
271.772	8867.71
271.841	8861.74
271.91	8830.93
271.979	8821.93
272.048	8803.16
272.117	8808.89
272.186	8799.98
272.255	8807.73
272.324	8810.38
272.393	8808.55
272.462	8793.53
272.531	8778.03
272.6	8769.08
272.669	8780.92
272.738	8765.37
272.807	8758.49
272.876	8736.78
272.945	8767.83
273.013	8770.28
273.082	8783.66
273.151	8768.5
273.22	8762.63
273.289	8754.74
273.358	8768.84
273.427	8762.29
273.496	8762.58
273.564	8755.7
273.633	8758.25
273.702	8733.89
273.771	8719.89
273.84	8711.99
273.909	8704.44
273.977	8703.76
274.046	8697.7
274.115	8707.95
274.184	8694.38
274.253	8690.58
274.322	8696.98
274.39	8657.8
274.459	8644.47
274.528	8611.94
274.597	8604.72
274.665	8601.97
274.734	8608.09
274.803	8598.8
274.872	8591.29
274.94	8569.73
275.009	8628.1
275.078	8619.1
275.147	8622.27
275.215	8620.73
275.284	8628.62
275.353	8622.22
275.421	8597.44
275.49	8614.05
275.559	8598.79
275.627	8591.28
275.696	8581.61
275.765	8583.15
275.833	8581.66
275.902	8578.82
275.971	8594.6
276.039	8611.06
276.108	8615.87
276.177	8612.79
276.245	8601.05
276.314	8592.78
276.383	8603.79
276.451	8534.31
276.52	8534.17
276.588	8541.63
276.657	8541.67
276.725	8537.54
276.794	8537.92
276.863	8553.32
276.931	8530.84
277	8536.28
277.068	8550.23
277.137	8565.78
277.205	8568.57
277.274	8587.53
277.342	8599.99
277.411	8580.75
277.48	8568.86
277.548	8558.46
277.617	8560.2
277.685	8554.18
277.754	8564.91
277.822	8563.28
277.89	8574.69
277.959	8572.04
278.027	8553.75
278.096	8545.38
278.164	8566.56
278.233	8558.52
278.301	8548.75
278.37	8551.16
278.438	8538.98
278.507	8542.26
278.575	8512.42
278.643	8509.29
278.712	8487.11
278.78	8474.89
278.849	8483.5
278.917	8490.33
278.985	8491.68
279.054	8494.76
279.122	8507.27
279.191	8504.09
279.259	8497.26
279.327	8475.07
279.396	8486.67
279.464	8490.86
279.532	8498.17
279.601	8497.6
279.669	8496.49
279.737	8500.24
279.806	8509.19
279.874	8516.17
279.942	8512.42
280.011	8512.56
280.079	8514.25
280.147	8534.07
280.215	8538.45
280.284	8533.98
280.352	8520.89
280.42	8525.75
280.488	8516.65
280.557	8514.1
280.625	8515.54
280.693	8515.64
280.761	8519.63
280.83	8506.5
280.898	8513.86
280.966	8493.22
281.034	8459.14
281.102	8445.33
281.171	8445.57
281.239	8446.25
281.307	8437.92
281.375	8424.55
281.443	8454.86
281.512	8457.75
281.58	8459.15
281.648	8441.34
281.716	8449.91
281.784	8452.02
281.852	8444.13
281.92	8440.52
281.989	8447.55
282.057	8426.09
282.125	8469.17
282.193	8471.43
282.261	8469.22
282.329	8466.91
282.397	8469.89
282.465	8469.41
282.533	8486.15
282.601	8479.8
282.67	8461.32
282.738	8454.63
282.806	8472.73
282.874	8462.23
282.942	8464.88
283.01	8464.21
283.078	8473.3
283.146	8460.26
283.214	8467.77
283.282	8472.29
283.35	8484.66
283.418	8476.19
283.486	8483.79
283.554	8443.31
283.622	8440.62
283.69	8440.9
283.758	8434.94
283.826	8440.86
283.894	8451.49
283.962	8469.68
284.03	8484.21
284.098	8486.48
284.165	8485.71
284.233	8479.5
284.301	8468.48
284.369	8456.5
284.437	8448.94
284.505	8444.42
284.573	8464.29
284.641	8451.73
284.709	8457.02
284.777	8437.97
284.845	8443.93
284.912	8447.78
284.98	8451.49
285.048	8446
285.116	8454.42
285.184	8472.04
285.252	8472.81
285.319	8459.38
285.387	8447.93
285.455	8432.48
285.523	8439.07
285.591	8439.31
285.659	8443.4
285.726	8456.4
285.794	8442.11
285.862	8438.64
285.93	8442.83
285.997	8437.82
286.065	8433.16
286.133	8424.69
286.201	8426.8
286.269	8413.43
286.336	8409.58
286.404	8400
286.472	8412.95
286.539	8385.57
286.607	8365.41
286.675	8365.65
286.743	8374.46
286.81	8371.38
286.878	8383.89
286.946	8375.32
287.013	8374.26
287.081	8372.43
287.149	8357.37
287.216	8375.08
287.284	8370.89
287.352	8369.16
287.419	8370.94
287.487	8383.4
287.555	8388.36
287.622	8384.56
287.69	8398.46
287.758	8411.5
287.825	8416.27
287.893	8396.83
287.96	8411.02
288.028	8421.85
288.096	8427.81
288.163	8429.98
288.231	8423.53
288.298	8416.94
288.366	8429.16
288.433	8426.47
288.501	8420.6
288.569	8427.81
288.636	8427.14
288.704	8437.87
288.771	8444.75
288.839	8430.99
288.906	8430.17
288.974	8437.63
289.041	8438.88
289.109	8422.43
289.176	8430.13
289.244	8432.73
289.311	8455.39
289.379	8462.99
289.446	8467.8
289.514	8465.54
289.581	8461.64
289.649	8463.04
289.716	8467.56
289.783	8461.26
289.851	8476.61
289.918	8474.88
289.986	8482.86
290.053	8490.08
290.121	8489.26
290.188	8493.55
290.255	8523.72
290.323	8519.39
290.39	8515.59
290.458	8516.41
290.525	8531.51
290.592	8524.2
290.66	8526.17
290.727	8512.07
290.794	8530.22
290.862	8532.96
290.929	8541.38
290.996	8548.7
291.064	8556.64
291.131	8569.39
291.198	8581.56
291.266	8590.13
291.333	8594.27
291.4	8601.2
291.468	8615.83
291.535	8612.22
291.602	8614.53
291.669	8607.7
291.737	8612.61
291.804	8609.43
291.871	8629.55
291.938	8643.17
292.006	8676.86
292.073	8692.22
292.14	8714.07
292.207	8697.56
292.275	8700.35
292.342	8704.78
292.409	8733.47
292.476	8761.92
292.543	8758.79
292.611	8760.47
292.678	8773.56
292.745	8793.1
292.812	8794.26
292.879	8786.41
292.946	8793.01
293.014	8810.57
293.081	8819
293.148	8836.23
293.215	8855.29
293.282	8849.47
293.349	8855.82
293.416	8827.71
293.484	8840.99
293.551	8851.39
293.618	8878.87
293.685	8901.88
293.752	8896.69
293.819	8891.82
293.886	8872.66
293.953	8876.51
294.02	8891.34
294.087	8893.02
294.154	8894.18
294.221	8919.46
294.288	8927.59
294.356	8945.3
294.423	8950.46
294.49	8945.98
294.557	8959.41
294.624	8946.32
294.691	8974.72
294.758	8975.39
294.825	8991.33
294.892	8984.83
294.959	8980.06
295.026	8983.19
295.093	8974.96
295.16	8979.77
295.226	8978.81
295.293	9009.38
295.36	9018.43
295.427	9022.86
295.494	9040.53
295.561	9052.85
295.628	9071.06
295.695	9084.15
295.762	9088
295.829	9098.06
295.896	9114.38
295.963	9117.99
296.03	9131.42
296.096	9128.68
296.163	9141.73
296.23	9155.98
296.297	9166.67
296.364	9165.85
296.431	9175.86
296.498	9169.08
296.564	9193.53
296.631	9196.18
296.698	9180.63
296.765	9197.62
296.832	9191.75
296.899	9174.75
296.965	9190.69
297.032	9169.07
297.099	9181.2
297.166	9190.16
297.233	9181.54
297.299	9172.44
297.366	9171.67
297.433	9174.85
297.5	9185.49
297.566	9182.26
297.633	9179.13
297.7	9181.83
297.767	9184.72
297.833	9187.13
297.9	9193.62
297.967	9173.84
298.033	9189.1
298.1	9217.32
298.167	9213.13
298.234	9220.21
298.3	9232.82
298.367	9228.01
298.434	9233.01
298.5	9223.09
298.567	9218.09
298.634	9218.47
298.7	9241
298.767	9244.86
298.834	9257.86
298.9	9254.58
298.967	9248.18
299.033	9254.82
299.1	9268.79
299.167	9281.98
299.233	9277.26
299.3	9293.34
299.366	9316.4
299.433	9329.74
299.5	9303.55
299.566	9309.23
299.633	9321.94
299.699	9330.71
299.766	9327.43
299.832	9335.04
299.899	9349.49
299.965	9363.26
300.032	9360.42
300.099	9365.62
300.165	9375.2
300.232	9380.3
300.298	9378.47
300.365	9394.41
300.431	9396.87
300.498	9390.94
300.564	9394.8
300.631	9409
300.697	9422.97
300.763	9419.89
300.83	9416.85
300.896	9432.89
300.963	9440.54
301.029	9448.78
301.096	9456.29
301.162	9467.46
301.229	9467.32
301.295	9453.16
301.361	9456.1
301.428	9469.63
301.494	9456.43
301.561	9454.8
301.627	9449.74
301.693	9452.15
301.76	9461.01
301.826	9459.37
301.892	9475.51
301.959	9489.09
302.025	9484.13
302.092	9479.94
302.158	9494.91
302.224	9499.87
302.291	9494.09
302.357	9488.99
302.423	9484.8
302.49	9475.36
302.556	9487.21
302.622	9479.65
302.688	9501.56
302.755	9517.84
302.821	9523.86
302.887	9535.75
302.954	9535.46
303.02	9548.71
303.086	9554.39
303.152	9546.01
303.219	9541.14
303.285	9540.04
303.351	9543.84
303.417	9547.5
303.483	9538.88
303.55	9525.45
303.616	9521.5
303.682	9520.1
303.748	9514.23
303.815	9529.54
303.881	9541.34
303.947	9527.13
304.013	9531.95
304.079	9514.03
304.145	9490.19
304.212	9483.5
304.278	9478.73
304.344	9478.2
304.41	9464.58
304.476	9455.57
304.542	9454.8
304.608	9467.56
304.674	9452.2
304.741	9447.33
304.807	9451.91
304.873	9460.14
304.939	9481.72
305.005	9465.44
305.071	9458.94
305.137	9459.76
305.203	9430.67
305.269	9425.33
305.335	9437.99
305.401	9434.29
305.467	9443.05
305.533	9453.98
305.599	9464.19
305.666	9469.78
305.732	9468.96
305.798	9484.85
305.864	9515.72
305.93	9519.62
305.996	9515.58
306.062	9517.4
306.128	9511.67
306.194	9494.1
306.259	9487.5
306.325	9474.21
306.391	9487.5
306.457	9501.08
306.523	9502.23
306.589	9528.72
306.655	9519.76
306.721	9501.61
306.787	9491.21
306.853	9499.3
306.919	9481.77
306.985	9470.89
307.051	9460.44
307.117	9450.81
307.183	9439.92
307.248	9411.32
307.314	9416.13
307.38	9418.3
307.446	9422.54
307.512	9415.79
307.578	9423.98
307.644	9419.17
307.709	9420.22
307.775	9412.09
307.841	9409.1
307.907	9410.59
307.973	9385.41
308.039	9387
308.104	9388.73
308.17	9395.13
308.236	9382.27
308.302	9387.91
308.368	9378.71
308.433	9381.36
308.499	9383.09
308.565	9375.15
308.631	9377.6
308.696	9358.1
308.762	9346.64
308.828	9347.03
308.894	9329.98
308.959	9303.74
309.025	9292.86
309.091	9286.65
309.156	9282.65
309.222	9284.24
309.288	9275.09
309.354	9259.88
309.419	9257.61
309.485	9248.08
309.551	9254.77
309.616	9234.6
309.682	9227.91
309.748	9217.08
309.813	9212.26
309.879	9204.46
309.945	9195.79
310.01	9187.22
310.076	9193.05
310.141	9183.81
310.207	9166.76
310.273	9170.56
310.338	9179.08
310.404	9159.68
310.469	9149.86
310.535	9139.46
310.601	9114.81
310.666	9119.43
310.732	9127.62
310.797	9115.87
310.863	9104.02
310.928	9092.32
310.994	9096.56
311.059	9099.16
311.125	9101.66
311.191	9110.96
311.256	9098.83
311.322	9098.2
311.387	9083.42
311.453	9447.49
311.518	9423.71
311.584	9424.38
311.649	9427.8
311.715	9420.15
311.78	9436.71
311.846	9424.33
311.911	9427.03
311.976	9432.13
312.042	9418.6
312.107	9408.21
312.173	9405.51
312.238	9404.4
312.304	9400.45
312.369	9392.41
312.434	9373.64
312.5	9369.93
312.565	9334.55
312.631	9337
312.696	9325.69
312.761	9328.53
312.827	8947.51
312.892	8987.38
312.958	8981.98
313.023	8981.07
313.088	8980.64
313.154	8961.09
313.219	8955.12
313.284	8943.43
313.35	8937.17
313.415	8924.36
313.48	8913.34
313.546	8910.36
313.611	8917.82
313.676	8903.18
313.741	8892.88
313.807	8902.94
313.872	8903.81
313.937	8917.38
314.003	8931.2
314.068	8939.48
314.133	8947.81
314.198	8940.01
314.264	8919.21
314.329	8909.63
314.394	8903.42
314.459	8896.87
314.525	8913.96
314.59	8907.37
314.655	8894.8
314.72	8904.29
314.785	8902.6
314.851	8898.51
314.916	8877.72
314.981	8867.9
315.046	8863.9
315.111	8857.12
315.176	8844.07
315.242	8850.52
315.307	8845.66
315.372	8823.33
315.437	8809.8
315.502	8794.59
315.567	8803.69
315.632	8787.95
315.698	8794.97
315.763	8786.16
315.828	8779.91
315.893	8779.43
315.958	8779.43
316.023	8774.61
316.088	8752.47
316.153	8734.23
316.218	8729.9
316.283	8713.45
316.348	8691.21
316.413	8689.57
316.479	8674.42
316.544	8642.08
316.609	8604.35
316.674	8567.63
316.739	8538.14
316.804	8512.58
316.869	8479.91
316.934	8439.15
316.999	8409.85
317.064	8355.43
317.129	8312.8
317.194	8281.47
317.259	8233.31
317.324	8177.36
317.389	8136.09
317.454	8095.87
317.518	8066.91
317.583	8046.08
317.648	8031.41
317.713	7997.64
317.778	7938.33
317.843	7912.74
317.908	7878.41
317.973	7842.53
318.038	7810.7
318.103	7770.12
318.168	7739.43
318.233	7710.15
318.297	7664.33
318.362	7628.21
318.427	7588.65
318.492	7568.26
318.557	7516.5
318.622	7487.45
318.687	7470.44
318.751	7433.53
318.816	7399.83
318.881	7366.62
318.946	7307.83
319.011	7263.36
319.075	7221.41
319.14	7182.78
319.205	7132.99
319.27	7101.28
319.335	7056.69
319.399	7019.21
319.464	6993.56
319.529	6937.11
319.594	6897.18
319.658	6872.16
319.723	6831.04
319.788	6805.58
319.853	6747.89
319.917	6722.34
319.982	6668.26
320.047	6632.14
320.112	6605.1
320.176	6554.78
320.241	6522.17
320.306	6495.53
320.37	6453.23
320.435	6427.35
320.5	6403.54
320.564	6372.34
320.629	6330.68
320.694	6301.4
320.758	6259.07
320.823	6215.4
320.888	6191.26
320.952	6142.99
321.017	6097.73
321.082	6059.35
321.146	6024.95
321.211	5995.39
321.275	5954.48
321.34	5913.66
321.405	5870.54
321.469	5825.93
321.534	5787.43
321.598	5735.73
321.663	5704.98
321.727	5673.57
321.792	5623.36
321.857	5579.58
321.921	5539.17
321.986	5496.66
322.05	5440.92
322.115	5406.89
322.179	5363.05
322.244	5306.51
322.308	5276.08
322.373	5232.05
322.437	5188.64
322.502	5165.68
322.566	5117.97
322.631	5083.96
322.695	5044.64
322.76	4998.43
322.824	4957.48
322.889	4915.4
322.953	4871.6
323.018	4804.18
323.082	4741.57
323.146	4686.39
323.211	4633.99
323.275	4589.71
323.34	4546.08
323.404	4514.12
323.468	4468.47
323.533	4429.34
323.597	4387.98
323.662	4334.31
323.726	4299.44
323.79	4253.34
323.855	4181.57
323.919	4135.43
323.983	4090.01
324.048	4023.64
324.112	4175.63
324.177	4051.55
324.241	3844.26
324.305	3639.12
324.37	3438.62
324.434	3244.09
324.498	3204.71
324.562	3156.38
324.627	3096.26
324.691	3041.58
324.755	2974.68
324.82	2900.6
324.884	2819.09
324.948	2744.49
325.012	2651.27
325.077	2526.41
