Data from 20250704_urea_0.1M_MAYP1162681_11-27-57-647.txt Node
Date: Fri Jul 04 11:27:57 BST 2025
User: adleo
Spectrometer: MAYP116268
Trigger mode: 0
Integration Time (sec): 1.000000E0
Scans to average: 1
Electric dark correction enabled: true
Nonlinearity correction enabled: true
Boxcar width: 10
XAxis mode: Wavelengths
Number of Pixels in Spectrum: 2068
>>>>>Begin Spectral Data<<<<<
179.565	1237.94
179.642	1299.21
179.718	1343.53
179.795	1384.8
179.871	1418.44
179.948	1437.14
180.024	1458.81
180.101	1481.95
180.177	1496.61
180.254	1522.69
180.33	1545.05
180.407	1600.27
180.483	1697.42
180.56	1792.59
180.636	1880.14
180.712	1867.97
180.789	1878.05
180.865	1889.02
180.942	1898.34
181.018	1908.94
181.095	1924.16
181.171	1931.01
181.248	1931.58
181.324	1947.7
181.4	1955.93
181.477	1967.96
181.553	1984.12
181.63	2005.57
181.706	2021.26
181.782	2031.67
181.859	2030.2
181.935	2038.14
182.011	2034.57
182.088	2052.74
182.164	2070.82
182.24	2083.85
182.317	2094.83
182.393	2094.26
182.469	2108.63
182.546	2120.09
182.622	2128.98
182.698	2123.13
182.775	2136.79
182.851	2152.86
182.927	2144.25
183.003	2138.12
183.08	2131.7
183.156	2137.65
183.232	2133.32
183.308	2121.28
183.385	2127.7
183.461	2143.59
183.537	2143.21
183.613	2157.2
183.69	2149.73
183.766	2140.49
183.842	2148.91
183.918	2156.72
183.995	2168.23
184.071	2175.6
184.147	2168.99
184.223	2154.39
184.299	2168.19
184.375	2155.49
184.452	2160.49
184.528	2211.45
184.604	2222.2
184.68	2236.56
184.756	2245.75
184.832	2251.98
184.908	2256.79
184.985	2257.21
185.061	2244.89
185.137	2255.31
185.213	2244.04
185.289	2245.27
185.365	2237.38
185.441	2235.05
185.517	2245.71
185.593	2244.71
185.669	2241.09
185.745	2253.75
185.822	2273.82
185.898	2264.06
185.974	2272.34
186.05	2264.49
186.126	2230.66
186.202	2227.04
186.278	2220.95
186.354	2213.29
186.43	2221.28
186.506	2222.05
186.582	2219.76
186.658	2224.19
186.734	2201.45
186.81	2204.21
186.886	2205.82
186.962	2218.67
187.038	2220.38
187.114	2212.96
187.19	2219.43
187.266	2207.77
187.341	2209.68
187.417	2202.83
187.493	2200.35
187.569	2204.54
187.645	2197.31
187.721	2185.6
187.797	2192.45
187.873	2198.83
187.949	2192.31
188.025	2182.12
188.101	2185.6
188.176	2189.4
188.252	2185.83
188.328	2196.49
188.404	2196.82
188.48	2193.39
188.556	2184.5
188.632	2178.79
188.707	2178.83
188.783	2175.74
188.859	2170.61
188.935	2157.09
189.011	2163.8
189.086	2161.71
189.162	2154.05
189.238	2150.53
189.314	2147.01
189.39	2141.96
189.465	2131.83
189.541	2146.01
189.617	2131.31
189.693	2124.51
189.768	2129.36
189.844	2154.26
189.92	2143.84
189.996	2154.12
190.071	2166.3
190.147	2164.92
190.223	2175.15
190.298	2168.3
190.374	2156.98
190.45	2168.72
190.526	2179.67
190.601	2173.82
190.677	2171.82
190.753	2200.76
190.828	2208.18
190.904	2225.74
190.98	2238.59
191.055	2252.39
191.131	2245.68
191.207	2268.8
191.282	2278.41
191.358	2270.42
191.433	2251.33
191.509	2266.26
191.585	2261.93
191.66	2260.6
191.736	2271.16
191.811	2260.41
191.887	2276.78
191.963	2297.48
192.038	2305.71
192.114	2305.71
192.189	2308.86
192.265	2308.52
192.34	2284.05
192.416	2281.67
192.491	2274.15
192.567	2278.58
192.642	2280.05
192.718	2278.01
192.793	2264.02
192.869	2261.64
192.944	2265.92
193.02	2277.82
193.095	2281.58
193.171	2287.38
193.246	2287.34
193.322	2283.62
193.397	2284.38
193.473	2269.77
193.548	2251.69
193.624	2254.02
193.699	2252.31
193.775	2267.92
193.85	2268.06
193.925	2278.39
194.001	2277.06
194.076	2273.87
194.152	2262.63
194.227	2254.21
194.302	2247.12
194.378	2252.07
194.453	2247.27
194.529	2260.21
194.604	2243.94
194.679	2234.37
194.755	2215.3
194.83	2228.11
194.905	2226.2
194.981	2236.77
195.056	2230.15
195.131	2239.29
195.207	2242.91
195.282	2232.54
195.357	2213.59
195.433	2230.77
195.508	2217.4
195.583	2222.44
195.659	2234.05
195.734	2241.91
195.809	2243.38
195.884	2249.52
195.96	2248.9
196.035	2266.46
196.11	2260.36
196.185	2274.26
196.261	2283.11
196.336	2314.61
196.411	2299.28
196.486	2304.61
196.561	2299.04
196.637	2309.7
196.712	2325.41
196.787	2323.32
196.862	2339.12
196.937	2347.78
197.013	2354.87
197.088	2367.91
197.163	2394.34
197.238	2414.39
197.313	2411.92
197.388	2423.44
197.464	2456.1
197.539	2467.62
197.614	2460.39
197.689	2472.53
197.764	2489.01
197.839	2508.43
197.914	2503.91
197.989	2527.72
198.065	2545.1
198.14	2595.85
198.215	2619.18
198.29	2631.05
198.365	2645.96
198.44	2656.77
198.515	2686.78
198.59	2702.31
198.665	2727.41
198.74	2736.04
198.815	2734.76
198.89	2761.19
198.965	2794.22
199.04	2790.17
199.115	2807.66
199.19	2848.68
199.265	2851.72
199.34	2857.82
199.415	2891.73
199.49	2912.21
199.565	2922.84
199.64	2945.01
199.715	2941.62
199.79	2952.49
199.865	2962.26
199.94	2961.69
200.015	2996.31
200.09	3000.07
200.165	3005.03
200.24	3011.47
200.315	3050.84
200.39	3067.53
200.464	3071.01
200.539	3072.44
200.614	3090.51
200.689	3115.88
200.764	3121.22
200.839	3142.72
200.914	3152.06
200.989	3142.76
201.063	3158.4
201.138	3139.44
201.213	3142.49
201.288	3125.56
201.363	3131
201.438	3126.9
201.512	3143.82
201.587	3125.79
201.662	3134.04
201.737	3147.87
201.812	3161.23
201.886	3127.48
201.961	3138.08
202.036	3127.87
202.111	3122.29
202.186	3093.32
202.26	3077.43
202.335	3061.46
202.41	3056.35
202.485	3040.77
202.559	3022.84
202.634	2999.47
202.709	3014.24
202.784	2995.89
202.858	3001.37
202.933	2985.45
203.008	2986.45
203.082	2970.72
203.157	2975.77
203.232	2940.88
203.306	2929.01
203.381	2903.83
203.456	2892.24
203.53	2881.31
203.605	2875.17
203.68	2868.25
203.754	2877.35
203.829	2877.4
203.904	2875.45
203.978	2881.55
204.053	2908.16
204.127	2916.88
204.202	2940.86
204.277	2949.3
204.351	2970.24
204.426	2990.94
204.5	3014.35
204.575	3012.06
204.65	3058.53
204.724	3089.84
204.799	3141
204.873	3182.2
204.948	3229.44
205.022	3265.55
205.097	3311.68
205.171	3380.55
205.246	3449.56
205.32	3512.75
205.395	3579.81
205.469	3640.53
205.544	3719.81
205.618	3778.3
205.693	3869.28
205.767	3935.37
205.842	4039.83
205.916	4123.54
205.991	4206.81
206.065	4309.93
206.14	4428.59
206.214	4531.76
206.289	4634.59
206.363	4751.53
206.438	4863.08
206.512	4980.03
206.586	5121.17
206.661	5250.31
206.735	5352.49
206.81	5479.23
206.884	5627.8
206.958	5746.03
207.033	5895.39
207.107	6042.83
207.181	6225.13
207.256	6368.22
207.33	6533
207.405	6695.56
207.479	6866.29
207.553	7031.62
207.628	7181.36
207.702	7350.94
207.776	7502.21
207.851	7668.55
207.925	7856.63
207.999	8021.39
208.073	8196.32
208.148	8373.13
208.222	8538.42
208.296	8752.19
208.371	8944.69
208.445	9132.62
208.519	9343.75
208.593	9541.96
208.668	9721.01
208.742	9902.71
208.816	10090.16
208.89	10292.37
208.965	10477.23
209.039	10669.7
209.113	10864.92
209.187	11063.76
209.261	11250.18
209.336	11462.31
209.41	11672.76
209.484	11861.36
209.558	12074.52
209.632	12269.09
209.707	12470.18
209.781	12687.62
209.855	12884.86
209.929	13088.37
210.003	13278.58
210.077	13459.45
210.151	13689.13
210.226	13900.7
210.3	14102.77
210.374	14300.7
210.448	14477.75
210.522	14667.24
210.596	14853.55
210.67	15043.56
210.744	15269.34
210.818	15466.77
210.892	15661.84
210.966	15825.43
211.041	16012.64
211.115	16174.54
211.189	16369.6
211.263	16542.39
211.337	16706.21
211.411	16882.22
211.485	17036.44
211.559	17206.81
211.633	17366.58
211.707	17498.82
211.781	17667.01
211.855	17778.72
211.929	17917.86
212.003	18063.93
212.077	18231.15
212.151	18397.08
212.225	18556.98
212.299	18698.8
212.373	18833.98
212.447	18966.69
212.52	19134.64
212.594	19274.34
212.668	19431.06
212.742	19548.6
212.816	19677.51
212.89	19795.96
212.964	19921.98
213.038	20054.61
213.112	20193.07
213.186	20343.38
213.26	20437.45
213.333	20512.58
213.407	20644.54
213.481	20776.44
213.555	20899.38
213.629	20995.73
213.703	21098.29
213.777	21210.6
213.85	21295.62
213.924	21448.51
213.998	21567.77
214.072	21666.44
214.146	21752.82
214.219	21845.61
214.293	21944.03
214.367	22055.53
214.441	22170.21
214.515	22262.92
214.588	22332.82
214.662	22392.93
214.736	22461.68
214.81	22563.54
214.883	22662.94
214.957	22741.62
215.031	22812.29
215.105	22875.25
215.178	22938.27
215.252	23010.78
215.326	23058.86
215.4	23112.33
215.473	23137.26
215.547	23175.83
215.621	23236.89
215.694	23314.19
215.768	23362.21
215.842	23425.96
215.915	23482.2
215.989	23517.74
216.063	23577.16
216.136	23646.56
216.21	23709.78
216.284	23777.64
216.357	23836.86
216.431	23894.06
216.504	23953.29
216.578	24032.2
216.652	24103.38
216.725	24161.6
216.799	24219.92
216.873	24274.86
216.946	24332.54
217.02	24369.35
217.093	24417.68
217.167	24443.29
217.24	24471.76
217.314	24516.09
217.387	24550.67
217.461	24582.9
217.535	24643.01
217.608	24669.98
217.682	24709.01
217.755	24762.42
217.829	24795.57
217.902	24844.3
217.976	24883
218.049	24923.82
218.123	24947.41
218.196	24986.74
218.27	25027.17
218.343	25045.36
218.417	25086.04
218.49	25130.34
218.563	25187.03
218.637	25230.95
218.71	25281.42
218.784	25323.11
218.857	25369.1
218.931	25409.11
219.004	25439.22
219.077	25472.23
219.151	25504.85
219.224	25536.71
219.298	25568.47
219.371	25610.36
219.444	25621.9
219.518	25648.78
219.591	25676.58
219.665	25736.97
219.738	25761.44
219.811	25777.9
219.885	25817.14
219.958	25849.09
220.031	25863.04
220.105	25895.62
220.178	25913.58
220.251	25936.22
220.325	25970.4
220.398	26001.34
220.471	26029.05
220.544	26053.04
220.618	26063.03
220.691	26092.58
220.764	26107.06
220.838	26120.58
220.911	26129.27
220.984	26171.99
221.057	26195.21
221.131	26206.6
221.204	26183.77
221.277	26226.69
221.35	26276.22
221.424	26273.86
221.497	26290.18
221.57	26316.92
221.643	26317.26
221.716	26339.86
221.79	26333.05
221.863	26320.4
221.936	26318.42
222.009	26316.34
222.082	26331.99
222.155	26339.66
222.229	26348.64
222.302	26354.78
222.375	26360.57
222.448	26363.85
222.521	26352.36
222.594	26343.28
222.667	26336.48
222.74	26348.02
222.814	26333.82
222.887	26318.75
222.96	26339.76
223.033	26336.91
223.106	26328.55
223.179	26340.72
223.252	26332.85
223.325	26350.04
223.398	26361.09
223.471	26358.58
223.544	26360.03
223.617	26359.79
223.69	26352.07
223.763	26331.26
223.837	26327.4
223.91	26324.79
223.983	26304.9
224.056	26291.82
224.129	26292.2
224.202	26301.71
224.275	26290.12
224.348	26266.61
224.42	26229.63
224.493	26203.32
224.566	26192.99
224.639	26180.92
224.712	26152.87
224.785	26136.84
224.858	26103.05
224.931	26076.64
225.004	26061.24
225.077	26049.85
225.15	25999.93
225.223	25977.92
225.296	25991.78
225.369	25962.86
225.442	25928.4
225.514	25917.54
225.587	25901.66
225.66	25887.51
225.733	25863.14
225.806	25843.25
225.879	25819.11
225.952	25798.26
226.025	25778.72
226.097	25759.21
226.17	25734.07
226.243	25704
226.316	25685.12
226.389	25665.87
226.461	25654.38
226.534	25626.29
226.607	25589.61
226.68	25592.02
226.753	25571.22
226.825	25513.93
226.898	25499.55
226.971	25477.97
227.044	25447.18
227.117	25424.98
227.189	25396.32
227.262	25378.89
227.335	25360.6
227.407	25330.83
227.48	25321.56
227.553	25301.15
227.626	25264.18
227.698	25238.27
227.771	25217.09
227.844	25184.13
227.916	25162.75
227.989	25119.9
228.062	25082.65
228.134	25074.55
228.207	25040.04
228.28	25015.87
228.352	24996.91
228.425	24975.1
228.498	24952.52
228.57	24917.3
228.643	24893.75
228.716	24863.69
228.788	24832.28
228.861	24791.03
228.934	24779.79
229.006	24745.82
229.079	24709.97
229.151	24667.23
229.224	24616.34
229.296	24580.35
229.369	24570.02
229.442	24549.67
229.514	24514.98
229.587	24495.3
229.659	24449.42
229.732	24422.02
229.804	24395.01
229.877	24388.35
229.949	24363.12
230.022	24354.92
230.094	24333.94
230.167	24303.54
230.239	24267.46
230.312	24233.84
230.384	24227.38
230.457	24197.66
230.529	24167.18
230.602	24135.06
230.674	24119.62
230.747	24112.92
230.819	24096.52
230.892	24021.91
230.964	23990.41
231.037	23967.07
231.109	23940.35
231.181	23913.15
231.254	23862.61
231.326	23818.96
231.399	23767.45
231.471	23723.8
231.544	23660.71
231.616	23633.13
231.688	23599.61
231.761	23551.44
231.833	23516.23
231.905	23449.2
231.978	23401.75
232.05	23357.86
232.122	23334.04
232.195	23295.51
232.267	23269.71
232.339	23222.36
232.412	23217.63
232.484	23178.14
232.556	23138.41
232.629	23119.46
232.701	23096.75
232.773	23071.77
232.846	23042.36
232.918	23017.67
232.99	22981.22
233.062	22958.8
233.135	22928.91
233.207	22888.5
233.279	22871.58
233.351	22842.26
233.424	22807.07
233.496	22765.13
233.568	22753.99
233.64	22701.73
233.713	22662.15
233.785	22620.15
233.857	22590.36
233.929	22543.16
234.001	22521.51
234.074	22489.65
234.146	22425.67
234.218	22390.43
234.29	22344.97
234.362	22289.73
234.434	22233.08
234.507	22182.56
234.579	22127.56
234.651	22067.5
234.723	22022.14
234.795	21985.89
234.867	21934.64
234.939	21911.07
235.012	21881.33
235.084	21845.37
235.156	21813.27
235.228	21777.11
235.3	21734.17
235.372	21701.15
235.444	21673.38
235.516	21612.94
235.588	21580.54
235.66	21544.59
235.732	21484.82
235.804	21507.76
235.876	21484.58
235.948	21457.06
236.02	21421.34
236.092	21385.68
236.164	21360.42
236.236	21320.9
236.308	21272.03
236.38	21234.97
236.452	21178.33
236.524	21144.26
236.596	21118.23
236.668	21082.61
236.74	21038.32
236.812	21001.26
236.884	20963.81
236.956	20917.69
237.028	20861.35
237.1	20809.83
237.172	20793.15
237.244	20773.87
237.316	20692.56
237.388	20643.94
237.46	20589.24
237.532	20555.69
237.604	20499.89
237.675	20462.49
237.747	20422.25
237.819	20378.2
237.891	20328.85
237.963	20289.62
238.035	20240.9
238.107	20158.4
238.178	20130.54
238.25	20083.31
238.322	20069.14
238.394	20004.09
238.466	19960.67
238.538	19932.43
238.609	19897.68
238.681	19824.53
238.753	19772.48
238.825	19735.71
238.897	19704.43
238.968	19676.1
239.04	19628.1
239.112	19624.87
239.184	19575.28
239.255	19534.23
239.327	19496.97
239.399	19463.05
239.471	19423.82
239.542	19382.43
239.614	19358.38
239.686	19285.76
239.758	19256.22
239.829	19191.06
239.901	19166.25
239.973	19122.44
240.044	19091.36
240.116	19046.11
240.188	19009.2
240.259	18965.58
240.331	18912.29
240.403	18869.98
240.474	18818.89
240.546	18774.95
240.618	18707.96
240.689	18665.07
240.761	18631.34
240.833	18600.21
240.904	18553.46
240.976	18512.55
241.048	18476.46
241.119	18445.33
241.191	18418.53
241.262	18393.14
241.334	18351.45
241.405	18311.5
241.477	18266.97
241.549	18221.29
241.62	18185.15
241.692	18154.5
241.763	18130.98
241.835	18090.64
241.906	18052.57
241.978	18003.18
242.049	17966.99
242.121	17929.93
242.192	17906.41
242.264	17851.18
242.335	17787.86
242.407	17763.13
242.478	17720.48
242.55	17680.82
242.621	17627.14
242.693	17583.67
242.764	17537.55
242.836	17496.01
242.907	17459.77
242.979	17422.71
243.05	17385.84
243.122	17350.9
243.193	17314.27
243.264	17251.09
243.336	17211.91
243.407	17182.13
243.479	17158.46
243.55	17139.67
243.622	17110.27
243.693	17067.57
243.764	17041.54
243.836	16999.08
243.907	16960.19
243.978	16922.07
244.05	16884.62
244.121	16826.98
244.192	16794.74
244.264	16742.83
244.335	16701.24
244.407	16639.93
244.478	16601.81
244.549	16558.38
244.62	16501.94
244.692	16455.24
244.763	16421.89
244.834	16379.67
244.906	16326.65
244.977	16290.99
245.048	16259.66
245.119	16216.91
245.191	16173.77
245.262	16117.52
245.333	16103.45
245.405	16062.92
245.476	16036.74
245.547	16007.97
245.618	15985.56
245.689	15945.5
245.761	15908.97
245.832	15874.94
245.903	15863.52
245.974	15842.5
246.045	15806.06
246.117	15792.71
246.188	15750.83
246.259	15709.66
246.33	15679.54
246.401	15649.75
246.473	15603.38
246.544	15557.64
246.615	15533.1
246.686	15494.74
246.757	15477.67
246.828	15431.88
246.899	15410.82
246.97	15365.12
247.042	15310.7
247.113	15286.79
247.184	15278.12
247.255	15247.85
247.326	15214.97
247.397	15173.23
247.468	15135.39
247.539	15107.34
247.61	15065.4
247.681	15043.42
247.752	15027.17
247.823	14983.36
247.894	14951.06
247.965	14909.61
248.037	14875.67
248.108	14825.2
248.179	14785.96
248.25	14754.49
248.321	14727.39
248.392	14679.96
248.463	14666.99
248.534	14640.1
248.605	14619.18
248.675	14581
248.746	14545.13
248.817	14520.55
248.888	14495.72
248.959	14452.48
249.03	14427.95
249.101	14398.64
249.172	14361.28
249.243	14305.94
249.314	14290.85
249.385	14262.89
249.456	14239.32
249.527	14210.06
249.598	14186.97
249.669	14165.42
249.739	14141.85
249.81	14123.87
249.881	14086.51
249.952	14061.1
250.023	14032.47
250.094	13980.98
250.165	13949.7
250.235	13928.49
250.306	13903.61
250.377	13867.27
250.448	13841.86
250.519	13792.45
250.59	13777.46
250.66	13745.11
250.731	13736.34
250.802	13713.39
250.873	13693.05
250.944	13669.43
251.014	13631.92
251.085	13628.55
251.156	13600.35
251.227	13587.62
251.297	13574.46
251.368	13560.77
251.439	13541.2
251.51	13527.22
251.58	13494.48
251.651	13461.95
251.722	13445.8
251.792	13403.81
251.863	13369.39
251.934	13359.07
252.005	13366.06
252.075	13336.95
252.146	13329.28
252.217	13321.38
252.287	13306.86
252.358	13274.52
252.429	13272.45
252.499	13246.08
252.57	13230.31
252.641	13220.29
252.711	13187.17
252.782	13144.17
252.852	13139.2
252.923	13112.5
252.994	13093.02
253.064	13083.77
253.135	13049.68
253.205	13015.41
253.276	13007.89
253.347	13004.42
253.417	12971.83
253.488	12948.64
253.558	12918.9
253.629	12887.33
253.699	12866.94
253.77	12843.36
253.841	12817.96
253.911	12797.23
253.982	12775.1
254.052	12751.72
254.123	12731.53
254.193	12712.73
254.264	12730.95
254.334	12694.41
254.405	12654.88
254.475	12625.04
254.546	12604.79
254.616	12599.35
254.687	12586
254.757	12566.86
254.827	12540.15
254.898	12522.32
254.968	12489.78
255.039	12464.47
255.109	12457.96
255.18	12422.58
255.25	12375.97
255.321	12360.93
255.391	12320.34
255.461	12324.44
255.532	12281.59
255.602	12246.3
255.673	12202.92
255.743	12162.96
255.813	12116.59
255.884	12111.09
255.954	12097.36
256.024	12091.72
256.095	12073.93
256.165	12040.72
256.235	12029.34
256.306	12006.11
256.376	11995.75
256.446	11986.88
256.517	11981.24
256.587	11969.09
256.657	11950.29
256.728	11938
256.798	11925.08
256.868	11905.9
256.938	11874.91
257.009	11864.3
257.079	11862.04
257.149	11870.81
257.219	11835.38
257.29	11826.9
257.36	11788.39
257.43	11779.95
257.5	11737.4
257.571	11705.82
257.641	11695.61
257.711	11655.75
257.781	11644.37
257.852	11632.71
257.922	11589.62
257.992	11564.27
258.062	11539.78
258.132	11527.88
258.202	11507.92
258.273	11482.86
258.343	11478.28
258.413	11457.75
258.483	11436.45
258.553	11403
258.623	11377.65
258.693	11356.44
258.764	11356.68
258.834	11351.72
258.904	11325.55
258.974	11305.07
259.044	11285.69
259.114	11270.46
259.184	11263.86
259.254	11241.93
259.324	11200.78
259.394	11196.53
259.464	11191.91
259.535	11164.25
259.605	11142.9
259.675	11119.57
259.745	11108.83
259.815	11077.6
259.885	11049.26
259.955	11059.43
260.025	11030.42
260.095	11005.56
260.165	10995.44
260.235	10996.98
260.305	10970.09
260.375	10947.97
260.445	10948.6
260.515	10947.15
260.585	10943.25
260.655	10926.19
260.725	10922.28
260.795	10912.26
260.865	10911.92
260.934	10894.09
261.004	10890.67
261.074	10876.22
261.144	10882.48
261.214	10878.19
261.284	10865.57
261.354	10860.7
261.424	10834.82
261.494	10843.2
261.564	10830.39
261.634	10829.47
261.703	10788.51
261.773	10779.45
261.843	10769.19
261.913	10750.49
261.983	10717.15
262.053	10703.13
262.123	10678.41
262.192	10645.6
262.262	10645.16
262.332	10614.47
262.402	10598.95
262.472	10583.63
262.541	10540.22
262.611	10528.03
262.681	10498.35
262.751	10493.53
262.821	10468.87
262.89	10433.11
262.96	10417.89
263.03	10422.95
263.1	10411.14
263.169	10395.68
263.239	10390.91
263.309	10395.73
263.379	10385.32
263.448	10374.48
263.518	10370.43
263.588	10357.09
263.657	10360.17
263.727	10350.15
263.797	10335.07
263.867	10318.11
263.936	10286.6
264.006	10298.45
264.076	10282.12
264.145	10267.96
264.215	10245.94
264.285	10245.36
264.354	10214.92
264.424	10190.93
264.494	10161.88
264.563	10134.66
264.633	10143.43
264.702	10131.38
264.772	10091.78
264.842	10073.62
264.911	10063.55
264.981	10027.95
265.05	10012.06
265.12	9995.1
265.19	9983.34
265.259	9978.24
265.329	9970.82
265.398	9960.9
265.468	9971.3
265.537	9943.99
265.607	9935.51
265.676	9934.31
265.746	9925.73
265.815	9926.94
265.885	9917.79
265.955	9887.01
266.024	9871.36
266.094	9832.82
266.163	9829.5
266.232	9827.81
266.302	9812.06
266.371	9802.24
266.441	9790
266.51	9786.44
266.58	9768.62
266.649	9746.27
266.719	9742.37
266.788	9736.64
266.858	9743.09
266.927	9699.64
266.996	9692.61
267.066	9682.3
267.135	9656.49
267.205	9653.6
267.274	9643.39
267.343	9644.69
267.413	9640.84
267.482	9639.3
267.552	9641.32
267.621	9614.64
267.69	9590.32
267.76	9579.19
267.829	9572.69
267.898	9557.57
267.968	9543.22
268.037	9539.03
268.106	9538.45
268.176	9512.59
268.245	9499.63
268.314	9483.31
268.384	9485.91
268.453	9477.67
268.522	9471.12
268.592	9471.41
268.661	9444.78
268.73	9441.8
268.799	9420.66
268.869	9424.41
268.938	9400.57
269.007	9382.23
269.076	9375.39
269.146	9372.65
269.215	9369.32
269.284	9376.21
269.353	9367.21
269.422	9354.3
269.492	9338.65
269.561	9297
269.63	9296.09
269.699	9274.42
269.768	9263.63
269.838	9252.13
269.907	9247.7
269.976	9225.93
270.045	9191.8
270.114	9190.88
270.183	9173.6
270.253	9170.71
270.322	9139.13
270.391	9124.83
270.46	9134.22
270.529	9131.04
270.598	9128.01
270.667	9118.57
270.736	9089.97
270.806	9081.25
270.875	9083.08
270.944	9066.38
271.013	9087.47
271.082	9073.89
271.151	9064.65
271.22	9036.15
271.289	9029.65
271.358	9016.75
271.427	9009.38
271.496	9008.71
271.565	8993.06
271.634	8988.78
271.703	9008.18
271.772	9016.6
271.841	9013.72
271.91	8988.49
271.979	8980.4
272.048	8961.1
272.117	8958.06
272.186	8948.39
272.255	8954.55
272.324	8947.33
272.393	8948.92
272.462	8931.2
272.531	8923.5
272.6	8919.12
272.669	8920.95
272.738	8904.77
272.807	8903.33
272.876	8882.39
272.945	8904.87
273.013	8905.59
273.082	8911.85
273.151	8866.12
273.22	8864.14
273.289	8854.61
273.358	8865.59
273.427	8851.1
273.496	8849.94
273.564	8846.53
273.633	8848.26
273.702	8820.63
273.771	8811.92
273.84	8801.43
273.909	8799.6
273.977	8796.28
274.046	8784.29
274.115	8791.8
274.184	8782.27
274.253	8769.85
274.322	8781.35
274.39	8744.24
274.459	8727.88
274.528	8700.3
274.597	8694.72
274.665	8688.07
274.734	8690.14
274.803	8676.62
274.872	8668.53
274.94	8655.15
275.009	8685.05
275.078	8670.08
275.147	8673.07
275.215	8666.42
275.284	8675.71
275.353	8671.53
275.421	8653.57
275.49	8672.78
275.559	8669.03
275.627	8660.08
275.696	8652.76
275.765	8651.22
275.833	8647.76
275.902	8648.86
275.971	8654.35
276.039	8674.08
276.108	8676.59
276.177	8678.9
276.245	8665.47
276.314	8662.34
276.383	8671.77
276.451	8634.7
276.52	8633.3
276.588	8646.54
276.657	8657.08
276.725	8647.41
276.794	8642.93
276.863	8650.87
276.931	8626.28
277	8627.91
277.068	8639.17
277.137	8655.63
277.205	8652.26
277.274	8671.32
277.342	8682.73
277.411	8663.86
277.48	8646.44
277.548	8637.59
277.617	8637.54
277.685	8634.17
277.754	8640.81
277.822	8630.22
277.89	8641.97
277.959	8641.54
278.027	8622.38
278.096	8602.74
278.164	8633.26
278.233	8625.9
278.301	8617.67
278.37	8615.7
278.438	8599.82
278.507	8597.6
278.575	8575.99
278.643	8571.9
278.712	8551.5
278.78	8537.69
278.849	8552.65
278.917	8563.14
278.985	8564.59
279.054	8565.07
279.122	8574.11
279.191	8568.15
279.259	8562.18
279.327	8539.89
279.396	8551.88
279.464	8550.96
279.532	8565.11
279.601	8557.65
279.669	8550.87
279.737	8560.68
279.806	8570.93
279.874	8588.79
279.942	8588.02
280.011	8585.08
280.079	8591.1
280.147	8609.39
280.215	8609.24
280.284	8600.34
280.352	8585.52
280.42	8586.24
280.488	8575.27
280.557	8569.2
280.625	8573.63
280.693	8572.76
280.761	8578.06
280.83	8561.16
280.898	8568.24
280.966	8548.75
281.034	8515.78
281.102	8500.43
281.171	8500.19
281.239	8507.8
281.307	8496.92
281.375	8488.4
281.443	8510.83
281.512	8508.9
281.58	8518.58
281.648	8506.12
281.716	8510.4
281.784	8515.16
281.852	8504.53
281.92	8506.55
281.989	8516.7
282.057	8503.61
282.125	8552.42
282.193	8546.84
282.261	8547.85
282.329	8545.54
282.397	8552.18
282.465	8550.21
282.533	8567.58
282.601	8550.83
282.67	8525.85
282.738	8510.6
282.806	8518.49
282.874	8500.88
282.942	8505.21
283.01	8498.9
283.078	8511.17
283.146	8510.88
283.214	8519.55
283.282	8528.3
283.35	8537.78
283.418	8532.54
283.486	8532.2
283.554	8486.47
283.622	8480.46
283.69	8480.22
283.758	8476.8
283.826	8477.72
283.894	8489.94
283.962	8512.17
284.03	8531.23
284.098	8528.39
284.165	8525.36
284.233	8529.16
284.301	8529.69
284.369	8522.47
284.437	8502.98
284.505	8494.32
284.573	8508.71
284.641	8493.74
284.709	8496.58
284.777	8478.44
284.845	8481.95
284.912	8489.65
284.98	8492.92
285.048	8493.69
285.116	8496.63
285.184	8509.33
285.252	8510.97
285.319	8498.41
285.387	8483.44
285.455	8464.19
285.523	8478.82
285.591	8479.59
285.659	8480.27
285.726	8492.39
285.794	8477.38
285.862	8480.7
285.93	8482.1
285.997	8473.1
286.065	8469.44
286.133	8467.37
286.201	8467.47
286.269	8462.56
286.336	8453.9
286.404	8452.36
286.472	8456.64
286.539	8436.38
286.607	8418.72
286.675	8417.9
286.743	8427.1
286.81	8425.89
286.878	8446.25
286.946	8434.02
287.013	8436.72
287.081	8430.66
287.149	8417.9
287.216	8439.03
287.284	8435.27
287.352	8434.94
287.419	8432.34
287.487	8448.7
287.555	8449.04
287.622	8453.9
287.69	8453.85
287.758	8470.79
287.825	8464.87
287.893	8462.46
287.96	8467.9
288.028	8480.17
288.096	8480.07
288.163	8486.52
288.231	8475.6
288.298	8464.96
288.366	8481.52
288.433	8475.21
288.501	8474.35
288.569	8474.35
288.636	8464.19
288.704	8478.53
288.771	8487.34
288.839	8478.1
288.906	8471.41
288.974	8479.21
289.041	8472.86
289.109	8468.72
289.176	8471.7
289.244	8474.54
289.311	8482.1
289.379	8496.97
289.446	8498.75
289.514	8503.9
289.581	8496.68
289.649	8507.12
289.716	8516.7
289.783	8509.86
289.851	8533.1
289.918	8532.43
289.986	8543.3
290.053	8553.27
290.121	8552.59
290.188	8555.29
290.255	8587.72
290.323	8582.33
290.39	8575.26
290.458	8584.35
290.525	8594.6
290.592	8597.64
290.66	8606.39
290.727	8598.41
290.794	8614.58
290.862	8616.41
290.929	8621.85
290.996	8622.42
291.064	8631.18
291.131	8642.16
291.198	8656.16
291.266	8656.45
291.333	8654.91
291.4	8655.39
291.468	8668.53
291.535	8664.3
291.602	8669.35
291.669	8664.15
291.737	8672.04
291.804	8676.38
291.871	8687.01
291.938	8691.87
292.006	8714.69
292.073	8727.64
292.14	8745.83
292.207	8733.08
292.275	8737.99
292.342	8741.6
292.409	8769.71
292.476	8788.05
292.543	8776.06
292.611	8776.64
292.678	8792.67
292.745	8822.27
292.812	8835.07
292.879	8832.47
292.946	8841.62
293.014	8855.77
293.081	8857.02
293.148	8869.44
293.215	8884.02
293.282	8880.41
293.349	8896.35
293.416	8874.06
293.484	8881.37
293.551	8890.04
293.618	8914.25
293.685	8940.44
293.752	8932.02
293.819	8930.24
293.886	8916.08
293.953	8925.18
294.02	8933.51
294.087	8939.19
294.154	8932.45
294.221	8954.98
294.288	8957.97
294.356	8977.32
294.423	8979.2
294.49	8977.03
294.557	8987.81
294.624	8975.1
294.691	8997.01
294.758	8989.74
294.825	9003.02
294.892	9000.28
294.959	8998.5
295.026	9006.73
295.093	8992.48
295.16	8999.89
295.226	9000.71
295.293	9034.61
295.36	9041.63
295.427	9055.55
295.494	9062.87
295.561	9069.7
295.628	9086.46
295.695	9100.47
295.762	9099.22
295.829	9110.44
295.896	9128.25
295.963	9137.5
296.03	9154.49
296.096	9161.52
296.163	9177.94
296.23	9194.88
296.297	9208.85
296.364	9207.64
296.431	9209.33
296.498	9211.06
296.564	9233.93
296.631	9235.95
296.698	9216.98
296.765	9237.39
296.832	9227.62
296.899	9216.93
296.965	9235.9
297.032	9214.57
297.099	9233.68
297.166	9245.82
297.233	9242.16
297.299	9232.72
297.366	9237.92
297.433	9236.96
297.5	9247.5
297.566	9248.8
297.633	9246.25
297.7	9249.33
297.767	9249
297.833	9254.87
297.9	9255.21
297.967	9244.47
298.033	9256.85
298.1	9284.54
298.167	9276.88
298.234	9278.47
298.3	9291.32
298.367	9283.91
298.434	9291.95
298.5	9282.41
298.567	9271.97
298.634	9267.78
298.7	9284.05
298.767	9284.82
298.834	9303.79
298.9	9292.62
298.967	9289.01
299.033	9296.67
299.1	9311.88
299.167	9332.97
299.233	9331.86
299.3	9346.41
299.366	9358.83
299.433	9380.6
299.5	9357.67
299.566	9364.41
299.633	9388.15
299.699	9399.81
299.766	9406.65
299.832	9410.45
299.899	9416.71
299.965	9437.85
300.032	9443.34
300.099	9452.68
300.165	9458.31
300.232	9454.08
300.298	9460.87
300.365	9473.24
300.431	9473.1
300.498	9467.37
300.564	9477.29
300.631	9490.58
300.697	9502.81
300.763	9503.05
300.83	9498.14
300.896	9518.94
300.963	9524.53
301.029	9526.79
301.096	9539.41
301.162	9543.98
301.229	9538.69
301.295	9533.92
301.361	9535.94
301.428	9541.82
301.494	9530.4
301.561	9536.42
301.627	9538.98
301.693	9540.28
301.76	9541.58
301.826	9536.67
301.892	9548.18
301.959	9553.81
302.025	9543.89
302.092	9541.77
302.158	9553.57
302.224	9555.93
302.291	9544.85
302.357	9541.48
302.423	9531.85
302.49	9513.5
302.556	9528.72
302.622	9531.75
302.688	9543.84
302.755	9559.3
302.821	9570.43
302.887	9580.63
302.954	9578.61
303.02	9593.35
303.086	9596.38
303.152	9592.29
303.219	9598.84
303.285	9600.04
303.351	9609.05
303.417	9612.08
303.483	9602.98
303.55	9591.23
303.616	9587.52
303.682	9584.73
303.748	9580.2
303.815	9600.24
303.881	9616.37
303.947	9600.72
304.013	9603.85
304.079	9595.52
304.145	9573.08
304.212	9567.97
304.278	9559.69
304.344	9554.1
304.41	9539.12
304.476	9529.49
304.542	9529.35
304.608	9525.93
304.674	9508.98
304.741	9502.28
304.807	9509.41
304.873	9516.68
304.939	9537.82
305.005	9521.59
305.071	9521.64
305.137	9523.86
305.203	9498.91
305.269	9493.95
305.335	9505.36
305.401	9497.9
305.467	9493.13
305.533	9499.15
305.599	9507.14
305.666	9517.64
305.732	9523.52
305.798	9534.64
305.864	9567.34
305.93	9572.59
305.996	9574.42
306.062	9579.53
306.128	9569.75
306.194	9555.69
306.259	9553.86
306.325	9546.92
306.391	9559.59
306.457	9573.27
306.523	9575.91
306.589	9603.08
306.655	9592.1
306.721	9576.4
306.787	9570.67
306.853	9586.27
306.919	9571.34
306.985	9556.94
307.051	9551.55
307.117	9539.51
307.183	9532.58
307.248	9500.07
307.314	9508.06
307.38	9517.45
307.446	9519.62
307.512	9514.52
307.578	9521.4
307.644	9518.75
307.709	9518.85
307.775	9516.06
307.841	9505.94
307.907	9509.55
307.973	9486.77
308.039	9489.61
308.104	9499.39
308.17	9500.31
308.236	9486.92
308.302	9491.73
308.368	9492.21
308.433	9495.25
308.499	9489.66
308.565	9475.94
308.631	9482.97
308.696	9452.29
308.762	9436.31
308.828	9440.16
308.894	9417.48
308.959	9400.1
309.025	9388.73
309.091	9383.34
309.156	9370
309.222	9370.67
309.288	9355.31
309.354	9332.92
309.419	9333.74
309.485	9312.7
309.551	9315.54
309.616	9301.77
309.682	9296.76
309.748	9286.46
309.813	9274.42
309.879	9267.78
309.945	9257.38
310.01	9252.03
310.076	9257.47
310.141	9251.36
310.207	9235.56
310.273	9242.78
310.338	9245.19
310.404	9234.26
310.469	9222.61
310.535	9215
310.601	9194.49
310.666	9203.97
310.732	9221.74
310.797	9202.96
310.863	9193.67
310.928	9183.99
310.994	9189
311.059	9184.76
311.125	9181.78
311.191	9197.38
311.256	9192.66
311.322	9198.15
311.387	9180.19
311.453	9456.92
311.518	9433.42
311.584	9428.8
311.649	9430.1
311.715	9417.49
311.78	9415.18
311.846	9404.15
311.911	9415.8
311.976	9421.05
312.042	9402.8
312.107	9377.38
312.173	9375.22
312.238	9373.73
312.304	9371.17
312.369	9358.27
312.434	9348.88
312.5	9343.78
312.565	9309.88
312.631	9311.09
312.696	9303.91
312.761	9303.72
312.827	9019.72
312.892	9059.73
312.958	9059.16
313.023	9063.68
313.088	9061.32
313.154	9049.96
313.219	9036.92
313.284	9023.53
313.35	9021.46
313.415	9012.56
313.48	9012.75
313.546	9015.64
313.611	9027.77
313.676	9022.86
313.741	9012.61
313.807	9023.25
313.872	9024.84
313.937	9035.47
314.003	9043.61
314.068	9046.21
314.133	9051.55
314.198	9049.1
314.264	9024.16
314.329	9011.21
314.394	9008.46
314.459	9010.1
314.525	9033.3
314.59	9033.49
314.655	9016.16
314.72	9015.1
314.785	9014.53
314.851	9010.63
314.916	8992.34
314.981	8971.3
315.046	8960.56
315.111	8957.1
315.176	8942.17
315.242	8949.4
315.307	8943.62
315.372	8926.48
315.437	8915.12
315.502	8908.57
315.567	8916.32
315.632	8903.33
315.698	8910.11
315.763	8899.43
315.828	8891.68
315.893	8880.22
315.958	8878
316.023	8877.33
316.088	8858.17
316.153	8840.6
316.218	8833.58
316.283	8820.05
316.348	8807.35
316.413	8805.18
316.479	8786.66
316.544	8755.9
316.609	8721.54
316.674	8685.97
316.739	8649.16
316.804	8619.8
316.869	8591.65
316.934	8547.47
316.999	8515.85
317.064	8460.51
317.129	8415.43
317.194	8373.9
317.259	8329.82
317.324	8277.29
317.389	8229.23
317.454	8193.34
317.518	8160.44
317.583	8132.48
317.648	8101.89
317.713	8062.35
317.778	7999.57
317.843	7972.25
317.908	7931.52
317.973	7890.01
318.038	7857.49
318.103	7818.88
318.168	7784.93
318.233	7745.88
318.297	7698.51
318.362	7658.75
318.427	7620.72
318.492	7599.66
318.557	7553.9
318.622	7523.51
318.687	7502.93
318.751	7466.93
318.816	7432.12
318.881	7397.9
318.946	7345.07
319.011	7298.64
319.075	7260.82
319.14	7233.57
319.205	7189.01
319.27	7158.26
319.335	7114.25
319.399	7069.95
319.464	7047.51
319.529	6995.05
319.594	6953.68
319.658	6927.97
319.723	6885.51
319.788	6859.81
319.853	6805.76
319.917	6775.27
319.982	6726.46
320.047	6692.12
320.112	6665.8
320.176	6613.27
320.241	6579.36
320.306	6548.39
320.37	6512.33
320.435	6485.49
320.5	6456.3
320.564	6415.21
320.629	6374.79
320.694	6344.5
320.758	6306.54
320.823	6259.98
320.888	6233.21
320.952	6187.86
321.017	6143.08
321.082	6110.6
321.146	6075.61
321.211	6043.61
321.275	6003.61
321.34	5958.8
321.405	5914.24
321.469	5864.35
321.534	5823.21
321.598	5776.73
321.663	5749.44
321.727	5719.32
321.792	5665.95
321.857	5620.19
321.921	5582.13
321.986	5537.22
322.05	5480.81
322.115	5447.92
322.179	5409.73
322.244	5357.88
322.308	5329.46
322.373	5286.43
322.437	5242.3
322.502	5217.99
322.566	5170.03
322.631	5137.22
322.695	5094.83
322.76	5050.91
322.824	5014.9
322.889	4976.36
322.953	4926.66
323.018	4856.61
323.082	4792.46
323.146	4740.97
323.211	4685.73
323.275	4642.32
323.34	4598.25
323.404	4561.22
323.468	4509.5
323.533	4464.52
323.597	4415.84
323.662	4359.87
323.726	4324.37
323.79	4278.17
323.855	4205.54
323.919	4155.76
323.983	4111.76
324.048	4047.93
324.112	4204.17
324.177	4077.89
324.241	3866.44
324.305	3661.39
324.37	3460.32
324.434	3264.41
324.498	3223.18
324.562	3175.29
324.627	3114.94
324.691	3060.3
324.755	2998.46
324.82	2928.84
324.884	2849.49
324.948	2782.16
325.012	2686.9
325.077	2557.71
