Data from 20250704_urea_0.1M_MAYP1162681_11-22-57-676.txt Node
Date: Fri Jul 04 11:22:57 BST 2025
User: adleo
Spectrometer: MAYP116268
Trigger mode: 0
Integration Time (sec): 1.000000E0
Scans to average: 1
Electric dark correction enabled: true
Nonlinearity correction enabled: true
Boxcar width: 10
XAxis mode: Wavelengths
Number of Pixels in Spectrum: 2068
>>>>>Begin Spectral Data<<<<<
179.565	1254.5
179.642	1313.77
179.718	1359
179.795	1398.99
179.871	1434.51
179.948	1452.92
180.024	1475.22
180.101	1499.86
180.177	1511.77
180.254	1534.87
180.33	1556.86
180.407	1614.88
180.483	1711.19
180.56	1805.97
180.636	1894.52
180.712	1882.3
180.789	1894.8
180.865	1907.68
180.942	1914.19
181.018	1921.47
181.095	1932.88
181.171	1938.07
181.248	1939.97
181.324	1954.62
181.4	1963.46
181.477	1972.69
181.553	1987.8
181.63	2004.68
181.706	2019.29
181.782	2029.93
181.859	2029.74
181.935	2035.97
182.011	2031.84
182.088	2049.19
182.164	2065.61
182.24	2078.49
182.317	2087.58
182.393	2084.01
182.469	2098.18
182.546	2112.02
182.622	2118.82
182.698	2114.54
182.775	2124.1
182.851	2135.43
182.927	2128.29
183.003	2124.06
183.08	2118.45
183.156	2125.29
183.232	2122.01
183.308	2110.79
183.385	2118.63
183.461	2138.09
183.537	2139.09
183.613	2151.36
183.69	2145.32
183.766	2135.85
183.842	2143.94
183.918	2148.6
183.995	2164.87
184.071	2168.87
184.147	2163.64
184.223	2152.56
184.299	2165.59
184.375	2157.22
184.452	2164.27
184.528	2216.9
184.604	2226.13
184.68	2236.59
184.756	2246.16
184.832	2254.34
184.908	2259.57
184.985	2258.86
185.061	2240.49
185.137	2250.11
185.213	2239.02
185.289	2238.17
185.365	2231.84
185.441	2229.89
185.517	2243.69
185.593	2237.89
185.669	2235.6
185.745	2247.59
185.822	2264.1
185.898	2257.34
185.974	2266.71
186.05	2260.33
186.126	2225.5
186.202	2216.7
186.278	2213.13
186.354	2203.23
186.43	2208.42
186.506	2208.99
186.582	2208.08
186.658	2213.7
186.734	2193.15
186.81	2197.38
186.886	2201.66
186.962	2215.36
187.038	2212.32
187.114	2206.6
187.19	2214.12
187.266	2203.99
187.341	2204.99
187.417	2197.42
187.493	2197.38
187.569	2200.09
187.645	2191.34
187.721	2177.01
187.797	2188.52
187.873	2195.57
187.949	2186.29
188.025	2179.58
188.101	2179.77
188.176	2185.48
188.252	2183.43
188.328	2192.75
188.404	2191.52
188.48	2185.57
188.556	2175.06
188.632	2168.97
188.707	2166.49
188.783	2162.3
188.859	2157.83
188.935	2146.94
189.011	2156.69
189.086	2149.46
189.162	2141.51
189.238	2140.85
189.314	2138.66
189.39	2131.62
189.465	2120.82
189.541	2142.04
189.617	2127.15
189.693	2123.63
189.768	2128.34
189.844	2152.76
189.92	2143.25
189.996	2152.38
190.071	2163.9
190.147	2164.09
190.223	2175.74
190.298	2172.03
190.374	2161.42
190.45	2173.03
190.526	2182.54
190.601	2175.22
190.677	2174.22
190.753	2202.26
190.828	2206.78
190.904	2224.81
190.98	2238.23
191.055	2251.13
191.131	2238.23
191.207	2259.35
191.282	2268.25
191.358	2258.07
191.433	2242.12
191.509	2256.58
191.585	2253.34
191.66	2255.77
191.736	2263.14
191.811	2257.1
191.887	2272.71
191.963	2292.41
192.038	2294.93
192.114	2293.36
192.189	2301.41
192.265	2299.88
192.34	2275.13
192.416	2274.75
192.491	2267.51
192.567	2271.32
192.642	2273.98
192.718	2274.13
192.793	2261.14
192.869	2256.66
192.944	2260.61
193.02	2265.99
193.095	2271.03
193.171	2276.41
193.246	2276.7
193.322	2276.6
193.397	2276.22
193.473	2260.8
193.548	2245.47
193.624	2253.18
193.699	2251.38
193.775	2264.37
193.85	2265.85
193.925	2275.89
194.001	2275.65
194.076	2269.13
194.152	2259.94
194.227	2252.62
194.302	2245.29
194.378	2250.57
194.453	2247.24
194.529	2258
194.604	2244.77
194.679	2237.11
194.755	2217.22
194.83	2227.84
194.905	2227.13
194.981	2237.41
195.056	2231.46
195.131	2239.69
195.207	2239.17
195.282	2232.51
195.357	2211.66
195.433	2229.41
195.508	2217.89
195.583	2224.22
195.659	2239.07
195.734	2244.4
195.809	2243.64
195.884	2251.72
195.96	2252.11
196.035	2270.38
196.11	2266.19
196.185	2281.18
196.261	2285.94
196.336	2319.3
196.411	2303.92
196.486	2307.77
196.561	2302.06
196.637	2306.92
196.712	2322.01
196.787	2325.48
196.862	2338.28
196.937	2349.32
197.013	2349.28
197.088	2359.65
197.163	2380.03
197.238	2394.99
197.313	2397.32
197.388	2411.74
197.464	2442.46
197.539	2453.5
197.614	2444.36
197.689	2455.64
197.764	2471.07
197.839	2489.6
197.914	2483.36
197.989	2508.31
198.065	2522.4
198.14	2571.34
198.215	2601.06
198.29	2609.63
198.365	2623.4
198.44	2636.83
198.515	2667.13
198.59	2686.13
198.665	2716.62
198.74	2724.53
198.815	2726.63
198.89	2747.16
198.965	2776.23
199.04	2772.8
199.115	2790.05
199.19	2834.74
199.265	2841.21
199.34	2853.27
199.415	2888.7
199.49	2909.62
199.565	2917.1
199.64	2938.02
199.715	2936.69
199.79	2948.6
199.865	2957.42
199.94	2955.56
200.015	2986.03
200.09	2990.99
200.165	2998.38
200.24	3001.67
200.315	3049.73
200.39	3066.03
200.464	3073.09
200.539	3077.14
200.614	3097.88
200.689	3122.01
200.764	3128.36
200.839	3146.14
200.914	3151.05
200.989	3142.36
201.063	3157.91
201.138	3141.57
201.213	3148.44
201.288	3129.46
201.363	3133.27
201.438	3137.18
201.512	3153.01
201.587	3136.93
201.662	3142.18
201.737	3156.49
201.812	3165.41
201.886	3127.51
201.961	3139.77
202.036	3130.24
202.111	3125.89
202.186	3091.72
202.26	3076.13
202.335	3056.71
202.41	3050.18
202.485	3036.79
202.559	3018.62
202.634	2996.35
202.709	3010.98
202.784	2993.34
202.858	2997.53
202.933	2980.03
203.008	2978.56
203.082	2964.88
203.157	2970.74
203.232	2936.71
203.306	2922.4
203.381	2900.66
203.456	2887.83
203.53	2876.91
203.605	2868.38
203.68	2864.42
203.754	2874.8
203.829	2877.04
203.904	2878.62
203.978	2889.68
204.053	2912.33
204.127	2924.77
204.202	2946.8
204.277	2956.53
204.351	2978.32
204.426	3001.69
204.5	3029.93
204.575	3027.59
204.65	3075.54
204.724	3111.63
204.799	3161.12
204.873	3205.56
204.948	3253.47
205.022	3298.6
205.097	3344.93
205.171	3416.18
205.246	3482.72
205.32	3548.91
205.395	3621.09
205.469	3677.67
205.544	3760.4
205.618	3823.04
205.693	3914.62
205.767	3989.04
205.842	4099.78
205.916	4185.7
205.991	4271.41
206.065	4374.21
206.14	4493.99
206.214	4600.9
206.289	4698.34
206.363	4824.01
206.438	4938.1
206.512	5066.05
206.586	5207.28
206.661	5340.41
206.735	5444.33
206.81	5579.43
206.884	5728.44
206.958	5847.47
207.033	6009.66
207.107	6163.04
207.181	6340.93
207.256	6480.67
207.33	6647.07
207.405	6810.43
207.479	6990.71
207.553	7158.41
207.628	7299.03
207.702	7471.21
207.776	7622.26
207.851	7798.67
207.925	7991.94
207.999	8163.12
208.073	8335.44
208.148	8509.04
208.222	8678.3
208.296	8906.82
208.371	9098.14
208.445	9297.07
208.519	9512.07
208.593	9706.51
208.668	9887.08
208.742	10076.39
208.816	10264.47
208.89	10474.75
208.965	10667.19
209.039	10860.31
209.113	11068.26
209.187	11286.71
209.261	11475.84
209.336	11692.84
209.41	11894.05
209.484	12080.58
209.558	12298.48
209.632	12500.14
209.707	12703.55
209.781	12919.44
209.855	13111.92
209.929	13318.18
210.003	13507.67
210.077	13691.19
210.151	13921.02
210.226	14130.13
210.3	14340.39
210.374	14548.78
210.448	14726.89
210.522	14914.4
210.596	15101.86
210.67	15290.37
210.744	15514.7
210.818	15722.5
210.892	15915.63
210.966	16094.98
211.041	16278.86
211.115	16444.76
211.189	16639.86
211.263	16815.1
211.337	16973.43
211.411	17156.09
211.485	17313.44
211.559	17491.57
211.633	17658.46
211.707	17787.91
211.781	17960.14
211.855	18095.13
211.929	18247.99
212.003	18388.67
212.077	18552.76
212.151	18719.5
212.225	18879.88
212.299	19012.59
212.373	19145.5
212.447	19289.69
212.52	19459.13
212.594	19603.95
212.668	19748.04
212.742	19867.41
212.816	20006.25
212.89	20142.73
212.964	20274.15
213.038	20416.13
213.112	20551.46
213.186	20687.95
213.26	20795.71
213.333	20875.71
213.407	20992.58
213.481	21120.4
213.555	21248.26
213.629	21349.67
213.703	21459.42
213.777	21571.98
213.85	21666.59
213.924	21821.91
213.998	21936.78
214.072	22037.68
214.146	22131.78
214.219	22232
214.293	22331.16
214.367	22436.54
214.441	22545.06
214.515	22633.24
214.588	22701.56
214.662	22759.7
214.736	22833.8
214.81	22938.85
214.883	23049.07
214.957	23130.65
215.031	23200.18
215.105	23263.67
215.178	23328
215.252	23387.07
215.326	23446
215.4	23513.5
215.473	23535.21
215.547	23579.29
215.621	23641.02
215.694	23714.04
215.768	23759.86
215.842	23819.56
215.915	23876.96
215.989	23910.72
216.063	23962.52
216.136	24025.8
216.21	24091.88
216.284	24166.4
216.357	24222.36
216.431	24266.25
216.504	24323.42
216.578	24411.85
216.652	24487
216.725	24553.33
216.799	24623.48
216.873	24668.39
216.946	24717.98
217.02	24766.32
217.093	24812.92
217.167	24834.97
217.24	24866.87
217.314	24927.17
217.387	24966.11
217.461	25003.5
217.535	25072.31
217.608	25104.69
217.682	25144.01
217.755	25193.42
217.829	25230.87
217.902	25274.88
217.976	25305.81
218.049	25340.17
218.123	25352.87
218.196	25399.92
218.27	25426.95
218.343	25456.2
218.417	25501.13
218.49	25534.76
218.563	25586.84
218.637	25625.93
218.71	25678.73
218.784	25720.58
218.857	25754.51
218.931	25792.06
219.004	25826.72
219.077	25860.22
219.151	25898.45
219.224	25931.66
219.298	25970.23
219.371	26007.74
219.444	26021.16
219.518	26047.46
219.591	26065.23
219.665	26114.09
219.738	26132.29
219.811	26155.94
219.885	26188
219.958	26218.41
220.031	26241.97
220.105	26272.29
220.178	26302.76
220.251	26326.17
220.325	26353.12
220.398	26380.73
220.471	26412.89
220.544	26432.49
220.618	26438.14
220.691	26454.26
220.764	26474.06
220.838	26486.52
220.911	26488.69
220.984	26526.26
221.057	26561.31
221.131	26582.12
221.204	26567.05
221.277	26599.84
221.35	26643.25
221.424	26652.19
221.497	26660.35
221.57	26670.83
221.643	26684.44
221.716	26699.66
221.79	26705.45
221.863	26710.81
221.936	26711.83
222.009	26715.5
222.082	26728.44
222.155	26729.11
222.229	26751.09
222.302	26743.84
222.375	26738.53
222.448	26752.2
222.521	26742.59
222.594	26740.8
222.667	26727.33
222.74	26729.41
222.814	26713.61
222.887	26708.98
222.96	26711.44
223.033	26719.41
223.106	26718.1
223.179	26719.51
223.252	26706.9
223.325	26701.11
223.398	26691.16
223.471	26685.51
223.544	26670.78
223.617	26660.35
223.69	26652.72
223.763	26633.98
223.837	26646.44
223.91	26653.01
223.983	26616.6
224.056	26604.77
224.129	26585.8
224.202	26598.21
224.275	26584.01
224.348	26553.16
224.42	26519.74
224.493	26477.3
224.566	26459.09
224.639	26461.75
224.712	26428
224.785	26413.94
224.858	26394.73
224.931	26367.16
225.004	26340.27
225.077	26333.07
225.15	26280.7
225.223	26266.69
225.296	26269.11
225.369	26222.13
225.442	26185.3
225.514	26176.65
225.587	26154.21
225.66	26139.39
225.733	26118.34
225.806	26097.87
225.879	26088.84
225.952	26052.06
226.025	26054.62
226.097	26040.57
226.17	26001.56
226.243	25963.57
226.316	25936.44
226.389	25903.23
226.461	25895.17
226.534	25877.74
226.607	25839.23
226.68	25841.16
226.753	25813.16
226.825	25761.31
226.898	25746.45
226.971	25721.11
227.044	25702.28
227.117	25674.48
227.189	25661.02
227.262	25651.36
227.335	25643.54
227.407	25608.36
227.48	25597.55
227.553	25567.62
227.626	25528.77
227.698	25509.46
227.771	25490.3
227.844	25450.73
227.916	25431.23
227.989	25392.96
228.062	25361.5
228.134	25352.57
228.207	25333.61
228.28	25306.05
228.352	25274.59
228.425	25247.62
228.498	25225.85
228.57	25187.59
228.643	25174.85
228.716	25138.75
228.788	25084.66
228.861	25042.63
228.934	25030.9
229.006	24989.12
229.079	24955.48
229.151	24924.12
229.224	24872.59
229.296	24841.28
229.369	24845.05
229.442	24831.44
229.514	24786.57
229.587	24763.66
229.659	24717.49
229.732	24677.59
229.804	24649.65
229.877	24644.1
229.949	24633.15
230.022	24626.88
230.094	24597.65
230.167	24567.98
230.239	24510.43
230.312	24485.87
230.384	24472.22
230.457	24431.94
230.529	24407.97
230.602	24373.76
230.674	24341.3
230.747	24324.22
230.819	24306.09
230.892	24235.32
230.964	24196.2
231.037	24170.69
231.109	24138.61
231.181	24113.87
231.254	24073.16
231.326	24030.38
231.399	23986.97
231.471	23933.86
231.544	23876.07
231.616	23854.66
231.688	23810.34
231.761	23780.63
231.833	23735.68
231.905	23675.69
231.978	23637.64
232.05	23597.8
232.122	23570.22
232.195	23523.97
232.267	23494.02
232.339	23454.96
232.412	23438.18
232.484	23397.38
232.556	23352.97
232.629	23328.42
232.701	23297.95
232.773	23265.45
232.846	23227.5
232.918	23185.59
232.99	23160.23
233.062	23126.52
233.135	23087.85
233.207	23043.88
233.279	23017.17
233.351	22984.33
233.424	22944.41
233.496	22904.11
233.568	22899.19
233.64	22841.67
233.713	22809.85
233.785	22771.85
233.857	22739.07
233.929	22679.67
234.001	22662.07
234.074	22650.45
234.146	22596.46
234.218	22550.56
234.29	22510.74
234.362	22470.87
234.434	22413.12
234.507	22361.77
234.579	22306.58
234.651	22253.36
234.723	22222.55
234.795	22182.15
234.867	22142.29
234.939	22128.65
235.012	22089.94
235.084	22039.61
235.156	22014.01
235.228	21966.43
235.3	21933.99
235.372	21892.82
235.444	21865.2
235.516	21789.67
235.588	21745.99
235.66	21709.02
235.732	21655.96
235.804	21668.2
235.876	21647.38
235.948	21627.76
236.02	21582.31
236.092	21547.03
236.164	21513.34
236.236	21460.85
236.308	21418.48
236.38	21381.08
236.452	21323.05
236.524	21280.83
236.596	21258.7
236.668	21220.14
236.74	21187.61
236.812	21132.91
236.884	21095.65
236.956	21053.38
237.028	21018.1
237.1	20963.35
237.172	20936.51
237.244	20917.81
237.316	20839.63
237.388	20781.12
237.46	20738.03
237.532	20716.3
237.604	20657.94
237.675	20629.84
237.747	20612.11
237.819	20561.5
237.891	20522.47
237.963	20472.06
238.035	20433.36
238.107	20345.02
238.178	20315.86
238.25	20268.92
238.322	20257.94
238.394	20192.2
238.466	20149.36
238.538	20108.06
238.609	20073.99
238.681	20007.58
238.753	19956.55
238.825	19909.9
238.897	19868.4
238.968	19840.98
239.04	19784.36
239.112	19778.67
239.184	19717.37
239.255	19664.27
239.327	19639.45
239.399	19599.4
239.471	19565.72
239.542	19519.84
239.614	19501.34
239.686	19429.73
239.758	19395.03
239.829	19337.49
239.901	19305.54
239.973	19265.78
240.044	19227.33
240.116	19188.25
240.188	19147.28
240.259	19100.78
240.331	19058.23
240.403	19035.58
240.474	18972.5
240.546	18927.39
240.618	18867.54
240.689	18822.63
240.761	18779.07
240.833	18749.04
240.904	18696.95
240.976	18654.59
241.048	18614.93
241.119	18579.61
241.191	18552.52
241.262	18525.39
241.334	18472.77
241.405	18427.28
241.477	18388.1
241.549	18343.38
241.62	18302.85
241.692	18273.55
241.763	18250.18
241.835	18208.49
241.906	18159.24
241.978	18106.47
242.049	18077.32
242.121	18040.5
242.192	18021.95
242.264	17961.8
242.335	17892.41
242.407	17864.41
242.478	17825.33
242.55	17795.5
242.621	17739.45
242.693	17688.17
242.764	17639.11
242.836	17611.36
242.907	17581.33
242.979	17543.69
243.05	17509.19
243.122	17473.67
243.193	17428.85
243.264	17362.25
243.336	17324.46
243.407	17293.28
243.479	17274.92
243.55	17237.86
243.622	17209.19
243.693	17160.27
243.764	17146.15
243.836	17106.48
243.907	17072.75
243.978	17038.92
244.05	17007.49
244.121	16955.49
244.192	16927.83
244.264	16877.08
244.335	16835.05
244.407	16785.85
244.478	16754.37
244.549	16716.59
244.62	16657.5
244.692	16616
244.763	16594.07
244.834	16555.37
244.906	16502.36
244.977	16465.92
245.048	16440.86
245.119	16388.23
245.191	16350.34
245.262	16294.72
245.333	16277.18
245.405	16234.72
245.476	16189.07
245.547	16141.07
245.618	16121.02
245.689	16082.56
245.761	16048.29
245.832	16005.01
245.903	15980.28
245.974	15944.66
246.045	15909.43
246.117	15899.21
246.188	15854
246.259	15809.65
246.33	15772.49
246.401	15741.35
246.473	15688.91
246.544	15644.09
246.615	15619.75
246.686	15567.16
246.757	15549.9
246.828	15499.72
246.899	15478.95
246.97	15434.17
247.042	15393.78
247.113	15358.83
247.184	15355.17
247.255	15315.26
247.326	15287.01
247.397	15244.06
247.468	15202.51
247.539	15165.35
247.61	15111.99
247.681	15092.22
247.752	15072.56
247.823	15023.73
247.894	14993.41
247.965	14963.67
248.037	14924.38
248.108	14874.44
248.179	14846.53
248.25	14817.75
248.321	14799.92
248.392	14756.15
248.463	14748.1
248.534	14717.59
248.605	14698.45
248.675	14656.75
248.746	14633.86
248.817	14613.47
248.888	14586.76
248.959	14546.56
249.03	14522.84
249.101	14497
249.172	14461.96
249.243	14404.88
249.314	14401.46
249.385	14375.67
249.456	14351.04
249.527	14324.57
249.598	14305.29
249.669	14288.9
249.739	14253.08
249.81	14221.94
249.881	14184.77
249.952	14152.28
250.023	14124.9
250.094	14080.94
250.165	14035.63
250.235	14009.93
250.306	13973.25
250.377	13940.66
250.448	13918.92
250.519	13868.74
250.59	13856.11
250.66	13824.24
250.731	13822.36
250.802	13791.08
250.873	13768.18
250.944	13741.09
251.014	13709.8
251.085	13705.51
251.156	13672.87
251.227	13659.09
251.297	13646.7
251.368	13625.1
251.439	13605.48
251.51	13594.49
251.58	13556.36
251.651	13526.28
251.722	13515.19
251.792	13476
251.863	13448.28
251.934	13440.32
252.005	13446.83
252.075	13417.47
252.146	13410.68
252.217	13398.05
252.287	13376.64
252.358	13347.62
252.429	13332.25
252.499	13297.01
252.57	13277.29
252.641	13271.41
252.711	13245.23
252.782	13202.04
252.852	13204.02
252.923	13178.47
252.994	13153.06
253.064	13147.28
253.135	13116.43
253.205	13078.82
253.276	13070.73
253.347	13068.8
253.417	13031.39
253.488	13002.76
253.558	12973.74
253.629	12936.47
253.699	12907.12
253.77	12891.21
253.841	12863.2
253.911	12847.24
253.982	12827.14
254.052	12807.96
254.123	12781.97
254.193	12761.49
254.264	12779.51
254.334	12737
254.405	12705.57
254.475	12675.49
254.546	12647.87
254.616	12646.47
254.687	12626.56
254.757	12616.39
254.827	12580.86
254.898	12565.48
254.968	12549.09
255.039	12526.25
255.109	12519.35
255.18	12489.23
255.25	12448.59
255.321	12431.33
255.391	12396.67
255.461	12408.87
255.532	12364.76
255.602	12343.02
255.673	12296.8
255.743	12256.16
255.813	12221.12
255.884	12214.9
255.954	12196.29
256.024	12195.09
256.095	12171.9
256.165	12142.64
256.235	12120.71
256.306	12094.92
256.376	12089.09
256.446	12072.22
256.517	12058.38
256.587	12046.67
256.657	12031.49
256.728	12014.57
256.798	11999.43
256.868	11980.15
256.938	11939.57
257.009	11917.44
257.079	11895.66
257.149	11904.62
257.219	11870.5
257.29	11855.6
257.36	11810.97
257.43	11803.4
257.5	11761.86
257.571	11736.17
257.641	11728.89
257.711	11699.87
257.781	11691.58
257.852	11673.07
257.922	11628.3
257.992	11604.58
258.062	11579.76
258.132	11568.05
258.202	11540.48
258.273	11519.66
258.343	11520.67
258.413	11496.28
258.483	11483.85
258.553	11456.09
258.623	11429.82
258.693	11418.11
258.764	11410.69
258.834	11411.6
258.904	11392.47
258.974	11367.84
259.044	11351.26
259.114	11327.36
259.184	11313.57
259.254	11292.71
259.324	11247.89
259.394	11240.75
259.464	11243.45
259.535	11229.62
259.605	11208.9
259.675	11184.8
259.745	11174.1
259.815	11141.04
259.885	11120.18
259.955	11133.86
260.025	11109.82
260.095	11094.44
260.165	11082.06
260.235	11081.14
260.305	11056.04
260.375	11029
260.445	11035.41
260.515	11034.16
260.585	11035.6
260.655	11011.36
260.725	10999.8
260.795	10988.76
260.865	10993.24
260.934	10962.07
261.004	10943.75
261.074	10924.53
261.144	10932.33
261.214	10929.78
261.284	10911.27
261.354	10906.6
261.424	10872.96
261.494	10876.62
261.564	10856.53
261.634	10846.75
261.703	10810.75
261.773	10804.53
261.843	10791.38
261.913	10769.84
261.983	10733.56
262.053	10724.78
262.123	10710.09
262.192	10682.05
262.262	10685.28
262.332	10652.27
262.402	10648.08
262.472	10634.97
262.541	10600.81
262.611	10587.95
262.681	10554.26
262.751	10549.88
262.821	10528.58
262.89	10500.68
262.96	10487.96
263.03	10493.89
263.1	10481.7
263.169	10463.39
263.239	10446.77
263.309	10445.86
263.379	10436.46
263.448	10423.26
263.518	10403.31
263.588	10390.4
263.657	10397.05
263.727	10388.42
263.797	10375.75
263.867	10357.64
263.936	10332.44
264.006	10329.17
264.076	10313.22
264.145	10298.52
264.215	10267.45
264.285	10258.97
264.354	10228.05
264.424	10204.83
264.494	10166.72
264.563	10149.37
264.633	10156.79
264.702	10149.37
264.772	10119.02
264.842	10106.83
264.911	10099.32
264.981	10070.99
265.05	10052.35
265.12	10031.06
265.19	10016.17
265.259	10008.08
265.329	10001.91
265.398	9989.29
265.468	10005.62
265.537	9984.67
265.607	9975.23
265.676	9975.8
265.746	9968.39
265.815	9972.24
265.885	9957.5
265.955	9939.92
266.024	9917.47
266.094	9877.69
266.163	9874.36
266.232	9876.05
266.302	9860.16
266.371	9851.53
266.441	9845.95
266.51	9846.96
266.58	9830.44
266.649	9804.14
266.719	9801.63
266.788	9790.99
266.858	9794.7
266.927	9747.93
266.996	9740.22
267.066	9730.69
267.135	9701.55
267.205	9697.79
267.274	9681.37
267.343	9687.82
267.413	9675.35
267.482	9683.1
267.552	9690.86
267.621	9664.46
267.69	9638.41
267.76	9625.26
267.829	9618.81
267.898	9601.85
267.968	9577.49
268.037	9577.97
268.106	9583.46
268.176	9559.76
268.245	9539.68
268.314	9522.2
268.384	9530.38
268.453	9520.9
268.522	9508.57
268.592	9519.16
268.661	9494.99
268.73	9493.11
268.799	9467.63
268.869	9475.43
268.938	9438.06
269.007	9423.09
269.076	9415.43
269.146	9411
269.215	9400.65
269.284	9398.39
269.353	9382.3
269.422	9368.77
269.492	9344.41
269.561	9301.99
269.63	9295.2
269.699	9283.98
269.768	9279.31
269.838	9272.9
269.907	9263.42
269.976	9245.8
270.045	9208.34
270.114	9200.68
270.183	9183.25
270.253	9176.37
270.322	9145.7
270.391	9137.85
270.46	9137.13
270.529	9131.5
270.598	9130.34
270.667	9118.35
270.736	9095
270.806	9090.23
270.875	9088.64
270.944	9076.71
271.013	9101.55
271.082	9093.22
271.151	9086.82
271.22	9053.07
271.289	9043.78
271.358	9032.85
271.427	9030.92
271.496	9026.01
271.565	9021.05
271.634	9013.88
271.703	9046.67
271.772	9051.29
271.841	9041.91
271.91	9015.24
271.979	9008.31
272.048	8983.85
272.117	8987.27
272.186	8979.47
272.255	8977.93
272.324	8975.42
272.393	8973.79
272.462	8956.98
272.531	8948.13
272.6	8939.36
272.669	8949.09
272.738	8932.82
272.807	8928.15
272.876	8906.44
272.945	8939.46
273.013	8936.82
273.082	8944.81
273.151	8900.89
273.22	8899.74
273.289	8896.27
273.358	8917.02
273.427	8904.46
273.496	8908.98
273.564	8903.16
273.633	8902.15
273.702	8886.07
273.771	8879.62
273.84	8873.12
273.909	8869.32
273.977	8869.41
274.046	8855.07
274.115	8859.93
274.184	8841.02
274.253	8833.85
274.322	8843.33
274.39	8804.29
274.459	8790.04
274.528	8761.64
274.597	8748.79
274.665	8742.78
274.734	8744.22
274.803	8724.29
274.872	8717.7
274.94	8701
275.009	8760.38
275.078	8747.91
275.147	8745.79
275.215	8742.13
275.284	8753.88
275.353	8743.24
275.421	8716.96
275.49	8733.86
275.559	8717.25
275.627	8715.61
275.696	8711.72
275.765	8710.51
275.833	8710.03
275.902	8711.86
275.971	8720.67
276.039	8732.12
276.108	8728.9
276.177	8730.49
276.245	8726.25
276.314	8724.61
276.383	8730.34
276.451	8666.24
276.52	8663.93
276.588	8677.7
276.657	8686.85
276.725	8668.41
276.794	8668.99
276.863	8680.06
276.931	8659.17
277	8669.52
277.068	8680.3
277.137	8691.51
277.205	8683.95
277.274	8698.54
277.342	8708.21
277.411	8688.96
277.48	8673.9
277.548	8671.45
277.617	8671.01
277.685	8663.79
277.754	8664.66
277.822	8652.97
277.89	8664.57
277.959	8659.08
278.027	8637.18
278.096	8619.42
278.164	8647.68
278.233	8638.68
278.301	8631.75
278.37	8637.04
278.438	8624.91
278.507	8625.73
278.575	8603.93
278.643	8602.92
278.712	8584.97
278.78	8568.41
278.849	8578.51
278.917	8593.19
278.985	8587.37
279.054	8579.81
279.122	8591.46
279.191	8591.8
279.259	8590.26
279.327	8567.06
279.396	8577.45
279.464	8575.91
279.532	8587.13
279.601	8584.57
279.669	8580.97
279.737	8593.24
279.806	8600.84
279.874	8608.16
279.942	8604.98
280.011	8602.14
280.079	8612.78
280.147	8624.86
280.215	8628.61
280.284	8624.86
280.352	8607.15
280.42	8614.13
280.488	8614.56
280.557	8606.04
280.625	8608.06
280.693	8610.03
280.761	8614.56
280.83	8601.61
280.898	8615.33
280.966	8587.32
281.034	8552.77
281.102	8539.68
281.171	8533.37
281.239	8534.48
281.307	8524.71
281.375	8512.83
281.443	8538.91
281.512	8533.37
281.58	8543.19
281.648	8528.52
281.716	8530.78
281.784	8537.85
281.852	8530.25
281.92	8526.59
281.989	8534.24
282.057	8516.63
282.125	8562.26
282.193	8558.37
282.261	8559.81
282.329	8555.38
282.397	8565.15
282.465	8571.12
282.533	8583.62
282.601	8572.7
282.67	8552.06
282.738	8540.7
282.806	8556.29
282.874	8540.98
282.942	8545.41
283.01	8532.13
283.078	8537.9
283.146	8537.23
283.214	8543.2
283.282	8548.25
283.35	8560.86
283.418	8557.83
283.486	8563.79
283.554	8523.84
283.622	8526
283.69	8523.5
283.758	8514.89
283.826	8521.91
283.894	8535.58
283.962	8557.67
284.03	8569.51
284.098	8570.33
284.165	8570.86
284.233	8567.1
284.301	8564.99
284.369	8554.25
284.437	8547.42
284.505	8544.87
284.573	8559.69
284.641	8548.24
284.709	8554.26
284.777	8539.82
284.845	8541.41
284.912	8544.39
284.98	8547.04
285.048	8543.14
285.116	8554.54
285.184	8571.48
285.252	8573.5
285.319	8548.72
285.387	8536.35
285.455	8521.15
285.523	8532.21
285.591	8533.85
285.659	8535.05
285.726	8544.73
285.794	8532.55
285.862	8532.46
285.93	8532.6
285.997	8523.26
286.065	8520.67
286.133	8512.87
286.201	8511.38
286.269	8501.75
286.336	8494.34
286.404	8477.55
286.472	8483.37
286.539	8459.03
286.607	8439.92
286.675	8437.03
286.743	8449.98
286.81	8450.46
286.878	8468.79
286.946	8464.32
287.013	8459.41
287.081	8459.7
287.149	8445.36
287.216	8461.38
287.284	8454.4
287.352	8455.03
287.419	8454.21
287.487	8473.99
287.555	8477.31
287.622	8466.63
287.69	8470.43
287.758	8486.02
287.825	8491.07
287.893	8477.36
287.96	8483.85
288.028	8490.06
288.096	8493.67
288.163	8496.94
288.231	8482.17
288.298	8483.85
288.366	8493.67
288.433	8499.97
288.501	8491.65
288.569	8496.36
288.636	8494.58
288.704	8513.69
288.771	8518.93
288.839	8511.33
288.906	8507.38
288.974	8515.57
289.041	8522.45
289.109	8514.65
289.176	8523.7
289.244	8538.18
289.311	8550.31
289.379	8564.12
289.446	8572.74
289.514	8572.4
289.581	8573.46
289.649	8579.66
289.716	8573.6
289.783	8569.41
289.851	8585.58
289.918	8591.5
289.986	8598.77
290.053	8608.2
290.121	8604.59
290.188	8609.79
290.255	8640.21
290.323	8624.23
290.39	8619.99
290.458	8631.16
290.525	8644.1
290.592	8638.09
290.66	8630.77
290.727	8628.12
290.794	8644.39
290.862	8637.51
290.929	8641.17
290.996	8636.64
291.064	8650.84
291.131	8664.51
291.198	8672.74
291.266	8672.16
291.333	8673.18
291.4	8676.74
291.468	8685.4
291.535	8681.41
291.602	8683.72
291.669	8672.79
291.737	8686.46
291.804	8682.99
291.871	8694.01
291.938	8701.57
292.006	8732.09
292.073	8747.97
292.14	8757.31
292.207	8746.96
292.275	8752.88
292.342	8763.52
292.409	8794.76
292.476	8813
292.543	8806.07
292.611	8803.91
292.678	8819.74
292.745	8846.55
292.812	8861.28
292.879	8859.12
292.946	8869.75
293.014	8888.09
293.081	8898.3
293.148	8911.78
293.215	8933.15
293.282	8928.05
293.349	8940.76
293.416	8922.22
293.484	8939.26
293.551	8946.34
293.618	8961.69
293.685	8993.37
293.752	8986.78
293.819	8983.6
293.886	8973.05
293.953	8980.76
294.02	8998.42
294.087	9006.22
294.154	8996.64
294.221	9010.7
294.288	9014.79
294.356	9033.71
294.423	9037.18
294.49	9033.81
294.557	9050.61
294.624	9043.58
294.691	9065.44
294.758	9063.08
294.825	9070.01
294.892	9059.18
294.959	9066.93
295.026	9081.9
295.093	9067.27
295.16	9072.42
295.226	9079.78
295.293	9100.15
295.36	9105.01
295.427	9110.31
295.494	9123.89
295.561	9129.57
295.628	9149.5
295.695	9166.21
295.762	9165.39
295.829	9171.41
295.896	9187.88
295.963	9192.84
296.03	9199.96
296.096	9210.7
296.163	9221.68
296.23	9232.56
296.297	9244.11
296.364	9245.89
296.431	9249.99
296.498	9253.55
296.564	9281.52
296.631	9283.54
296.698	9274.49
296.765	9298.23
296.832	9295.63
296.899	9280.99
296.965	9305.02
297.032	9285.56
297.099	9304.1
297.166	9316.67
297.233	9321.68
297.299	9314.46
297.366	9315.8
297.433	9316.72
297.5	9324.47
297.566	9329.24
297.633	9327.31
297.7	9334.92
297.767	9327.84
297.833	9335.84
297.9	9339.02
297.967	9320.57
298.033	9332.71
298.1	9362.76
298.167	9348.02
298.234	9347.3
298.3	9352.94
298.367	9346.96
298.434	9359.63
298.5	9345.18
298.567	9339.07
298.634	9336.47
298.7	9355.68
298.767	9355.73
298.834	9371.14
298.9	9363.77
298.967	9360.01
299.033	9378.6
299.1	9390.35
299.167	9410.24
299.233	9402.43
299.3	9424.97
299.366	9438.6
299.433	9451.79
299.5	9423.57
299.566	9433.01
299.633	9456.22
299.699	9473.65
299.766	9467.01
299.832	9468.69
299.899	9475.34
299.965	9487.52
300.032	9484.06
300.099	9489.79
300.165	9497.54
300.232	9497.92
300.298	9499.08
300.365	9514.44
300.431	9513.29
300.498	9511.65
300.564	9522.87
300.631	9538.95
300.697	9547.19
300.763	9552.83
300.83	9548.97
300.896	9568.28
300.963	9581.04
301.029	9586.44
301.096	9592.12
301.162	9609.46
301.229	9605.8
301.295	9595.59
301.361	9595.93
301.428	9599.44
301.494	9591.25
301.561	9595.01
301.627	9597.27
301.693	9603.44
301.76	9601.41
301.826	9593.13
301.892	9607.15
301.959	9613.22
302.025	9605.41
302.092	9604.06
302.158	9609.22
302.224	9612.97
302.291	9604.74
302.357	9602.81
302.423	9591.88
302.49	9581.67
302.556	9593.18
302.622	9591.59
302.688	9611.1
302.755	9627.04
302.821	9639.51
302.887	9648.03
302.954	9641.58
303.02	9652.18
303.086	9658.68
303.152	9660.17
303.219	9664.41
303.285	9666.29
303.351	9671.44
303.417	9673.51
303.483	9656.27
303.55	9649.19
303.616	9656.42
303.682	9651.17
303.748	9641.25
303.815	9660.42
303.881	9671.49
303.947	9657.82
304.013	9666.63
304.079	9653.77
304.145	9636.53
304.212	9631.71
304.278	9626.66
304.344	9626.7
304.41	9605.08
304.476	9594.2
304.542	9590.54
304.608	9593.09
304.674	9577.68
304.741	9573.05
304.807	9580.95
304.873	9586.3
304.939	9608.93
305.005	9583.98
305.071	9582.59
305.137	9591.64
305.203	9565.63
305.269	9563.95
305.335	9577.72
305.401	9571.94
305.467	9574.3
305.533	9584.13
305.599	9595.88
305.666	9601.27
305.732	9605.08
305.798	9628.48
305.864	9657.67
305.93	9662.1
305.996	9660.9
306.062	9657.62
306.128	9653.29
306.194	9635.42
306.259	9636.53
306.325	9618.51
306.391	9631.23
306.457	9642.16
306.523	9636.96
306.589	9653.62
306.655	9645.24
306.721	9624.63
306.787	9608.98
306.853	9629.01
306.919	9605.56
306.985	9601.13
307.051	9593.33
307.117	9588.08
307.183	9578.69
307.248	9548.49
307.314	9553.88
307.38	9551.91
307.446	9561.16
307.512	9552.87
307.578	9563.23
307.644	9562.26
307.709	9571.8
307.775	9567.99
307.841	9569.82
307.907	9573.72
307.973	9556.05
308.039	9553.64
308.104	9563.18
308.17	9566.69
308.236	9548.82
308.302	9560.72
308.368	9544.44
308.433	9552.29
308.499	9544.59
308.565	9535.72
308.631	9538.08
308.696	9515.69
308.762	9505.96
308.828	9498.88
308.894	9482.51
308.959	9459.64
309.025	9447.94
309.091	9438.4
309.156	9425.5
309.222	9424.34
309.288	9412.4
309.354	9395.06
309.419	9397.09
309.485	9379.75
309.551	9385.67
309.616	9366.36
309.682	9363.43
309.748	9361.21
309.813	9350.23
309.879	9338.87
309.945	9323.85
310.01	9316.05
310.076	9318.69
310.141	9314.89
310.207	9302.51
310.273	9306.61
310.338	9312.87
310.404	9299.14
310.469	9290.62
310.535	9286.67
310.601	9263.42
310.666	9271.17
310.732	9287.97
310.797	9270.35
310.863	9266.11
310.928	9257.92
310.994	9267.51
311.059	9264.57
311.125	9260.72
311.191	9275.41
311.256	9270.16
311.322	9278.05
311.387	9259.66
311.453	9560.11
311.518	9538.54
311.584	9541
311.649	9543.89
311.715	9530.98
311.78	9534.4
311.846	9520.82
311.911	9527.57
311.976	9529.83
312.042	9508.5
312.107	9488.47
312.173	9482.16
312.238	9472.1
312.304	9466.95
312.369	9451.93
312.434	9441.04
312.5	9434.26
312.565	9395.73
312.631	9399.3
312.696	9389.04
312.761	9393.52
312.827	9081.08
312.892	9117.77
312.958	9109.3
313.023	9107.23
313.088	9107.85
313.154	9091
313.219	9089.51
313.284	9076.27
313.35	9072.27
313.415	9069.05
313.48	9067.61
313.546	9076.66
313.611	9086
313.676	9077.72
313.741	9070.64
313.807	9081.95
313.872	9088.36
313.937	9096.93
314.003	9110.84
314.068	9115.85
314.133	9122.97
314.198	9116.81
314.264	9092.93
314.329	9083.78
314.394	9084.89
314.459	9082.05
314.525	9108.62
314.59	9100.29
314.655	9087.58
314.72	9097.74
314.785	9097.36
314.851	9090.14
314.916	9070.83
314.981	9049.75
315.046	9047.2
315.111	9043.92
315.176	9025.1
315.242	9023.7
315.307	9013.83
315.372	8984.99
315.437	8972.53
315.502	8963.38
315.567	8967.9
315.632	8947.78
315.698	8951.44
315.763	8933.96
315.828	8932.52
315.893	8920.58
315.958	8918.99
316.023	8913.5
316.088	8889.15
316.153	8865.75
316.218	8859.4
316.283	8839.76
316.348	8833.65
316.413	8823.3
316.479	8803.52
316.544	8770.27
316.609	8736.77
316.674	8706.55
316.739	8682.63
316.804	8652.55
316.869	8613.43
316.934	8578.15
316.999	8553.65
317.064	8501.39
317.129	8455.15
317.194	8413.19
317.259	8364.44
317.324	8308.83
317.389	8257.45
317.454	8222.27
317.518	8190.24
317.583	8164.73
317.648	8143.23
317.713	8100.46
317.778	8042.88
317.843	8014.98
317.908	7977.76
317.973	7935.33
318.038	7907.63
318.103	7868.29
318.168	7835.92
318.233	7809.57
318.297	7757.68
318.362	7717.82
318.427	7676.57
318.492	7657.52
318.557	7609.83
318.622	7582.62
318.687	7564.11
318.751	7529.41
318.816	7496.66
318.881	7462.53
318.946	7407.97
319.011	7357.64
319.075	7321.49
319.14	7287.57
319.205	7244.88
319.27	7209.71
319.335	7167.57
319.399	7126.29
319.464	7095.29
319.529	7044.36
319.594	7000.88
319.658	6977.77
319.723	6941.45
319.788	6917.48
319.853	6861.75
319.917	6829.76
319.982	6775.15
320.047	6737.39
320.112	6713.14
320.176	6653.87
320.241	6618.05
320.306	6588.03
320.37	6547.03
320.435	6518.22
320.5	6484.66
320.564	6443.47
320.629	6403.91
320.694	6378.52
320.758	6337.86
320.823	6294.13
320.888	6265.19
320.952	6218.59
321.017	6173.48
321.082	6131.4
321.146	6097.42
321.211	6064.55
321.275	6026.22
321.34	5987.32
321.405	5937.76
321.469	5887.97
321.534	5851.19
321.598	5801.22
321.663	5768.07
321.727	5737.47
321.792	5684.39
321.857	5646.79
321.921	5606.75
321.986	5562.94
322.05	5500.25
322.115	5459.93
322.179	5416.75
322.244	5360.83
322.308	5330.92
322.373	5287.27
322.437	5245.39
322.502	5215
322.566	5170.87
322.631	5131.82
322.695	5091.02
322.76	5047.87
322.824	5012.09
322.889	4970.44
322.953	4927.97
323.018	4862.7
323.082	4802.19
323.146	4750.51
323.211	4692.78
323.275	4647.93
323.34	4600.89
323.404	4572.04
323.468	4525.86
323.533	4480.08
323.597	4433.99
323.662	4379.39
323.726	4342.75
323.79	4296.45
323.855	4230.04
323.919	4183.56
323.983	4140.32
324.048	4073.14
324.112	4217.45
324.177	4087.97
324.241	3876.52
324.305	3668.66
324.37	3465
324.434	3267.46
324.498	3224.85
324.562	3177.34
324.627	3116.13
324.691	3063.24
324.755	2992.02
324.82	2916.25
324.884	2839.69
324.948	2770.11
325.012	2671.96
325.077	2542.64
