Data from 20250704_urea_1.5M_MAYP1162681_11-49-04-579.txt Node
Date: Fri Jul 04 11:49:04 BST 2025
User: adleo
Spectrometer: MAYP116268
Trigger mode: 0
Integration Time (sec): 1.000000E0
Scans to average: 1
Electric dark correction enabled: true
Nonlinearity correction enabled: true
Boxcar width: 10
XAxis mode: Wavelengths
Number of Pixels in Spectrum: 2068
>>>>>Begin Spectral Data<<<<<
179.565	1267.09
179.642	1326.17
179.718	1371.86
179.795	1415.51
179.871	1448.22
179.948	1468.67
180.024	1489.3
180.101	1514.4
180.177	1529.55
180.254	1553.27
180.33	1574.74
180.407	1633.62
180.483	1732.82
180.56	1827.98
180.636	1916.29
180.712	1901.79
180.789	1914.1
180.865	1927.08
180.942	1937.77
181.018	1948.42
181.095	1963.07
181.171	1964.64
181.248	1965.55
181.324	1980.77
181.4	1986.66
181.477	1999.84
181.553	2012.1
181.63	2035.12
181.706	2051.48
181.782	2062.8
181.859	2062.51
181.935	2068.13
182.011	2064.89
182.088	2083.87
182.164	2102.76
182.24	2117.31
182.317	2128.49
182.393	2128.3
182.469	2139.81
182.546	2155.08
182.622	2158.65
182.698	2151.37
182.775	2165.64
182.851	2180.91
182.927	2174.25
183.003	2168.26
183.08	2161.88
183.156	2173.35
183.232	2168.07
183.308	2154.6
183.385	2160.69
183.461	2176.77
183.537	2181.62
183.613	2192.9
183.69	2183.19
183.766	2174.01
183.842	2180.57
183.918	2186.09
183.995	2197.84
184.071	2203.6
184.147	2197.13
184.223	2185.29
184.299	2202.23
184.375	2188.72
184.452	2195.96
184.528	2247.64
184.604	2261.77
184.68	2271.19
184.756	2277.71
184.832	2283.61
184.908	2288.56
184.985	2286.27
185.061	2271.38
185.137	2279
185.213	2267.96
185.289	2271.1
185.365	2263.25
185.441	2262.44
185.517	2274.58
185.593	2272.63
185.669	2270.44
185.745	2281.72
185.822	2300.84
185.898	2290.22
185.974	2302.45
186.05	2292.78
186.126	2257.71
186.202	2249.15
186.278	2247.81
186.354	2237.06
186.43	2245.67
186.506	2245.91
186.582	2245.01
186.658	2254.19
186.734	2233.54
186.81	2237.44
186.886	2238.3
186.962	2253.05
187.038	2251.91
187.114	2246.1
187.19	2249.72
187.266	2239.72
187.341	2238.25
187.417	2230.64
187.493	2229.3
187.569	2232.68
187.645	2229.64
187.721	2217.12
187.797	2223.83
187.873	2230.59
187.949	2225.59
188.025	2216.83
188.101	2218.07
188.176	2225.54
188.252	2218.83
188.328	2227.58
188.404	2227.25
188.48	2221.35
188.556	2212.16
188.632	2208.22
188.707	2209.17
188.783	2208.45
188.859	2203.22
188.935	2194.13
189.011	2204.93
189.086	2199.8
189.162	2191.61
189.238	2183.05
189.314	2179.48
189.39	2176.15
189.465	2167.11
189.541	2184.67
189.617	2171.25
189.693	2167.12
189.768	2170.3
189.844	2197.34
189.92	2188.78
189.996	2199.58
190.071	2212.67
190.147	2212.57
190.223	2223.85
190.298	2214.43
190.374	2199.49
190.45	2212.76
190.526	2221.33
190.601	2212.38
190.677	2212.24
190.753	2241.09
190.828	2247.7
190.904	2262.69
190.98	2275.63
191.055	2286.29
191.131	2276.49
191.207	2295.71
191.282	2305.23
191.358	2294.38
191.433	2277.33
191.509	2290.13
191.585	2284.94
191.66	2285.13
191.736	2294.03
191.811	2283.18
191.887	2299.51
191.963	2321.97
192.038	2321.97
192.114	2319.73
192.189	2325.82
192.265	2324.73
192.34	2299.68
192.416	2300.92
192.491	2296.11
192.567	2297.82
192.642	2298.73
192.718	2297.49
192.793	2286.69
192.869	2281.6
192.944	2283.64
193.02	2293.4
193.095	2297.02
193.171	2303.11
193.246	2302.35
193.322	2299.02
193.397	2304.01
193.473	2290.45
193.548	2274.5
193.624	2284.21
193.699	2285.97
193.775	2301.68
193.85	2301.92
193.925	2311.49
194.001	2310.16
194.076	2303.4
194.152	2295.31
194.227	2289.02
194.302	2278.99
194.378	2282.37
194.453	2280.99
194.529	2294.41
194.604	2277.8
194.679	2272.32
194.755	2252.34
194.83	2266.63
194.905	2263.91
194.981	2267.1
195.056	2260.82
195.131	2267.06
195.207	2265.1
195.282	2254.44
195.357	2233.02
195.433	2250.77
195.508	2241.35
195.583	2247.82
195.659	2264.62
195.734	2270.57
195.809	2269.24
195.884	2280.7
195.96	2280.37
196.035	2296.74
196.11	2294.36
196.185	2307.97
196.261	2312.78
196.336	2345.47
196.411	2327.95
196.486	2332.47
196.561	2328.81
196.637	2336.9
196.712	2354.28
196.787	2355.47
196.862	2367.94
196.937	2378.07
197.013	2382.79
197.088	2392.88
197.163	2416.4
197.238	2431.89
197.313	2433.36
197.388	2449.74
197.464	2480.55
197.539	2491.83
197.614	2484.65
197.689	2495.88
197.764	2512.6
197.839	2531.17
197.914	2523.55
197.989	2550.6
198.065	2566.41
198.14	2618.16
198.215	2645.74
198.29	2656.46
198.365	2673.28
198.44	2686.94
198.515	2716.72
198.59	2732.25
198.665	2759.36
198.74	2764.84
198.815	2766.7
198.89	2788.9
198.965	2817.26
199.04	2813.26
199.115	2830.94
199.19	2874.15
199.265	2878.73
199.34	2888.31
199.415	2926.79
199.49	2949.57
199.565	2956.53
199.64	2980.74
199.715	2977.88
199.79	2986.37
199.865	2993.8
199.94	2994.61
200.015	3026.42
200.09	3032.28
200.165	3040.96
200.24	3048.11
200.315	3092.06
200.39	3107.8
200.464	3116.76
200.539	3120.77
200.614	3134.26
200.689	3158.11
200.764	3166.46
200.839	3182.33
200.914	3187.67
200.989	3173.17
201.063	3189.86
201.138	3172.94
201.213	3173.95
201.288	3154.44
201.363	3157.78
201.438	3157.59
201.512	3169.79
201.587	3152.91
201.662	3154.91
201.737	3164.78
201.812	3169.6
201.886	3135.66
201.961	3145.59
202.036	3131.76
202.111	3124.7
202.186	3098.11
202.26	3079.12
202.335	3054.8
202.41	3048.51
202.485	3029.87
202.559	3010.08
202.634	2977.9
202.709	2986.24
202.784	2967.02
202.858	2966.5
202.933	2951.05
203.008	2946.71
203.082	2926.32
203.157	2924.5
203.232	2886.76
203.306	2866.35
203.381	2833.75
203.456	2807.58
203.53	2780.87
203.605	2759.77
203.68	2736.27
203.754	2729.37
203.829	2715.41
203.904	2692.68
203.978	2684.39
204.053	2690.3
204.127	2677.63
204.202	2681.54
204.277	2665.2
204.351	2657.72
204.426	2650.81
204.5	2638.04
204.575	2601.75
204.65	2613.57
204.724	2606.99
204.799	2609.23
204.873	2606.23
204.948	2608.61
205.022	2597.42
205.097	2594.56
205.171	2609.56
205.246	2619.57
205.32	2615.43
205.395	2615.52
205.469	2609.52
205.544	2614.53
205.618	2594.47
205.693	2607.1
205.767	2591.76
205.842	2614.11
205.916	2607.39
205.991	2595.48
206.065	2601.68
206.14	2617.81
206.214	2611.33
206.289	2603.47
206.363	2617.71
206.438	2619.04
206.512	2624.28
206.586	2645.24
206.661	2648.81
206.735	2626.43
206.81	2626.77
206.884	2648.34
206.958	2634.91
207.033	2650
207.107	2656.34
207.181	2693.75
207.256	2688.56
207.33	2708.04
207.405	2718.91
207.479	2739.3
207.553	2747.78
207.628	2732.06
207.702	2746.45
207.776	2742.21
207.851	2745.02
207.925	2757.46
207.999	2755.22
208.073	2754.98
208.148	2757.75
208.222	2746.12
208.296	2781.13
208.371	2795.53
208.445	2806.11
208.519	2835.36
208.593	2850.8
208.668	2848.51
208.742	2846.13
208.816	2847.08
208.89	2863
208.965	2864.05
209.039	2870.92
209.113	2891.75
209.187	2911.75
209.261	2905.89
209.336	2927.91
209.41	2949.17
209.484	2955.13
209.558	2976.4
209.632	2989.74
209.707	3002.76
209.781	3029.88
209.855	3043.86
209.929	3065.52
210.003	3073.39
210.077	3072.72
210.151	3122.32
210.226	3158.05
210.3	3192.62
210.374	3219.74
210.448	3228.71
210.522	3241.26
210.596	3253.09
210.67	3263.25
210.744	3316.69
210.818	3354.42
210.892	3379.52
210.966	3380.23
211.041	3400.9
211.115	3408.77
211.189	3438.69
211.263	3463.03
211.337	3473.29
211.411	3500.31
211.485	3506.04
211.559	3525.6
211.633	3539.05
211.707	3521.24
211.781	3544.22
211.855	3520.58
211.929	3526.45
212.003	3522.4
212.077	3552.82
212.151	3585.25
212.225	3619.35
212.299	3634.02
212.373	3647.25
212.447	3669.04
212.52	3727.7
212.594	3760.09
212.668	3801.99
212.742	3824.4
212.816	3853.74
212.89	3891.14
212.964	3930.59
213.038	3974.53
213.112	4035.49
213.186	4105.66
213.26	4136.81
213.333	4138.24
213.407	4198.56
213.481	4259.54
213.555	4337.65
213.629	4386.98
213.703	4441.53
213.777	4505.19
213.85	4552.48
213.924	4656.65
213.998	4730.53
214.072	4802.63
214.146	4870.53
214.219	4947.16
214.293	5031.07
214.367	5117
214.441	5214.55
214.515	5290.9
214.588	5364.33
214.662	5426.4
214.736	5497.88
214.81	5608.68
214.883	5724.99
214.957	5818.48
215.031	5914.13
215.105	5989.27
215.178	6082.35
215.252	6179.52
215.326	6270.53
215.4	6367.22
215.473	6434.5
215.547	6534.06
215.621	6637.54
215.694	6762.2
215.768	6867.02
215.842	6971.27
215.915	7082.32
215.989	7175.5
216.063	7285.86
216.136	7407.19
216.21	7528.51
216.284	7668.18
216.357	7786.86
216.431	7913.59
216.504	8046.91
216.578	8205.43
216.652	8354.91
216.725	8486.6
216.799	8627.08
216.873	8757.93
216.946	8891.08
217.02	9024.01
217.093	9152.26
217.167	9260.97
217.24	9379.29
217.314	9501.15
217.387	9627.21
217.461	9754.64
217.535	9902.83
217.608	10021.08
217.682	10150.36
217.755	10293
217.829	10410.7
217.902	10540.58
217.976	10660.41
218.049	10778.36
218.123	10881.43
218.196	11009.23
218.27	11133.46
218.343	11241.99
218.417	11369.94
218.49	11492.93
218.563	11626.91
218.637	11752.75
218.71	11893.49
218.784	12013.89
218.857	12149.58
218.931	12272.15
219.004	12391.16
219.077	12516.68
219.151	12644.13
219.224	12757.45
219.298	12871.65
219.371	12999.35
219.444	13101.73
219.518	13223.98
219.591	13339.82
219.665	13480.38
219.738	13588.75
219.811	13696.25
219.885	13819.61
219.958	13928.12
220.031	14041.93
220.105	14160.52
220.178	14271.68
220.251	14372.91
220.325	14491.59
220.398	14596.14
220.471	14706.92
220.544	14815.33
220.618	14908.22
220.691	15017.06
220.764	15121.04
220.838	15219.85
220.911	15311.15
220.984	15430.54
221.057	15525.4
221.131	15618.67
221.204	15678.83
221.277	15787.62
221.35	15904.45
221.424	15984.94
221.497	16078.02
221.57	16161.64
221.643	16244.88
221.716	16322.09
221.79	16394.1
221.863	16459.5
221.936	16527.75
222.009	16600.67
222.082	16680.68
222.155	16740.92
222.229	16821.75
222.302	16890.14
222.375	16954.48
222.448	17025.95
222.521	17084.36
222.594	17145.9
222.667	17198.77
222.74	17266.29
222.814	17315.98
222.887	17360.65
222.96	17435.26
223.033	17493.86
223.106	17550.87
223.179	17607.55
223.252	17666.82
223.325	17723.54
223.398	17778.96
223.471	17834.1
223.544	17884.99
223.617	17935.92
223.69	17992.5
223.763	18024.45
223.837	18071.63
223.91	18117.46
223.983	18145.17
224.056	18178.13
224.129	18228.3
224.202	18284.88
224.275	18323.43
224.348	18349.11
224.42	18370.22
224.493	18380.25
224.566	18412.97
224.639	18451.47
224.712	18474.17
224.785	18507.61
224.858	18535.32
224.931	18560.14
225.004	18576.91
225.077	18600.67
225.15	18587.56
225.223	18608.62
225.296	18666.4
225.369	18669.24
225.442	18682.69
225.514	18701.48
225.587	18725.43
225.66	18741.62
225.733	18761.81
225.806	18782.54
225.879	18804.17
225.952	18809.47
226.025	18838.72
226.097	18863.83
226.17	18872.36
226.243	18861.23
226.316	18872.41
226.389	18889.08
226.461	18904.84
226.534	18929.13
226.607	18935.49
226.68	18985.41
226.753	19003.44
226.825	18980.02
226.898	19022.33
226.971	19035.15
227.044	19050.95
227.117	19062.42
227.189	19081.02
227.262	19102.66
227.335	19115.86
227.407	19106.08
227.48	19124.39
227.553	19138.51
227.626	19139.24
227.698	19142.13
227.771	19160.49
227.844	19151.04
227.916	19156.87
227.989	19151.28
228.062	19149.36
228.134	19180.25
228.207	19175.38
228.28	19165.4
228.352	19169.11
228.425	19163.33
228.498	19178.46
228.57	19172.15
228.643	19189.02
228.716	19184.44
228.788	19174.66
228.861	19164.44
228.934	19188.82
229.006	19192.24
229.079	19177.55
229.151	19167.67
229.224	19156.05
229.296	19165.93
229.369	19196.44
229.442	19203.04
229.514	19189.64
229.587	19198.08
229.659	19174.99
229.732	19179.04
229.804	19191.28
229.877	19207.62
229.949	19208.63
230.022	19230.36
230.094	19223.42
230.167	19217.3
230.239	19200.53
230.312	19196.87
230.384	19221.83
230.457	19225.21
230.529	19218.07
230.602	19233.54
230.674	19233.11
230.747	19248.53
230.819	19250.02
230.892	19208.58
230.964	19202.41
231.037	19200.73
231.109	19186.17
231.181	19186.37
231.254	19153.26
231.326	19138.61
231.399	19123.48
231.471	19107.33
231.544	19058.95
231.616	19068.4
231.688	19047.68
231.761	19029.65
231.833	19012.4
231.905	18977.99
231.978	18964.5
232.05	18957.75
232.122	18938
232.195	18920.6
232.267	18916.74
232.339	18896.36
232.412	18893.28
232.484	18879.45
232.556	18865.13
232.629	18876.46
232.701	18873.28
232.773	18872.26
232.846	18848.89
232.918	18837.52
232.99	18833.09
233.062	18839.4
233.135	18825.81
233.207	18805.43
233.279	18802.15
233.351	18790.49
233.424	18771.69
233.496	18743.94
233.568	18755.6
233.64	18726.25
233.713	18715.02
233.785	18695.46
233.857	18683.79
233.929	18662.16
234.001	18666.64
234.074	18672.18
234.146	18629.92
234.218	18609.05
234.29	18590.93
234.362	18577.39
234.434	18545.59
234.507	18515.8
234.579	18476.19
234.651	18454.99
234.723	18454.8
234.795	18438.07
234.867	18417.3
234.939	18414.27
235.012	18403.91
235.084	18382.8
235.156	18380.34
235.228	18351.19
235.3	18321.93
235.372	18309.26
235.444	18305.36
235.516	18260.88
235.588	18236.4
235.66	18222.08
235.732	18201.7
235.804	18244.54
235.876	18232.69
235.948	18229.89
236.02	18210.57
236.092	18189.75
236.164	18167.05
236.236	18130.09
236.308	18113.03
236.38	18109.22
236.452	18082.19
236.524	18064.4
236.596	18050.52
236.668	18026.04
236.74	18008.36
236.812	17995.2
236.884	17970.58
236.956	17945.81
237.028	17911.35
237.1	17879.06
237.172	17885.08
237.244	17873.52
237.316	17805.71
237.388	17777.18
237.46	17742.68
237.532	17730
237.604	17701.38
237.675	17704.41
237.747	17698.15
237.819	17661.04
237.891	17629.67
237.963	17592.56
238.035	17557.33
238.107	17492.03
238.178	17477.91
238.25	17456.9
238.322	17467.26
238.394	17436.17
238.466	17411.26
238.538	17400.42
238.609	17392.42
238.681	17331.16
238.753	17296.37
238.825	17276.08
238.897	17260.13
238.968	17261.48
239.04	17235.16
239.112	17252.85
239.184	17210.87
239.255	17181.91
239.327	17166.15
239.399	17134.92
239.471	17124.22
239.542	17114.15
239.614	17121.14
239.686	17082.34
239.758	17067.25
239.829	17023.35
239.901	17004.8
239.973	16984.8
240.044	16956.7
240.116	16935.73
240.188	16916.21
240.259	16894.62
240.331	16866.91
240.403	16843.44
240.474	16793.46
240.546	16756.93
240.618	16696.54
240.689	16665.02
240.761	16644.39
240.833	16637.6
240.904	16613.26
240.976	16584
241.048	16554.94
241.119	16518.75
241.191	16497.25
241.262	16491.03
241.334	16457.25
241.405	16426.88
241.477	16388.04
241.549	16361.91
241.62	16334.49
241.692	16315.06
241.763	16297.33
241.835	16264.75
241.906	16243.73
241.978	16204.84
242.049	16190.38
242.121	16183.44
242.192	16166.66
242.264	16123.48
242.335	16081.59
242.407	16059.42
242.478	16031.13
242.55	16008.43
242.621	15981.73
242.693	15953.67
242.764	15912.56
242.836	15887.02
242.907	15870.19
242.979	15857.18
243.05	15837.18
243.122	15820.5
243.193	15796.69
243.264	15746.22
243.336	15725.93
243.407	15705.06
243.479	15696.1
243.55	15669.49
243.622	15646.88
243.693	15616.66
243.764	15612.23
243.836	15574.2
243.907	15547.49
243.978	15514.47
244.05	15493.7
244.121	15448.63
244.192	15428.29
244.264	15385.73
244.335	15355.22
244.407	15308.99
244.478	15282.72
244.549	15253.32
244.62	15204.92
244.692	15181.93
244.763	15168.05
244.834	15125.1
244.906	15084.99
244.977	15062.19
245.048	15056.02
245.119	15012.16
245.191	14978.32
245.262	14925.01
245.333	14918.16
245.405	14893.97
245.476	14881.19
245.547	14855.84
245.618	14841.13
245.689	14820.17
245.761	14801.12
245.832	14771.14
245.903	14756.73
245.974	14733.93
246.045	14705.34
246.117	14699.12
246.188	14659.26
246.259	14616.5
246.33	14598.71
246.401	14563.57
246.473	14523.8
246.544	14481.05
246.615	14469.91
246.686	14447.98
246.757	14436.12
246.828	14394.71
246.899	14382.03
246.97	14333.54
247.042	14303.75
247.113	14284.13
247.184	14271.64
247.255	14243.73
247.326	14217.56
247.397	14186.46
247.468	14158.31
247.539	14130.78
247.61	14087.3
247.681	14071.78
247.752	14060.89
247.823	14021.36
247.894	14010.9
247.965	13969.63
248.037	13942.3
248.108	13901.23
248.179	13875.97
248.25	13847.09
248.321	13826.7
248.392	13784.42
248.463	13786.11
248.534	13753.04
248.605	13742.05
248.675	13705.7
248.746	13682.51
248.817	13668.25
248.888	13648.24
248.959	13602.49
249.03	13587.45
249.101	13573.28
249.172	13543.1
249.243	13502.37
249.314	13493.4
249.385	13463.71
249.456	13455.94
249.527	13431.65
249.598	13417.43
249.669	13387.1
249.739	13368.21
249.81	13351.24
249.881	13321.88
249.952	13287.65
250.023	13262.01
250.094	13220.07
250.165	13194.95
250.235	13169.89
250.306	13146.6
250.377	13111.89
250.448	13096.42
250.519	13055.78
250.59	13035.34
250.66	13006.66
250.731	13003.09
250.802	12985.11
250.873	12970.99
250.944	12954.02
251.014	12923.55
251.085	12919.6
251.156	12905.67
251.227	12897.04
251.297	12886
251.368	12875.49
251.439	12871.15
251.51	12870.28
251.58	12830.61
251.651	12805.93
251.722	12798.65
251.792	12760.23
251.863	12743.46
251.934	12740.66
252.005	12751.12
252.075	12730.49
252.146	12716.46
252.217	12702.68
252.287	12693.37
252.358	12671.29
252.429	12672.79
252.499	12646.9
252.57	12630.9
252.641	12615.95
252.711	12601.69
252.782	12571.22
252.852	12578.35
252.923	12560.04
252.994	12538.25
253.064	12543.84
253.135	12508.22
253.205	12481.27
253.276	12479.44
253.347	12475.63
253.417	12446.13
253.488	12417.16
253.558	12387.95
253.629	12369.97
253.699	12353.87
253.77	12338.15
253.841	12317.38
253.911	12293.18
253.982	12276.12
254.052	12266.04
254.123	12246.71
254.193	12226.61
254.264	12241.02
254.334	12204.2
254.405	12165.83
254.475	12129.29
254.546	12104.66
254.616	12105.67
254.687	12095.89
254.757	12081.43
254.827	12054.34
254.898	12040.7
254.968	12023.15
255.039	12006.42
255.109	12002.47
255.18	11973.55
255.25	11925.88
255.321	11916.96
255.391	11886.79
255.461	11892.53
255.532	11838.93
255.602	11815.41
255.673	11764.51
255.743	11739.49
255.813	11697.17
255.884	11694.47
255.954	11685.08
256.024	11689.37
256.095	11664.49
256.165	11629.02
256.235	11612.87
256.306	11597.6
256.376	11591.14
256.446	11582.22
256.517	11567.95
256.587	11558.07
256.657	11546.94
256.728	11540.1
256.798	11514.02
256.868	11485.3
256.938	11464.96
257.009	11465.54
257.079	11465.2
257.149	11478.98
257.219	11432.33
257.29	11422.93
257.36	11388.57
257.43	11380.13
257.5	11340.42
257.571	11326.78
257.641	11315.55
257.711	11287.98
257.781	11274.1
257.852	11263.12
257.922	11217.81
257.992	11195.5
258.062	11172.51
258.132	11162.15
258.202	11141.33
258.273	11128.18
258.343	11135.21
258.413	11099.6
258.483	11080.66
258.553	11045.09
258.623	11020.95
258.693	11017
258.764	11021.14
258.834	11016.8
258.904	11007.02
258.974	10977.77
259.044	10960.18
259.114	10951.99
259.184	10940.67
259.254	10921.15
259.324	10878.94
259.394	10876.09
259.464	10885.01
259.535	10869.88
259.605	10848.91
259.675	10826.85
259.745	10823.09
259.815	10795.43
259.885	10784.88
259.955	10797.79
260.025	10772.69
260.095	10757.65
260.165	10740.11
260.235	10729.8
260.305	10705.9
260.375	10673.71
260.445	10682.97
260.515	10681.42
260.585	10673.95
260.655	10664.8
260.725	10656.66
260.795	10651.98
260.865	10661.76
260.934	10631.74
261.004	10625.58
261.074	10606.45
261.144	10605.68
261.214	10592.67
261.284	10571.56
261.354	10566.99
261.424	10539.62
261.494	10551.47
261.564	10538.8
261.634	10538.02
261.703	10512.05
261.773	10505.45
261.843	10498.18
261.913	10478.38
261.983	10442.05
262.053	10433.91
262.123	10407.89
262.192	10385.25
262.262	10376.96
262.332	10338.13
262.402	10330.18
262.472	10307.82
262.541	10279.93
262.611	10275.79
262.681	10251.22
262.751	10247.36
262.821	10229.15
262.89	10198.85
262.96	10185.6
263.03	10187.67
263.1	10173.79
263.169	10154.57
263.239	10147.44
263.309	10143.93
263.379	10138.72
263.448	10130.82
263.518	10115.69
263.588	10108.61
263.657	10106.49
263.727	10107.02
263.797	10097.63
263.867	10086.07
263.936	10062.18
264.006	10063.43
264.076	10043.92
264.145	10029.71
264.215	10008.8
264.285	9999.32
264.354	9971.62
264.424	9948.45
264.494	9920.41
264.563	9897
264.633	9907.26
264.702	9900.18
264.772	9878.12
264.842	9861.41
264.911	9852.93
264.981	9828.55
265.05	9809.58
265.12	9791.56
265.19	9774.99
265.259	9776.77
265.329	9765.74
265.398	9754.43
265.468	9767.09
265.537	9755.25
265.607	9751.92
265.676	9754.43
265.746	9751.49
265.815	9750.14
265.885	9734.54
265.955	9709.59
266.024	9693.22
266.094	9650.84
266.163	9653.29
266.232	9650.02
266.302	9630.42
266.371	9627.67
266.441	9616.4
266.51	9615.68
266.58	9601.91
266.649	9580.43
266.719	9575.9
266.788	9567.18
266.858	9574.4
266.927	9539.01
266.996	9525.96
267.066	9516.71
267.135	9490.56
267.205	9486.61
267.274	9475.78
267.343	9483.14
267.413	9475.15
267.482	9480.5
267.552	9488.25
267.621	9453.91
267.69	9425.84
267.76	9425.45
267.829	9409.42
267.898	9404.5
267.968	9385.53
268.037	9387.89
268.106	9389.1
268.176	9364.49
268.245	9347.39
268.314	9332.27
268.384	9331.5
268.453	9320.09
268.522	9312.05
268.592	9315.56
268.661	9297.12
268.73	9297.94
268.799	9274.83
268.869	9285.61
268.938	9257.54
269.007	9238.62
269.076	9233.9
269.146	9240.93
269.215	9232.07
269.284	9240.79
269.353	9216.52
269.422	9203.91
269.492	9182.87
269.561	9147.77
269.63	9139.58
269.699	9131.21
269.768	9123.7
269.838	9116.71
269.907	9118.35
269.976	9096.16
270.045	9067.42
270.114	9063.56
270.183	9045.08
270.253	9040.5
270.322	9013.16
270.391	9004.06
270.46	9013.3
270.529	9011.52
270.598	9007.77
270.667	8999.58
270.736	8976.42
270.806	8986.87
270.875	8993.66
270.944	8985.62
271.013	9008.97
271.082	9000.78
271.151	8996.64
271.22	8962.47
271.289	8950.24
271.358	8940.23
271.427	8938.3
271.496	8933.39
271.565	8920.87
271.634	8912.98
271.703	8912.79
271.772	8909.37
271.841	8898.88
271.91	8879.19
271.979	8868.17
272.048	8845.88
272.117	8835.77
272.186	8823.01
272.255	8815.26
272.324	8806.69
272.393	8795.58
272.462	8777.33
272.531	8774.78
272.6	8765.63
272.669	8778.05
272.738	8765.58
272.807	8759.37
272.876	8735.6
272.945	8759.91
273.013	8754.13
273.082	8762.75
273.151	8747.78
273.22	8750.52
273.289	8747.83
273.358	8754.52
273.427	8744.41
273.496	8741.28
273.564	8739.36
273.633	8744.75
273.702	8719.24
273.771	8711.83
273.84	8711.97
273.909	8710.33
273.977	8706
274.046	8692.72
274.115	8698.16
274.184	8683.19
274.253	8678.72
274.322	8689.88
274.39	8658.55
274.459	8651.38
274.528	8616.34
274.597	8608.06
274.665	8598.25
274.734	8604.12
274.803	8592.32
274.872	8584.72
274.94	8571.92
275.009	8603.36
275.078	8586.8
275.147	8589.16
275.215	8585.21
275.284	8588.15
275.353	8576.74
275.421	8551
275.49	8564.04
275.559	8553.06
275.627	8552.15
275.696	8539.64
275.765	8541.18
275.833	8532.76
275.902	8530.59
275.971	8547.72
276.039	8562.93
276.108	8575.64
276.177	8578.57
276.245	8566.3
276.314	8562.45
276.383	8569.28
276.451	8532.79
276.52	8535.78
276.588	8555.17
276.657	8564.12
276.725	8563.35
276.794	8564.75
276.863	8577.12
276.931	8562.34
277	8566.05
277.068	8574.32
277.137	8597.38
277.205	8592.27
277.274	8607.43
277.342	8614.51
277.411	8599.01
277.48	8579.62
277.548	8565.28
277.617	8560.37
277.685	8555.41
277.754	8561.04
277.822	8556.13
277.89	8568.79
277.959	8558.54
278.027	8530.68
278.096	8513.83
278.164	8538.67
278.233	8532.71
278.301	8524.24
278.37	8524.14
278.438	8505.66
278.507	8505.37
278.575	8477.6
278.643	8472.74
278.712	8461.44
278.78	8447.48
278.849	8452.34
278.917	8466.73
278.985	8462.73
279.054	8464.32
279.122	8480.1
279.191	8477.89
279.259	8471.92
279.327	8457.1
279.396	8478.9
279.464	8483.52
279.532	8494.4
279.601	8487.13
279.669	8480.92
279.737	8496.56
279.806	8504.88
279.874	8518.94
279.942	8514.36
280.011	8510.76
280.079	8523.08
280.147	8543.33
280.215	8550.6
280.284	8553.54
280.352	8541.84
280.42	8545.5
280.488	8540.3
280.557	8527.6
280.625	8533.13
280.693	8533.85
280.761	8530
280.83	8515.04
280.898	8524.04
280.966	8503.78
281.034	8477.21
281.102	8469.08
281.171	8464.6
281.239	8467.54
281.307	8454.31
281.375	8449.54
281.443	8471.87
281.512	8466.96
281.58	8465.52
281.648	8454.59
281.716	8441.32
281.784	8438.62
281.852	8430.78
281.92	8429.77
281.989	8444.97
282.057	8428.23
282.125	8479.97
282.193	8484.16
282.261	8477.71
282.329	8476.75
282.397	8484.5
282.465	8481.22
282.533	8494.36
282.601	8479.06
282.67	8456.63
282.738	8457.5
282.806	8468.81
282.874	8460.24
282.942	8461.4
283.01	8456.97
283.078	8466.16
283.146	8474.77
283.214	8489.4
283.282	8495.51
283.35	8504.9
283.418	8497.72
283.486	8502.68
283.554	8451.27
283.622	8450.69
283.69	8458.3
283.758	8452.38
283.826	8457.29
283.894	8468.07
283.962	8486.59
284.03	8500.55
284.098	8507.19
284.165	8504.98
284.233	8501.32
284.301	8491.74
284.369	8483.95
284.437	8473.89
284.505	8462.05
284.573	8470.18
284.641	8458.3
284.709	8463.98
284.777	8451.51
284.845	8458.63
284.912	8459.79
284.98	8471
285.048	8466.33
285.116	8468.35
285.184	8475.24
285.252	8475.24
285.319	8460.03
285.387	8445.25
285.455	8431.16
285.523	8440.25
285.591	8434.33
285.659	8439.87
285.726	8456.32
285.794	8442.42
285.862	8445.36
285.93	8440.01
285.997	8443.38
286.065	8438.91
286.133	8433.04
286.201	8427.89
286.269	8411.72
286.336	8406.38
286.404	8397.48
286.472	8407.78
286.539	8380.98
286.607	8367.36
286.675	8365.58
286.743	8375.83
286.81	8373.9
286.878	8384.78
286.946	8373.9
287.013	8376.5
287.081	8377.27
287.149	8365.87
287.216	8384.53
287.284	8376.79
287.352	8383.62
287.419	8378.71
287.487	8398.06
287.555	8398.3
287.622	8398.06
287.69	8408.45
287.758	8425
287.825	8416.82
287.893	8401.04
287.96	8410.85
288.028	8425.1
288.096	8434.53
288.163	8440.45
288.231	8432.22
288.298	8436.65
288.366	8449.93
288.433	8447.38
288.501	8439.73
288.569	8437.13
288.636	8436.26
288.704	8448.97
288.771	8459.84
288.839	8448.92
288.906	8434.96
288.974	8443.96
289.041	8439.58
289.109	8427.65
289.176	8432.42
289.244	8441.27
289.311	8458.25
289.379	8473.27
289.446	8475.87
289.514	8470.57
289.581	8470.62
289.649	8472.83
289.716	8477.02
289.783	8467.97
289.851	8486.88
289.918	8487.12
289.986	8501.08
290.053	8503.1
290.121	8504.21
290.188	8504.26
290.255	8536.11
290.323	8538.52
290.39	8536.06
290.458	8543.57
290.525	8554.11
290.592	8551.56
290.66	8554.44
290.727	8547.32
290.794	8560.75
290.862	8557.09
290.929	8559.16
290.996	8558.25
291.064	8570.18
291.131	8579.23
291.198	8593.81
291.266	8587.7
291.333	8588.42
291.4	8591.93
291.468	8604.3
291.535	8600.6
291.602	8603.68
291.669	8595.54
291.737	8596.8
291.804	8591.69
291.871	8614.22
291.938	8627.98
292.006	8659.9
292.073	8673.66
292.14	8685.31
292.207	8672.65
292.275	8677.37
292.342	8691.28
292.409	8714.96
292.476	8740.04
292.543	8727.57
292.611	8729.02
292.678	8757.51
292.745	8781.86
292.812	8786.49
292.879	8789.08
292.946	8795.05
293.014	8808.34
293.081	8817.58
293.148	8832.07
293.215	8854.3
293.282	8845.25
293.349	8853.1
293.416	8830.04
293.484	8844.72
293.551	8859.88
293.618	8882.27
293.685	8907.87
293.752	8901.42
293.819	8902.92
293.886	8885.44
293.953	8893.19
294.02	8905.13
294.087	8903.01
294.154	8898.24
294.221	8918.56
294.288	8917.84
294.356	8937.43
294.423	8945.57
294.49	8935.79
294.557	8950.86
294.624	8943.21
294.691	8959.19
294.758	8956.49
294.825	8958.8
294.892	8951.01
294.959	8949.27
295.026	8954.71
295.093	8949.71
295.16	8952.02
295.226	8949.13
295.293	8976.71
295.36	8987.01
295.427	8997.7
295.494	9013.4
295.561	9019.42
295.628	9038.77
295.695	9053.65
295.762	9055.77
295.829	9064
295.896	9084.85
295.963	9091.92
296.03	9105.55
296.096	9116.72
296.163	9136.02
296.23	9160.58
296.297	9172.42
296.364	9167.61
296.431	9176.61
296.498	9174.3
296.564	9195.53
296.631	9196.97
296.698	9179.25
296.765	9198.37
296.832	9188.07
296.899	9175.93
296.965	9196.73
297.032	9181.51
297.099	9196.06
297.166	9205.3
297.233	9196.06
297.299	9181.9
297.366	9181.08
297.433	9182
297.5	9188.84
297.566	9188.16
297.633	9181.66
297.7	9190.81
297.767	9192.25
297.833	9195.87
297.9	9196.25
297.967	9183.88
298.033	9201.16
298.1	9236.17
298.167	9224.95
298.234	9230.05
298.3	9237.23
298.367	9231.11
298.434	9239.3
298.5	9231.16
298.567	9219.61
298.634	9223.22
298.7	9250.9
298.767	9259.37
298.834	9269.87
298.9	9263.13
298.967	9253.55
299.033	9266.5
299.1	9278.83
299.167	9295.44
299.233	9296.11
299.3	9308.68
299.366	9326.01
299.433	9341.33
299.5	9308.39
299.566	9319.42
299.633	9337.91
299.699	9347.54
299.766	9343.35
299.832	9345.9
299.899	9355.53
299.965	9374.98
300.032	9369.74
300.099	9380.86
300.165	9382.07
300.232	9378.89
300.298	9385.97
300.365	9403.69
300.431	9401.86
300.498	9392.66
300.564	9399.78
300.631	9407.73
300.697	9425.07
300.763	9422.23
300.83	9413.8
300.896	9432.86
300.963	9442.69
301.029	9451.79
301.096	9458.15
301.162	9473.46
301.229	9466.24
301.295	9455.64
301.361	9458.1
301.428	9473.89
301.494	9453.81
301.561	9455.3
301.627	9464.64
301.693	9465.37
301.76	9465.99
301.826	9459.15
301.892	9470.95
301.959	9478.27
302.025	9473.07
302.092	9466.67
302.158	9474.47
302.224	9478.08
302.291	9469.85
302.357	9458.63
302.423	9446.2
302.49	9436.76
302.556	9446.01
302.622	9449.52
302.688	9467.34
302.755	9482.75
302.821	9488.29
302.887	9499.9
302.954	9502.74
303.02	9502.11
303.086	9504.13
303.152	9506.49
303.219	9507.36
303.285	9510.01
303.351	9518.44
303.417	9526.67
303.483	9521.09
303.55	9515.6
303.616	9517.04
303.682	9516.46
303.748	9517.62
303.815	9535.92
303.881	9547.72
303.947	9536.26
304.013	9537.94
304.079	9523.69
304.145	9502.74
304.212	9497.92
304.278	9489.98
304.344	9486.94
304.41	9480.92
304.476	9476.45
304.542	9465.32
304.608	9473.12
304.674	9456.61
304.741	9450.39
304.807	9455.69
304.873	9462.91
304.939	9481.36
305.005	9458.49
305.071	9457.57
305.137	9458.44
305.203	9430.65
305.269	9429.35
305.335	9441.58
305.401	9439.7
305.467	9440.91
305.533	9448.42
305.599	9455.02
305.666	9466
305.732	9463.01
305.798	9474.33
305.864	9500.82
305.93	9501.68
305.996	9501.1
306.062	9502.93
306.128	9493.69
306.194	9480.59
306.259	9469.85
306.325	9456.85
306.391	9473.46
306.457	9487.42
306.523	9493.92
306.589	9523.59
306.655	9514.92
306.721	9492.67
306.787	9481.36
306.853	9490.75
306.919	9469.66
306.985	9466.82
307.051	9458.34
307.117	9451.41
307.183	9444.47
307.248	9413.27
307.314	9427.76
307.38	9428.15
307.446	9435.76
307.512	9426.22
307.578	9426.85
307.644	9430.55
307.709	9432.48
307.775	9425.26
307.841	9418.61
307.907	9412.69
307.973	9386.3
308.039	9383.5
308.104	9393.71
308.17	9392.61
308.236	9383.36
308.302	9395.88
308.368	9384.27
308.433	9383.07
308.499	9381.1
308.565	9372.38
308.631	9376.14
308.696	9352.73
308.762	9338.09
308.828	9338.05
308.894	9322.93
308.959	9296.45
309.025	9280.22
309.091	9277.67
309.156	9270.69
309.222	9273.67
309.288	9260.33
309.354	9245.94
309.419	9248.39
309.485	9235.15
309.551	9240.4
309.616	9224.85
309.682	9220.56
309.748	9210.12
309.813	9203.57
309.879	9195.67
309.945	9180.31
310.01	9179.98
310.076	9180.65
310.141	9176.99
310.207	9161.25
310.273	9163.85
310.338	9177.42
310.404	9172.94
310.469	9159.75
310.535	9147.81
310.601	9123.64
310.666	9130.77
310.732	9136.59
310.797	9120.08
310.863	9108.38
310.928	9101.93
310.994	9105.35
311.059	9097.3
311.125	9097.79
311.191	9110.26
311.256	9096.1
311.322	9102.99
311.387	9076.51
311.453	9497.25
311.518	9474.19
311.584	9473.85
311.649	9481.8
311.715	9471.49
311.78	9467.4
311.846	9457.44
311.911	9465.76
311.976	9465.52
312.042	9454.5
312.107	9438.28
312.173	9433.7
312.238	9428.84
312.304	9420.22
312.369	9411.56
312.434	9400.48
312.5	9395.33
312.565	9356.82
312.631	9362.5
312.696	9356.82
312.761	9362.21
312.827	8939.07
312.892	8972.91
312.958	8965.06
313.023	8956.2
313.088	8950.48
313.154	8939.12
313.219	8931.17
313.284	8923.95
313.35	8923.33
313.415	8910.67
313.48	8907.1
313.546	8913.22
313.611	8921.26
313.676	8910.09
313.741	8897.67
313.807	8904.8
313.872	8905.9
313.937	8916.49
314.003	8929.44
314.068	8928.82
314.133	8938.93
314.198	8926.55
314.264	8902.72
314.329	8895.89
314.394	8896.9
314.459	8898.58
314.525	8918.99
314.59	8911.24
314.655	8896.71
314.72	8902.19
314.785	8904.41
314.851	8900.6
314.916	8879.52
314.981	8867.82
315.046	8864.36
315.111	8860.46
315.176	8850.83
315.242	8854.35
315.307	8850.69
315.372	8826.86
315.437	8816.17
315.502	8805.05
315.567	8814.35
315.632	8797.07
315.698	8801.83
315.763	8793.17
315.828	8781.28
315.893	8772.71
315.958	8774.06
316.023	8769.2
316.088	8747.39
316.153	8724.82
316.218	8723.81
316.283	8708.56
316.348	8689.84
316.413	8687.24
316.479	8672.42
316.544	8641.43
316.609	8611.54
316.674	8578.29
316.739	8551.15
316.804	8523.87
316.869	8489.32
316.934	8450.86
316.999	8430.75
317.064	8375.08
317.129	8329.99
317.194	8295.88
317.259	8251.37
317.324	8200.05
317.389	8157.52
317.454	8121.1
317.518	8090.99
317.583	8061.5
317.648	8038.02
317.713	8000.56
317.778	7940.33
317.843	7909.74
317.908	7871.51
317.973	7834.62
318.038	7807.93
318.103	7770.09
318.168	7740.08
318.233	7707.57
318.297	7654.73
318.362	7617.51
318.427	7580.6
318.492	7560.4
318.557	7513.87
318.622	7481.99
318.687	7463.68
318.751	7426.14
318.816	7394.85
318.881	7361.92
318.946	7308.8
319.011	7260.98
319.075	7224.55
319.14	7191.93
319.205	7148.48
319.27	7115.28
319.335	7069.68
319.399	7028.79
319.464	7001.89
319.529	6946.4
319.594	6911.09
319.658	6884.52
319.723	6842.78
319.788	6816.89
319.853	6758.81
319.917	6726.69
319.982	6673.43
320.047	6635.1
320.112	6607.15
320.176	6553.75
320.241	6517.64
320.306	6489.36
320.37	6450.62
320.435	6423.83
320.5	6398
320.564	6360.75
320.629	6322.64
320.694	6291.92
320.758	6252.09
320.823	6204.14
320.888	6182.74
320.952	6134.94
321.017	6094.44
321.082	6057.02
321.146	6022.71
321.211	5990.42
321.275	5950.37
321.34	5911.86
321.405	5868.5
321.469	5823.46
321.534	5783.91
321.598	5735.28
321.663	5701.94
321.727	5674.85
321.792	5623.2
321.857	5581.05
321.921	5541.79
321.986	5495.63
322.05	5436.54
322.115	5401.79
322.179	5357.95
322.244	5296.52
322.308	5262.07
322.373	5220.57
322.437	5181.04
322.502	5154.78
322.566	5116.21
322.631	5084.02
322.695	5048.87
322.76	5002.23
322.824	4968.94
322.889	4930.07
322.953	4883.78
323.018	4821.43
323.082	4757.48
323.146	4708.81
323.211	4656.11
323.275	4614.04
323.34	4575.81
323.404	4541.51
323.468	4493.99
323.533	4457.73
323.597	4416.18
323.662	4363.52
323.726	4324.58
323.79	4276.13
323.855	4205.47
323.919	4155.31
323.983	4110.22
324.048	4043.7
324.112	4194
324.177	4065.03
324.241	3855.31
324.305	3652.65
324.37	3448.42
324.434	3253.65
324.498	3209.84
324.562	3159.09
324.627	3097.84
324.691	3038.73
324.755	2977.24
324.82	2901.8
324.884	2820.17
324.948	2749.76
325.012	2657.41
325.077	2532.13
