Data from 20250704_urea_0.5M_MAYP1162681_11-08-33-748.txt Node
Date: Fri Jul 04 11:08:33 BST 2025
User: adleo
Spectrometer: MAYP116268
Trigger mode: 0
Integration Time (sec): 1.000000E0
Scans to average: 1
Electric dark correction enabled: true
Nonlinearity correction enabled: true
Boxcar width: 10
XAxis mode: Wavelengths
Number of Pixels in Spectrum: 2068
>>>>>Begin Spectral Data<<<<<
179.565	1234.05
179.642	1292.14
179.718	1335.38
179.795	1378.15
179.871	1412.08
179.948	1432.98
180.024	1451.89
180.101	1476.85
180.177	1490.41
180.254	1515.69
180.33	1538.7
180.407	1592.59
180.483	1690.46
180.56	1785.06
180.636	1871.18
180.712	1859.48
180.789	1871.89
180.865	1885.53
180.942	1892.52
181.018	1904.54
181.095	1915.1
181.171	1920.66
181.248	1922.33
181.324	1938.54
181.4	1944.68
181.477	1955.04
181.553	1966.36
181.63	1991.37
181.706	2006.78
181.782	2015.38
181.859	2015.34
181.935	2020.52
182.011	2019.28
182.088	2036.83
182.164	2053.58
182.24	2065.47
182.317	2075.4
182.393	2071.6
182.469	2086.3
182.546	2100.47
182.622	2104.89
182.698	2101.18
182.775	2112.36
182.851	2123.92
182.927	2116.21
183.003	2110.51
183.08	2108.32
183.156	2117.07
183.232	2111.98
183.308	2098.09
183.385	2106.98
183.461	2120.73
183.537	2121.78
183.613	2134.38
183.69	2122.73
183.766	2113.88
183.842	2126.44
183.918	2130.29
183.995	2146.27
184.071	2149.65
184.147	2143.75
184.223	2135.81
184.299	2149.28
184.375	2138
184.452	2147.81
184.528	2200.86
184.604	2214.66
184.68	2223.36
184.756	2230.83
184.832	2235.88
184.908	2242.73
184.985	2242.2
185.061	2228.31
185.137	2238.59
185.213	2229.31
185.289	2234.45
185.365	2227.31
185.441	2223.65
185.517	2239.83
185.593	2234.84
185.669	2229.79
185.745	2243.54
185.822	2257.43
185.898	2248.82
185.974	2258.38
186.05	2250.72
186.126	2213.6
186.202	2205.37
186.278	2202.04
186.354	2193.04
186.43	2199.04
186.506	2198.23
186.582	2197.33
186.658	2204.94
186.734	2183.53
186.81	2185.01
186.886	2183.72
186.962	2195.24
187.038	2188.77
187.114	2180.63
187.19	2189
187.266	2181.06
187.341	2179.77
187.417	2173.83
187.493	2174.44
187.569	2177.49
187.645	2171.49
187.721	2158.93
187.797	2164.69
187.873	2171.21
187.949	2164.64
188.025	2157.5
188.101	2158.98
188.176	2165.31
188.252	2159.41
188.328	2165.68
188.404	2164.78
188.48	2163.26
188.556	2153.46
188.632	2153.46
188.707	2154.22
188.783	2151.51
188.859	2147.65
188.935	2134.66
189.011	2142.51
189.086	2136.57
189.162	2127.96
189.238	2125.58
189.314	2125.39
189.39	2123.49
189.465	2112.78
189.541	2129.15
189.617	2116.07
189.693	2110.79
189.768	2115.64
189.844	2140.44
189.92	2133.54
189.996	2142.25
190.071	2150.67
190.147	2154.52
190.223	2166.03
190.298	2158.52
190.374	2143.34
190.45	2152.24
190.526	2161.8
190.601	2153.57
190.677	2155.28
190.753	2181.08
190.828	2185.12
190.904	2199.63
190.98	2213.15
191.055	2225.47
191.131	2219.91
191.207	2240.65
191.282	2251.16
191.358	2240.79
191.433	2226.98
191.509	2239.4
191.585	2235.87
191.66	2236.83
191.736	2242.25
191.811	2232.16
191.887	2246.58
191.963	2276.47
192.038	2284.41
192.114	2284.13
192.189	2291.69
192.265	2286.7
192.34	2267.8
192.416	2264.95
192.491	2260.8
192.567	2262.33
192.642	2263.99
192.718	2261.9
192.793	2249.24
192.869	2244.53
192.944	2247.77
193.02	2256.33
193.095	2262.57
193.171	2270.04
193.246	2270.61
193.322	2268.61
193.397	2269.37
193.473	2254.05
193.548	2230.34
193.624	2234.68
193.699	2235.96
193.775	2249.48
193.85	2250.76
193.925	2258.95
194.001	2257.76
194.076	2247.96
194.152	2237.39
194.227	2229.87
194.302	2221.26
194.378	2224.69
194.453	2222.22
194.529	2232.26
194.604	2217.69
194.679	2208.46
194.755	2187.96
194.83	2200.44
194.905	2197.87
194.981	2208.38
195.056	2203.01
195.131	2208.43
195.207	2207.53
195.282	2196.44
195.357	2176.97
195.433	2191.72
195.508	2179.78
195.583	2185.49
195.659	2200.57
195.734	2209.19
195.809	2210.38
195.884	2220.56
195.96	2220.6
196.035	2239.83
196.11	2236.64
196.185	2246.82
196.261	2254.1
196.336	2287.89
196.411	2272.08
196.486	2277.27
196.561	2273.75
196.637	2280.88
196.712	2299.59
196.787	2301.59
196.862	2317.44
196.937	2330.24
197.013	2337.95
197.088	2348.37
197.163	2373.7
197.238	2392.37
197.313	2392.32
197.388	2407.03
197.464	2437.13
197.539	2447.41
197.614	2437.65
197.689	2450.75
197.764	2470.32
197.839	2491.94
197.914	2486.65
197.989	2512.07
198.065	2527.17
198.14	2574.3
198.215	2604.15
198.29	2614.87
198.365	2630.45
198.44	2640.54
198.515	2669.22
198.59	2683.99
198.665	2710.43
198.74	2720.96
198.815	2720.67
198.89	2742.44
198.965	2771.99
199.04	2766.8
199.115	2785.52
199.19	2830.73
199.265	2832.73
199.34	2839.36
199.415	2869.64
199.49	2893.41
199.565	2903.37
199.64	2925.72
199.715	2923.53
199.79	2931.35
199.865	2938.5
199.94	2937.07
200.015	2972.4
200.09	2975.45
200.165	2984.22
200.24	2988.75
200.315	3028.69
200.39	3047.81
200.464	3052.87
200.539	3054.82
200.614	3070.98
200.689	3092.92
200.764	3095.54
200.839	3115.56
200.914	3123.9
200.989	3118.32
201.063	3128.19
201.138	3112.56
201.213	3114.99
201.288	3095.3
201.363	3097.35
201.438	3095.59
201.512	3113.37
201.587	3091.14
201.662	3095.62
201.737	3104.4
201.812	3114.75
201.886	3078.05
201.961	3084.01
202.036	3072.1
202.111	3068.33
202.186	3038.93
202.26	3023.52
202.335	3004.07
202.41	2996.49
202.485	2978.09
202.559	2952.68
202.634	2925.03
202.709	2932.37
202.784	2914.87
202.858	2916.3
202.933	2897.71
203.008	2893.38
203.082	2872.12
203.157	2874.41
203.232	2834.05
203.306	2813.03
203.381	2780.42
203.456	2758.93
203.53	2737.23
203.605	2718.23
203.68	2695.49
203.754	2689.35
203.829	2671.86
203.904	2652.05
203.978	2641.61
204.053	2645.57
204.127	2633.66
204.202	2631.66
204.277	2614.56
204.351	2603.37
204.426	2591.22
204.5	2583.03
204.575	2548.98
204.65	2557.23
204.724	2548.36
204.799	2551.69
204.873	2547.98
204.948	2550.07
205.022	2538.17
205.097	2532.16
205.171	2547.83
205.246	2556.22
205.32	2554.36
205.395	2555.08
205.469	2544.18
205.544	2548.37
205.618	2529.32
205.693	2543.94
205.767	2535.08
205.842	2559.38
205.916	2555.38
205.991	2549.52
206.065	2558.19
206.14	2575.7
206.214	2571.56
206.289	2568.17
206.363	2581.94
206.438	2589.08
206.512	2595.56
206.586	2620.09
206.661	2624.66
206.735	2604.24
206.81	2603.86
206.884	2622.24
206.958	2613.67
207.033	2633.66
207.107	2645.15
207.181	2683.84
207.256	2681.22
207.33	2700.32
207.405	2716.96
207.479	2744.22
207.553	2755.93
207.628	2745.27
207.702	2762.27
207.776	2765.42
207.851	2775.23
207.925	2801.17
207.999	2804.74
208.073	2814.23
208.148	2825.57
208.222	2830.91
208.296	2879.94
208.371	2913.71
208.445	2945.52
208.519	2992.76
208.593	3029.42
208.668	3048.12
208.742	3075.85
208.816	3106.7
208.89	3151.79
208.965	3179.39
209.039	3223.3
209.113	3278.75
209.187	3336.59
209.261	3376.81
209.336	3442.97
209.41	3508.76
209.484	3564.51
209.558	3644.84
209.632	3715.19
209.707	3788.28
209.781	3882.08
209.855	3963.25
209.929	4051.66
210.003	4134.62
210.077	4212.46
210.151	4341.26
210.226	4459.99
210.3	4575.49
210.374	4688.25
210.448	4789.69
210.522	4903.92
210.596	5015.85
210.67	5136.71
210.744	5299.63
210.818	5448.86
210.892	5584.44
210.966	5701.97
211.041	5838.5
211.115	5963.49
211.189	6127.05
211.263	6277.76
211.337	6417.3
211.411	6574.84
211.485	6719.13
211.559	6877.94
211.633	7030.15
211.707	7152.43
211.781	7317.08
211.855	7441.87
211.929	7604.22
212.003	7756.45
212.077	7928.58
212.151	8114.98
212.225	8291.28
212.299	8460.65
212.373	8629.84
212.447	8814.09
212.52	9035.55
212.594	9224.31
212.668	9423.52
212.742	9589.85
212.816	9776.75
212.89	9957
212.964	10147.61
213.038	10339.54
213.112	10545.68
213.186	10756.68
213.26	10932.14
213.333	11085.66
213.407	11289.43
213.481	11488.06
213.555	11691.41
213.629	11872.09
213.703	12058.38
213.777	12261.54
213.85	12437.13
213.924	12657.31
213.998	12848.87
214.072	13023.18
214.146	13207.56
214.219	13390.44
214.293	13577.47
214.367	13760.46
214.441	13968.41
214.515	14150.19
214.588	14310.85
214.662	14449.49
214.736	14611.07
214.81	14802.39
214.883	14987.83
214.957	15146.37
215.031	15305.3
215.105	15450.19
215.178	15611.81
215.252	15765.09
215.326	15901.35
215.4	16037.61
215.473	16155.84
215.547	16289.73
215.621	16427.14
215.694	16576.07
215.768	16708.61
215.842	16846.21
215.915	16981.2
215.989	17089.73
216.063	17220.77
216.136	17347.57
216.21	17492.59
216.284	17634.71
216.357	17752.54
216.431	17880.87
216.504	18029.74
216.578	18186.99
216.652	18333.64
216.725	18456.91
216.799	18583.17
216.873	18707.55
216.946	18837.81
217.02	18947.97
217.093	19063.48
217.167	19159.43
217.24	19266.89
217.314	19376.53
217.387	19478.74
217.461	19585.14
217.535	19708.8
217.608	19789.18
217.682	19906.67
217.755	20015.73
217.829	20108.79
217.902	20219.05
217.976	20314.76
218.049	20388.54
218.123	20452.06
218.196	20533.65
218.27	20613.22
218.343	20679.39
218.417	20759.25
218.49	20830.39
218.563	20924.22
218.637	20999.21
218.71	21092.38
218.784	21171.86
218.857	21250.66
218.931	21322.33
219.004	21387.68
219.077	21458.44
219.151	21531.42
219.224	21585.69
219.298	21654.76
219.371	21726.73
219.444	21770.3
219.518	21825.73
219.591	21893.31
219.665	21982.93
219.738	22049.5
219.811	22100.02
219.885	22172.81
219.958	22235.09
220.031	22296.84
220.105	22357.3
220.178	22409.6
220.251	22454.82
220.325	22498.6
220.398	22547.48
220.471	22593.62
220.544	22646.36
220.618	22675.72
220.691	22721.28
220.764	22761.82
220.838	22795.48
220.911	22822.96
220.984	22880.91
221.057	22924.45
221.131	22951.69
221.204	22947.11
221.277	22992.33
221.35	23058.97
221.424	23079.7
221.497	23109.36
221.57	23131.01
221.643	23156.08
221.716	23193.45
221.79	23205.6
221.863	23228.32
221.936	23240.8
222.009	23266.94
222.082	23289.31
222.155	23301.51
222.229	23337.15
222.302	23368.73
222.375	23379.1
222.448	23415.07
222.521	23434.32
222.594	23441.16
222.667	23443.72
222.74	23458.09
222.814	23459.29
222.887	23452.06
222.96	23465.47
223.033	23481.72
223.106	23488.37
223.179	23493.97
223.252	23493.58
223.325	23511.86
223.398	23505.78
223.471	23508.34
223.544	23503.47
223.617	23499.22
223.69	23509.83
223.763	23497.63
223.837	23490.97
223.91	23493.72
223.983	23463.15
224.056	23446.32
224.129	23443.33
224.202	23439.47
224.275	23433.78
224.348	23416.37
224.42	23402.15
224.493	23382.23
224.566	23359.47
224.639	23365.11
224.712	23356.67
224.785	23343.75
224.858	23326.92
224.931	23310.09
225.004	23298.47
225.077	23288.49
225.15	23249.87
225.223	23233.57
225.296	23235.79
225.369	23196.63
225.442	23171.03
225.514	23152.22
225.587	23129.37
225.66	23117.36
225.733	23113.65
225.806	23101.69
225.879	23086.17
225.952	23056.08
226.025	23038.87
226.097	23028.59
226.17	22996.05
226.243	22951.25
226.316	22916.92
226.389	22893.97
226.461	22891.9
226.534	22870.45
226.607	22855.35
226.68	22862.06
226.753	22838.33
226.825	22793.2
226.898	22794.5
226.971	22775.46
227.044	22758.88
227.117	22738.29
227.189	22717.75
227.262	22710.28
227.335	22693.64
227.407	22669.87
227.48	22647.79
227.553	22636.37
227.626	22611.01
227.698	22594.42
227.771	22572.01
227.844	22546.6
227.916	22526.4
227.989	22483.45
228.062	22460.69
228.134	22454.66
228.207	22430.99
228.28	22397.1
228.352	22368.9
228.425	22350.15
228.498	22341.08
228.57	22309.9
228.643	22308.79
228.716	22279.14
228.788	22230.59
228.861	22198.97
228.934	22185.28
229.006	22160.16
229.079	22131.53
229.151	22100.15
229.224	22054.93
229.296	22043.17
229.369	22053.53
229.442	22043.7
229.514	22009.43
229.587	21995.55
229.659	21947.77
229.732	21914.42
229.804	21906.37
229.877	21905.5
229.949	21879.95
230.022	21863.03
230.094	21843.27
230.167	21808.37
230.239	21773.76
230.312	21754.19
230.384	21749.18
230.457	21726.91
230.529	21710.66
230.602	21687.19
230.674	21669.4
230.747	21661.93
230.819	21646.27
230.892	21580.33
230.964	21547.36
231.037	21529.72
231.109	21498.1
231.181	21492.89
231.254	21461.04
231.326	21424.12
231.399	21392.59
231.471	21359.33
231.544	21310.17
231.616	21292.48
231.688	21273.64
231.761	21247.42
231.833	21224.19
231.905	21174.83
231.978	21133.14
232.05	21101.09
232.122	21075.26
232.195	21035.78
232.267	21017.66
232.339	20975.59
232.412	20977.13
232.484	20949.08
232.556	20916.31
232.629	20909.61
232.701	20874.66
232.773	20845.36
232.846	20813.27
232.918	20788.2
232.99	20764.49
233.062	20750.9
233.135	20723.09
233.207	20672.01
233.279	20648.97
233.351	20626.13
233.424	20592.97
233.496	20563.62
233.568	20557.21
233.64	20515.76
233.713	20491.72
233.785	20464.78
233.857	20445.6
233.929	20383.48
234.001	20366.17
234.074	20354.37
234.146	20291.38
234.218	20253.02
234.29	20215
234.362	20172.39
234.434	20113.89
234.507	20076.2
234.579	20026.37
234.651	19986.13
234.723	19963.44
234.795	19938.95
234.867	19893.61
234.939	19880.74
235.012	19846.28
235.084	19809.42
235.156	19781.95
235.228	19737.42
235.3	19687.59
235.372	19650.39
235.444	19640.51
235.516	19588.75
235.588	19554.05
235.66	19533.77
235.732	19493.53
235.804	19533.33
235.876	19519.07
235.948	19512.71
236.02	19469.92
236.092	19432.91
236.164	19393.97
236.236	19359.22
236.308	19315.71
236.38	19288.77
236.452	19242.12
236.524	19215.04
236.596	19199.38
236.668	19171.62
236.74	19138.32
236.812	19110.08
236.884	19079.24
236.956	19044.83
237.028	18992.55
237.1	18946.19
237.172	18930.72
237.244	18918.53
237.316	18835.25
237.388	18793.04
237.46	18746.06
237.532	18722.88
237.604	18682.88
237.675	18673.72
237.747	18646.25
237.819	18611.99
237.891	18570.26
237.963	18525.15
238.035	18486.5
238.107	18406.89
238.178	18380.82
238.25	18344.92
238.322	18340.15
238.394	18292.34
238.466	18253.79
238.538	18230.42
238.609	18203.29
238.681	18140.59
238.753	18090.47
238.825	18060.02
238.897	18028.12
238.968	18018.24
239.04	17983.73
239.112	17977.37
239.184	17928.51
239.255	17890.05
239.327	17854.34
239.399	17826.68
239.471	17799.5
239.542	17769.23
239.614	17755.64
239.686	17697.28
239.758	17682.63
239.829	17630.34
239.901	17614.87
239.973	17584.27
240.044	17563.93
240.116	17531.16
240.188	17496.13
240.259	17468.75
240.331	17430.1
240.403	17406.3
240.474	17343.41
240.546	17299.12
240.618	17251.21
240.689	17211.79
240.761	17172.94
240.833	17164.75
240.904	17126.58
240.976	17089.91
241.048	17057.71
241.119	17028.22
241.191	17005.47
241.262	16984.46
241.334	16943.49
241.405	16901.52
241.477	16860.31
241.549	16821.85
241.62	16788.88
241.692	16770.09
241.763	16750.38
241.835	16717.65
241.906	16684.49
241.978	16640.1
242.049	16623.81
242.121	16598.46
242.192	16574.27
242.264	16532.82
242.335	16480.52
242.407	16463.8
242.478	16432.18
242.55	16397.62
242.621	16358.92
242.693	16321.14
242.764	16274.72
242.836	16239.06
242.907	16215.78
242.979	16181.51
243.05	16148.15
243.122	16126.56
243.193	16083.47
243.264	16024.91
243.336	15988.33
243.407	15966.06
243.479	15955.8
243.55	15924.22
243.622	15893.18
243.693	15861.66
243.764	15850
243.836	15803.29
243.907	15759.82
243.978	15726.94
244.05	15707.95
244.121	15661.68
244.192	15632.71
244.264	15590.53
244.335	15563.25
244.407	15514.18
244.478	15495.43
244.549	15466.18
244.62	15413.97
244.692	15390.4
244.763	15369.72
244.834	15339.07
244.906	15297.04
244.977	15270.62
245.048	15260.02
245.119	15221.7
245.191	15184.34
245.262	15129.82
245.333	15124.71
245.405	15101.24
245.476	15081.57
245.547	15055.45
245.618	15043.73
245.689	15020.64
245.761	15003.15
245.832	14976.3
245.903	14948.92
245.974	14924.67
246.045	14895.17
246.117	14884.42
246.188	14841.81
246.259	14797.8
246.33	14766.42
246.401	14735.76
246.473	14690.25
246.544	14644.99
246.615	14622.19
246.686	14587.53
246.757	14577.17
246.828	14523.27
246.899	14507.37
246.97	14457.23
247.042	14412.69
247.113	14382.61
247.184	14373.16
247.255	14326.26
247.326	14298.44
247.397	14272.9
247.468	14237.56
247.539	14212.25
247.61	14173.83
247.681	14162.31
247.752	14158.17
247.823	14120.61
247.894	14092.8
247.965	14062.33
248.037	14028.88
248.108	13989.06
248.179	13963.89
248.25	13932.51
248.321	13915.5
248.392	13876.98
248.463	13875.15
248.534	13847.43
248.605	13828.92
248.675	13799.9
248.746	13786.59
248.817	13766.78
248.888	13744.17
248.959	13708.69
249.03	13683
249.101	13656.44
249.172	13623.17
249.243	13566
249.314	13559.83
249.385	13534.86
249.456	13519.58
249.527	13492.48
249.598	13480.72
249.669	13453.82
249.739	13433.96
249.81	13423.02
249.881	13379.83
249.952	13358.18
250.023	13333.02
250.094	13294.55
250.165	13259.16
250.235	13225.56
250.306	13197.27
250.377	13167.23
250.448	13141.78
250.519	13099.26
250.59	13089.86
250.66	13056.79
250.731	13055.44
250.802	13026.52
250.873	13012.06
250.944	12989.69
251.014	12963.66
251.085	12960.53
251.156	12943.99
251.227	12940.18
251.297	12924.28
251.368	12918.97
251.439	12907.07
251.51	12899.88
251.58	12871.63
251.651	12843.77
251.722	12842.47
251.792	12806.46
251.863	12781.73
251.934	12781.59
252.005	12792.63
252.075	12771.75
252.146	12768.28
252.217	12760.09
252.287	12756.42
252.358	12735.55
252.429	12733.48
252.499	12712.7
252.57	12696.17
252.641	12684.84
252.711	12652.88
252.782	12624.15
252.852	12622.08
252.923	12599.13
252.994	12575.99
253.064	12563.02
253.135	12533.91
253.205	12506.1
253.276	12501.47
253.347	12501.13
253.417	12467.39
253.488	12439.48
253.558	12414.32
253.629	12394.55
253.699	12373.58
253.77	12352.32
253.841	12324.51
253.911	12300.55
253.982	12281.08
254.052	12268.45
254.123	12250.76
254.193	12237.31
254.264	12253.31
254.334	12225.07
254.405	12185.11
254.475	12157.1
254.546	12137.2
254.616	12137.82
254.687	12121.43
254.757	12110.83
254.827	12084.22
254.898	12071.06
254.968	12054.1
255.039	12030.24
255.109	12016.31
255.18	11992.4
255.25	11950.08
255.321	11936.1
255.391	11909.16
255.461	11916.82
255.532	11867.17
255.602	11847.17
255.673	11807.16
255.743	11769.9
255.813	11725.56
255.884	11725.37
255.954	11714.38
256.024	11716.5
256.095	11697.7
256.165	11666.71
256.235	11653.55
256.306	11631.19
256.376	11623.62
256.446	11613.84
256.517	11602.56
256.587	11593.98
256.657	11578.8
256.728	11568
256.798	11555.52
256.868	11530.65
256.938	11495.27
257.009	11493.63
257.079	11486.84
257.149	11495.32
257.219	11459.32
257.29	11453.97
257.36	11417.34
257.43	11413.29
257.5	11371.02
257.571	11346.49
257.641	11341.72
257.711	11306.54
257.781	11299.02
257.852	11289.09
257.922	11251.84
257.992	11230.39
258.062	11209.09
258.132	11202.05
258.202	11186.1
258.273	11165.19
258.343	11170.15
258.413	11144.22
258.483	11118.92
258.553	11085.04
258.623	11057.57
258.693	11045.62
258.764	11043.45
258.834	11043.36
258.904	11026.68
258.974	11002.78
259.044	10986.64
259.114	10973.82
259.184	10966.88
259.254	10946.02
259.324	10903.56
259.394	10889.97
259.464	10886.79
259.535	10865.59
259.605	10839.23
259.675	10811.48
259.745	10803.09
259.815	10770.66
259.885	10756.54
259.955	10769.65
260.025	10751.29
260.095	10734.76
260.165	10724.31
260.235	10724.6
260.305	10696.7
260.375	10666.73
260.445	10674.53
260.515	10670.92
260.585	10667.93
260.655	10650.49
260.725	10647.02
260.795	10647.4
260.865	10656.37
260.934	10636.42
261.004	10631.07
261.074	10625.86
261.144	10630.2
261.214	10628.66
261.284	10615.89
261.354	10610.01
261.424	10583.36
261.494	10584.33
261.564	10567.66
261.634	10562.16
261.703	10520
261.773	10519.38
261.843	10511.33
261.913	10498.32
261.983	10468.55
262.053	10453.8
262.123	10440.94
262.192	10409.38
262.262	10401.96
262.332	10372.67
262.402	10363.71
262.472	10349.4
262.541	10300.26
262.611	10289.71
262.681	10260.18
262.751	10257.14
262.821	10242.3
262.89	10210.89
262.96	10203.23
263.03	10214.84
263.1	10205.93
263.169	10199.47
263.239	10190.18
263.309	10193.55
263.379	10188.01
263.448	10171.82
263.518	10157.42
263.588	10142.44
263.657	10146.15
263.727	10138.44
263.797	10124.66
263.867	10114.93
263.936	10086.56
264.006	10099.56
264.076	10085.83
264.145	10065.84
264.215	10037.18
264.285	10030.63
264.354	10006.98
264.424	9984
264.494	9947.1
264.563	9919.55
264.633	9924.89
264.702	9914.63
264.772	9881.49
264.842	9857.99
264.911	9857.99
264.981	9832.17
265.05	9814.78
265.12	9795.66
265.19	9785.01
265.259	9782.27
265.329	9773.6
265.398	9768.44
265.468	9774.27
265.537	9762.57
265.607	9765.31
265.676	9767.82
265.746	9758.52
265.815	9759.63
265.885	9744.65
265.955	9728.32
266.024	9717.34
266.094	9682.81
266.163	9679.92
266.232	9686.08
266.302	9672.79
266.371	9662.01
266.441	9656.37
266.51	9650.45
266.58	9635.47
266.649	9612.83
266.719	9610.23
266.788	9598.53
266.858	9601.76
266.927	9561.78
266.996	9554.22
267.066	9545.41
267.135	9517.14
267.205	9515.6
267.274	9503.56
267.343	9506.79
267.413	9492.49
267.482	9495.91
267.552	9499.33
267.621	9468.65
267.69	9441.63
267.76	9435.85
267.829	9428.92
267.898	9414.81
267.968	9400.46
268.037	9402.24
268.106	9404.65
268.176	9378.45
268.245	9368.44
268.314	9348.21
268.384	9350.09
268.453	9333.04
268.522	9322.21
268.592	9324.09
268.661	9300.83
268.73	9295.34
268.799	9276.9
268.869	9286.29
268.938	9254.27
269.007	9231.2
269.076	9222.2
269.146	9221.72
269.215	9214.5
269.284	9221.82
269.353	9207.76
269.422	9197.6
269.492	9183.06
269.561	9142.38
269.63	9140.59
269.699	9120.9
269.768	9117.96
269.838	9112.91
269.907	9122.39
269.976	9097.22
270.045	9070.11
270.114	9065.78
270.183	9051.72
270.253	9043.35
270.322	9012.39
270.391	9003.34
270.46	9011.38
270.529	9017.4
270.598	9014.32
270.667	9003.92
270.736	8977.01
270.806	8975.27
270.875	8980.52
270.944	8964.54
271.013	8986.06
271.082	8980.42
271.151	8979.17
271.22	8949.13
271.289	8939.65
271.358	8918.27
271.427	8916.78
271.496	8917.41
271.565	8908.41
271.634	8904.55
271.703	8934.26
271.772	8939.99
271.841	8934.31
271.91	8908.27
271.979	8897.92
272.048	8876.35
272.117	8876.54
272.186	8860.71
272.255	8857.44
272.324	8848.67
272.393	8846.36
272.462	8833.51
272.531	8822.77
272.6	8812.28
272.669	8820.03
272.738	8809.2
272.807	8806.36
272.876	8783.98
272.945	8810.36
273.013	8811.18
273.082	8814.45
273.151	8764.44
273.22	8761.4
273.289	8756.3
273.358	8767.95
273.427	8756.93
273.496	8757.17
273.564	8754.57
273.633	8761.45
273.702	8748.89
273.771	8733.49
273.84	8732.48
273.909	8723.91
273.977	8724.24
274.046	8709.52
274.115	8715.97
274.184	8701.44
274.253	8694.02
274.322	8709.66
274.39	8674.48
274.459	8658.01
274.528	8631.06
274.597	8629.04
274.665	8627.98
274.734	8632.27
274.803	8619.13
274.872	8611.62
274.94	8593.19
275.009	8647.12
275.078	8630.13
275.147	8622.53
275.215	8623.73
275.284	8625.08
275.353	8616.18
275.421	8590.72
275.49	8612.18
275.559	8596.88
275.627	8589.47
275.696	8581.53
275.765	8572.58
275.833	8561.22
275.902	8561.75
275.971	8571.42
276.039	8586.87
276.108	8583.7
276.177	8582.64
276.245	8574.31
276.314	8570.7
276.383	8579.65
276.451	8511.96
276.52	8516.24
276.588	8527.5
276.657	8535.83
276.725	8528.94
276.794	8533.52
276.863	8545.4
276.931	8521.96
277	8529.62
277.068	8537.31
277.137	8554.3
277.205	8559.64
277.274	8577.88
277.342	8587.8
277.411	8569.42
277.48	8550.12
277.548	8541.6
277.617	8540.3
277.685	8537.75
277.754	8541.6
277.822	8532.79
277.89	8550.51
277.959	8547.48
278.027	8531.64
278.096	8521.3
278.164	8545.07
278.233	8538.58
278.301	8526.16
278.37	8534.39
278.438	8523.18
278.507	8532.46
278.575	8505.71
278.643	8505.42
278.712	8489.64
278.78	8473.75
278.849	8488.09
278.917	8502.34
278.985	8504.79
279.054	8509.79
279.122	8522.35
279.191	8519.18
279.259	8519.08
279.327	8495.69
279.396	8511.19
279.464	8508.54
279.532	8510.66
279.601	8506.62
279.669	8500.55
279.737	8514.56
279.806	8515.42
279.874	8521.34
279.942	8518.5
280.011	8515.42
280.079	8516.96
280.147	8536.02
280.215	8542.61
280.284	8533.9
280.352	8520.62
280.42	8524.66
280.488	8506.28
280.557	8500.89
280.625	8509.26
280.693	8509.12
280.761	8518.21
280.83	8497.04
280.898	8505.56
280.966	8486.21
281.034	8448.44
281.102	8432.66
281.171	8428.71
281.239	8436.12
281.307	8427.56
281.375	8415.48
281.443	8442.67
281.512	8444.06
281.58	8449.84
281.648	8436.13
281.716	8438.53
281.784	8437.33
281.852	8433.62
281.92	8442.48
281.989	8452.73
282.057	8433.38
282.125	8482.58
282.193	8472.14
282.261	8474.35
282.329	8471.85
282.397	8479.54
282.465	8491.09
282.533	8512.93
282.601	8500.81
282.67	8479.73
282.738	8472.37
282.806	8484.64
282.874	8469.09
282.942	8469.96
283.01	8460.09
283.078	8465
283.146	8464.66
283.214	8476.79
283.282	8476.74
283.35	8486.7
283.418	8475.15
283.486	8480.59
283.554	8433.42
283.622	8435.34
283.69	8432.79
283.758	8433.32
283.826	8437.41
283.894	8447.33
283.962	8466.38
284.03	8483.8
284.098	8479.43
284.165	8479.57
284.233	8478.08
284.301	8472.98
284.369	8465.42
284.437	8459.89
284.505	8455.17
284.573	8471.87
284.641	8460.18
284.709	8467.83
284.777	8454.16
284.845	8463.26
284.912	8467.88
284.98	8472.59
285.048	8470.47
285.116	8476.78
285.184	8489.68
285.252	8488.91
285.319	8472.3
285.387	8460.22
285.455	8443.48
285.523	8457
285.591	8453.29
285.659	8452.91
285.726	8465.42
285.794	8448.15
285.862	8448.82
285.93	8451.85
285.997	8446.46
286.065	8442.52
286.133	8432.51
286.201	8429.24
286.269	8417.83
286.336	8411.14
286.404	8409.99
286.472	8416.72
286.539	8398.63
286.607	8377.46
286.675	8379.14
286.743	8390.6
286.81	8385.3
286.878	8397.33
286.946	8390.64
287.013	8386.94
287.081	8387.95
287.149	8372.7
287.216	8392.81
287.284	8380.06
287.352	8383.52
287.419	8377.17
287.487	8390.93
287.555	8392.57
287.622	8390.02
287.69	8397.33
287.758	8408.78
287.825	8405.95
287.893	8396.66
287.96	8405.41
288.028	8417.01
288.096	8418.98
288.163	8417.01
288.231	8409.55
288.298	8409.46
288.366	8420.52
288.433	8427.35
288.501	8423.51
288.569	8428.94
288.636	8424.13
288.704	8437.7
288.771	8447.95
288.839	8438.42
288.906	8433.47
288.974	8446.36
289.041	8444.25
289.109	8429.57
289.176	8440.4
289.244	8441.36
289.311	8462.15
289.379	8472.79
289.446	8475.34
289.514	8476.83
289.581	8481.06
289.649	8485.1
289.716	8490.4
289.783	8486.31
289.851	8499.49
289.918	8498.1
289.986	8505.12
290.053	8512.97
290.121	8514.31
290.188	8511.09
290.255	8540.01
290.323	8535.73
290.39	8528.7
290.458	8539.29
290.525	8554.93
290.592	8542.17
290.66	8541.93
290.727	8536.68
290.794	8547.18
290.862	8554.78
290.929	8558.34
290.996	8557.28
291.064	8564.26
291.131	8575.33
291.198	8584.96
291.266	8587.7
291.333	8588.81
291.4	8595.59
291.468	8610.99
291.535	8609.17
291.602	8615.86
291.669	8606.18
291.737	8614.31
291.804	8611.14
291.871	8623.51
291.938	8635.92
292.006	8670.53
292.073	8685.16
292.14	8689.49
292.207	8678.09
292.275	8674.96
292.342	8685.5
292.409	8710.53
292.476	8737.05
292.543	8728.34
292.611	8729.45
292.678	8747.35
292.745	8771.03
292.812	8782.3
292.879	8777.48
292.946	8786.19
293.014	8795.82
293.081	8814.83
293.148	8830.52
293.215	8856.71
293.282	8857.19
293.349	8866.05
293.416	8844.05
293.484	8857.62
293.551	8867.2
293.618	8893.43
293.685	8918.9
293.752	8911
293.819	8906.86
293.886	8891.17
293.953	8893.05
294.02	8908.5
294.087	8911.77
294.154	8913.07
294.221	8929.39
294.288	8930.36
294.356	8947.06
294.423	8956.59
294.49	8941.96
294.557	8954.14
294.624	8942.87
294.691	8955.97
294.758	8957.07
294.825	8964.68
294.892	8959.05
294.959	8959.58
295.026	8963.43
295.093	8953.51
295.16	8962.32
295.226	8963.62
295.293	8986.39
295.36	8991.88
295.427	9001.22
295.494	9012.34
295.561	9015.08
295.628	9033.38
295.695	9050.42
295.762	9050.95
295.829	9058.13
295.896	9076.47
295.963	9084.85
296.03	9096.06
296.096	9101.31
296.163	9112.29
296.23	9128.99
296.297	9142.81
296.364	9140.93
296.431	9149.26
296.498	9149.84
296.564	9169.58
296.631	9179.21
296.698	9164.19
296.765	9194.76
296.832	9185.08
296.899	9172.47
296.965	9191.92
297.032	9174.58
297.099	9194.9
297.166	9204.53
297.233	9197.6
297.299	9190.62
297.366	9188.74
297.433	9192.59
297.5	9204.97
297.566	9206.03
297.633	9203.23
297.7	9207.13
297.767	9207.37
297.833	9209.93
297.9	9208.91
297.967	9198.27
298.033	9205.11
298.1	9230.49
298.167	9213.87
298.234	9216.23
298.3	9230.44
298.367	9224.95
298.434	9227.45
298.5	9213.1
298.567	9207.66
298.634	9207.18
298.7	9226.97
298.767	9230.38
298.834	9242.09
298.9	9235.97
298.967	9231.59
299.033	9244.59
299.1	9255.42
299.167	9276.22
299.233	9270.78
299.3	9282
299.366	9298.42
299.433	9317.3
299.5	9300.54
299.566	9313.15
299.633	9333.43
299.699	9340.79
299.766	9334.1
299.832	9342.91
299.899	9356.64
299.965	9370.75
300.032	9367.76
300.099	9375.23
300.165	9377.59
300.232	9369.21
300.298	9373.88
300.365	9382.45
300.431	9383.41
300.498	9376.14
300.564	9379.27
300.631	9396.27
300.697	9414.62
300.763	9411.29
300.83	9406.72
300.896	9420.54
300.963	9427.13
301.029	9429.64
301.096	9436.53
301.162	9454.49
301.229	9446.2
301.295	9431.03
301.361	9433.35
301.428	9440.33
301.494	9423.81
301.561	9429.2
301.627	9437.1
301.693	9439.51
301.76	9454.05
301.826	9450.92
301.892	9459.3
301.959	9469.37
302.025	9460.65
302.092	9451.79
302.158	9459.88
302.224	9461.23
302.291	9454.82
302.357	9451.26
302.423	9438.64
302.49	9430.74
302.556	9441.97
302.622	9447.31
302.688	9462.53
302.755	9479.29
302.821	9488.2
302.887	9498.07
302.954	9498.45
303.02	9511.26
303.086	9516.8
303.152	9503.65
303.219	9499.51
303.285	9508.04
303.351	9512.32
303.417	9516.37
303.483	9509.67
303.55	9500.33
303.616	9496.82
303.682	9492.63
303.748	9483.05
303.815	9503.51
303.881	9512.33
303.947	9492.58
304.013	9488.87
304.079	9480.01
304.145	9458.48
304.212	9453.67
304.278	9454.82
304.344	9451.65
304.41	9437.39
304.476	9431.03
304.542	9430.26
304.608	9441.82
304.674	9425.21
304.741	9418.95
304.807	9421.26
304.873	9429.78
304.939	9447.02
305.005	9435.46
305.071	9439.27
305.137	9440.09
305.203	9416.39
305.269	9413.26
305.335	9429.44
305.401	9438.93
305.467	9438.64
305.533	9445.82
305.599	9461.37
305.666	9466.14
305.732	9466.67
305.798	9483.28
305.864	9506.88
305.93	9506.54
305.996	9499.71
306.062	9501.78
306.128	9500.23
306.194	9490.84
306.259	9491.09
306.325	9477.99
306.391	9485.74
306.457	9493.73
306.523	9504.38
306.589	9530.04
306.655	9528.41
306.721	9513.33
306.787	9495.03
306.853	9506.98
306.919	9488.82
306.985	9477.22
307.051	9464.7
307.117	9460.32
307.183	9446.01
307.248	9419.19
307.314	9434.5
307.38	9437.54
307.446	9441.1
307.512	9427.71
307.578	9429.49
307.644	9423.23
307.709	9429.78
307.775	9425.45
307.841	9420.59
307.907	9415.24
307.973	9393.38
308.039	9386.83
308.104	9390.15
308.17	9392.08
308.236	9379.94
308.302	9384.61
308.368	9375.22
308.433	9378.49
308.499	9365.74
308.565	9351.29
308.631	9351.96
308.696	9322.06
308.762	9309.93
308.828	9315.13
308.894	9298.08
308.959	9279.26
309.025	9271.89
309.091	9267.85
309.156	9260.33
309.222	9258.79
309.288	9245.26
309.354	9217.68
309.419	9217.29
309.485	9207.13
309.551	9209.16
309.616	9191.82
309.682	9186.57
309.748	9179.06
309.813	9169.48
309.879	9161.25
309.945	9149.89
310.01	9144.74
310.076	9146.18
310.141	9142.09
310.207	9121.19
310.273	9127.69
310.338	9130.91
310.404	9113.82
310.469	9098.13
310.535	9087.68
310.601	9068.52
310.666	9076.22
310.732	9097.21
310.797	9085.17
310.863	9070.01
310.928	9063.08
310.994	9059.51
311.059	9061.05
311.125	9063.8
311.191	9076.12
311.256	9068.28
311.322	9074.29
311.387	9059.03
311.453	9348.34
311.518	9322.53
311.584	9322.29
311.649	9319.98
311.715	9307.08
311.78	9308.77
311.846	9303.66
311.911	9314.45
311.976	9315.56
312.042	9300
312.107	9278.73
312.173	9268.81
312.238	9267.8
312.304	9264.09
312.369	9260.14
312.434	9248.64
312.5	9233.28
312.565	9196.12
312.631	9201.65
312.696	9192.36
312.761	9190.73
312.827	8889.49
312.892	8922.17
312.958	8914.85
313.023	8918.27
313.088	8921.74
313.154	8909.42
313.219	8891.27
313.284	8874.08
313.35	8872.21
313.415	8862.48
313.48	8861.28
313.546	8862.82
313.611	8867.2
313.676	8856.42
313.741	8848.38
313.807	8852.52
313.872	8859.74
313.937	8871.39
314.003	8881.21
314.068	8884.77
314.133	8889.05
314.198	8878.03
314.264	8856.75
314.329	8844.19
314.394	8840.77
314.459	8837.64
314.525	8855.88
314.59	8859.97
314.655	8852.99
314.72	8856.89
314.785	8870.71
314.851	8860.99
314.916	8844.91
314.981	8830.76
315.046	8826.33
315.111	8816.27
315.176	8808.43
315.242	8808.72
315.307	8807.13
315.372	8782.67
315.437	8776.18
315.502	8761.26
315.567	8776.9
315.632	8764.14
315.698	8770.74
315.763	8767.9
315.828	8763.28
315.893	8761.4
315.958	8760.82
316.023	8749.9
316.088	8726.94
316.153	8690.6
316.218	8686.94
316.283	8670.3
316.348	8654.08
316.413	8647.77
316.479	8629.73
316.544	8595.81
316.609	8567.31
316.674	8531.13
316.739	8500.87
316.804	8468.48
316.869	8438.51
316.934	8399.96
316.999	8373.07
317.064	8320.1
317.129	8262.69
317.194	8222.66
317.259	8171.42
317.324	8114.56
317.389	8070.5
317.454	8037.84
317.518	8010.28
317.583	7990.7
317.648	7969.39
317.713	7936.25
317.778	7878.33
317.843	7855.87
317.908	7816.88
317.973	7779.46
318.038	7751.86
318.103	7722.96
318.168	7695.31
318.233	7666.55
318.297	7622.27
318.362	7587.31
318.427	7555.92
318.492	7539.58
318.557	7496.08
318.622	7472.9
318.687	7453.87
318.751	7415.18
318.816	7383.7
318.881	7349.57
318.946	7291.7
319.011	7245.22
319.075	7207.88
319.14	7171.7
319.205	7126
319.27	7096.74
319.335	7051.09
319.399	7008.67
319.464	6976.81
319.529	6917.06
319.594	6880.11
319.658	6848.36
319.723	6807.33
319.788	6775.49
319.853	6722.17
319.917	6692.4
319.982	6636.54
320.047	6601.91
320.112	6578
320.176	6525.61
320.241	6490.22
320.306	6464.2
320.37	6423.01
320.435	6392.71
320.5	6361.51
320.564	6327.15
320.629	6287.45
320.694	6259.85
320.758	6221.42
320.823	6175.01
320.888	6157.07
320.952	6108.6
321.017	6065.46
321.082	6024.73
321.146	5994.5
321.211	5964.38
321.275	5925.09
321.34	5883.18
321.405	5837.94
321.469	5793.82
321.534	5754.07
321.598	5704.92
321.663	5672.16
321.727	5643.67
321.792	5593.52
321.857	5552.05
321.921	5510.96
321.986	5467.93
322.05	5409.6
322.115	5377.63
322.179	5335.99
322.244	5280.51
322.308	5251.57
322.373	5206.58
322.437	5168.4
322.502	5138.54
322.566	5091.11
322.631	5052.88
322.695	5015.3
322.76	4969.37
322.824	4929.34
322.889	4889.08
322.953	4842.94
323.018	4778.82
323.082	4712.63
323.146	4660.86
323.211	4613.57
323.275	4567.3
323.34	4520.94
323.404	4486.55
323.468	4439.12
323.533	4398.04
323.597	4354.95
323.662	4297.74
323.726	4265.74
323.79	4214.86
323.855	4150.62
323.919	4099.89
323.983	4055.81
324.048	3988.54
324.112	4107.65
324.177	3986.9
324.241	3777.22
324.305	3576.53
324.37	3375.16
324.434	3185.61
324.498	3142.36
324.562	3089.86
324.627	3031.24
324.691	2975.29
324.755	2908.71
324.82	2829.7
324.884	2749.23
324.948	2669.97
325.012	2575.9
325.077	2443.48
