Data from 20250704_urea_2M_MAYP1162681_12-05-29-485.txt Node
Date: Fri Jul 04 12:05:29 BST 2025
User: adleo
Spectrometer: MAYP116268
Trigger mode: 0
Integration Time (sec): 1.000000E0
Scans to average: 1
Electric dark correction enabled: true
Nonlinearity correction enabled: true
Boxcar width: 10
XAxis mode: Wavelengths
Number of Pixels in Spectrum: 2068
>>>>>Begin Spectral Data<<<<<
179.565	1280.97
179.642	1340.56
179.718	1387.68
179.795	1428.2
179.871	1462.26
179.948	1481.58
180.024	1505.03
180.101	1530.81
180.177	1548.46
180.254	1571.79
180.33	1593.99
180.407	1653.01
180.483	1752.64
180.56	1848.71
180.636	1939.64
180.712	1925.75
180.789	1937.83
180.865	1950.18
180.942	1959.6
181.018	1970.63
181.095	1984.18
181.171	1988.99
181.248	1989.51
181.324	2005.4
181.4	2012.01
181.477	2021.47
181.553	2037.64
181.63	2057.8
181.706	2071.88
181.782	2077.02
181.859	2077.35
181.935	2082.73
182.011	2078.59
182.088	2099.9
182.164	2121.13
182.24	2132.01
182.317	2142.29
182.393	2140.81
182.469	2154.75
182.546	2169.54
182.622	2171.73
182.698	2165.83
182.775	2177.3
182.851	2192.81
182.927	2182.58
183.003	2180.91
183.08	2178.2
183.156	2186.39
183.232	2181.96
183.308	2169.69
183.385	2180.2
183.461	2198.57
183.537	2201.66
183.613	2216.55
183.69	2207.7
183.766	2194.18
183.842	2203.94
183.918	2212.6
183.995	2226.73
184.071	2231.87
184.147	2225.35
184.223	2216.31
184.299	2230.3
184.375	2220.31
184.452	2225.83
184.528	2278.51
184.604	2288.41
184.68	2300.64
184.756	2307.59
184.832	2314.34
184.908	2320.72
184.985	2319.29
185.061	2301.5
185.137	2309.4
185.213	2295.31
185.289	2292.55
185.365	2286.8
185.441	2284.94
185.517	2298.65
185.593	2293.8
185.669	2292.18
185.745	2304.41
185.822	2322.11
185.898	2314.78
185.974	2322.29
186.05	2315.49
186.126	2280.03
186.202	2273.61
186.278	2270.23
186.354	2260.52
186.43	2267.14
186.506	2266.47
186.582	2265.33
186.658	2272.61
186.734	2250.11
186.81	2255.34
186.886	2259.76
186.962	2271.71
187.038	2268.37
187.114	2255.71
187.19	2260.37
187.266	2247.48
187.341	2248.29
187.417	2240.06
187.493	2240.1
187.569	2243.39
187.645	2236.16
187.721	2224.59
187.797	2230.63
187.873	2234.01
187.949	2226.02
188.025	2220.54
188.101	2224.68
188.176	2230.54
188.252	2225.54
188.328	2238.19
188.404	2238.95
188.48	2232.2
188.556	2225.11
188.632	2221.92
188.707	2223.78
188.783	2225.06
188.859	2219.07
188.935	2208.6
189.011	2216.21
189.086	2208.22
189.162	2196.9
189.238	2193.52
189.314	2192.28
189.39	2187.95
189.465	2180.34
189.541	2195.85
189.617	2179.24
189.693	2172.11
189.768	2177.34
189.844	2202.71
189.92	2194.29
189.996	2201.81
190.071	2216.37
190.147	2215.33
190.223	2228.51
190.298	2219.85
190.374	2204.81
190.45	2218.42
190.526	2226.17
190.601	2220.51
190.677	2221.41
190.753	2252.02
190.828	2255.02
190.904	2269.3
190.98	2282.91
191.055	2296.24
191.131	2290.38
191.207	2310.32
191.282	2320.5
191.358	2310.08
191.433	2294.94
191.509	2306.59
191.585	2306.45
191.66	2306.5
191.736	2314.54
191.811	2303.88
191.887	2322.83
191.963	2346.38
192.038	2352.14
192.114	2349.76
192.189	2354.19
192.265	2351.1
192.34	2330.29
192.416	2331.76
192.491	2328.14
192.567	2332.48
192.642	2330.76
192.718	2329.15
192.793	2316.01
192.869	2311.82
192.944	2312.68
193.02	2320.29
193.095	2326.77
193.171	2328.05
193.246	2325.29
193.322	2322.91
193.397	2323.58
193.473	2308.39
193.548	2291.25
193.624	2296.06
193.699	2297.54
193.775	2313.01
193.85	2316.77
193.925	2326.34
194.001	2325.53
194.076	2315.87
194.152	2303.35
194.227	2298.44
194.302	2292.21
194.378	2296.68
194.453	2295.11
194.529	2310.35
194.604	2294.02
194.679	2283.51
194.755	2265.33
194.83	2277.04
194.905	2275.28
194.981	2282.71
195.056	2274.71
195.131	2278.76
195.207	2277.38
195.282	2267.77
195.357	2248.63
195.433	2263.29
195.508	2247.01
195.583	2252.62
195.659	2267.28
195.734	2274.23
195.809	2272.85
195.884	2280.84
195.96	2281.8
196.035	2298.17
196.11	2294.84
196.185	2309.68
196.261	2314.77
196.336	2347.09
196.411	2332.81
196.486	2337.43
196.561	2334
196.637	2345.28
196.712	2365.28
196.787	2368.8
196.862	2384.79
196.937	2396.55
197.013	2400.64
197.088	2415.59
197.163	2443.11
197.238	2460.93
197.313	2463.55
197.388	2476.78
197.464	2511.46
197.539	2522.65
197.614	2514.27
197.689	2526.89
197.764	2545.89
197.839	2569.75
197.914	2563.08
197.989	2588.04
198.065	2603.75
198.14	2653.98
198.215	2680.04
198.29	2685.99
198.365	2698.86
198.44	2709.48
198.515	2738.26
198.59	2756.7
198.665	2782.19
198.74	2788.81
198.815	2789.96
198.89	2813.26
198.965	2844.14
199.04	2838.04
199.115	2855.24
199.19	2901.56
199.265	2904.99
199.34	2914.05
199.415	2945.67
199.49	2969.35
199.565	2983.13
199.64	3007.15
199.715	3006.15
199.79	3014.16
199.865	3021.98
199.94	3023.46
200.015	3057.6
200.09	3063.9
200.165	3072.81
200.24	3082.4
200.315	3120.15
200.39	3138.51
200.464	3143.8
200.539	3147.09
200.614	3162.35
200.689	3185.1
200.764	3192.5
200.839	3207.75
200.914	3212
200.989	3203.46
201.063	3218.72
201.138	3195.27
201.213	3195.41
201.288	3175.53
201.363	3178.63
201.438	3183.58
201.512	3199.37
201.587	3180.95
201.662	3185.48
201.737	3193.64
201.812	3199.84
201.886	3166.67
201.961	3175.64
202.036	3163.39
202.111	3157.95
202.186	3128.78
202.26	3111.37
202.335	3086.04
202.41	3081.13
202.485	3061.82
202.559	3040.8
202.634	3010.61
202.709	3024.91
202.784	3006.22
202.858	3005.98
202.933	2989.25
203.008	2977.95
203.082	2957.26
203.157	2954.54
203.232	2907.98
203.306	2890.62
203.381	2856.58
203.456	2833.47
203.53	2811.14
203.605	2792.28
203.68	2771.49
203.754	2761.35
203.829	2745.91
203.904	2727.47
203.978	2716.03
204.053	2721.56
204.127	2705.98
204.202	2704.08
204.277	2683.45
204.351	2673.68
204.426	2662.77
204.5	2653.72
204.575	2623.1
204.65	2634.82
204.724	2627.57
204.799	2634.38
204.873	2626.18
204.948	2626.14
205.022	2614.52
205.097	2606.94
205.171	2619.65
205.246	2625.18
205.32	2626.42
205.395	2627.23
205.469	2615.38
205.544	2619.14
205.618	2601.04
205.693	2612.04
205.767	2600.33
205.842	2625.34
205.916	2621.44
205.991	2614.15
206.065	2621.01
206.14	2637.29
206.214	2629.19
206.289	2623.18
206.363	2638.85
206.438	2641.86
206.512	2647.24
206.586	2665.86
206.661	2670.67
206.735	2649.1
206.81	2652.16
206.884	2670.3
206.958	2657.87
207.033	2675.73
207.107	2685.78
207.181	2719.43
207.256	2716.62
207.33	2735.81
207.405	2746.59
207.479	2764.12
207.553	2770.79
207.628	2751.27
207.702	2760.8
207.776	2754.36
207.851	2759.32
207.925	2773.38
207.999	2771.43
208.073	2768.43
208.148	2773.62
208.222	2761.75
208.296	2795.48
208.371	2812.55
208.445	2821.99
208.519	2850.57
208.593	2865.35
208.668	2861.49
208.742	2864.92
208.816	2865.3
208.89	2880.61
208.965	2881.8
209.039	2888.38
209.113	2906.35
209.187	2929.16
209.261	2925.3
209.336	2947.7
209.41	2967.34
209.484	2967.44
209.558	2991.52
209.632	3007.34
209.707	3019.83
209.781	3045.34
209.855	3059.79
209.929	3077.88
210.003	3084.94
210.077	3086.56
210.151	3132.62
210.226	3166.54
210.3	3194.76
210.374	3222.36
210.448	3229.56
210.522	3238.15
210.596	3254.42
210.67	3265.72
210.744	3313.87
210.818	3349.54
210.892	3372.68
210.966	3366.67
211.041	3386.19
211.115	3386.66
211.189	3416.15
211.263	3434.24
211.337	3440.92
211.411	3458.96
211.485	3457.86
211.559	3474.23
211.633	3478.57
211.707	3450.39
211.781	3463.72
211.855	3434.08
211.929	3431.21
212.003	3415.33
212.077	3435.82
212.151	3456.2
212.225	3476.25
212.299	3479.65
212.373	3481.75
212.447	3491.82
212.52	3539.48
212.594	3561.26
212.668	3588.61
212.742	3593.05
212.816	3606.09
212.89	3626
212.964	3646.59
213.038	3677.66
213.112	3720.52
213.186	3771.14
213.26	3783.17
213.333	3767.74
213.407	3806.94
213.481	3846.76
213.555	3902.19
213.629	3930.02
213.703	3958.03
213.777	4005.79
213.85	4036.73
213.924	4122.35
213.998	4178.69
214.072	4226.21
214.146	4267.4
214.219	4329.88
214.293	4391.53
214.367	4467.66
214.441	4546.81
214.515	4617.14
214.588	4666.88
214.662	4712.12
214.736	4767.41
214.81	4862.3
214.883	4967.69
214.957	5055.27
215.031	5141.75
215.105	5222.68
215.178	5313.88
215.252	5411.12
215.326	5495.79
215.4	5586.33
215.473	5650.33
215.547	5741.42
215.621	5844.73
215.694	5975.49
215.768	6073.44
215.842	6183.95
215.915	6290.58
215.989	6391.97
216.063	6505.02
216.136	6632.85
216.21	6765.44
216.284	6915.89
216.357	7052.57
216.431	7179.71
216.504	7326.11
216.578	7492.19
216.652	7640.71
216.725	7782.51
216.799	7938.06
216.873	8085.33
216.946	8241.69
217.02	8383.88
217.093	8526.72
217.167	8651.84
217.24	8780.6
217.314	8928.64
217.387	9072.07
217.461	9218.61
217.535	9384.67
217.608	9525.94
217.682	9676.23
217.755	9829.42
217.829	9972.34
217.902	10127.29
217.976	10284.23
218.049	10418.16
218.123	10547.62
218.196	10707.97
218.27	10849.63
218.343	10983.01
218.417	11132.79
218.49	11273.16
218.563	11436.48
218.637	11590.89
218.71	11769.31
218.784	11928.41
218.857	12085.2
218.931	12234.81
219.004	12379.46
219.077	12526.33
219.151	12671.95
219.224	12810.78
219.298	12952.26
219.371	13108.68
219.444	13227.26
219.518	13365.61
219.591	13503.19
219.665	13667.76
219.738	13800.81
219.811	13929.56
219.885	14070.56
219.958	14205.83
220.031	14334.63
220.105	14460.83
220.178	14578.98
220.251	14686.33
220.325	14802.94
220.398	14924.36
220.471	15045.74
220.544	15167.4
220.618	15271.28
220.691	15388.41
220.764	15505.49
220.838	15617.61
220.911	15703.93
220.984	15841.45
221.057	15947.25
221.131	16055.84
221.204	16132.48
221.277	16244.78
221.35	16371.1
221.424	16457.09
221.497	16553.62
221.57	16644.14
221.643	16736.82
221.716	16841.98
221.79	16919.58
221.863	17002.47
221.936	17075
222.009	17162.91
222.082	17248.99
222.155	17321.52
222.229	17412.94
222.302	17494.29
222.375	17576.27
222.448	17650.34
222.521	17706.82
222.594	17773.52
222.667	17824.02
222.74	17892.41
222.814	17945.61
222.887	18001.8
222.96	18076.26
223.033	18143.58
223.106	18207.09
223.179	18271.57
223.252	18327.47
223.325	18387.09
223.398	18448.63
223.471	18510.94
223.544	18554.45
223.617	18604.86
223.69	18662.4
223.763	18703.36
223.837	18746.92
223.91	18784.32
223.983	18824.8
224.056	18857.76
224.129	18902.53
224.202	18973.41
224.275	19005.08
224.348	19027.05
224.42	19053.02
224.493	19076.25
224.566	19100.2
224.639	19135.53
224.712	19163.23
224.785	19186.94
224.858	19209.64
224.931	19229.16
225.004	19241.16
225.077	19273.49
225.15	19276.19
225.223	19306.45
225.296	19349.73
225.369	19356.57
225.442	19369.78
225.514	19390.59
225.587	19416.91
225.66	19438.35
225.733	19452.33
225.806	19472.61
225.879	19493.43
225.952	19494.15
226.025	19517.91
226.097	19546.63
226.17	19561.77
226.243	19545.67
226.316	19558.73
226.389	19580.22
226.461	19592.32
226.534	19620.75
226.607	19627.26
226.68	19660.7
226.753	19667.54
226.825	19653.42
226.898	19678.19
226.971	19682.96
227.044	19696.31
227.117	19710.34
227.189	19723.35
227.262	19742.48
227.335	19761.13
227.407	19766.09
227.48	19788.79
227.553	19796.21
227.626	19793.56
227.698	19800.26
227.771	19820.84
227.844	19810.76
227.916	19820.07
227.989	19813.13
228.062	19803.15
228.134	19833.8
228.207	19837.51
228.28	19834.19
228.352	19840.26
228.425	19842.62
228.498	19858.23
228.57	19850.67
228.643	19854.47
228.716	19850.76
228.788	19829.51
228.861	19821.13
228.934	19839.92
229.006	19834.57
229.079	19823.34
229.151	19812.4
229.224	19789.27
229.296	19789.95
229.369	19818.96
229.442	19817.9
229.514	19819.97
229.587	19824.21
229.659	19785.95
229.732	19772.84
229.804	19775.2
229.877	19782.67
229.949	19796.5
230.022	19809.85
230.094	19807.73
230.167	19806.23
230.239	19785.61
230.312	19784.69
230.384	19796.36
230.457	19795.58
230.529	19783.59
230.602	19784.21
230.674	19780.12
230.747	19787.06
230.819	19791.3
230.892	19755.59
230.964	19759.06
231.037	19752.79
231.109	19742.43
231.181	19749.71
231.254	19731.49
231.326	19716.6
231.399	19701.76
231.471	19673.04
231.544	19641.95
231.616	19643.88
231.688	19636.12
231.761	19622.58
231.833	19600.94
231.905	19561.52
231.978	19538.44
232.05	19532.32
232.122	19520.95
232.195	19506.54
232.267	19500.61
232.339	19482.3
232.412	19485.19
232.484	19464.47
232.556	19440.13
232.629	19449.67
232.701	19449.1
232.773	19450.16
232.846	19433.58
232.918	19418.35
232.99	19411.17
233.062	19401.92
233.135	19386.06
233.207	19358.07
233.279	19365.44
233.351	19355.66
233.424	19341.49
233.496	19324.43
233.568	19331.95
233.64	19306.98
233.713	19287.03
233.785	19279.42
233.857	19266.22
233.929	19230.51
234.001	19232.72
234.074	19235.57
234.146	19192.87
234.218	19166.51
234.29	19134.95
234.362	19115.67
234.434	19084.97
234.507	19048.59
234.579	19020.11
234.651	18996.64
234.723	18984.4
234.795	18961.13
234.867	18945.85
234.939	18945.85
235.012	18928.79
235.084	18909.18
235.156	18902.09
235.228	18875.73
235.3	18844.51
235.372	18826.68
235.444	18827.59
235.516	18779.21
235.588	18758.78
235.66	18746.15
235.732	18717
235.804	18758.68
235.876	18745.67
235.948	18736.61
236.02	18718.68
236.092	18688.9
236.164	18671.75
236.236	18649.1
236.308	18608.96
236.38	18591.85
236.452	18547.61
236.524	18516.62
236.596	18503.42
236.668	18483.76
236.74	18464.91
236.812	18448.72
236.884	18427.9
236.956	18398.7
237.028	18364.58
237.1	18332.92
237.172	18324.25
237.244	18312.2
237.316	18253.12
237.388	18217.12
237.46	18189.56
237.532	18189.03
237.604	18163.58
237.675	18148.55
237.747	18124.4
237.819	18101.03
237.891	18069.08
237.963	18041.71
238.035	18011.06
238.107	17943.3
238.178	17922.63
238.25	17898.29
238.322	17894.34
238.394	17850.72
238.466	17826.72
238.538	17806.77
238.609	17782.15
238.681	17738.58
238.753	17696.65
238.825	17666.54
238.897	17646.34
238.968	17636.8
239.04	17595.4
239.112	17598.3
239.184	17552.75
239.255	17525.28
239.327	17498.97
239.399	17478.63
239.471	17470.06
239.542	17455.98
239.614	17450.01
239.686	17396.32
239.758	17374.2
239.829	17340.9
239.901	17322.83
239.973	17282.15
240.044	17271.45
240.116	17245.91
240.188	17214.29
240.259	17197.23
240.331	17165.76
240.403	17145.76
240.474	17100.46
240.546	17060.94
240.618	17013.09
240.689	16986.43
240.761	16960.75
240.833	16951.93
240.904	16918.29
240.976	16879.97
241.048	16851.58
241.119	16834.81
241.191	16824.6
241.262	16818.96
241.334	16776.98
241.405	16747.87
241.477	16721.41
241.549	16678.37
241.62	16649.94
241.692	16622.99
241.763	16604.63
241.835	16575.52
241.906	16539.86
241.978	16493.73
242.049	16474.26
242.121	16463.56
242.192	16459.85
242.264	16409.92
242.335	16360.32
242.407	16339.74
242.478	16307.88
242.55	16281.28
242.621	16229.66
242.693	16190.33
242.764	16149.89
242.836	16119.86
242.907	16101.5
242.979	16081.02
243.05	16055.57
243.122	16029.35
243.193	16003.08
243.264	15948.66
243.336	15914.78
243.407	15895.16
243.479	15880.75
243.55	15856.02
243.622	15825.27
243.693	15787.87
243.764	15784.74
243.836	15751.04
243.907	15720.29
243.978	15694.84
244.05	15673.83
244.121	15634.88
244.192	15621.19
244.264	15579.55
244.335	15553.37
244.407	15507.82
244.478	15482.52
244.549	15454.17
244.62	15413.11
244.692	15385.01
244.763	15373.53
244.834	15341
244.906	15308.08
244.977	15293.33
245.048	15285.13
245.119	15252.98
245.191	15207.77
245.262	15155.56
245.333	15149.15
245.405	15127.27
245.476	15102.59
245.547	15075.98
245.618	15067.69
245.689	15034.38
245.761	15005.94
245.832	14981.41
245.903	14970.08
245.974	14948.63
246.045	14919.85
246.117	14914.21
246.188	14873.48
246.259	14836.12
246.33	14808.11
246.401	14784.73
246.473	14738.84
246.544	14699.41
246.615	14674.59
246.686	14654.1
246.757	14643.4
246.828	14601.7
246.899	14585.89
246.97	14540.19
247.042	14497.82
247.113	14462.1
247.184	14449.23
247.255	14416.31
247.326	14389.07
247.397	14350.94
247.468	14325.92
247.539	14304.13
247.61	14260.99
247.681	14247.3
247.752	14236.07
247.823	14198.66
247.894	14168.19
247.965	14137.97
248.037	14106.73
248.108	14069.18
248.179	14040.25
248.25	14014.17
248.321	13998.27
248.392	13958.11
248.463	13963.17
248.534	13944.85
248.605	13935.5
248.675	13911.16
248.746	13898.05
248.817	13881.08
248.888	13864.4
248.959	13817.25
249.03	13795.08
249.101	13773.77
249.172	13743.59
249.243	13693.02
249.314	13692.54
249.385	13669.26
249.456	13654.65
249.527	13635.95
249.598	13617.29
249.669	13590.01
249.739	13572.56
249.81	13549.61
249.881	13507.09
249.952	13480
250.023	13446.25
250.094	13410.34
250.165	13373.85
250.235	13349.7
250.306	13325.5
250.377	13289.73
250.448	13275.07
250.519	13232.36
250.59	13224.5
250.66	13194.09
250.731	13185.65
250.802	13154.46
250.873	13141.4
250.944	13125.01
251.014	13087.94
251.085	13085.43
251.156	13072.61
251.227	13057.32
251.297	13050.19
251.368	13045.71
251.439	13042.24
251.51	13043.06
251.58	13010.03
251.651	12987.28
251.722	12977.35
251.792	12930.25
251.863	12910.92
251.934	12904.46
252.005	12918.11
252.075	12890.63
252.146	12882.72
252.217	12877.13
252.287	12867.68
252.358	12840.4
252.429	12833.65
252.499	12802.22
252.57	12787.13
252.641	12771.71
252.711	12750.93
252.782	12716.08
252.852	12720.46
252.923	12689.56
252.994	12667.92
253.064	12660.64
253.135	12631.19
253.205	12606.07
253.276	12610.56
253.347	12607.18
253.417	12574.35
253.488	12546.68
253.558	12527.16
253.629	12508.65
253.699	12494.91
253.77	12485.99
253.841	12463.39
253.911	12443.86
253.982	12430.8
254.052	12417.74
254.123	12395.47
254.193	12377.29
254.264	12396.05
254.334	12359.65
254.405	12323.16
254.475	12288.41
254.546	12260.64
254.616	12249.7
254.687	12231.91
254.757	12218.13
254.827	12197.16
254.898	12183.33
254.968	12160.14
255.039	12131.9
255.109	12125.73
255.18	12099.12
255.25	12050.72
255.321	12038.87
255.391	12003.05
255.461	12006.96
255.532	11956.87
255.602	11937.35
255.673	11891.27
255.743	11856.71
255.813	11812.95
255.884	11805.19
255.954	11792.51
256.024	11802.54
256.095	11793.14
256.165	11762.96
256.235	11749.52
256.306	11725.22
256.376	11720.02
256.446	11708.74
256.517	11699
256.587	11687.19
256.657	11666.71
256.728	11653.5
256.798	11634.61
256.868	11613.69
256.938	11594.89
257.009	11592.68
257.079	11585.26
257.149	11599.57
257.219	11557.49
257.29	11548.19
257.36	11515.32
257.43	11513.49
257.5	11476.48
257.571	11454.69
257.641	11444.23
257.711	11405.87
257.781	11394.78
257.852	11381.1
257.922	11344.9
257.992	11323.94
258.062	11304.32
258.132	11294.1
258.202	11274.49
258.273	11263.6
258.343	11266.54
258.413	11238.97
258.483	11221.04
258.553	11191.74
258.623	11166.34
258.693	11160.32
258.764	11161.76
258.834	11164.46
258.904	11145.04
258.974	11121.76
259.044	11100.27
259.114	11086.58
259.184	11079.16
259.254	11052.95
259.324	11016.42
259.394	11010.01
259.464	11017.53
259.535	10996.81
259.605	10975.07
259.675	10954.21
259.745	10938.45
259.815	10904.67
259.885	10881.15
259.955	10894.7
260.025	10871.28
260.095	10853.74
260.165	10847.52
260.235	10846.41
260.305	10820.25
260.375	10791.19
260.445	10794.8
260.515	10798.71
260.585	10793.74
260.655	10774.47
260.725	10778.18
260.795	10777.17
260.865	10780.44
260.934	10752.06
261.004	10740.74
261.074	10728.84
261.144	10734.38
261.214	10729.41
261.284	10718.67
261.354	10716.21
261.424	10689.27
261.494	10695.92
261.564	10685.8
261.634	10673.66
261.703	10637.28
261.773	10628.75
261.843	10621.77
261.913	10603.07
261.983	10570.4
262.053	10563.51
262.123	10556.53
262.192	10523.96
262.262	10512.68
262.332	10481.51
262.402	10471.63
262.472	10466.19
262.541	10428.85
262.611	10420.42
262.681	10396.42
262.751	10395.8
262.821	10381.3
262.89	10349.5
262.96	10336.68
263.03	10339.14
263.1	10328.34
263.169	10320.39
263.239	10307.97
263.309	10312.83
263.379	10308.01
263.448	10294.19
263.518	10279.49
263.588	10255.07
263.657	10260.99
263.727	10257.53
263.797	10246.16
263.867	10231.9
263.936	10199.91
264.006	10202.65
264.076	10190.56
264.145	10173.41
264.215	10147.45
264.285	10139.11
264.354	10107.27
264.424	10085.16
264.494	10057.22
264.563	10037.42
264.633	10039.39
264.702	10032.6
264.772	10003.75
264.842	9979.56
264.911	9973.21
264.981	9950.08
265.05	9940.45
265.12	9927.3
265.19	9915.54
265.259	9908.75
265.329	9904.8
265.398	9893.29
265.468	9906.01
265.537	9877.2
265.607	9875.28
265.676	9873.93
265.746	9866.27
265.815	9863.24
265.885	9851.39
265.955	9833.57
266.024	9817.67
266.094	9779.48
266.163	9782.61
266.232	9782.46
266.302	9773.79
266.371	9762.48
266.441	9751.06
266.51	9748.56
266.58	9726.59
266.649	9704.63
266.719	9710.75
266.788	9699.04
266.858	9705.26
266.927	9665.28
266.996	9664.32
267.066	9655.94
267.135	9626.66
267.205	9619.34
267.274	9619.19
267.343	9616.4
267.413	9598.48
267.482	9603.64
267.552	9614.91
267.621	9585.53
267.69	9552.2
267.76	9542.09
267.829	9533.04
267.898	9515.84
267.968	9495.62
268.037	9500.29
268.106	9494.7
268.176	9468.6
268.245	9450.4
268.314	9434.36
268.384	9433.4
268.453	9424.68
268.522	9412.11
268.592	9422.03
268.661	9403.2
268.73	9390.29
268.799	9371.13
268.869	9383.55
268.938	9355.43
269.007	9330.68
269.076	9321.63
269.146	9331.69
269.215	9324.18
269.284	9329.86
269.353	9322.26
269.422	9306.18
269.492	9281.38
269.561	9241.95
269.63	9239.59
269.699	9230.73
269.768	9222.2
269.838	9219.51
269.907	9219.12
269.976	9195.24
270.045	9164.09
270.114	9165.15
270.183	9154.22
270.253	9149.07
270.322	9118.59
270.391	9111.61
270.46	9120.76
270.529	9117.54
270.598	9112.29
270.667	9100.54
270.736	9082.39
270.806	9076.23
270.875	9084.12
270.944	9078.25
271.013	9107.18
271.082	9094.52
271.151	9089.7
271.22	9066.5
271.289	9057.54
271.358	9043.92
271.427	9042.91
271.496	9037.81
271.565	9021.39
271.634	9005.6
271.703	9028.04
271.772	9035.64
271.841	9025.58
271.91	8998.96
271.979	8997.32
272.048	8968.29
272.117	8968.01
272.186	8951.64
272.255	8951.59
272.324	8949.09
272.393	8938.26
272.462	8916.54
272.531	8913.99
272.6	8902.15
272.669	8904.8
272.738	8894.16
272.807	8884.48
272.876	8866.38
272.945	8892.57
273.013	8893.01
273.082	8907.74
273.151	8864.94
273.22	8854.59
273.289	8842.99
273.358	8851.03
273.427	8836.59
273.496	8844.82
273.564	8837.5
273.633	8841.88
273.702	8825.71
273.771	8819.4
273.84	8814.4
273.909	8814.59
273.977	8802.94
274.046	8792.78
274.115	8800
274.184	8785.08
274.253	8775.6
274.322	8782.97
274.39	8748.93
274.459	8736.03
274.528	8704.8
274.597	8701.33
274.665	8699.84
274.734	8708.46
274.803	8703.16
274.872	8691.71
274.94	8672.74
275.009	8730.87
275.078	8711.71
275.147	8707.86
275.215	8696.31
275.284	8706.7
275.353	8692.6
275.421	8670.22
275.49	8691.89
275.559	8679.61
275.627	8669.12
275.696	8663.97
275.765	8667.87
275.833	8661.47
275.902	8663.64
275.971	8676.92
276.039	8691.45
276.108	8693.76
276.177	8690.11
276.245	8681.3
276.314	8682.98
276.383	8692.08
276.451	8628.9
276.52	8637.47
276.588	8646.52
276.657	8652.24
276.725	8641.61
276.794	8638.29
276.863	8650.17
276.931	8626.15
277	8629.62
277.068	8646.6
277.137	8671.83
277.205	8662.92
277.274	8686.46
277.342	8690.31
277.411	8668.89
277.48	8659.17
277.548	8648.68
277.617	8648.25
277.685	8639.1
277.754	8643.87
277.822	8637.66
277.89	8654.22
277.959	8645.85
278.027	8630.64
278.096	8622.12
278.164	8649.8
278.233	8651.14
278.301	8641.52
278.37	8636.42
278.438	8620.59
278.507	8619.09
278.575	8586.94
278.643	8584.25
278.712	8556.72
278.78	8545.65
278.849	8559.46
278.917	8568.07
278.985	8566.78
279.054	8571.93
279.122	8586.41
279.191	8584.39
279.259	8579.77
279.327	8554.74
279.396	8573.32
279.464	8565.43
279.532	8571.88
279.601	8567.16
279.669	8556.91
279.737	8567.74
279.806	8575.48
279.874	8589.92
279.942	8586.17
280.011	8580.11
280.079	8588.91
280.147	8608.5
280.215	8615.81
280.284	8608.07
280.352	8595.31
280.42	8603.06
280.488	8593.19
280.557	8584.39
280.625	8589.1
280.693	8588.43
280.761	8590.79
280.83	8570.72
280.898	8581.88
280.966	8565.04
281.034	8529.52
281.102	8518.07
281.171	8517.83
281.239	8524.47
281.307	8516.67
281.375	8511.33
281.443	8540.98
281.512	8539.58
281.58	8543
281.648	8523.56
281.716	8528.32
281.784	8528.23
281.852	8518.55
281.92	8519.27
281.989	8535.16
282.057	8513.79
282.125	8559.33
282.193	8556.78
282.261	8554.95
282.329	8552.45
282.397	8559.09
282.465	8570.3
282.533	8595.9
282.601	8583.48
282.67	8564.76
282.738	8558.26
282.806	8565.1
282.874	8553.11
282.942	8551.52
283.01	8548.4
283.078	8555.95
283.146	8551.91
283.214	8558.45
283.282	8562.35
283.35	8571.25
283.418	8559.99
283.486	8565.43
283.554	8519.03
283.622	8521.48
283.69	8522.63
283.758	8521.91
283.826	8523.6
283.894	8527.59
283.962	8540.97
284.03	8553.77
284.098	8554.78
284.165	8545.4
284.233	8548.96
284.301	8546.51
284.369	8542.9
284.437	8532.21
284.505	8527.64
284.573	8544.1
284.641	8536.26
284.709	8541.31
284.777	8524.08
284.845	8530.48
284.912	8533.85
284.98	8538.71
285.048	8538.81
285.116	8550.55
285.184	8564.17
285.252	8562
285.319	8543.96
285.387	8531.59
285.455	8517.34
285.523	8524.03
285.591	8523.07
285.659	8521.34
285.726	8531.93
285.794	8512.63
285.862	8512.15
285.93	8511.81
285.997	8504.98
286.065	8494.92
286.133	8486.65
286.201	8490.98
286.269	8476.15
286.336	8467.54
286.404	8466.24
286.472	8470.96
286.539	8441.22
286.607	8422.98
286.675	8421.59
286.743	8436.7
286.81	8432.94
286.878	8448.39
286.946	8437.66
287.013	8438.86
287.081	8432.03
287.149	8414.22
287.216	8437.37
287.284	8433.61
287.352	8438.14
287.419	8432.07
287.487	8446.27
287.555	8450.7
287.622	8444.87
287.69	8449.88
287.758	8464.8
287.825	8460.27
287.893	8441.07
287.96	8449.3
288.028	8461.81
288.096	8473.65
288.163	8472.98
288.231	8464.22
288.298	8463.59
288.366	8481.59
288.433	8481.83
288.501	8478.17
288.569	8480.05
288.636	8473.55
288.704	8486.93
288.771	8493.62
288.839	8488.9
288.906	8490.01
288.974	8501.18
289.041	8498.82
289.109	8489.92
289.176	8499.54
289.244	8502.24
289.311	8522.59
289.379	8538.47
289.446	8540.21
289.514	8537.41
289.581	8537.41
289.649	8539.96
289.716	8542.71
289.783	8535.54
289.851	8555.22
289.918	8557.62
289.986	8565.56
290.053	8564.94
290.121	8561.04
290.188	8562
290.255	8596.51
290.323	8586.89
290.39	8575.05
290.458	8588.86
290.525	8604.54
290.592	8597.08
290.66	8599.39
290.727	8592.13
290.794	8606.95
290.862	8610.7
290.929	8610.32
290.996	8615.52
291.064	8622.3
291.131	8634.19
291.198	8644.59
291.266	8647.96
291.333	8659.89
291.4	8661.82
291.468	8684.92
291.535	8679.77
291.602	8685.5
291.669	8675.77
291.737	8685.49
291.804	8685.93
291.871	8701.04
291.938	8715.05
292.006	8749.04
292.073	8757.46
292.14	8769.73
292.207	8761.93
292.275	8756.69
292.342	8767.13
292.409	8787.59
292.476	8816.95
292.543	8802.61
292.611	8803.86
292.678	8813.1
292.745	8832.16
292.812	8847.42
292.879	8837.17
292.946	8845.98
293.014	8862.3
293.081	8867.11
293.148	8880.2
293.215	8905.38
293.282	8897.29
293.349	8905.09
293.416	8876.11
293.484	8901.23
293.551	8912.6
293.618	8929.25
293.685	8958.57
293.752	8958.57
293.819	8956.11
293.886	8942.29
293.953	8950.04
294.02	8961.79
294.087	8972.04
294.154	8964.34
294.221	8975.61
294.288	8986.1
294.356	9006.94
294.423	9010.6
294.49	9009.64
294.557	9018.98
294.624	9005.55
294.691	9024.27
294.758	9015.66
294.825	9032.07
294.892	9024.27
294.959	9025.28
295.026	9035.2
295.093	9027.55
295.16	9024.75
295.226	9029.23
295.293	9058.27
295.36	9071.12
295.427	9082.96
295.494	9096.4
295.561	9105.64
295.628	9135.02
295.695	9147
295.762	9145.42
295.829	9151.15
295.896	9170.6
295.963	9181.43
296.03	9192.36
296.096	9204.68
296.163	9224.37
296.23	9235.98
296.297	9246.57
296.364	9246.33
296.431	9250.18
296.498	9246.81
296.564	9275.46
296.631	9273.39
296.698	9256.87
296.765	9273.05
296.832	9262.89
296.899	9246.33
296.965	9260.96
297.032	9239.68
297.099	9251.76
297.166	9266.69
297.233	9266.3
297.299	9253.79
297.366	9255.09
297.433	9258.02
297.5	9262.07
297.566	9264.43
297.633	9264.48
297.7	9264.04
297.767	9261.64
297.833	9265.97
297.9	9269.58
297.967	9252.25
298.033	9265.73
298.1	9294.86
298.167	9285.71
298.234	9294
298.3	9309.55
298.367	9306.56
298.434	9309.16
298.5	9305.65
298.567	9296.55
298.634	9293.27
298.7	9313.78
298.767	9316.53
298.834	9330.93
298.9	9325.48
298.967	9313.78
299.033	9324.09
299.1	9340.03
299.167	9359.38
299.233	9355.48
299.3	9370.17
299.366	9385.33
299.433	9404.21
299.5	9376.19
299.566	9382.69
299.633	9403.83
299.699	9413.51
299.766	9409.32
299.832	9417.94
299.899	9429.16
299.965	9444.95
300.032	9449.48
300.099	9454.49
300.165	9460.36
300.232	9462.82
300.298	9466.24
300.365	9479.62
300.431	9476.54
300.498	9475.43
300.564	9477.02
300.631	9491.71
300.697	9506.78
300.763	9509.34
300.83	9500.72
300.896	9519.11
300.963	9533.89
301.029	9533.89
301.096	9536.25
301.162	9556
301.229	9544.25
301.295	9530.04
301.361	9531.78
301.428	9530.38
301.494	9512.95
301.561	9515.45
301.627	9509.82
301.693	9507.79
301.76	9516.61
301.826	9515.07
301.892	9521.33
301.959	9532.65
302.025	9523.21
302.092	9516.37
302.158	9529.85
302.224	9537.03
302.291	9527.3
302.357	9517.57
302.423	9507.31
302.49	9503.46
302.556	9510.54
302.622	9518.44
302.688	9529.66
302.755	9548.59
302.821	9561.45
302.887	9577.53
302.954	9578.59
303.02	9598.19
303.086	9610.81
303.152	9604.02
303.219	9602.23
303.285	9605.12
303.351	9611.34
303.417	9617.79
303.483	9611.34
303.55	9591.54
303.616	9592.03
303.682	9592.17
303.748	9590.92
303.815	9608.98
303.881	9615.77
303.947	9604.79
304.013	9606.81
304.079	9599.88
304.145	9577.58
304.212	9573.34
304.278	9560.05
304.344	9557.74
304.41	9537.56
304.476	9522.68
304.542	9521.52
304.608	9525.52
304.674	9513
304.741	9508.57
304.807	9511.46
304.873	9515.41
304.939	9544.25
305.005	9521.33
305.071	9520.9
305.137	9521.28
305.203	9491.71
305.269	9485.26
305.335	9495.23
305.401	9493.93
305.467	9495.56
305.533	9499.56
305.599	9506.69
305.666	9518.34
305.732	9522.05
305.798	9537.41
305.864	9566.21
305.93	9565.11
305.996	9569.3
306.062	9565.2
306.128	9561.45
306.194	9555.38
306.259	9557.69
306.325	9543.87
306.391	9556.58
306.457	9561.01
306.523	9566.79
306.589	9595.63
306.655	9588.36
306.721	9564.72
306.787	9553.55
306.853	9566.79
306.919	9555.76
306.985	9549.6
307.051	9545.22
307.117	9533.9
307.183	9525.18
307.248	9489.25
307.314	9493.54
307.38	9488.58
307.446	9497.78
307.512	9478.85
307.578	9475.58
307.644	9466.28
307.709	9465.8
307.775	9466.19
307.841	9466.48
307.907	9459.83
307.973	9443.65
308.039	9445.48
308.104	9451.98
308.17	9448.27
308.236	9430.02
308.302	9427.56
308.368	9417.69
308.433	9416.25
308.499	9413.21
308.565	9405.17
308.631	9416.34
308.696	9397.03
308.762	9384.76
308.828	9385.43
308.894	9374.02
308.959	9355.77
309.025	9346.28
309.091	9342.62
309.156	9333.43
309.222	9332.37
309.288	9327.22
309.354	9306.17
309.419	9302.9
309.485	9293.99
309.551	9304.92
309.616	9297.7
309.682	9300.15
309.748	9291.39
309.813	9280.08
309.879	9275.12
309.945	9257.06
310.01	9249.36
310.076	9252.82
310.141	9248.01
310.207	9227.26
310.273	9230.1
310.338	9234.09
310.404	9219.36
310.469	9202.89
310.535	9191.53
310.601	9166.2
310.666	9166.59
310.732	9170.35
310.797	9152.48
310.863	9140.88
310.928	9130.29
310.994	9128.46
311.059	9119.45
311.125	9114.11
311.191	9133.18
311.256	9114.93
311.322	9127.16
311.387	9107.47
311.453	9428.73
311.518	9411.07
311.584	9412.9
311.649	9421.85
311.715	9413.72
311.78	9421.32
311.846	9414.34
311.911	9418.38
311.976	9425.37
312.042	9410.34
312.107	9398.5
312.173	9398.12
312.238	9390.51
312.304	9386.37
312.369	9379.87
312.434	9372.55
312.5	9370.29
312.565	9331.96
312.631	9339.04
312.696	9329.36
312.761	9335.81
312.827	9006.8
312.892	9047.14
312.958	9037.8
313.023	9031.02
313.088	9029.72
313.154	9019.8
313.219	9012.39
313.284	9004.3
313.35	8996.45
313.415	8983.55
313.48	8982.68
313.546	8984.32
313.611	8995.54
313.676	8983.6
313.741	8970.94
313.807	8981.53
313.872	8980.76
313.937	8992.46
314.003	9002.13
314.068	9004.83
314.133	9009.26
314.198	8994.72
314.264	8974.11
314.329	8965.16
314.394	8956.93
314.459	8949.22
314.525	8966.89
314.59	8956.88
314.655	8944.17
314.72	8951.87
314.785	8959.09
314.851	8952.26
314.916	8932.91
314.981	8913.03
315.046	8907.06
315.111	8896.9
315.176	8877.6
315.242	8886.36
315.307	8884.29
315.372	8865.85
315.437	8854.68
315.502	8844.77
315.567	8861.18
315.632	8836.3
315.698	8839.76
315.763	8842.65
315.828	8835.05
315.893	8828.55
315.958	8829.32
316.023	8821.42
316.088	8805.06
316.153	8779.45
316.218	8772.67
316.283	8757.75
316.348	8751.3
316.413	8749.66
316.479	8733.45
316.544	8704.62
316.609	8668.57
316.674	8628.2
316.739	8591.48
316.804	8559.05
316.869	8519.59
316.934	8479.5
316.999	8455.15
317.064	8404.92
317.129	8357.09
317.194	8321.92
317.259	8270.57
317.324	8223.48
317.389	8179.99
317.454	8142.65
317.518	8117.78
317.583	8093.73
317.648	8069.92
317.713	8030.47
317.778	7966.49
317.843	7942.92
317.908	7903.78
317.973	7873.04
318.038	7852.27
318.103	7816.16
318.168	7782.78
318.233	7754.32
318.297	7706.71
318.362	7668.53
318.427	7630.89
318.492	7608.05
318.557	7562.82
318.622	7535.84
318.687	7514.45
318.751	7476.1
318.816	7439.94
318.881	7395.67
318.946	7335.3
319.011	7294.1
319.075	7252.43
319.14	7222.31
319.205	7172.13
319.27	7144.46
319.335	7096.31
319.399	7052.38
319.464	7029.13
319.529	6979.26
319.594	6944.43
319.658	6915.5
319.723	6873.28
319.788	6849.84
319.853	6794.98
319.917	6765.88
319.982	6713.81
320.047	6674.23
320.112	6648.97
320.176	6600.66
320.241	6574.2
320.306	6551.44
320.37	6513.79
320.435	6485.18
320.5	6456.99
320.564	6424.88
320.629	6381.15
320.694	6348.46
320.758	6304.55
320.823	6258.09
320.888	6231.84
320.952	6183.37
321.017	6143.25
321.082	6106.88
321.146	6071.46
321.211	6042.62
321.275	6005.16
321.34	5961.46
321.405	5917
321.469	5872.63
321.534	5832.97
321.598	5778.77
321.663	5747.59
321.727	5710.18
321.792	5660.41
321.857	5616.62
321.921	5575.39
321.986	5529.72
322.05	5476.9
322.115	5442.72
322.179	5398.92
322.244	5342.53
322.308	5307.21
322.373	5261.83
322.437	5222.83
322.502	5199.86
322.566	5148.89
322.631	5111.85
322.695	5072.82
322.76	5029.91
322.824	4988.3
322.889	4945.97
322.953	4904.18
323.018	4837.47
323.082	4771.8
323.146	4722.32
323.211	4665.6
323.275	4624.24
323.34	4584.2
323.404	4547.45
323.468	4501.7
323.533	4458.65
323.597	4416.48
323.662	4368.69
323.726	4333.86
323.79	4287.46
323.855	4216.16
323.919	4167.73
323.983	4120.15
324.048	4053.64
324.112	4204.39
324.177	4083.74
324.241	3871.81
324.305	3666.09
324.37	3461.86
324.434	3270.73
324.498	3227.47
324.562	3182.24
324.627	3121.56
324.691	3063.96
324.755	2999.22
324.82	2922.9
324.884	2847.94
324.948	2776.42
325.012	2679.02
325.077	2548.76
