Data from 20250704_urea_1M_MAYP1162681_11-43-20-605.txt Node
Date: Fri Jul 04 11:43:20 BST 2025
User: adleo
Spectrometer: MAYP116268
Trigger mode: 0
Integration Time (sec): 1.000000E0
Scans to average: 1
Electric dark correction enabled: true
Nonlinearity correction enabled: true
Boxcar width: 10
XAxis mode: Wavelengths
Number of Pixels in Spectrum: 2068
>>>>>Begin Spectral Data<<<<<
179.565	1249.14
179.642	1306.95
179.718	1353.65
179.795	1396.38
179.871	1432.95
179.948	1450.85
180.024	1473.86
180.101	1498.37
180.177	1513.62
180.254	1538.53
180.33	1563.02
180.407	1619.33
180.483	1717.11
180.56	1811.42
180.636	1897.49
180.712	1884.42
180.789	1895.11
180.865	1908.75
180.942	1918.4
181.018	1932.76
181.095	1942.99
181.171	1950.36
181.248	1951.31
181.324	1966.48
181.4	1973.33
181.477	1985.6
181.553	2001
181.63	2021.36
181.706	2035.34
181.782	2044.23
181.859	2041.14
181.935	2046.08
182.011	2043.23
182.088	2062.4
182.164	2081.62
182.24	2097.64
182.317	2107.11
182.393	2106.82
182.469	2122.04
182.546	2134.36
182.622	2138.36
182.698	2131.55
182.775	2141.64
182.851	2159.1
182.927	2152.58
183.003	2148.59
183.08	2139.21
183.156	2147.49
183.232	2140.78
183.308	2131.75
183.385	2140.31
183.461	2160.57
183.537	2162.33
183.613	2176.84
183.69	2168.61
183.766	2157.9
183.842	2164.09
183.918	2171.75
183.995	2182.78
184.071	2185.74
184.147	2180.36
184.223	2166.09
184.299	2185.22
184.375	2175.76
184.452	2182.94
184.528	2236.3
184.604	2248.09
184.68	2261.89
184.756	2270.27
184.832	2279.5
184.908	2282.4
184.985	2280.97
185.061	2263.08
185.137	2271.22
185.213	2260.71
185.289	2259.94
185.365	2253.33
185.441	2251.43
185.517	2263.57
185.593	2263.76
185.669	2262
185.745	2273.46
185.822	2291.3
185.898	2279.21
185.974	2289.1
186.05	2277.87
186.126	2241.32
186.202	2233.8
186.278	2229.99
186.354	2222.09
186.43	2227.85
186.506	2228.71
186.582	2228.8
186.658	2236.65
186.734	2214.1
186.81	2212.77
186.886	2215.48
186.962	2229.19
187.038	2226.81
187.114	2218.43
187.19	2219.71
187.266	2211.72
187.341	2211.77
187.417	2208.01
187.493	2207.58
187.569	2207.91
187.645	2205.39
187.721	2189.16
187.797	2194.64
187.873	2199.78
187.949	2192.59
188.025	2184.26
188.101	2186.64
188.176	2189.21
188.252	2183.55
188.328	2191.44
188.404	2194.34
188.48	2190.11
188.556	2181.16
188.632	2181.12
188.707	2182.93
188.783	2184.26
188.859	2177.6
188.935	2167.04
189.011	2171.32
189.086	2166.94
189.162	2159.14
189.238	2154.29
189.314	2152.34
189.39	2146.11
189.465	2138.06
189.541	2153.24
189.617	2137.78
189.693	2132.74
189.768	2136.64
189.844	2165.77
189.92	2157.83
189.996	2166.06
190.071	2177.67
190.147	2178.01
190.223	2187
190.298	2178.29
190.374	2163.4
190.45	2175.01
190.526	2184.62
190.601	2181.81
190.677	2182.81
190.753	2210.85
190.828	2217.13
190.904	2235.07
190.98	2252.24
191.055	2264.95
191.131	2259.81
191.207	2281.93
191.282	2290.5
191.358	2283.93
191.433	2264.22
191.509	2281.44
191.585	2278.11
191.66	2279.87
191.736	2288.34
191.811	2281.34
191.887	2298.1
191.963	2323.46
192.038	2329.17
192.114	2327.12
192.189	2329.93
192.265	2328.79
192.34	2310.17
192.416	2306.56
192.491	2303.03
192.567	2305.61
192.642	2306.8
192.718	2303.04
192.793	2290.47
192.869	2287.14
192.944	2291.14
193.02	2300.99
193.095	2303.23
193.171	2308.8
193.246	2308.56
193.322	2303.8
193.397	2301.09
193.473	2287.19
193.548	2269.96
193.624	2275.95
193.699	2275.05
193.775	2290.71
193.85	2290.14
193.925	2297.76
194.001	2295.71
194.076	2286.34
194.152	2276.01
194.227	2266.96
194.302	2259.12
194.378	2263.63
194.453	2262.3
194.529	2271.87
194.604	2256.74
194.679	2249.46
194.755	2229.81
194.83	2241.19
194.905	2240.62
194.981	2251.18
195.056	2243.24
195.131	2246.23
195.207	2241.86
195.282	2233.67
195.357	2213.16
195.433	2229.34
195.508	2217.44
195.583	2224.53
195.659	2239.71
195.734	2247.75
195.809	2247.66
195.884	2256.03
195.96	2258.22
196.035	2273.45
196.11	2270.83
196.185	2280.54
196.261	2284.91
196.336	2316.85
196.411	2300.33
196.486	2304.51
196.561	2299.33
196.637	2308.65
196.712	2325.6
196.787	2333.88
196.862	2350.87
196.937	2361.25
197.013	2365.15
197.088	2375.05
197.163	2401.19
197.238	2419.34
197.313	2418.68
197.388	2437.72
197.464	2468.58
197.539	2477.01
197.614	2467.49
197.689	2480.72
197.764	2503.44
197.839	2525.96
197.914	2519.3
197.989	2542.87
198.065	2558.24
198.14	2609.57
198.215	2637.72
198.29	2650.63
198.365	2659.92
198.44	2669.16
198.515	2697.93
198.59	2713.94
198.665	2740.76
198.74	2747.86
198.815	2750.67
198.89	2771.82
198.965	2799.04
199.04	2793.99
199.115	2812.24
199.19	2859.5
199.265	2861.5
199.34	2867.89
199.415	2902.42
199.49	2927.33
199.565	2937.68
199.64	2959.22
199.715	2956.36
199.79	2963.98
199.865	2971.23
199.94	2972.09
200.015	3004.7
200.09	3012.62
200.165	3017.53
200.24	3025.01
200.315	3069.11
200.39	3080.94
200.464	3090.09
200.539	3088.57
200.614	3106.63
200.689	3130.86
200.764	3135.58
200.839	3153.84
200.914	3160.56
200.989	3146.06
201.063	3160.13
201.138	3146.55
201.213	3149.6
201.288	3130.76
201.363	3136.77
201.438	3136.86
201.512	3155.93
201.587	3141.43
201.662	3145.15
201.737	3160.32
201.812	3167.9
201.886	3133.87
201.961	3145.36
202.036	3130.21
202.111	3126.25
202.186	3096.22
202.26	3076.86
202.335	3054.73
202.41	3047.05
202.485	3029.37
202.559	3012.87
202.634	2986.89
202.709	2994.32
202.784	2977.4
202.858	2973.77
202.933	2951.37
203.008	2947.56
203.082	2921.82
203.157	2920.39
203.232	2878.69
203.306	2858.42
203.381	2826.49
203.456	2800.84
203.53	2778.95
203.605	2760.71
203.68	2737.64
203.754	2733.68
203.829	2721.01
203.904	2699.67
203.978	2690.37
204.053	2692.61
204.127	2678.61
204.202	2679.18
204.277	2659.13
204.351	2650.31
204.426	2642.74
204.5	2635.31
204.575	2596.92
204.65	2609.17
204.724	2597.87
204.799	2603.78
204.873	2598.1
204.948	2596.44
205.022	2583.34
205.097	2573.67
205.171	2590.48
205.246	2599.96
205.32	2595.39
205.395	2594.53
205.469	2587.58
205.544	2592.11
205.618	2575.58
205.693	2586.59
205.767	2569.01
205.842	2589.59
205.916	2582.3
205.991	2574.92
206.065	2582.73
206.14	2597.25
206.214	2591.39
206.289	2585.34
206.363	2598.48
206.438	2599.05
206.512	2611.68
206.586	2629.01
206.661	2635.45
206.735	2610.21
206.81	2609.78
206.884	2628.26
206.958	2616.83
207.033	2631.11
207.107	2637.74
207.181	2670.9
207.256	2666.71
207.33	2687.38
207.405	2703.97
207.479	2723.89
207.553	2732.89
207.628	2715.65
207.702	2728.42
207.776	2726.84
207.851	2729.84
207.925	2745.72
207.999	2744
208.073	2736.71
208.148	2739.76
208.222	2732.47
208.296	2765.23
208.371	2784.64
208.445	2796.7
208.519	2825.43
208.593	2840.77
208.668	2838.29
208.742	2843.54
208.816	2847.83
208.89	2864.08
208.965	2863.32
209.039	2876.82
209.113	2894.93
209.187	2920.27
209.261	2920.36
209.336	2939.95
209.41	2964.12
209.484	2966.51
209.558	2994.59
209.632	3015.04
209.707	3033.11
209.781	3063.34
209.855	3089.43
209.929	3117.55
210.003	3128.9
210.077	3139.82
210.151	3201.65
210.226	3252.19
210.3	3294.36
210.374	3332.61
210.448	3351.27
210.522	3378.67
210.596	3405.68
210.67	3434.65
210.744	3504.36
210.818	3563.34
210.892	3610.28
210.966	3629.8
211.041	3676.55
211.115	3701.37
211.189	3757.78
211.263	3813.71
211.337	3852.21
211.411	3905.79
211.485	3940.64
211.559	4000.98
211.633	4053.34
211.707	4074.63
211.781	4133.91
211.855	4150.99
211.929	4202.23
212.003	4246.39
212.077	4324.04
212.151	4406.4
212.225	4495.93
212.299	4563.65
212.373	4631.23
212.447	4714.85
212.52	4837.42
212.594	4926.45
212.668	5035.72
212.742	5116.06
212.816	5212.76
212.89	5312.99
212.964	5418.52
213.038	5533.17
213.112	5660.41
213.186	5791.55
213.26	5886.82
213.333	5962.95
213.407	6097.05
213.481	6228.87
213.555	6383.17
213.629	6505.76
213.703	6627.69
213.777	6762.88
213.85	6884.66
213.924	7062.84
213.998	7208.66
214.072	7350.25
214.146	7493.21
214.219	7647.64
214.293	7807.4
214.367	7963.65
214.441	8136.85
214.515	8284.11
214.588	8421.38
214.662	8551.25
214.736	8698.56
214.81	8875.14
214.883	9056.66
214.957	9215.11
215.031	9374.01
215.105	9515.22
215.178	9673.65
215.252	9838.4
215.326	9981.93
215.4	10133.65
215.473	10260.98
215.547	10416.6
215.621	10566.54
215.694	10747.61
215.768	10894.63
215.842	11053.74
215.915	11210.94
215.989	11352.14
216.063	11515.04
216.136	11683.09
216.21	11847.77
216.284	12023.79
216.357	12189.21
216.431	12344.17
216.504	12512.97
216.578	12697.78
216.652	12865.91
216.725	13028.74
216.799	13195.04
216.873	13360.62
216.946	13527.8
217.02	13680.41
217.093	13834.62
217.167	13964.05
217.24	14093.53
217.314	14237.67
217.387	14368.74
217.461	14507.47
217.535	14665.1
217.608	14794.62
217.682	14941.78
217.755	15091.31
217.829	15216.15
217.902	15353.67
217.976	15488.35
218.049	15612.95
218.123	15726.94
218.196	15867.4
218.27	15983.41
218.343	16090.17
218.417	16212.79
218.49	16323.88
218.563	16452.67
218.637	16568.53
218.71	16724.25
218.784	16847.49
218.857	16969.42
218.931	17092.13
219.004	17197.19
219.077	17311.89
219.151	17430.16
219.224	17528.62
219.298	17638.35
219.371	17750.83
219.444	17827.89
219.518	17926.54
219.591	18029.39
219.665	18154.34
219.738	18243.4
219.811	18331.78
219.885	18443.68
219.958	18541.37
220.031	18636.73
220.105	18731.14
220.178	18813.69
220.251	18892.14
220.325	18985.39
220.398	19065.39
220.471	19149.09
220.544	19235.83
220.618	19302.67
220.691	19370.81
220.764	19438.23
220.838	19513.55
220.911	19578.9
220.984	19678.65
221.057	19753.59
221.131	19819.56
221.204	19851.85
221.277	19933.58
221.35	20029.24
221.424	20077.63
221.497	20132.04
221.57	20193.43
221.643	20250.39
221.716	20316.61
221.79	20354.92
221.863	20397.04
221.936	20451.5
222.009	20503.31
222.082	20552.18
222.155	20591.89
222.229	20660.27
222.302	20720.61
222.375	20750.06
222.448	20788.28
222.521	20829.15
222.594	20862.16
222.667	20895.65
222.74	20946.74
222.814	20975.71
222.887	20985.11
222.96	21028.14
223.033	21067.86
223.106	21096.97
223.179	21135.43
223.252	21166.28
223.325	21193.99
223.398	21223.05
223.471	21247.54
223.544	21272.17
223.617	21298.58
223.69	21324.99
223.763	21328.12
223.837	21337.62
223.91	21372.08
223.983	21380.37
224.056	21377.57
224.129	21394.11
224.202	21421.29
224.275	21425.63
224.348	21431.03
224.42	21447.17
224.493	21439.56
224.566	21440.38
224.639	21459.75
224.712	21463.32
224.785	21452.76
224.858	21455.03
224.931	21447.56
225.004	21438.16
225.077	21438.93
225.15	21417.24
225.223	21414.88
225.296	21441.05
225.369	21437.15
225.442	21424.95
225.514	21428.95
225.587	21437.15
225.66	21440.81
225.733	21430.74
225.806	21430.21
225.879	21415.31
225.952	21399.41
226.025	21420.47
226.097	21430.35
226.17	21416.42
226.243	21384.85
226.316	21385.38
226.389	21382.44
226.461	21388.18
226.534	21395.84
226.607	21384.95
226.68	21402.98
226.753	21406.21
226.825	21371.69
226.898	21373.28
226.971	21363.36
227.044	21365.14
227.117	21356.8
227.189	21364.71
227.262	21371.6
227.335	21370.59
227.407	21356.56
227.48	21354.54
227.553	21335.3
227.626	21323.45
227.698	21312.6
227.771	21306.43
227.844	21289.85
227.916	21277.08
227.989	21246.91
228.062	21225.46
228.134	21237.51
228.207	21229.32
228.28	21205.94
228.352	21187.58
228.425	21178.61
228.498	21177.36
228.57	21144.97
228.643	21142.8
228.716	21112.01
228.788	21081.55
228.861	21059.62
228.934	21058.84
229.006	21042.07
229.079	21016.77
229.151	20988
229.224	20959.42
229.296	20948.62
229.369	20956.04
229.442	20962.79
229.514	20941.83
229.587	20947.95
229.659	20910.45
229.732	20901.24
229.804	20900.67
229.877	20919.8
229.949	20912.72
230.022	20917.1
230.094	20912.76
230.167	20902.59
230.239	20881.34
230.312	20860.52
230.384	20865.24
230.457	20855.51
230.529	20837.48
230.602	20823.94
230.674	20820.09
230.747	20818.93
230.819	20811.41
230.892	20771.51
230.964	20752.47
231.037	20741.77
231.109	20712.08
231.181	20706.15
231.254	20663.89
231.326	20631.41
231.399	20600.61
231.471	20571.55
231.544	20523.35
231.616	20509.62
231.688	20479.21
231.761	20453.09
231.833	20433.86
231.905	20387.11
231.978	20367.4
232.05	20346.44
232.122	20326.39
232.195	20293.18
232.267	20280.94
232.339	20257.52
232.412	20243.69
232.484	20209.91
232.556	20182.63
232.629	20179.6
232.701	20163.26
232.773	20146.3
232.846	20126.68
232.918	20100.95
232.99	20078.2
233.062	20054.3
233.135	20039.89
233.207	20009.24
233.279	20001.43
233.351	19982.93
233.424	19943.8
233.496	19904.18
233.568	19899.12
233.64	19865.2
233.713	19839.08
233.785	19815.42
233.857	19791.37
233.929	19744
234.001	19730.36
234.074	19719.08
234.146	19679.13
234.218	19649.64
234.29	19619.23
234.362	19581.07
234.434	19534.47
234.507	19497.21
234.579	19457.99
234.651	19419.53
234.723	19396.21
234.795	19367.54
234.867	19331.78
234.939	19336.69
235.012	19322.48
235.084	19299.01
235.156	19280.22
235.228	19243.16
235.3	19198.58
235.372	19176.7
235.444	19173.19
235.516	19125
235.588	19103.41
235.66	19069.67
235.732	19025.72
235.804	19056.33
235.876	19047.99
235.948	19044.52
236.02	19015.7
236.092	18991.9
236.164	18955.13
236.236	18928.19
236.308	18897.49
236.38	18877.83
236.452	18832.24
236.524	18801.74
236.596	18785.98
236.668	18759.04
236.74	18738.08
236.812	18714.61
236.884	18691.53
236.956	18664.11
237.028	18623
237.1	18589.75
237.172	18572.88
237.244	18570.28
237.316	18501.52
237.388	18446.58
237.46	18408.17
237.532	18392.36
237.604	18358.97
237.675	18350.2
237.747	18319.36
237.819	18277.62
237.891	18246.11
237.963	18211.41
238.035	18174.21
238.107	18104.91
238.178	18088.52
238.25	18046.74
238.322	18043.03
238.394	17985.78
238.466	17949.78
238.538	17937.49
238.609	17900.34
238.681	17853.78
238.753	17810.85
238.825	17785.59
238.897	17768.34
238.968	17749.64
239.04	17710.75
239.112	17704.05
239.184	17659.67
239.255	17625.26
239.327	17600.25
239.399	17573.93
239.471	17554.46
239.542	17526.13
239.614	17518.99
239.686	17457.84
239.758	17451.72
239.829	17410.18
239.901	17400.06
239.973	17367
240.044	17333.16
240.116	17312.34
240.188	17281.84
240.259	17252.1
240.331	17216.63
240.403	17193.93
240.474	17152.29
240.546	17116.82
240.618	17070.46
240.689	17031.28
240.761	17003.52
240.833	16993.49
240.904	16961.78
240.976	16930.55
241.048	16906.55
241.119	16874.94
241.191	16862.98
241.262	16845.25
241.334	16800.62
241.405	16767.22
241.477	16731.94
241.549	16697.53
241.62	16661.96
241.692	16643.02
241.763	16619.26
241.835	16586.53
241.906	16561.18
241.978	16514.29
242.049	16492.79
242.121	16469.61
242.192	16460.11
242.264	16415.58
242.335	16358.18
242.407	16332.53
242.478	16294.94
242.55	16264.43
242.621	16222.02
242.693	16184.62
242.764	16147.31
242.836	16122.54
242.907	16090.25
242.979	16062.87
243.05	16044.99
243.122	16020.02
243.193	15986.09
243.264	15934.76
243.336	15905.11
243.407	15881.79
243.479	15870.51
243.55	15850.17
243.622	15830.02
243.693	15803.32
243.764	15796.52
243.836	15761.86
243.907	15731.31
243.978	15693.76
244.05	15671.58
244.121	15627.19
244.192	15608.15
244.264	15553.3
244.335	15521.58
244.407	15480.03
244.478	15456.37
244.549	15415.15
244.62	15377.12
244.692	15347.33
244.763	15326.27
244.834	15289.15
244.906	15245.58
244.977	15225.62
245.048	15203.21
245.119	15153.42
245.191	15102.23
245.262	15047.95
245.333	15032.62
245.405	15005.34
245.476	14991.6
245.547	14968.46
245.618	14957.18
245.689	14926.82
245.761	14908.98
245.832	14878.32
245.903	14862.17
245.974	14831.52
246.045	14812.52
246.117	14794.01
246.188	14749.47
246.259	14710.33
246.33	14682.76
246.401	14654.37
246.473	14607.32
246.544	14567.98
246.615	14560.03
246.686	14527.35
246.757	14521.42
246.828	14486.08
246.899	14470.75
246.97	14428.82
247.042	14379.45
247.113	14364.37
247.184	14363.26
247.255	14334.86
247.326	14309.41
247.397	14273.55
247.468	14254.36
247.539	14220.71
247.61	14180.08
247.681	14162.24
247.752	14151.73
247.823	14110.51
247.894	14087.66
247.965	14045.97
248.037	14018.97
248.108	13975.78
248.179	13958.42
248.25	13923.71
248.321	13906.6
248.392	13863.55
248.463	13855.98
248.534	13831.21
248.605	13807.01
248.675	13773.75
248.746	13749.79
248.817	13738.41
248.888	13722.79
248.959	13669.91
249.03	13653.08
249.101	13632.11
249.172	13605.99
249.243	13556.24
249.314	13552.43
249.385	13531.27
249.456	13512.95
249.527	13482.24
249.598	13462.23
249.669	13437.89
249.739	13423.57
249.81	13404.68
249.881	13370.06
249.952	13343.41
250.023	13323.5
250.094	13279
250.165	13241.35
250.235	13211.85
250.306	13181.43
250.377	13145.04
250.448	13136.12
250.519	13097.22
250.59	13092.83
250.66	13063.76
250.731	13063.81
250.802	13039.22
250.873	13016.23
250.944	13007.74
251.014	12978.43
251.085	12982.34
251.156	12967.83
251.227	12962.82
251.297	12950.76
251.368	12944.02
251.439	12938.23
251.51	12927.43
251.58	12905.5
251.651	12876.67
251.722	12874.84
251.792	12838.11
251.863	12815.4
251.934	12810.44
252.005	12813.62
252.075	12792.26
252.146	12790.58
252.217	12770.96
252.287	12758.76
252.358	12735.24
252.429	12733.36
252.499	12710.17
252.57	12690.31
252.641	12677.2
252.711	12648.28
252.782	12610.53
252.852	12610.58
252.923	12586.67
252.994	12568.74
253.064	12560.59
253.135	12534.08
253.205	12507.66
253.276	12510.6
253.347	12511.13
253.417	12480.09
253.488	12451.31
253.558	12419.5
253.629	12396.99
253.699	12387.06
253.77	12374.67
253.841	12353.8
253.911	12331.67
253.982	12319.96
254.052	12305.4
254.123	12285.44
254.193	12268.14
254.264	12295.13
254.334	12261.24
254.405	12232.42
254.475	12201.86
254.546	12175.78
254.616	12173.27
254.687	12152.93
254.757	12132.21
254.827	12110.08
254.898	12094.9
254.968	12080.97
255.039	12059.66
255.109	12045.25
255.18	12015.94
255.25	11975.31
255.321	11961.24
255.391	11935.21
255.461	11945.76
255.532	11896.69
255.602	11871.15
255.673	11832.25
255.743	11798.03
255.813	11759.18
255.884	11749.35
255.954	11746.31
256.024	11745.92
256.095	11733.01
256.165	11702.11
256.235	11693.77
256.306	11666.35
256.376	11662.16
256.446	11648.9
256.517	11646.78
256.587	11640.8
256.657	11632.61
256.728	11621.09
256.798	11603.02
256.868	11572.32
256.938	11532.89
257.009	11528.94
257.079	11527.73
257.149	11539.97
257.219	11501.37
257.29	11488.6
257.36	11454.81
257.43	11442.96
257.5	11403.63
257.571	11371.92
257.641	11369.6
257.711	11341.65
257.781	11336.4
257.852	11325.02
257.922	11288.59
257.992	11266.42
258.062	11249.98
258.132	11233.69
258.202	11208.83
258.273	11195.28
258.343	11204.06
258.413	11182.42
258.483	11168.01
258.553	11135.96
258.623	11108.39
258.693	11099.62
258.764	11104.49
258.834	11100.87
258.904	11083.67
258.974	11057.94
259.044	11045.99
259.114	11038.85
259.184	11017.46
259.254	11000.3
259.324	10960.3
259.394	10955.44
259.464	10947.15
259.535	10924.79
259.605	10907.2
259.675	10890.53
259.745	10878.67
259.815	10844.99
259.885	10822.53
259.955	10831.11
260.025	10803.74
260.095	10785.19
260.165	10771.94
260.235	10766.98
260.305	10737.68
260.375	10711.27
260.445	10731.37
260.515	10729.15
260.585	10719.9
260.655	10711.32
260.725	10703.9
260.795	10702.79
260.865	10705.49
260.934	10691.81
261.004	10684.34
261.074	10668.05
261.144	10672.34
261.214	10668.19
261.284	10655.28
261.354	10653.21
261.424	10624.05
261.494	10631.43
261.564	10619.48
261.634	10612.54
261.703	10582.33
261.773	10577.51
261.843	10566.76
261.913	10543.69
261.983	10509.38
262.053	10495.6
262.123	10473.05
262.192	10446.79
262.262	10436.53
262.332	10398.76
262.402	10386.42
262.472	10368.74
262.541	10334.92
262.611	10328.23
262.681	10306.98
262.751	10298.89
262.821	10282.41
262.89	10259.62
262.96	10244.64
263.03	10249.79
263.1	10238.52
263.169	10221.9
263.239	10217.51
263.309	10225.32
263.379	10213.52
263.448	10205.62
263.518	10198.44
263.588	10188.08
263.657	10189.91
263.727	10181.53
263.797	10176.13
263.867	10158.45
263.936	10129.94
264.006	10128.49
264.076	10108.16
264.145	10091.88
264.215	10069.91
264.285	10066.4
264.354	10029.84
264.424	10014.71
264.494	9979.79
264.563	9957.67
264.633	9965.86
264.702	9951.22
264.772	9919.86
264.842	9903.82
264.911	9898.91
264.981	9867.16
265.05	9852.42
265.12	9832.24
265.19	9823.33
265.259	9822.32
265.329	9816.54
265.398	9810.27
265.468	9828.82
265.537	9806.23
265.607	9797.9
265.676	9800.69
265.746	9793.27
265.815	9800.55
265.885	9787.35
265.955	9771.5
266.024	9756.91
266.094	9718.28
266.163	9722.38
266.232	9725.56
266.302	9711.78
266.371	9701.76
266.441	9686.64
266.51	9690.5
266.58	9676.05
266.649	9659.91
266.719	9655.43
266.788	9645.56
266.858	9652.45
266.927	9614.06
266.996	9614.35
267.066	9606.84
267.135	9585.89
267.205	9579.34
267.274	9565.71
267.343	9570.43
267.413	9555.31
267.482	9556.37
267.552	9563.4
267.621	9533.25
267.69	9500.26
267.76	9493.62
267.829	9487.69
267.898	9481.96
267.968	9455.67
268.037	9449.65
268.106	9445.12
268.176	9421.53
268.245	9407.08
268.314	9386.9
268.384	9387.91
268.453	9371.35
268.522	9364.65
268.592	9362.05
268.661	9342.84
268.73	9342.31
268.799	9316.74
268.869	9324.59
268.938	9298.44
269.007	9282.22
269.076	9270.42
269.146	9271.96
269.215	9260.41
269.284	9259.25
269.353	9249.72
269.422	9239.75
269.492	9224.49
269.561	9184.38
269.63	9183.37
269.699	9171.09
269.768	9166.42
269.838	9161.27
269.907	9161.99
269.976	9137.82
270.045	9100.13
270.114	9099.7
270.183	9077.74
270.253	9070.62
270.322	9045.06
270.391	9035.67
270.46	9039.52
270.529	9044.33
270.598	9047.46
270.667	9036.15
270.736	9015.4
270.806	9001.63
270.875	9004.23
270.944	8990.95
271.013	9017.37
271.082	9004.66
271.151	8995.18
271.22	8964.28
271.289	8950.89
271.358	8942.13
271.427	8938.14
271.496	8935.68
271.565	8919.46
271.634	8912.67
271.703	8945.36
271.772	8944.64
271.841	8937.18
271.91	8912.44
271.979	8903.63
272.048	8875.61
272.117	8879.85
272.186	8868.29
272.255	8875.95
272.324	8873.4
272.393	8867.96
272.462	8852.65
272.531	8851.35
272.6	8845.04
272.669	8855.15
272.738	8841.09
272.807	8830.74
272.876	8814.72
272.945	8848.32
273.013	8851.11
273.082	8855.92
273.151	8809.56
273.22	8812.97
273.289	8804.7
273.358	8816.68
273.427	8808.98
273.496	8808.84
273.564	8802
273.633	8799.4
273.702	8776.88
273.771	8765.32
273.84	8762.97
273.909	8755.75
273.977	8753.29
274.046	8740.34
274.115	8743.47
274.184	8736.64
274.253	8734.42
274.322	8736.64
274.39	8704.15
274.459	8688.46
274.528	8665.64
274.597	8657.27
274.665	8647.16
274.734	8654.29
274.803	8640.95
274.872	8631.81
274.94	8617.47
275.009	8650.35
275.078	8643.52
275.147	8645.35
275.215	8642.31
275.284	8650.98
275.353	8641.45
275.421	8614.06
275.49	8634.81
275.559	8621.33
275.627	8608.72
275.696	8595.59
275.765	8597.46
275.833	8585.29
275.902	8583.75
275.971	8599.15
276.039	8615.08
276.108	8619.7
276.177	8614.98
276.245	8598.81
276.314	8594.39
276.383	8602.9
276.451	8565.4
276.52	8560.73
276.588	8568.82
276.657	8572.62
276.725	8564.1
276.794	8565.74
276.863	8578.58
276.931	8553.94
277	8562.94
277.068	8573.48
277.137	8593.93
277.205	8594.46
277.274	8617.8
277.342	8628.29
277.411	8607.7
277.48	8595.76
277.548	8589.6
277.617	8594.37
277.685	8591.48
277.754	8590.81
277.822	8580.65
277.89	8590.67
277.959	8587.54
278.027	8574.69
278.096	8561.65
278.164	8584.56
278.233	8576.42
278.301	8559.92
278.37	8567.04
278.438	8547.74
278.507	8547.79
278.575	8520.46
278.643	8519.49
278.712	8493.12
278.78	8479.31
278.849	8489.03
278.917	8495.19
278.985	8487.78
279.054	8486.14
279.122	8501.83
279.191	8503.08
279.259	8500.68
279.327	8473.68
279.396	8490.86
279.464	8484.8
279.532	8493.46
279.601	8491.15
279.669	8486.67
279.737	8504.57
279.806	8501.25
279.874	8512.46
279.942	8511.6
280.011	8504.53
280.079	8502.07
280.147	8520.79
280.215	8530.22
280.284	8523.58
280.352	8509.77
280.42	8515.93
280.488	8509.34
280.557	8505.15
280.625	8513.09
280.693	8515.54
280.761	8523.63
280.83	8503.03
280.898	8518.04
280.966	8498.08
281.034	8464.53
281.102	8449.33
281.171	8439.94
281.239	8451.4
281.307	8447.69
281.375	8441.82
281.443	8474.45
281.512	8472.72
281.58	8484.12
281.648	8463.48
281.716	8466.27
281.784	8465.21
281.852	8454.24
281.92	8455.3
281.989	8462.18
282.057	8442.45
282.125	8482.98
282.193	8481.06
282.261	8481.73
282.329	8472.54
282.397	8480.81
282.465	8487.4
282.533	8505.93
282.601	8498.13
282.67	8472.1
282.738	8463.1
282.806	8468.63
282.874	8449.72
282.942	8453.91
283.01	8449.91
283.078	8455.93
283.146	8451.45
283.214	8460.26
283.282	8469.83
283.35	8484.32
283.418	8479.22
283.486	8482.63
283.554	8440.52
283.622	8441.77
283.69	8443.79
283.758	8441.43
283.826	8441.43
283.894	8449.18
283.962	8469.97
284.03	8483.54
284.098	8487.15
284.165	8482.92
284.233	8481.42
284.301	8480.85
284.369	8474.59
284.437	8450.29
284.505	8443.7
284.573	8461.36
284.641	8451.54
284.709	8454.29
284.777	8430.42
284.845	8437.63
284.912	8444.56
284.98	8454.57
285.048	8448.8
285.116	8454.96
285.184	8470.45
285.252	8474.01
285.319	8464.77
285.387	8449.23
285.455	8433.98
285.523	8441.63
285.591	8437.54
285.659	8438.84
285.726	8446.2
285.794	8437.06
285.862	8440.76
285.93	8437.15
285.997	8428.25
286.065	8422.04
286.133	8412.13
286.201	8410.98
286.269	8393.99
286.336	8389.18
286.404	8381.28
286.472	8393.8
286.539	8368.87
286.607	8350.01
286.675	8351.98
286.743	8352.46
286.81	8349.82
286.878	8362.33
286.946	8355.54
287.013	8360.64
287.081	8366.71
287.149	8353.23
287.216	8367.86
287.284	8366.27
287.352	8375.32
287.419	8371.18
287.487	8392.64
287.555	8395.91
287.622	8393.94
287.69	8401.35
287.758	8409.29
287.825	8402.99
287.893	8385.76
287.96	8395.53
288.028	8408.47
288.096	8405.54
288.163	8410.54
288.231	8402.12
288.298	8404.48
288.366	8418.53
288.433	8413.86
288.501	8399.38
288.569	8396.11
288.636	8388.6
288.704	8404.53
288.771	8409.58
288.839	8401.5
288.906	8386.34
288.974	8395.19
289.041	8396.3
289.109	8387.3
289.176	8396.69
289.244	8397.6
289.311	8414.44
289.379	8424.84
289.446	8419.97
289.514	8419.73
289.581	8421.32
289.649	8422.72
289.716	8427.05
289.783	8415.21
289.851	8431.81
289.918	8437.92
289.986	8451.2
290.053	8458.37
290.121	8454.57
290.188	8457.84
290.255	8487.1
290.323	8486.71
290.39	8483.1
290.458	8493.55
290.525	8502.35
290.592	8494.22
290.66	8494.75
290.727	8486.33
290.794	8498.21
290.862	8500.23
290.929	8503.6
290.996	8495.9
291.064	8501.77
291.131	8503.75
291.198	8515.87
291.266	8516.45
291.333	8518.47
291.4	8525.21
291.468	8542.58
291.535	8537.82
291.602	8540.42
291.669	8540.08
291.737	8548.02
291.804	8549.66
291.871	8558.18
291.938	8573.87
292.006	8604
292.073	8622.14
292.14	8634.85
292.207	8627.82
292.275	8627.82
292.342	8636.15
292.409	8665.36
292.476	8697.32
292.543	8689.24
292.611	8697.08
292.678	8712.1
292.745	8734.09
292.812	8743.19
292.879	8733.37
292.946	8742.66
293.014	8760.85
293.081	8765.71
293.148	8774.86
293.215	8788
293.282	8786.65
293.349	8787.47
293.416	8765.47
293.484	8773.89
293.551	8784.87
293.618	8797.04
293.685	8833.19
293.752	8829.82
293.819	8830.16
293.886	8810.81
293.953	8820.39
294.02	8830.06
294.087	8837.04
294.154	8834.54
294.221	8853.65
294.288	8860.82
294.356	8878.25
294.423	8878.3
294.49	8871.36
294.557	8887.92
294.624	8876.47
294.691	8895.87
294.758	8907.37
294.825	8912.23
294.892	8907.18
294.959	8904.39
295.026	8918.06
295.093	8904.24
295.16	8904.63
295.226	8904.05
295.293	8932.36
295.36	8937.7
295.427	8946.22
295.494	8958.35
295.561	8966.25
295.628	8980.98
295.695	8997.78
295.762	8998.46
295.829	9007.12
295.896	9020.07
295.963	9025.17
296.03	9039.52
296.096	9044.81
296.163	9044.96
296.23	9067.15
296.297	9083.86
296.364	9083.47
296.431	9085.11
296.498	9087.52
296.564	9107.15
296.631	9111.49
296.698	9094.88
296.765	9115.39
296.832	9103.45
296.899	9092.66
296.965	9108.26
297.032	9091.02
297.099	9095.31
297.166	9102.34
297.233	9097.19
297.299	9089.92
297.366	9093.86
297.433	9093.58
297.5	9099.79
297.566	9107.11
297.633	9102.58
297.7	9108.02
297.767	9108.07
297.833	9117.36
297.9	9113.32
297.967	9101.86
298.033	9116.45
298.1	9150.49
298.167	9140.48
298.234	9149.67
298.3	9163.2
298.367	9155.3
298.434	9161.52
298.5	9155.93
298.567	9153.33
298.634	9154.53
298.7	9174.32
298.767	9180.29
298.834	9199.45
298.9	9196.76
298.967	9186.65
299.033	9193.92
299.1	9200.61
299.167	9212.89
299.233	9210.05
299.3	9228.87
299.366	9251.16
299.433	9266.19
299.5	9234.02
299.566	9238.74
299.633	9255.11
299.699	9259.97
299.766	9251.5
299.832	9262.53
299.899	9280.25
299.965	9292
300.032	9290.02
300.099	9295.56
300.165	9295.27
300.232	9290.99
300.298	9289.11
300.365	9307.31
300.431	9309.67
300.498	9308.03
300.564	9310.73
300.631	9318.14
300.697	9326.52
300.763	9324.93
300.83	9318.29
300.896	9333.64
300.963	9348.09
301.029	9350.4
301.096	9356.28
301.162	9372.12
301.229	9362.39
301.295	9346.88
301.361	9346.93
301.428	9346.98
301.494	9333.02
301.561	9333.31
301.627	9332.78
301.693	9334.85
301.76	9332.05
301.826	9324.83
301.892	9337.98
301.959	9350.74
302.025	9352.66
302.092	9347.27
302.158	9357.33
302.224	9360.13
302.291	9345.73
302.357	9334.61
302.423	9329.55
302.49	9318.43
302.556	9332.83
302.622	9332.3
302.688	9347.66
302.755	9365.96
302.821	9379.54
302.887	9395.23
302.954	9392.05
303.02	9402.07
303.086	9408.28
303.152	9408.38
303.219	9405.44
303.285	9402.45
303.351	9406.89
303.417	9410.88
303.483	9403.37
303.55	9391.53
303.616	9388.78
303.682	9398.12
303.748	9394.56
303.815	9400.05
303.881	9414.25
303.947	9405.2
304.013	9408.14
304.079	9397.01
304.145	9372.12
304.212	9368.6
304.278	9355.36
304.344	9357.43
304.41	9342.31
304.476	9334.37
304.542	9325.46
304.608	9334.94
304.674	9317.27
304.741	9317.99
304.807	9312.89
304.873	9317.8
304.939	9333.88
305.005	9308.85
305.071	9307.88
305.137	9313.18
305.203	9295.51
305.269	9288.33
305.335	9287.51
305.401	9284.77
305.467	9284.29
305.533	9294.93
305.599	9302.97
305.666	9313.61
305.732	9310.34
305.798	9328.35
305.864	9355.51
305.93	9359.21
305.996	9353.2
306.062	9358.3
306.128	9346.6
306.194	9334.7
306.259	9332.83
306.325	9326.13
306.391	9344.86
306.457	9350.93
306.523	9357.19
306.589	9385.31
306.655	9382.61
306.721	9372.7
306.787	9356.23
306.853	9368.12
306.919	9352.09
306.985	9343.37
307.051	9336.01
307.117	9335.38
307.183	9324.55
307.248	9293.68
307.314	9300.52
307.38	9308.27
307.446	9308.99
307.512	9299.6
307.578	9306.15
307.644	9295.65
307.709	9297.34
307.775	9292.48
307.841	9289.54
307.907	9282.65
307.973	9253.23
308.039	9252.75
308.104	9257.61
308.17	9260.93
308.236	9244.03
308.302	9246.54
308.368	9238.21
308.433	9240.85
308.499	9225.26
308.565	9214.28
308.631	9218.66
308.696	9198.87
308.762	9185.73
308.828	9186.98
308.894	9171.72
308.959	9151.16
309.025	9144.08
309.091	9138.55
309.156	9129.97
309.222	9124.68
309.288	9116.59
309.354	9101.04
309.419	9094.01
309.485	9081.78
309.551	9088.47
309.616	9076.1
309.682	9077.4
309.748	9068.11
309.813	9054.82
309.879	9051.5
309.945	9041.54
310.01	9035.37
310.076	9037.44
310.141	9034.22
310.207	9022.95
310.273	9025.69
310.338	9028.34
310.404	9020.3
310.469	9001.86
310.535	8989.59
310.601	8967.49
310.666	8971.1
310.732	8982.9
310.797	8967.88
310.863	8953.43
310.928	8945.3
310.994	8949.25
311.059	8943.9
311.125	8944
311.191	8954.64
311.256	8946.94
311.322	8947.71
311.387	8925.81
311.453	9290.1
311.518	9259.3
311.584	9258.57
311.649	9264.98
311.715	9255.93
311.78	9251.11
311.846	9247.84
311.911	9254.44
311.976	9264.21
312.042	9247.55
312.107	9230.85
312.173	9229.31
312.238	9221.56
312.304	9215.35
312.369	9205.62
312.434	9195.76
312.5	9187.43
312.565	9150.89
312.631	9154.26
312.696	9147.52
312.761	9149.98
312.827	8774.9
312.892	8814.76
312.958	8806.48
313.023	8804.02
313.088	8799.74
313.154	8788.24
313.219	8772.84
313.284	8765.13
313.35	8754.06
313.415	8743.76
313.48	8741.07
313.546	8742.41
313.611	8755.99
313.676	8747.8
313.741	8733.94
313.807	8736.59
313.872	8741.07
313.937	8754.25
314.003	8763.83
314.068	8766.43
314.133	8774.76
314.198	8765.61
314.264	8741.74
314.329	8731.77
314.394	8728.74
314.459	8727.34
314.525	8747.32
314.59	8744.33
314.655	8728.31
314.72	8734.56
314.785	8738.99
314.851	8733.07
314.916	8712.62
314.981	8699.19
315.046	8694.14
315.111	8692.98
315.176	8680.03
315.242	8681.67
315.307	8677.43
315.372	8652.5
315.437	8642.4
315.502	8630.46
315.567	8639.08
315.632	8627.52
315.698	8630.03
315.763	8621.56
315.828	8612.6
315.893	8606.78
315.958	8603.36
316.023	8596.58
316.088	8579.64
316.153	8556.69
316.218	8553.61
316.283	8532.68
316.348	8513.34
316.413	8511.94
316.479	8490.48
316.544	8456.27
316.609	8425.48
316.674	8388.43
316.739	8358.32
316.804	8326.95
316.869	8299.47
316.934	8258
316.999	8226.63
317.064	8177.18
317.129	8138.69
317.194	8107.32
317.259	8060.13
317.324	8008.72
317.389	7969.76
317.454	7934.69
317.518	7902.28
317.583	7873.85
317.648	7859.13
317.713	7831.09
317.778	7762.61
317.843	7742.7
317.908	7710.15
317.973	7670.04
318.038	7647.01
318.103	7616.87
318.168	7589.8
318.233	7555.18
318.297	7515.28
318.362	7478.79
318.427	7441.16
318.492	7414.33
318.557	7364.69
318.622	7339.78
318.687	7324.31
318.751	7285.82
318.816	7250.25
318.881	7220.55
318.946	7171.67
319.011	7126.64
319.075	7082.87
319.14	7054.96
319.205	7007.24
319.27	6980.38
319.335	6938.59
319.399	6900.35
319.464	6873.45
319.529	6826.18
319.594	6788.61
319.658	6760.61
319.723	6725.12
319.788	6702.17
319.853	6647.7
319.917	6617.94
319.982	6570.05
320.047	6530.2
320.112	6503.6
320.176	6456.12
320.241	6421.55
320.306	6393.41
320.37	6350.89
320.435	6326.4
320.5	6296.69
320.564	6259.11
320.629	6220.62
320.694	6197.15
320.758	6159.87
320.823	6115.19
320.888	6082.52
320.952	6035.64
321.017	5996.25
321.082	5954.85
321.146	5919.64
321.211	5889.51
321.275	5859.01
321.34	5811.73
321.405	5771.45
321.469	5725.75
321.534	5688.11
321.598	5639.3
321.663	5606.21
321.727	5580.13
321.792	5526.96
321.857	5492.15
321.921	5454
321.986	5405.74
322.05	5343.21
322.115	5303.19
322.179	5262.13
322.244	5207.52
322.308	5177.57
322.373	5129.76
322.437	5092.5
322.502	5066.71
322.566	5023.08
322.631	4987.39
322.695	4952.97
322.76	4909.68
322.824	4879.33
322.889	4840.84
322.953	4798.81
323.018	4735.09
323.082	4673.16
323.146	4626.6
323.211	4571.23
323.275	4526.01
323.34	4483.44
323.404	4450.11
323.468	4406.85
323.533	4361.47
323.597	4323.6
323.662	4272.95
323.726	4240.76
323.79	4195.96
323.855	4129.28
323.919	4080.47
323.983	4033.42
324.048	3967.73
324.112	4103.02
324.177	3977.31
324.241	3767.92
324.305	3565.46
324.37	3365.96
324.434	3174.78
324.498	3130.6
324.562	3081.76
324.627	3025.32
324.691	2970.75
324.755	2909.6
324.82	2833.34
324.884	2760.17
324.948	2686.08
325.012	2590.2
325.077	2463.28
