Data from 20250704_urea_0.1M_MAYP1162681_11-19-57-691.txt Node
Date: Fri Jul 04 11:19:57 BST 2025
User: adleo
Spectrometer: MAYP116268
Trigger mode: 0
Integration Time (sec): 1.000000E0
Scans to average: 1
Electric dark correction enabled: true
Nonlinearity correction enabled: true
Boxcar width: 10
XAxis mode: Wavelengths
Number of Pixels in Spectrum: 2068
>>>>>Begin Spectral Data<<<<<
179.565	1247.79
179.642	1303.87
179.718	1350.56
179.795	1390.65
179.871	1427.72
179.948	1447.25
180.024	1467.88
180.101	1490.27
180.177	1503.79
180.254	1527.23
180.33	1549.73
180.407	1605.9
180.483	1704.15
180.56	1798.75
180.636	1886.68
180.712	1874.88
180.789	1882.25
180.865	1894.94
180.942	1901.88
181.018	1912.86
181.095	1926.61
181.171	1930.5
181.248	1932.36
181.324	1947.25
181.4	1953.66
181.477	1963.56
181.553	1976.39
181.63	1997.08
181.706	2010.87
181.782	2021.75
181.859	2021.18
181.935	2025.27
182.011	2024.08
182.088	2042.02
182.164	2059.86
182.24	2072.17
182.317	2081.16
182.393	2082.82
182.469	2095.71
182.546	2112.98
182.622	2118.07
182.698	2111.03
182.775	2122.73
182.851	2138.9
182.927	2129.72
183.003	2127.3
183.08	2121.44
183.156	2130.58
183.232	2128.58
183.308	2119.92
183.385	2128.72
183.461	2146.18
183.537	2147.89
183.613	2158.64
183.69	2148.99
183.766	2138.61
183.842	2145.03
183.918	2149.84
183.995	2161.97
184.071	2166.3
184.147	2157.74
184.223	2147.61
184.299	2161.17
184.375	2150.7
184.452	2157.75
184.528	2208.37
184.604	2218.93
184.68	2230.54
184.756	2241.25
184.832	2246.01
184.908	2252.57
184.985	2248.81
185.061	2233.35
185.137	2243.96
185.213	2233.02
185.289	2233.54
185.365	2226.79
185.441	2227.41
185.517	2240.21
185.593	2236.64
185.669	2234.31
185.745	2246.73
185.822	2262.19
185.898	2254.62
185.974	2265.85
186.05	2255.04
186.126	2219.36
186.202	2214.55
186.278	2209.89
186.354	2196.52
186.43	2203.04
186.506	2200.56
186.582	2202.04
186.658	2207.65
186.734	2184.63
186.81	2188.77
186.886	2192.48
186.962	2204.7
187.038	2200.66
187.114	2191.9
187.19	2198.18
187.266	2187.81
187.341	2186.29
187.417	2180.06
187.493	2180.96
187.569	2182.48
187.645	2178.72
187.721	2168.49
187.797	2172.01
187.873	2175.58
187.949	2170.68
188.025	2162.97
188.101	2162.88
188.176	2169.16
188.252	2165.97
188.328	2175.1
188.404	2174.86
188.48	2166.92
188.556	2160.83
188.632	2160.49
188.707	2162.87
188.783	2159.35
188.859	2153.03
188.935	2142.8
189.011	2151.6
189.086	2145.32
189.162	2138.52
189.238	2132.48
189.314	2132
189.39	2127.48
189.465	2124.06
189.541	2141.04
189.617	2127.3
189.693	2121.83
189.768	2123.4
189.844	2150.34
189.92	2143.92
189.996	2148.58
190.071	2163.42
190.147	2162.04
190.223	2171.51
190.298	2161.19
190.374	2151.24
190.45	2162.8
190.526	2173.13
190.601	2164.47
190.677	2162.56
190.753	2188.27
190.828	2195.26
190.904	2209.01
190.98	2225.29
191.055	2234.47
191.131	2224.34
191.207	2242.94
191.282	2254.88
191.358	2243.89
191.433	2226.79
191.509	2240.68
191.585	2239.78
191.66	2239.59
191.736	2246.68
191.811	2235.88
191.887	2255.2
191.963	2275.61
192.038	2283.66
192.114	2280.99
192.189	2287.17
192.265	2286.18
192.34	2265.51
192.416	2263.61
192.491	2260.23
192.567	2262.47
192.642	2265.09
192.718	2265.37
192.793	2256.28
192.869	2253.71
192.944	2259.99
193.02	2268.89
193.095	2272.89
193.171	2279.7
193.246	2276.6
193.322	2275.75
193.397	2279.08
193.473	2265.42
193.548	2249.19
193.624	2252.19
193.699	2252.9
193.775	2268.66
193.85	2272.56
193.925	2282.6
194.001	2281.79
194.076	2273.56
194.152	2261.66
194.227	2255.42
194.302	2249.81
194.378	2250.52
194.453	2248.19
194.529	2256.19
194.604	2240.2
194.679	2232.3
194.755	2212.94
194.83	2227.55
194.905	2223.55
194.981	2229.88
195.056	2222.18
195.131	2229.79
195.207	2227.55
195.282	2217.8
195.357	2199.33
195.433	2212.27
195.508	2198.61
195.583	2208.32
195.659	2223.17
195.734	2231.78
195.809	2229.17
195.884	2234.64
195.96	2238.3
196.035	2251.72
196.11	2251.77
196.185	2262.9
196.261	2267.52
196.336	2301.78
196.411	2288.69
196.486	2295.83
196.561	2290.88
196.637	2299.78
196.712	2315.25
196.787	2320.11
196.862	2338.95
196.937	2348.66
197.013	2354.75
197.088	2367.5
197.163	2386.31
197.238	2403.22
197.313	2403.22
197.388	2417.55
197.464	2446.93
197.539	2457.36
197.614	2452.31
197.689	2463.74
197.764	2482.26
197.839	2503.55
197.914	2494.45
197.989	2517.35
198.065	2528.92
198.14	2580.91
198.215	2606.05
198.29	2618.25
198.365	2633.45
198.44	2644.45
198.515	2671.98
198.59	2689.37
198.665	2714.24
198.74	2724.34
198.815	2726.58
198.89	2749.78
198.965	2779.47
199.04	2776.38
199.115	2791.67
199.19	2833.26
199.265	2836.4
199.34	2848.6
199.415	2883.65
199.49	2908.38
199.565	2918.39
199.64	2942.89
199.715	2939.12
199.79	2948.6
199.865	2954.66
199.94	2955.75
200.015	2985.65
200.09	2991.99
200.165	2998.09
200.24	3006.96
200.315	3049.14
200.39	3063.31
200.464	3069.74
200.539	3071.84
200.614	3090.43
200.689	3116.57
200.764	3127.21
200.839	3145.89
200.914	3149.23
200.989	3139.87
201.063	3152.99
201.138	3133.79
201.213	3136.89
201.288	3121.2
201.363	3129.35
201.438	3129.78
201.512	3142.03
201.587	3124.1
201.662	3126.77
201.737	3140.03
201.812	3149.24
201.886	3113.39
201.961	3125.18
202.036	3114.4
202.111	3111.07
202.186	3082.71
202.26	3065.63
202.335	3042.93
202.41	3037.4
202.485	3022.24
202.559	3001.5
202.634	2978.9
202.709	2995.29
202.784	2980.75
202.858	2979.41
202.933	2964.35
203.008	2965.78
203.082	2953.76
203.157	2961.34
203.232	2929.61
203.306	2919.26
203.381	2897.22
203.456	2887.21
203.53	2877.24
203.605	2870.66
203.68	2858.7
203.754	2872.46
203.829	2876.52
203.904	2877.04
203.978	2887.91
204.053	2913.04
204.127	2924.81
204.202	2950.23
204.277	2961.29
204.351	2983.95
204.426	3010.47
204.5	3034.12
204.575	3036.93
204.65	3084.89
204.724	3120.92
204.799	3173.76
204.873	3213.57
204.948	3260.14
205.022	3299.26
205.097	3347.07
205.171	3420.1
205.246	3498.76
205.32	3561.58
205.395	3629.94
205.469	3690.38
205.544	3770.71
205.618	3832.74
205.693	3929.38
205.767	3997.87
205.842	4104.35
205.916	4193.3
205.991	4283.98
206.065	4392.1
206.14	4510.85
206.214	4619.26
206.289	4724.17
206.363	4852.88
206.438	4978.29
206.512	5108.16
206.586	5253.74
206.661	5394.18
206.735	5502.52
206.81	5637.74
206.884	5786.57
206.958	5915.97
207.033	6078.03
207.107	6235.73
207.181	6418.52
207.256	6564.86
207.33	6742.6
207.405	6914.04
207.479	7092.65
207.553	7261.82
207.628	7406.73
207.702	7587.75
207.776	7748
207.851	7923.57
207.925	8112.04
207.999	8273.42
208.073	8452.54
208.148	8633.09
208.222	8790.9
208.296	9009.86
208.371	9211.22
208.445	9404.61
208.519	9621.81
208.593	9822.13
208.668	10003.81
208.742	10195.3
208.816	10384.41
208.89	10586.12
208.965	10780.88
209.039	10978.92
209.113	11185.54
209.187	11398.4
209.261	11580.08
209.336	11788.32
209.41	12007.13
209.484	12195.06
209.558	12415.18
209.632	12622.82
209.707	12830.62
209.781	13046.99
209.855	13244.53
209.929	13440.72
210.003	13641.49
210.077	13825.53
210.151	14063.7
210.226	14285.39
210.3	14493.72
210.374	14710.35
210.448	14903.88
210.522	15086.67
210.596	15281.74
210.67	15468.67
210.744	15703.93
210.818	15924.88
210.892	16131.37
210.966	16293.7
211.041	16481.67
211.115	16653.59
211.189	16845.99
211.263	17033.33
211.337	17202.49
211.411	17380.86
211.485	17550.7
211.559	17729.93
211.633	17891.96
211.707	18016.53
211.781	18187.18
211.855	18318.79
211.929	18458.11
212.003	18584.42
212.077	18754.15
212.151	18909.71
212.225	19070.91
212.299	19201.26
212.373	19335.33
212.447	19469.88
212.52	19643.95
212.594	19802.74
212.668	19949.97
212.742	20072.32
212.816	20197.96
212.89	20328.18
212.964	20472.66
213.038	20601.83
213.112	20745.64
213.186	20902.91
213.26	21014.33
213.333	21093.95
213.407	21220.95
213.481	21341.87
213.555	21475.71
213.629	21585.76
213.703	21700.33
213.777	21812.69
213.85	21901.68
213.924	22038.78
213.998	22151.68
214.072	22257.06
214.146	22341.14
214.219	22451.11
214.293	22552.3
214.367	22660.19
214.441	22772.86
214.515	22862.06
214.588	22934.82
214.662	22991.13
214.736	23053.14
214.81	23150.72
214.883	23245.71
214.957	23323.97
215.031	23409.99
215.105	23486.36
215.178	23553.1
215.252	23622.84
215.326	23685.96
215.4	23745.37
215.473	23780.05
215.547	23836.39
215.621	23891.9
215.694	23977.14
215.768	24025.18
215.842	24081.32
215.915	24135.3
215.989	24184.79
216.063	24243.98
216.136	24307.99
216.21	24370.93
216.284	24450.05
216.357	24509.34
216.431	24559.31
216.504	24621.84
216.578	24698.4
216.652	24765.7
216.725	24826.35
216.799	24895.01
216.873	24947.79
216.946	25026.19
217.02	25064.79
217.093	25107.83
217.167	25130.65
217.24	25164.39
217.314	25204.96
217.387	25244.53
217.461	25279.03
217.535	25325.46
217.608	25346.74
217.682	25387.95
217.755	25438.57
217.829	25467.29
217.902	25514.93
217.976	25562.7
218.049	25591.9
218.123	25617.53
218.196	25649
218.27	25677.91
218.343	25689.98
218.417	25731.54
218.49	25754.61
218.563	25810.41
218.637	25854.14
218.71	25910.62
218.784	25944.94
218.857	25986.26
218.931	26033.66
219.004	26075.51
219.077	26123.16
219.151	26154.3
219.224	26182.06
219.298	26214.84
219.371	26256.07
219.444	26271.81
219.518	26301.31
219.591	26331.14
219.665	26378.51
219.738	26393.67
219.811	26400.53
219.885	26439.15
219.958	26461.07
220.031	26491.97
220.105	26512.01
220.178	26535.14
220.251	26555.09
220.325	26580.63
220.398	26609.27
220.471	26623.27
220.544	26653.79
220.618	26660.02
220.691	26683.1
220.764	26701.54
220.838	26724.14
220.911	26732.55
220.984	26762.58
221.057	26782.82
221.131	26805.47
221.204	26796.14
221.277	26839.12
221.35	26882.44
221.424	26893.01
221.497	26907.5
221.57	26910.64
221.643	26921.41
221.716	26926.1
221.79	26919.67
221.863	26920.69
221.936	26918.47
222.009	26924.84
222.082	26909.34
222.155	26905.38
222.229	26925.13
222.302	26937.35
222.375	26927.25
222.448	26923.25
222.521	26921.51
222.594	26918.51
222.667	26907.89
222.74	26918.71
222.814	26914.6
222.887	26914.89
222.96	26920.35
223.033	26928.85
223.106	26936.14
223.179	26946.53
223.252	26947.59
223.325	26948.99
223.398	26937.59
223.471	26937.11
223.544	26930.44
223.617	26944.11
223.69	26951.16
223.763	26921.61
223.837	26910.89
223.91	26902.53
223.983	26882.88
224.056	26865.4
224.129	26858.35
224.202	26860.61
224.275	26838.21
224.348	26802.66
224.42	26772.48
224.493	26739.21
224.566	26712.4
224.639	26690
224.712	26663.68
224.785	26641.56
224.858	26627.12
224.931	26609.98
225.004	26581.59
225.077	26566.86
225.15	26519.44
225.223	26484.58
225.296	26495.3
225.369	26462.28
225.442	26441.56
225.514	26417.62
225.587	26392.61
225.66	26367.4
225.733	26336.98
225.806	26314.44
225.879	26301.11
225.952	26275.67
226.025	26268.57
226.097	26265.53
226.17	26234.63
226.243	26191.81
226.316	26156.28
226.389	26127.89
226.461	26103.03
226.534	26077.88
226.607	26043.41
226.68	26039.65
226.753	26023.24
226.825	25974.04
226.898	25953.77
226.971	25922.05
227.044	25904.43
227.117	25886.14
227.189	25865.77
227.262	25847.47
227.335	25818.56
227.407	25783.91
227.48	25752.53
227.553	25715.27
227.626	25664.2
227.698	25639.97
227.771	25606.72
227.844	25582.92
227.916	25558.26
227.989	25517.72
228.062	25478.3
228.134	25470.62
228.207	25430.95
228.28	25395.38
228.352	25365.56
228.425	25333.66
228.498	25317.69
228.57	25280.62
228.643	25259.63
228.716	25221.7
228.788	25190.09
228.861	25159.64
228.934	25148.01
229.006	25120.51
229.079	25089.14
229.151	25050.92
229.224	24995.68
229.296	24970.89
229.369	24957.42
229.442	24937.88
229.514	24898.8
229.587	24882.3
229.659	24830.43
229.732	24803.17
229.804	24773.94
229.877	24762.5
229.949	24747.21
230.022	24733.16
230.094	24707.84
230.167	24675.61
230.239	24635.47
230.312	24586.26
230.384	24567.4
230.457	24536.52
230.529	24508.44
230.602	24472.36
230.674	24449.01
230.747	24441.83
230.819	24421.13
230.892	24361.36
230.964	24332.18
231.037	24308.45
231.109	24274.06
231.181	24246.85
231.254	24212.41
231.326	24183.52
231.399	24139.91
231.471	24095.73
231.544	24023.28
231.616	23983.44
231.688	23952.04
231.761	23908.54
231.833	23881.53
231.905	23829.49
231.978	23790.56
232.05	23752.37
232.122	23714.46
232.195	23678
232.267	23659.19
232.339	23619.55
232.412	23598.38
232.484	23545.91
232.556	23511.48
232.629	23497.35
232.701	23466.87
232.773	23423.71
232.846	23379.44
232.918	23341.68
232.99	23304.89
233.062	23284.54
233.135	23257.15
233.207	23199.62
233.279	23169.92
233.351	23139.5
233.424	23095.38
233.496	23046.73
233.568	23017.8
233.64	22958.3
233.713	22919.83
233.785	22877.15
233.857	22842.63
233.929	22787.38
234.001	22768.38
234.074	22737.67
234.146	22684.39
234.218	22638.3
234.29	22590.38
234.362	22545.4
234.434	22493.09
234.507	22443
234.579	22381.39
234.651	22340.75
234.723	22315.64
234.795	22286.86
234.867	22240.72
234.939	22210.98
235.012	22172.41
235.084	22154.48
235.156	22136.6
235.228	22082.85
235.3	22031.85
235.372	21994.78
235.444	21962.24
235.516	21895.57
235.588	21854.98
235.66	21811.74
235.732	21765.23
235.804	21790.25
235.876	21758.58
235.948	21743.11
236.02	21699.92
236.092	21666.62
236.164	21625.5
236.236	21572.96
236.308	21519.8
236.38	21474.44
236.452	21425.28
236.524	21383.2
236.596	21346.09
236.668	21303.33
236.74	21263.52
236.812	21228.1
236.884	21190.26
236.956	21160.86
237.028	21116.62
237.1	21060.91
237.172	21033
237.244	21011.7
237.316	20932.02
237.388	20888.55
237.46	20831.34
237.532	20802.18
237.604	20753.41
237.675	20722.95
237.747	20695
237.819	20654.03
237.891	20612.78
237.963	20571.24
238.035	20519.58
238.107	20430.8
238.178	20407.19
238.25	20366.32
238.322	20337.65
238.394	20273.45
238.466	20222.13
238.538	20184.06
238.609	20150.95
238.681	20091.58
238.753	20039.48
238.825	19989.94
238.897	19943.92
238.968	19911.58
239.04	19861.56
239.112	19846.76
239.184	19787.2
239.255	19731.2
239.327	19683.69
239.399	19644.89
239.471	19609.52
239.542	19574.44
239.614	19559.4
239.686	19492.32
239.758	19461
239.829	19407.32
239.901	19377.05
239.973	19333.34
240.044	19302.07
240.116	19262.12
240.188	19216.77
240.259	19175.14
240.331	19132.1
240.403	19098.61
240.474	19043.58
240.546	18995.87
240.618	18928.55
240.689	18879.59
240.761	18843.06
240.833	18819.83
240.904	18779.45
240.976	18740.95
241.048	18696.23
241.119	18653.87
241.191	18618.98
241.262	18599.27
241.334	18549.63
241.405	18509.35
241.477	18464
241.549	18408.92
241.62	18374.22
241.692	18332.01
241.763	18298.13
241.835	18258.18
241.906	18210.76
241.978	18161.32
242.049	18148.16
242.121	18128.3
242.192	18111.97
242.264	18057.75
242.335	18003.73
242.407	17969.56
242.478	17923.93
242.55	17902.77
242.621	17853.42
242.693	17809.23
242.764	17754.1
242.836	17713.57
242.907	17677.91
242.979	17651.79
243.05	17618.25
243.122	17572.99
243.193	17534.1
243.264	17472.99
243.336	17421.77
243.407	17398.15
243.479	17379.74
243.55	17339.45
243.622	17299.45
243.693	17248.22
243.764	17229.14
243.836	17176.85
243.907	17127.74
243.978	17080.99
244.05	17043.21
244.121	16992.65
244.192	16967.68
244.264	16916.79
244.335	16882.38
244.407	16833.85
244.478	16794.71
244.549	16756.98
244.62	16712.68
244.692	16681.36
244.763	16660.01
244.834	16630.37
244.906	16581.4
244.977	16542.46
245.048	16519.18
245.119	16474.93
245.191	16432.86
245.262	16372.56
245.333	16355.98
245.405	16327.21
245.476	16306
245.547	16262.72
245.618	16235.01
245.689	16193.7
245.761	16160.45
245.832	16120.39
245.903	16091.76
245.974	16061.45
246.045	16019.95
246.117	16002.35
246.188	15952.61
246.259	15902.48
246.33	15858.96
246.401	15819.24
246.473	15768.54
246.544	15714.65
246.615	15691.23
246.686	15650.79
246.757	15632.52
246.828	15589.33
246.899	15571.5
246.97	15514.96
247.042	15474.13
247.113	15446.08
247.184	15433.69
247.255	15395.9
247.326	15364.47
247.397	15329.81
247.468	15297.66
247.539	15267.54
247.61	15215.58
247.681	15196.68
247.752	15174.7
247.823	15135.17
247.894	15108.71
247.965	15066.77
248.037	15030.67
248.108	14976.87
248.179	14948.92
248.25	14905.63
248.321	14880.8
248.392	14829.42
248.463	14821.71
248.534	14790.66
248.605	14769.65
248.675	14738.17
248.746	14712.48
248.817	14693.48
248.888	14664.61
248.959	14608.6
249.03	14586.52
249.101	14558.51
249.172	14519.03
249.243	14463.45
249.314	14445.23
249.385	14415
249.456	14390.52
249.527	14354.94
249.598	14338.07
249.669	14301.72
249.739	14285.28
249.81	14258.67
249.881	14219.14
249.952	14186.46
250.023	14157.97
250.094	14106.83
250.165	14057.8
250.235	14022.32
250.306	13988.72
250.377	13949.67
250.448	13929.62
250.519	13872.88
250.59	13861.84
250.66	13829.26
250.731	13822.46
250.802	13795.41
250.873	13766.25
250.944	13747.55
251.014	13713.08
251.085	13707
251.156	13689.55
251.227	13677.4
251.297	13659.42
251.368	13646.41
251.439	13635.13
251.51	13620.67
251.58	13585.57
251.651	13560.94
251.722	13559.44
251.792	13511.86
251.863	13489.98
251.934	13482.84
252.005	13492.82
252.075	13465.59
252.146	13446.88
252.217	13439.02
252.287	13423.98
252.358	13401.71
252.429	13394.24
252.499	13368.74
252.57	13344.1
252.641	13329.26
252.711	13300.67
252.782	13268.76
252.852	13258.15
252.923	13231.74
252.994	13206.28
253.064	13201.56
253.135	13164.1
253.205	13121.05
253.276	13120.47
253.347	13107.22
253.417	13069.23
253.488	13044.5
253.558	13012.98
253.629	12992.49
253.699	12961.25
253.77	12942.59
253.841	12909.38
253.911	12887.98
253.982	12867.92
254.052	12851.29
254.123	12829.65
254.193	12803.91
254.264	12812.73
254.334	12783.9
254.405	12746.45
254.475	12711.98
254.546	12690.14
254.616	12682.19
254.687	12669.27
254.757	12653.99
254.827	12634.51
254.898	12616.29
254.968	12588.14
255.039	12561.05
255.109	12549.77
255.18	12526.63
255.25	12484.84
255.321	12480.21
255.391	12442.08
255.461	12443
255.532	12390.5
255.602	12362.83
255.673	12313.33
255.743	12280.41
255.813	12238.52
255.884	12229.99
255.954	12211.38
256.024	12206.56
256.095	12185.54
256.165	12151.27
256.235	12139.65
256.306	12112.47
256.376	12108.03
256.446	12097.48
256.517	12086.29
256.587	12072.31
256.657	12048.89
256.728	12033.56
256.798	12009.94
256.868	11992.64
256.938	11960.68
257.009	11956.34
257.079	11948.39
257.149	11961.35
257.219	11918.89
257.29	11903.32
257.36	11859.12
257.43	11852.28
257.5	11801.81
257.571	11777.38
257.641	11769.57
257.711	11730.24
257.781	11708.64
257.852	11694.09
257.922	11655.58
257.992	11629.98
258.062	11606.46
258.132	11596.15
258.202	11579.47
258.273	11557.06
258.343	11553.35
258.413	11525.4
258.483	11502.31
258.553	11468.81
258.623	11441.29
258.693	11428.28
258.764	11422.93
258.834	11426.83
258.904	11407.6
258.974	11389.24
259.044	11376.42
259.114	11362.68
259.184	11350.68
259.254	11335.12
259.324	11293.67
259.394	11284.22
259.464	11284.9
259.535	11262.68
259.605	11241.81
259.675	11214.87
259.745	11202.83
259.815	11162.25
259.885	11145.38
259.955	11154.68
260.025	11128.76
260.095	11112.23
260.165	11102.59
260.235	11102.06
260.305	11070.4
260.375	11042.4
260.445	11049.96
260.515	11045.14
260.585	11034.06
260.655	11007.7
260.725	11001.68
260.795	10991.7
260.865	10991.8
260.934	10972.33
261.004	10964.23
261.074	10949.82
261.144	10946.64
261.214	10942.4
261.284	10933.63
261.354	10928.14
261.424	10899.08
261.494	10902.59
261.564	10887.32
261.634	10875.13
261.703	10838.41
261.773	10829.2
261.843	10821.35
261.913	10799.18
261.983	10756.54
262.053	10747
262.123	10734.42
262.192	10701.42
262.262	10695.88
262.332	10663.16
262.402	10648.99
262.472	10630.97
262.541	10591.17
262.611	10590.11
262.681	10558.79
262.751	10553.98
262.821	10532.87
262.89	10507.58
262.96	10495.72
263.03	10499.48
263.1	10485.41
263.169	10469.13
263.239	10461.03
263.309	10467.06
263.379	10458.24
263.448	10454.96
263.518	10438.39
263.588	10427.74
263.657	10433.09
263.727	10426.39
263.797	10412.95
263.867	10394.06
263.936	10373.78
264.006	10372.82
264.076	10352.29
264.145	10344.49
264.215	10319.39
264.285	10313.8
264.354	10280.46
264.424	10260.28
264.494	10225.88
264.563	10208.72
264.633	10220
264.702	10207.04
264.772	10169.17
264.842	10152.16
264.911	10143.4
264.981	10114.4
265.05	10098.79
265.12	10075.33
265.19	10069.74
265.259	10059.14
265.329	10054.42
265.398	10041.08
265.468	10049.31
265.537	10027.25
265.607	10015.21
265.676	10012.99
265.746	10006.15
265.815	10002.06
265.885	9988.23
265.955	9970.36
266.024	9943.29
266.094	9904.9
266.163	9908.37
266.232	9914.01
266.302	9895.7
266.371	9885.16
266.441	9875.43
266.51	9873.07
266.58	9859.24
266.649	9828.17
266.719	9828.89
266.788	9811.36
266.858	9815.21
266.927	9779.67
266.996	9773.65
267.066	9767.1
267.135	9740.75
267.205	9736.03
267.274	9727.65
267.343	9725.44
267.413	9713.93
267.482	9723.32
267.552	9726.88
267.621	9696.68
267.69	9664.46
267.76	9656.85
267.829	9644.91
267.898	9636.96
267.968	9611.1
268.037	9608.5
268.106	9603.35
268.176	9580.85
268.245	9567.03
268.314	9545.17
268.384	9543.62
268.453	9527.68
268.522	9514.83
268.592	9512.42
268.661	9490.46
268.73	9485.54
268.799	9468.59
268.869	9466.47
268.938	9436.57
269.007	9416.2
269.076	9404.5
269.146	9404.98
269.215	9396.07
269.284	9402.76
269.353	9381.14
269.422	9366.08
269.492	9350.86
269.561	9311.76
269.63	9306.37
269.699	9294.28
269.768	9287.54
269.838	9289.76
269.907	9284.99
269.976	9264.33
270.045	9236.12
270.114	9231.26
270.183	9216.72
270.253	9210.02
270.322	9187.78
270.391	9185.9
270.46	9193.22
270.529	9189.9
270.598	9186.86
270.667	9175.41
270.736	9148.44
270.806	9149.26
270.875	9158.07
270.944	9150.66
271.013	9178.53
271.082	9165.82
271.151	9155.52
271.22	9127.6
271.289	9114.02
271.358	9104.44
271.427	9100.73
271.496	9092.55
271.565	9075.12
271.634	9068.47
271.703	9090.48
271.772	9092.5
271.841	9077.24
271.91	9047.01
271.979	9037.43
272.048	9011.82
272.117	9009.5
272.186	8998.1
272.255	8994.29
272.324	8992.85
272.393	8981.15
272.462	8967.09
272.531	8966.61
272.6	8966.08
272.669	8978.6
272.738	8965.31
272.807	8962.28
272.876	8937.25
272.945	8966.32
273.013	8969.93
273.082	8971.04
273.151	8925.59
273.22	8918.71
273.289	8910.72
273.358	8920.44
273.427	8910.14
273.496	8911.49
273.564	8909.61
273.633	8910.86
273.702	8890.79
273.771	8873.36
273.84	8872.93
273.909	8868.45
273.977	8860.51
274.046	8849.39
274.115	8852.61
274.184	8840.53
274.253	8831.68
274.322	8839.47
274.39	8804.53
274.459	8788.98
274.528	8763.71
274.597	8750.52
274.665	8746.48
274.734	8749.85
274.803	8741.62
274.872	8729.63
274.94	8708.99
275.009	8765.81
275.078	8754.41
275.147	8748.78
275.215	8750.08
275.284	8754.41
275.353	8741.41
275.421	8718.45
275.49	8730.68
275.559	8714.56
275.627	8702.77
275.696	8693.67
275.765	8695.84
275.833	8685.97
275.902	8685.78
275.971	8698.82
276.039	8723.03
276.108	8730.73
276.177	8734.39
276.245	8726.06
276.314	8731.55
276.383	8748.15
276.451	8682.04
276.52	8679.73
276.588	8694.84
276.657	8697.48
276.725	8691.52
276.794	8687.43
276.863	8699.55
276.931	8676.06
277	8680.73
277.068	8691.75
277.137	8706.77
277.205	8702.1
277.274	8725.01
277.342	8729.05
277.411	8711.44
277.48	8689.97
277.548	8675.53
277.617	8676.83
277.685	8668.75
277.754	8667.4
277.822	8656.33
277.89	8670.43
277.959	8667.84
278.027	8651.47
278.096	8635.16
278.164	8655.57
278.233	8651.24
278.301	8646.47
278.37	8649.41
278.438	8638.53
278.507	8639.68
278.575	8610.52
278.643	8611
278.712	8598.2
278.78	8593.53
278.849	8603.49
278.917	8620.29
278.985	8621.54
279.054	8617.4
279.122	8630.88
279.191	8632.17
279.259	8626.93
279.327	8602.86
279.396	8619.66
279.464	8619.66
279.532	8631.6
279.601	8627.84
279.669	8622.26
279.737	8633.95
279.806	8640.88
279.874	8650.08
279.942	8647.33
280.011	8652.67
280.079	8659.65
280.147	8674.62
280.215	8675.05
280.284	8670.48
280.352	8660.47
280.42	8668.8
280.488	8665.57
280.557	8658.35
280.625	8660.23
280.693	8665.57
280.761	8667.5
280.83	8647.33
280.898	8658.26
280.966	8640.21
281.034	8606.37
281.102	8597.18
281.171	8586.55
281.239	8597.43
281.307	8585.78
281.375	8579.09
281.443	8607.05
281.512	8599.06
281.58	8600.75
281.648	8584.53
281.716	8586.26
281.784	8583.86
281.852	8575.68
281.92	8573.94
281.989	8585.35
282.057	8568.36
282.125	8615.16
282.193	8612.51
282.261	8618.38
282.329	8608.95
282.397	8613.47
282.465	8620.59
282.533	8633.49
282.601	8622.85
282.67	8593.98
282.738	8584.93
282.806	8594.46
282.874	8572.65
282.942	8577.76
283.01	8569.43
283.078	8576.69
283.146	8568.99
283.214	8572.27
283.282	8574.48
283.35	8584.2
283.418	8574.58
283.486	8580.26
283.554	8531.63
283.622	8536.64
283.69	8532.93
283.758	8536.3
283.826	8542.03
283.894	8549.73
283.962	8573.65
284.03	8594.54
284.098	8597.47
284.165	8599.88
284.233	8602.96
284.301	8600.07
284.369	8589.96
284.437	8580.92
284.505	8579.14
284.573	8592.23
284.641	8584.14
284.709	8586.93
284.777	8569.27
284.845	8574.9
284.912	8579.33
284.98	8581.83
285.048	8572.64
285.116	8578.27
285.184	8585.97
285.252	8585.15
285.319	8574.66
285.387	8556.08
285.455	8533.65
285.523	8540.82
285.591	8536.83
285.659	8534.42
285.726	8541.45
285.794	8535.34
285.862	8537.31
285.93	8531.68
285.997	8527.83
286.065	8526.39
286.133	8520.52
286.201	8514.21
286.269	8501.94
286.336	8495.25
286.404	8490.34
286.472	8501.51
286.539	8479.71
286.607	8465.13
286.675	8467.92
286.743	8470.38
286.81	8467.2
286.878	8485.34
286.946	8478.22
287.013	8478.08
287.081	8474.32
287.149	8461.33
287.216	8474.85
287.284	8465.42
287.352	8474.13
287.419	8469.41
287.487	8483.85
287.555	8487.85
287.622	8493.72
287.69	8497.47
287.758	8508.25
287.825	8502.76
287.893	8493.43
287.96	8503
288.028	8512.15
288.096	8514.31
288.163	8518.69
288.231	8517.63
288.298	8511.33
288.366	8522.92
288.433	8520.66
288.501	8511.47
288.569	8517.54
288.636	8519.27
288.704	8534.19
288.771	8541.5
288.839	8539.29
288.906	8531.54
288.974	8543.24
289.041	8541.55
289.109	8537.61
289.176	8550.36
289.244	8560.27
289.311	8578.66
289.379	8588.96
289.446	8589.73
289.514	8586.6
289.581	8586.89
289.649	8583.37
289.716	8586.36
289.783	8579.33
289.851	8606.57
289.918	8611.81
289.986	8624.09
290.053	8622.06
290.121	8618.55
290.188	8616.24
290.255	8643.39
290.323	8638.52
290.39	8629.09
290.458	8632.75
290.525	8644.15
290.592	8638.23
290.66	8637.66
290.727	8628.51
290.794	8641.41
290.862	8637.75
290.929	8642.08
290.996	8640.11
291.064	8648.1
291.131	8661.19
291.198	8674.67
291.266	8667.88
291.333	8671.3
291.4	8669.32
291.468	8688.29
291.535	8694.3
291.602	8704.94
291.669	8697.34
291.737	8703.98
291.804	8709.18
291.871	8729.68
291.938	8737.81
292.006	8763.57
292.073	8781.38
292.14	8789.56
292.207	8781.57
292.275	8786.86
292.342	8793.7
292.409	8823.35
292.476	8854.3
292.543	8847.08
292.611	8853.49
292.678	8873.13
292.745	8891.99
292.812	8912.88
292.879	8910.72
292.946	8913.8
293.014	8922.13
293.081	8937.15
293.148	8951.25
293.215	8965.98
293.282	8964.1
293.349	8970.99
293.416	8954.81
293.484	8966.51
293.551	8980.57
293.618	9001.17
293.685	9033.18
293.752	9032.27
293.819	9027.36
293.886	9014.93
293.953	9022.2
294.02	9030.53
294.087	9034.82
294.154	9032.84
294.221	9045.22
294.288	9046.13
294.356	9064.14
294.423	9071.5
294.49	9058.17
294.557	9070.3
294.624	9061.63
294.691	9078.68
294.758	9080.6
294.825	9088.02
294.892	9077.57
294.959	9081.13
295.026	9092.78
295.093	9084.31
295.16	9082.19
295.226	9087.2
295.293	9110.46
295.36	9120.28
295.427	9131.49
295.494	9145.31
295.561	9153.06
295.628	9173.24
295.695	9188.7
295.762	9191.92
295.829	9208.06
295.896	9230.44
295.963	9241.47
296.03	9254.32
296.096	9258.42
296.163	9276.52
296.23	9290.48
296.297	9308.78
296.364	9308.35
296.431	9308.59
296.498	9307.67
296.564	9337.91
296.631	9341.13
296.698	9322.74
296.765	9344.02
296.832	9332.85
296.899	9323.85
296.965	9343.68
297.032	9325.09
297.099	9344.98
297.166	9356.83
297.233	9349.27
297.299	9338.2
297.366	9340.89
297.433	9347.01
297.5	9356.45
297.566	9356.11
297.633	9353.03
297.7	9361.84
297.767	9357.65
297.833	9364.97
297.9	9368
297.967	9354.42
298.033	9366.03
298.1	9395.5
298.167	9382.64
298.234	9394.01
298.3	9398
298.367	9397.76
298.434	9400.84
298.5	9385.58
298.567	9372.86
298.634	9365.64
298.7	9384.08
298.767	9386.54
298.834	9392.37
298.9	9390.68
298.967	9379.37
299.033	9396.08
299.1	9406.53
299.167	9419.33
299.233	9415.87
299.3	9428.48
299.366	9444.61
299.433	9467.25
299.5	9447.07
299.566	9454.3
299.633	9465.71
299.699	9481.75
299.766	9481.94
299.832	9493.98
299.899	9507.51
299.965	9527.49
300.032	9534.33
300.099	9541.07
300.165	9547.38
300.232	9549.45
300.298	9547.24
300.365	9566.12
300.431	9567.99
300.498	9558.7
300.564	9572.95
300.631	9582.73
300.697	9606.14
300.763	9605.27
300.83	9597.08
300.896	9611.1
300.963	9619.57
301.029	9628.53
301.096	9632.29
301.162	9639.7
301.229	9631.71
301.295	9626.12
301.361	9630.55
301.428	9629.64
301.494	9620.97
301.561	9624.05
301.627	9629.44
301.693	9633.97
301.76	9635.66
301.826	9631.71
301.892	9653
301.959	9659.31
302.025	9656.66
302.092	9643.07
302.158	9650.39
302.224	9661.71
302.291	9656.71
302.357	9648.28
302.423	9642.4
302.49	9634.84
302.556	9649.72
302.622	9648.9
302.688	9653.77
302.755	9672.94
302.821	9683.15
302.887	9691.58
302.954	9685.56
303.02	9688.49
303.086	9696.25
303.152	9696.1
303.219	9693.74
303.285	9692.3
303.351	9695.81
303.417	9703.66
303.483	9693.31
303.55	9683.39
303.616	9676.98
303.682	9677.03
303.748	9676.16
303.815	9688.88
303.881	9699.28
303.947	9685.36
304.013	9691.77
304.079	9689.36
304.145	9662.53
304.212	9665.23
304.278	9661.81
304.344	9661.18
304.41	9654.25
304.476	9646.64
304.542	9639.99
304.608	9642.21
304.674	9619.24
304.741	9608.45
304.807	9606.81
304.873	9618.56
304.939	9637.54
305.005	9617.79
305.071	9614.18
305.137	9615.86
305.203	9593.61
305.269	9590.62
305.335	9607.1
305.401	9603
305.467	9598.77
305.533	9607.82
305.599	9616.44
305.666	9625.01
305.732	9630.41
305.798	9645.48
305.864	9675.25
305.93	9682.57
305.996	9681.9
306.062	9689.7
306.128	9690.81
306.194	9677.56
306.259	9674.05
306.325	9666.15
306.391	9674.82
306.457	9687.67
306.523	9694.71
306.589	9721.1
306.655	9712.77
306.721	9692.54
306.787	9679.73
306.853	9693.02
306.919	9678.09
306.985	9664.9
307.051	9652.86
307.117	9643.32
307.183	9632.34
307.248	9600.74
307.314	9603
307.38	9605.51
307.446	9608.93
307.512	9600.16
307.578	9611.24
307.644	9606.14
307.709	9605.36
307.775	9602.86
307.841	9595.78
307.907	9593.37
307.973	9569.19
308.039	9574.3
308.104	9577.04
308.17	9583.69
308.236	9570.59
308.302	9577.28
308.368	9572.03
308.433	9573.58
308.499	9571.07
308.565	9560.14
308.631	9562.02
308.696	9539.67
308.762	9523.78
308.828	9526.24
308.894	9512.18
308.959	9491.81
309.025	9483.67
309.091	9481.45
309.156	9471.29
309.222	9473.51
309.288	9461.47
309.354	9440.23
309.419	9437.15
309.485	9429.98
309.551	9429.74
309.616	9415.29
309.682	9410.52
309.748	9402.67
309.813	9396.99
309.879	9391.79
309.945	9383.89
310.01	9379.32
310.076	9386.25
310.141	9385.34
310.207	9371.56
310.273	9374.36
310.338	9369.01
310.404	9354.57
310.469	9343.83
310.535	9338.34
310.601	9320.23
310.666	9323.22
310.732	9335.11
310.797	9321.63
310.863	9305.21
310.928	9298.8
310.994	9305.93
311.059	9297.74
311.125	9290.76
311.191	9305.59
311.256	9289.47
311.322	9295.53
311.387	9275.94
311.453	9636.3
311.518	9611.21
311.584	9605.39
311.649	9610.06
311.715	9606.45
311.78	9604.95
311.846	9594.17
311.911	9599.37
311.976	9592.1
312.042	9579.1
312.107	9566.39
312.173	9557.53
312.238	9550.11
312.304	9547.23
312.369	9536.97
312.434	9525.65
312.5	9524.26
312.565	9489.97
312.631	9498.01
312.696	9486.46
312.761	9487.08
312.827	9112.18
312.892	9156.34
312.958	9152.34
313.023	9146.32
313.088	9149.11
313.154	9139.49
313.219	9129.91
313.284	9118.25
313.35	9117.63
313.415	9107.09
313.48	9102.03
313.546	9102.13
313.611	9116.96
313.676	9104.82
313.741	9093.46
313.807	9100.49
313.872	9096.83
313.937	9101.21
314.003	9109.98
314.068	9113.49
314.133	9118.3
314.198	9114.16
314.264	9085.32
314.329	9078.58
314.394	9076.12
314.459	9063.61
314.525	9081.18
314.59	9077.42
314.655	9063.37
314.72	9074.3
314.785	9078
314.851	9071.02
314.916	9052.39
314.981	9037.08
315.046	9031.88
315.111	9027.74
315.176	9018.55
315.242	9022.93
315.307	9025.58
315.372	9005.11
315.437	8983.98
315.502	8975.41
315.567	8988.03
315.632	8981.04
315.698	8977.72
315.763	8969.3
315.828	8962.22
315.893	8962.22
315.958	8955.53
316.023	8949.8
316.088	8924.87
316.153	8905.61
316.218	8901.67
316.283	8885.4
316.348	8867.98
316.413	8867.59
316.479	8848.82
316.544	8816.96
316.609	8790.05
316.674	8752.17
316.739	8720.32
316.804	8693.22
316.869	8658.19
316.934	8615.11
316.999	8574.54
317.064	8524.5
317.129	8476.76
317.194	8443.61
317.259	8386.68
317.324	8335.73
317.389	8289.74
317.454	8253.6
317.518	8217.76
317.583	8186.77
317.648	8164.11
317.713	8125.44
317.778	8062.22
317.843	8030.23
317.908	7988.05
317.973	7950.29
318.038	7922.34
318.103	7879.73
318.168	7847.46
318.233	7815.24
318.297	7766.67
318.362	7733.2
318.427	7695.07
318.492	7674.06
318.557	7626.61
318.622	7603.86
318.687	7585.6
318.751	7548.2
318.816	7512.19
318.881	7480.61
318.946	7429.21
319.011	7384.27
319.075	7343.99
319.14	7307.08
319.205	7264.4
319.27	7234.56
319.335	7184.77
319.399	7138.59
319.464	7111.77
319.529	7063.73
319.594	7027.83
319.658	6997.76
319.723	6952.84
319.788	6925.94
319.853	6872.37
319.917	6843.41
319.982	6785.95
320.047	6743.83
320.112	6717.8
320.176	6664.82
320.241	6631.06
320.306	6599.7
320.37	6558.26
320.435	6524.7
320.5	6498.48
320.564	6459.45
320.629	6415.14
320.694	6387.92
320.758	6345.78
320.823	6304.07
320.888	6281.08
320.952	6228.43
321.017	6187.82
321.082	6150.11
321.146	6113.3
321.211	6078.94
321.275	6040.04
321.34	5998.55
321.405	5958.25
321.469	5909.42
321.534	5868.9
321.598	5812.35
321.663	5779.39
321.727	5749.22
321.792	5703.04
321.857	5659.93
321.921	5615.43
321.986	5573.73
322.05	5510.7
322.115	5478.3
322.179	5435.16
322.244	5373.96
322.308	5341.56
322.373	5296.61
322.437	5255.12
322.502	5225.15
322.566	5179.64
322.631	5137.96
322.695	5105.72
322.76	5059.89
322.824	5028.75
322.889	4991.79
322.953	4948.51
323.018	4884.58
323.082	4815.5
323.146	4763.43
323.211	4709.29
323.275	4667.84
323.34	4623.81
323.404	4595.4
323.468	4547.25
323.533	4500.89
323.597	4456.89
323.662	4404.12
323.726	4367.71
323.79	4319.03
323.855	4254.96
323.919	4206.76
323.983	4167.11
324.048	4094.33
324.112	4242.49
324.177	4108.17
324.241	3893.03
324.305	3686.56
324.37	3482.37
324.434	3289.14
324.498	3245.91
324.562	3194.75
324.627	3135.28
324.691	3078.04
324.755	3009.24
324.82	2931.14
324.884	2853.71
324.948	2779.88
325.012	2686.39
325.077	2554.46
