Data from 20250704_urea_1.5M_MAYP1162681_11-56-34-545.txt Node
Date: Fri Jul 04 11:56:34 BST 2025
User: adleo
Spectrometer: MAYP116268
Trigger mode: 0
Integration Time (sec): 1.000000E0
Scans to average: 1
Electric dark correction enabled: true
Nonlinearity correction enabled: true
Boxcar width: 10
XAxis mode: Wavelengths
Number of Pixels in Spectrum: 2068
>>>>>Begin Spectral Data<<<<<
179.565	1273.07
179.642	1334.16
179.718	1382.78
179.795	1422.95
179.871	1456.58
179.948	1476.64
180.024	1499.45
180.101	1520.39
180.177	1532.98
180.254	1557.28
180.33	1580.51
180.407	1640.68
180.483	1740.88
180.56	1839.19
180.636	1929.06
180.712	1914.84
180.789	1926.78
180.865	1941.37
180.942	1948.17
181.018	1958.05
181.095	1968.8
181.171	1975.7
181.248	1976.08
181.324	1990.02
181.4	1997.96
181.477	2007.99
181.553	2022.11
181.63	2043.71
181.706	2063.11
181.782	2074.62
181.859	2072.9
181.935	2078.8
182.011	2072.19
182.088	2087.46
182.164	2104.07
182.24	2115.77
182.317	2126.47
182.393	2124.23
182.469	2137.93
182.546	2153.06
182.622	2160.71
182.698	2157.24
182.775	2166
182.851	2183.5
182.927	2175.65
183.003	2171.42
183.08	2168.57
183.156	2175.8
183.232	2169.99
183.308	2158.43
183.385	2167.14
183.461	2188.07
183.537	2190.02
183.613	2207.48
183.69	2202.16
183.766	2190.11
183.842	2199.25
183.918	2204.34
183.995	2218.04
184.071	2221.14
184.147	2216.66
184.223	2203.63
184.299	2217.34
184.375	2206.25
184.452	2211.87
184.528	2265.56
184.604	2273.88
184.68	2286.97
184.756	2294.77
184.832	2299.86
184.908	2305
184.985	2302.76
185.061	2282.73
185.137	2292.68
185.213	2277.6
185.289	2276.17
185.365	2266.61
185.441	2264.89
185.517	2278.18
185.593	2274.61
185.669	2271.51
185.745	2280.7
185.822	2297.06
185.898	2289.06
185.974	2300.96
186.05	2291.29
186.126	2253.79
186.202	2250.08
186.278	2242.99
186.354	2235.94
186.43	2245.37
186.506	2241.9
186.582	2241.23
186.658	2249.41
186.734	2226.86
186.81	2229.38
186.886	2231.85
186.962	2247.31
187.038	2243.18
187.114	2234.94
187.19	2241.74
187.266	2236.51
187.341	2235.27
187.417	2228.14
187.493	2226.71
187.569	2225.76
187.645	2221.95
187.721	2209.67
187.797	2216.19
187.873	2221.71
187.949	2214.95
188.025	2206.24
188.101	2213.33
188.176	2221.47
188.252	2218.42
188.328	2226.98
188.404	2226.51
188.48	2224.7
188.556	2219.23
188.632	2219.66
188.707	2219.7
188.783	2216.09
188.859	2206.86
188.935	2197.53
189.011	2206.86
189.086	2201.39
189.162	2196.49
189.238	2191.35
189.314	2190.59
189.39	2185.07
189.465	2178.31
189.541	2195.16
189.617	2180.5
189.693	2170.71
189.768	2172.47
189.844	2197.31
189.92	2190.27
189.996	2200.36
190.071	2207.93
190.147	2208.88
190.223	2218.44
190.298	2213.88
190.374	2200.89
190.45	2215.4
190.526	2223.53
190.601	2217.68
190.677	2217.58
190.753	2246.25
190.828	2248.82
190.904	2264.62
190.98	2279.51
191.055	2288.22
191.131	2276.18
191.207	2297.16
191.282	2308.25
191.358	2298.92
191.433	2282.78
191.509	2295.15
191.585	2292.77
191.66	2295.43
191.736	2302.1
191.811	2295.15
191.887	2309.57
191.963	2333.65
192.038	2337.94
192.114	2340.22
192.189	2344.31
192.265	2343.6
192.34	2318.32
192.416	2318.41
192.491	2313.98
192.567	2315.98
192.642	2320.93
192.718	2323.79
192.793	2307.75
192.869	2304.94
192.944	2307.61
193.02	2318.32
193.095	2322.7
193.171	2328.74
193.246	2331.84
193.322	2329.12
193.397	2328.5
193.473	2315.74
193.548	2296.47
193.624	2299.04
193.699	2297.9
193.775	2312.37
193.85	2311.85
193.925	2319.94
194.001	2319.56
194.076	2311.61
194.152	2302.99
194.227	2296.04
194.302	2284.96
194.378	2290.48
194.453	2286.53
194.529	2300.23
194.604	2281.34
194.679	2275.91
194.755	2254.22
194.83	2263.08
194.905	2259.94
194.981	2268.08
195.056	2259.27
195.131	2266.98
195.207	2268.74
195.282	2258.27
195.357	2239.95
195.433	2258.41
195.508	2250.51
195.583	2256.93
195.659	2271.41
195.734	2279.26
195.809	2275.83
195.884	2287.01
195.96	2286.16
196.035	2301.19
196.11	2293.96
196.185	2308.52
196.261	2312.66
196.336	2346.21
196.411	2333.17
196.486	2335.74
196.561	2330.36
196.637	2339.16
196.712	2355.59
196.787	2358.63
196.862	2376.01
196.937	2390.52
197.013	2394.14
197.088	2404.8
197.163	2426.66
197.238	2443.53
197.313	2437.91
197.388	2455.62
197.464	2485.24
197.539	2501.57
197.614	2495.33
197.689	2511.38
197.764	2529.48
197.839	2551.77
197.914	2546.24
197.989	2570.01
198.065	2589.01
198.14	2640.67
198.215	2668.1
198.29	2679.97
198.365	2694.02
198.44	2701.88
198.515	2729.85
198.59	2745.48
198.665	2773.45
198.74	2783.55
198.815	2786.41
198.89	2816.28
198.965	2848.32
199.04	2846.37
199.115	2863.52
199.19	2908.83
199.265	2911.17
199.34	2916.08
199.415	2945.31
199.49	2965.8
199.565	2976.57
199.64	3002.46
199.715	2996.16
199.79	3007.8
199.865	3015.19
199.94	3013.76
200.015	3047.56
200.09	3051.38
200.165	3058.53
200.24	3059.48
200.315	3101.62
200.39	3112.16
200.464	3117.79
200.539	3117.93
200.614	3133.52
200.689	3155.37
200.764	3161.62
200.839	3179.07
200.914	3187.98
200.989	3178.63
201.063	3194.18
201.138	3174.59
201.213	3169.53
201.288	3151.13
201.363	3154.51
201.438	3154.56
201.512	3171.06
201.587	3152.12
201.662	3157.46
201.737	3171.25
201.812	3186.56
201.886	3148.71
201.961	3164.89
202.036	3150.68
202.111	3143.57
202.186	3112.12
202.26	3093.61
202.335	3069.62
202.41	3063.9
202.485	3042.88
202.559	3023.61
202.634	2995.34
202.709	3005.44
202.784	2987.38
202.858	2986.52
202.933	2966.59
203.008	2961.2
203.082	2940.66
203.157	2943.37
203.232	2897.53
203.306	2874.12
203.381	2839.88
203.456	2818.39
203.53	2792.58
203.605	2773.95
203.68	2752.07
203.754	2746.5
203.829	2733.02
203.904	2715.72
203.978	2704.71
204.053	2713.19
204.127	2699.71
204.202	2700.33
204.277	2682.28
204.351	2677.18
204.426	2672.32
204.5	2661.32
204.575	2624.79
204.65	2635.37
204.724	2625.36
204.799	2631.64
204.873	2630.4
204.948	2629.07
205.022	2615.12
205.097	2606.25
205.171	2620.21
205.246	2628.45
205.32	2629.35
205.395	2628.54
205.469	2616.12
205.544	2618.5
205.618	2599.83
205.693	2612.55
205.767	2598.5
205.842	2619.27
205.916	2612.7
205.991	2597.98
206.065	2603.65
206.14	2621.26
206.214	2614.02
206.289	2608.3
206.363	2622.35
206.438	2623.11
206.512	2630.35
206.586	2655.74
206.661	2662.17
206.735	2640.22
206.81	2637.7
206.884	2652.08
206.958	2639.7
207.033	2659.88
207.107	2669.46
207.181	2703.97
207.256	2698.92
207.33	2720.45
207.405	2734.18
207.479	2755.05
207.553	2765.29
207.628	2750.81
207.702	2760.96
207.776	2755.72
207.851	2760.72
207.925	2771.78
207.999	2767.78
208.073	2764.58
208.148	2765.06
208.222	2753.34
208.296	2786.53
208.371	2805.13
208.445	2819.62
208.519	2846.2
208.593	2859.79
208.668	2855.5
208.742	2856.64
208.816	2856.31
208.89	2871.23
208.965	2868.51
209.039	2873.33
209.113	2889.96
209.187	2912.49
209.261	2910.15
209.336	2931.27
209.41	2948.34
209.484	2955.82
209.558	2978.99
209.632	2991.62
209.707	3002.49
209.781	3025.8
209.855	3041.11
209.929	3060.63
210.003	3064.26
210.077	3065.54
210.151	3114.19
210.226	3152.02
210.3	3183.67
210.374	3208.7
210.448	3218.15
210.522	3232.03
210.596	3247.15
210.67	3263.42
210.744	3313.96
210.818	3353.54
210.892	3379.36
210.966	3379.36
211.041	3398.68
211.115	3404.31
211.189	3437.38
211.263	3461.43
211.337	3477.23
211.411	3501.91
211.485	3505.44
211.559	3526.39
211.633	3541.8
211.707	3521.88
211.781	3543.96
211.855	3522.37
211.929	3532.92
212.003	3524.23
212.077	3557.86
212.151	3590.34
212.225	3623.53
212.299	3635.38
212.373	3646.7
212.447	3673.89
212.52	3737.86
212.594	3768.39
212.668	3811.14
212.742	3829.82
212.816	3861.07
212.89	3895.86
212.964	3935.49
213.038	3982.73
213.112	4046.85
213.186	4112.85
213.26	4140.56
213.333	4144.68
213.407	4208.54
213.481	4270.91
213.555	4346.8
213.629	4393.22
213.703	4441.84
213.777	4505.93
213.85	4557.76
213.924	4662.18
213.998	4735.74
214.072	4802.62
214.146	4873.25
214.219	4948.82
214.293	5030.61
214.367	5124.13
214.441	5223.93
214.515	5306.09
214.588	5380.48
214.662	5443.18
214.736	5520.6
214.81	5630.95
214.883	5743.24
214.957	5833.05
215.031	5925.78
215.105	6010.17
215.178	6103.97
215.252	6208.68
215.326	6300.45
215.4	6395.19
215.473	6463.67
215.547	6562.22
215.621	6662.72
215.694	6784.26
215.768	6891.72
215.842	7003.36
215.915	7110.97
215.989	7206.23
216.063	7315.5
216.136	7438.18
216.21	7557.91
216.284	7689.51
216.357	7818.96
216.431	7945.88
216.504	8079.49
216.578	8236.56
216.652	8381.58
216.725	8512.26
216.799	8651.16
216.873	8776.86
216.946	8918.35
217.02	9049.93
217.093	9177.22
217.167	9284.34
217.24	9405.45
217.314	9531.99
217.387	9652.08
217.461	9769.97
217.535	9914.46
217.608	10036.71
217.682	10162.77
217.755	10302.08
217.829	10427.63
217.902	10554.49
217.976	10678.45
218.049	10803.25
218.123	10910.76
218.196	11039.32
218.27	11162.69
218.343	11279.08
218.417	11415.41
218.49	11538.02
218.563	11681.07
218.637	11809.18
218.71	11962.25
218.784	12085.4
218.857	12220.8
218.931	12355.13
219.004	12485.85
219.077	12609.4
219.151	12736.66
219.224	12855.05
219.298	12979.22
219.371	13109.08
219.444	13216.44
219.518	13335.99
219.591	13450.28
219.665	13595.96
219.738	13717.39
219.811	13826.72
219.885	13949.6
219.958	14063.22
220.031	14171.97
220.105	14284
220.178	14393.47
220.251	14490.55
220.325	14608.41
220.398	14709.35
220.471	14813.62
220.544	14913.98
220.618	15007.78
220.691	15112.63
220.764	15216.41
220.838	15317.15
220.911	15398.03
220.984	15511.5
221.057	15613.93
221.131	15709.56
221.204	15753.32
221.277	15856.23
221.35	15976.24
221.424	16046.13
221.497	16132.36
221.57	16213.09
221.643	16295.46
221.716	16383.9
221.79	16458.9
221.863	16529.02
221.936	16601.42
222.009	16678.68
222.082	16759.89
222.155	16825.38
222.229	16902.11
222.302	16973.15
222.375	17041.01
222.448	17125.78
222.521	17186.02
222.594	17234.41
222.667	17287.95
222.74	17374.8
222.814	17427.09
222.887	17471.43
222.96	17548.63
223.033	17611.14
223.106	17676.68
223.179	17734.65
223.252	17793.73
223.325	17851.76
223.398	17899.42
223.471	17954.41
223.544	18010.6
223.617	18063.94
223.69	18121.53
223.763	18157.1
223.837	18202.78
223.91	18250.68
223.983	18271.21
224.056	18307.74
224.129	18357.86
224.202	18412.89
224.275	18436.89
224.348	18462.63
224.42	18490.53
224.493	18514.82
224.566	18534.38
224.639	18565.42
224.712	18587.05
224.785	18607.68
224.858	18628.83
224.931	18652.01
225.004	18667.1
225.077	18681.46
225.15	18674.08
225.223	18687.67
225.296	18736.49
225.369	18741.16
225.442	18754.66
225.514	18780.2
225.587	18800.68
225.66	18830.27
225.733	18847.81
225.806	18874.89
225.879	18894.12
225.952	18894.07
226.025	18916.05
226.097	18954.65
226.17	18974.84
226.243	18966.16
226.316	18972.43
226.389	18997
226.461	19023.32
226.534	19046.49
226.607	19067.55
226.68	19105.09
226.753	19125.09
226.825	19103.21
226.898	19150.05
226.971	19157.52
227.044	19174.78
227.117	19184.08
227.189	19187.11
227.262	19201.95
227.335	19220.03
227.407	19216.46
227.48	19231.64
227.553	19239.06
227.626	19233.37
227.698	19232.17
227.771	19249.08
227.844	19247.11
227.916	19246.1
227.989	19238.29
228.062	19240.55
228.134	19259.73
228.207	19272.5
228.28	19264.31
228.352	19268.31
228.425	19256.41
228.498	19261.95
228.57	19240.75
228.643	19258.14
228.716	19264.84
228.788	19252.94
228.861	19239.64
228.934	19254.43
229.006	19254.34
229.079	19253.57
229.151	19243.3
229.224	19224.75
229.296	19228.99
229.369	19257.23
229.442	19260.02
229.514	19243.45
229.587	19248.02
229.659	19215.11
229.732	19200.99
229.804	19212.7
229.877	19240.17
229.949	19248.22
230.022	19268.89
230.094	19285.85
230.167	19280.46
230.239	19256.84
230.312	19260.84
230.384	19277.47
230.457	19274.38
230.529	19276.5
230.602	19272.22
230.674	19272.12
230.747	19283.49
230.819	19289.56
230.892	19247.74
230.964	19252.17
231.037	19250.67
231.109	19237.13
231.181	19247.21
231.254	19230.87
231.326	19218.34
231.399	19211.98
231.471	19186.82
231.544	19147.74
231.616	19139.02
231.688	19120.95
231.761	19107.74
231.833	19089
231.905	19051.17
231.978	19039.51
232.05	19021.73
232.122	19007.36
232.195	18990.31
232.267	18989.34
232.339	18970.4
232.412	18973.25
232.484	18951.27
232.556	18933.15
232.629	18951.22
232.701	18938.74
232.773	18929.49
232.846	18908.91
232.918	18877.2
232.99	18870.36
233.062	18868.43
233.135	18857.11
233.207	18833.01
233.279	18825.26
233.351	18816.58
233.424	18801.98
233.496	18776.63
233.568	18784.68
233.64	18750.9
233.713	18745.94
233.785	18739.09
233.857	18723.82
233.929	18693.65
234.001	18696.35
234.074	18702.28
234.146	18657.8
234.218	18639.48
234.29	18618.95
234.362	18593.03
234.434	18561.75
234.507	18536.16
234.579	18501.47
234.651	18485.52
234.723	18482.53
234.795	18476.79
234.867	18452.41
234.939	18449.66
235.012	18435.78
235.084	18421.71
235.156	18415.45
235.228	18383.84
235.3	18345.77
235.372	18324.71
235.444	18330.3
235.516	18296.66
235.588	18289.58
235.66	18274.25
235.732	18249.24
235.804	18288.66
235.876	18286.39
235.948	18287.02
236.02	18261.53
236.092	18240.71
236.164	18216.52
236.236	18184.42
236.308	18155.7
236.38	18140.09
236.452	18115.56
236.524	18092.28
236.596	18087.61
236.668	18072.38
236.74	18048.52
236.812	18037.54
236.884	18028.62
236.956	17998.36
237.028	17955.56
237.1	17913.73
237.172	17906.65
237.244	17898.94
237.316	17835.18
237.388	17810.17
237.46	17787.14
237.532	17778.75
237.604	17764.1
237.675	17755.04
237.747	17739.67
237.819	17716.73
237.891	17691.19
237.963	17660.15
238.035	17639.91
238.107	17572.44
238.178	17564.2
238.25	17547.62
238.322	17544.87
238.394	17495.91
238.466	17471.91
238.538	17458.99
238.609	17448.25
238.681	17397.6
238.753	17367.09
238.825	17354.27
238.897	17334.8
238.968	17317.65
239.04	17286.13
239.112	17288.49
239.184	17246.56
239.255	17223.48
239.327	17199.76
239.399	17176.44
239.471	17159.19
239.542	17136.34
239.614	17132.73
239.686	17076.97
239.758	17063.91
239.829	17022.75
239.901	17018.7
239.973	16990.17
240.044	16976.19
240.116	16936.19
240.188	16921.15
240.259	16893.97
240.331	16859.8
240.403	16833.97
240.474	16798.4
240.546	16758.4
240.618	16706.25
240.689	16679.36
240.761	16659.07
240.833	16650.01
240.904	16621.09
240.976	16593.62
241.048	16572.6
241.119	16547.11
241.191	16532.99
241.262	16513.71
241.334	16474.04
241.405	16446.86
241.477	16414.09
241.549	16377.6
241.62	16359.96
241.692	16338.22
241.763	16321.4
241.835	16293.55
241.906	16272.15
241.978	16224.48
242.049	16211.66
242.121	16189.05
242.192	16175.03
242.264	16133.86
242.335	16096.75
242.407	16082.44
242.478	16051.78
242.55	16029.47
242.621	15999.2
242.693	15970.66
242.764	15938.71
242.836	15919.04
242.907	15893.79
242.979	15882.94
243.05	15862.65
243.122	15843.37
243.193	15808.33
243.264	15757
243.336	15720.94
243.407	15698
243.479	15692.02
243.55	15669.9
243.622	15652.98
243.693	15628.11
243.764	15613.7
243.836	15567.23
243.907	15537.01
243.978	15506.45
244.05	15486.83
244.121	15443.55
244.192	15427.16
244.264	15380.69
244.335	15355.19
244.407	15302.12
244.478	15270.69
244.549	15239.84
244.62	15196.9
244.692	15173.33
244.763	15161.76
244.834	15131.15
244.906	15091.38
244.977	15074.75
245.048	15064.19
245.119	15025.73
245.191	14983.12
245.262	14940.26
245.333	14930.86
245.405	14906.43
245.476	14885.31
245.547	14851.09
245.618	14828.62
245.689	14799.61
245.761	14781.14
245.832	14752.17
245.903	14745.52
245.974	14721.47
246.045	14689.85
246.117	14681.75
246.188	14633.73
246.259	14592.23
246.33	14568.13
246.401	14546.19
246.473	14497.89
246.544	14466.8
246.615	14447.28
246.686	14419.32
246.757	14409.78
246.828	14377.67
246.899	14365.57
246.97	14322.62
247.042	14290.08
247.113	14280.1
247.184	14271.14
247.255	14247.8
247.326	14224.95
247.397	14191.93
247.468	14161.52
247.539	14140.06
247.61	14100.2
247.681	14096.82
247.752	14085.01
247.823	14047.94
247.894	14025.72
247.965	13988.46
248.037	13950.18
248.108	13907.18
248.179	13880.57
248.25	13849.14
248.321	13836.08
248.392	13796.6
248.463	13796.93
248.534	13762.9
248.605	13740.68
248.675	13712.28
248.746	13689.14
248.817	13669.52
248.888	13654.34
248.959	13615.77
249.03	13601.84
249.101	13577.06
249.172	13541.49
249.243	13494.73
249.314	13488.84
249.385	13461.8
249.456	13456.88
249.527	13435.82
249.598	13418.37
249.669	13394.46
249.739	13376.62
249.81	13350.78
249.881	13310.34
249.952	13289.13
250.023	13271.63
250.094	13224.05
250.165	13195.46
250.235	13158.29
250.306	13130.24
250.377	13096.2
250.448	13080.29
250.519	13031.75
250.59	13024.57
250.66	13005.82
250.731	13007.6
250.802	12981.91
250.873	12964.41
250.944	12944.11
251.014	12917.12
251.085	12924.2
251.156	12910.32
251.227	12898.65
251.297	12887.9
251.368	12884.19
251.439	12869.83
251.51	12869.15
251.58	12846.3
251.651	12813.04
251.722	12819.6
251.792	12782
251.863	12762.52
251.934	12753.8
252.005	12766.19
252.075	12741.75
252.146	12729.94
252.217	12716.92
252.287	12709.45
252.358	12688.96
252.429	12684.19
252.499	12658.4
252.57	12630.92
252.641	12627.26
252.711	12603.83
252.782	12568.59
252.852	12560.06
252.923	12536.63
252.994	12504.38
253.064	12501.25
253.135	12471.36
253.205	12435.89
253.276	12438.87
253.347	12436.27
253.417	12419.16
253.488	12390.48
253.558	12370.14
253.629	12348.25
253.699	12336.54
253.77	12325.64
253.841	12299.37
253.911	12278.5
253.982	12263.99
254.052	12258.26
254.123	12233.86
254.193	12218.25
254.264	12238.15
254.334	12208.41
254.405	12178.19
254.475	12151.25
254.546	12127.96
254.616	12130.23
254.687	12121.26
254.757	12107.19
254.827	12082.22
254.898	12061.49
254.968	12048.96
255.039	12019.32
255.109	12009.53
255.18	11978.25
255.25	11935.02
255.321	11928.8
255.391	11896.7
255.461	11899.97
255.532	11848.93
255.602	11832.88
255.673	11788.68
255.743	11758.12
255.813	11717.25
255.884	11713.05
255.954	11707.08
256.024	11709.78
256.095	11692.04
256.165	11659.36
256.235	11656.04
256.306	11628.32
256.376	11623.94
256.446	11609.96
256.517	11601.43
256.587	11593.09
256.657	11579.98
256.728	11565.62
256.798	11543.11
256.868	11521.08
256.938	11493.66
257.009	11492.41
257.079	11472.89
257.149	11490
257.219	11450.04
257.29	11442.43
257.36	11398.86
257.43	11391
257.5	11353.31
257.571	11328.83
257.641	11318.18
257.711	11276.73
257.781	11268.39
257.852	11258.95
257.922	11218.85
257.992	11203
258.062	11187.38
258.132	11176.15
258.202	11156.97
258.273	11137.55
258.343	11140.68
258.413	11115.91
258.483	11098.9
258.553	11071.43
258.623	11042.56
258.693	11028.78
258.764	11030.08
258.834	11034.32
258.904	11015.09
258.974	10992.73
259.044	10969.7
259.114	10959
259.184	10944.21
259.254	10925.13
259.324	10881.9
259.394	10873.23
259.464	10872.17
259.535	10853.66
259.605	10827.16
259.675	10799.55
259.745	10791.21
259.815	10762.01
259.885	10737.05
259.955	10743.41
260.025	10719.37
260.095	10705.59
260.165	10701.64
260.235	10699.61
260.305	10674.46
260.375	10651.48
260.445	10660.05
260.515	10667.62
260.585	10669.5
260.655	10658.37
260.725	10656.82
260.795	10655.48
260.865	10660.63
260.934	10635.24
261.004	10618.81
261.074	10606.42
261.144	10611.67
261.214	10612.4
261.284	10601.89
261.354	10600.5
261.424	10581.37
261.494	10590.33
261.564	10570.86
261.634	10565.27
261.703	10530.68
261.773	10529.18
261.843	10521.52
261.913	10498.49
261.983	10460.77
262.053	10445.83
262.123	10427.04
262.192	10396.01
262.262	10389.37
262.332	10353.86
262.402	10344.37
262.472	10329.09
262.541	10302.6
262.611	10303.51
262.681	10274.46
262.751	10269.93
262.821	10256.2
262.89	10226.62
262.96	10215.44
263.03	10226.19
263.1	10208.7
263.169	10190.78
263.239	10178.01
263.309	10180.9
263.379	10179.36
263.448	10169.39
263.518	10158.69
263.588	10146.7
263.657	10148.72
263.727	10148.05
263.797	10144.34
263.867	10131.62
263.936	10105.32
264.006	10106.38
264.076	10085.57
264.145	10070.06
264.215	10042.5
264.285	10029.79
264.354	9993.62
264.424	9970.98
264.494	9937.83
264.563	9916.69
264.633	9929.35
264.702	9924.68
264.772	9895.97
264.842	9866.35
264.911	9861.82
264.981	9833.01
265.05	9818.9
265.12	9802.86
265.19	9781.62
265.259	9772.13
265.329	9759.36
265.398	9746.99
265.468	9759.41
265.537	9735
265.607	9732.35
265.676	9734.13
265.746	9731.62
265.815	9731.09
265.885	9717.08
265.955	9695.36
266.024	9680.09
266.094	9647.87
266.163	9647.82
266.232	9643.54
266.302	9636.36
266.371	9623.79
266.441	9617.58
266.51	9614.21
266.58	9604.96
266.649	9590.17
266.719	9591.28
266.788	9588.25
266.858	9598.94
266.927	9557.18
266.996	9557.76
267.066	9544.37
267.135	9518.61
267.205	9514.08
267.274	9511.77
267.343	9518.99
267.413	9506.33
267.482	9507.92
267.552	9507.82
267.621	9473
267.69	9446.18
267.76	9436.84
267.829	9428.94
267.898	9416.81
267.968	9395.67
268.037	9391.29
268.106	9384.11
268.176	9360.9
268.245	9349.39
268.314	9332.34
268.384	9335.04
268.453	9319.58
268.522	9311.78
268.592	9315.44
268.661	9297
268.73	9285.64
268.799	9260.69
268.869	9268.01
268.938	9246.2
269.007	9234.02
269.076	9227.66
269.146	9229.49
269.215	9224.68
269.284	9240.42
269.353	9223.91
269.422	9215.97
269.492	9196.42
269.561	9161.13
269.63	9159.59
269.699	9143.41
269.768	9135.37
269.838	9131.71
269.907	9131.76
269.976	9109.23
270.045	9073.7
270.114	9065.76
270.183	9056.66
270.253	9051.84
270.322	9023.2
270.391	9010.06
270.46	9013.53
270.529	9012.8
270.598	9008.37
270.667	8990.42
270.736	8965.28
270.806	8959.8
270.875	8957.39
270.944	8945.5
271.013	8967.35
271.082	8956.96
271.151	8950.75
271.22	8924.85
271.289	8912.43
271.358	8901.21
271.427	8901.74
271.496	8901.31
271.565	8888.31
271.634	8878.2
271.703	8906.56
271.772	8911.9
271.841	8906.51
271.91	8881.87
271.979	8874.84
272.048	8851.73
272.117	8854.96
272.186	8835.41
272.255	8838.88
272.324	8842.73
272.393	8839.94
272.462	8820.63
272.531	8811.54
272.6	8804.12
272.669	8811.53
272.738	8793.29
272.807	8789.44
272.876	8765.43
272.945	8791.8
273.013	8798.26
273.082	8802.44
273.151	8754.01
273.22	8748.62
273.289	8739.57
273.358	8745.3
273.427	8732.6
273.496	8733.41
273.564	8729.23
273.633	8732.31
273.702	8714.06
273.771	8704.48
273.84	8700.39
273.909	8699.34
273.977	8700.54
274.046	8688.99
274.115	8694.33
274.184	8681.29
274.253	8671.71
274.322	8686.58
274.39	8650.73
274.459	8632.82
274.528	8607.17
274.597	8604.67
274.665	8603.13
274.734	8612.27
274.803	8606.64
274.872	8602.84
274.94	8593.5
275.009	8654.08
275.078	8643.06
275.147	8637.04
275.215	8631.17
275.284	8638.34
275.353	8627.85
275.421	8596.81
275.49	8617.84
275.559	8598.21
275.627	8596.09
275.696	8583.05
275.765	8580.93
275.833	8575.02
275.902	8581.18
275.971	8589.36
276.039	8602.49
276.108	8606.15
276.177	8604.61
276.245	8592.2
276.314	8582.72
276.383	8590.46
276.451	8523.2
276.52	8522.43
276.588	8537.35
276.657	8543.17
276.725	8534.46
276.794	8536.48
276.863	8553.9
276.931	8528.15
277	8542.2
277.068	8556.49
277.137	8582.53
277.205	8580.12
277.274	8600.77
277.342	8603.51
277.411	8590.42
277.48	8578.2
277.548	8571.6
277.617	8572.66
277.685	8570.26
277.754	8581.66
277.822	8569.1
277.89	8584.41
277.959	8582.29
278.027	8566.7
278.096	8552.89
278.164	8575.6
278.233	8568.63
278.301	8556.74
278.37	8564.63
278.438	8549.09
278.507	8550.77
278.575	8522.72
278.643	8519.11
278.712	8496.54
278.78	8481.77
278.849	8493.17
278.917	8504.62
278.985	8497.79
279.054	8499.67
279.122	8507.37
279.191	8500.72
279.259	8503.85
279.327	8478.73
279.396	8495.43
279.464	8489.8
279.532	8496.68
279.601	8493.89
279.669	8491.87
279.737	8505.39
279.806	8503.32
279.874	8513.28
279.942	8503.8
280.011	8508.61
280.079	8509.86
280.147	8531.42
280.215	8540.95
280.284	8540.08
280.352	8523.72
280.42	8533.2
280.488	8519.2
280.557	8514
280.625	8518.57
280.693	8516.07
280.761	8524.92
280.83	8503.41
280.898	8511.21
280.966	8493.12
281.034	8462.31
281.102	8448.27
281.171	8439.56
281.239	8449.76
281.307	8442.06
281.375	8434.22
281.443	8451.69
281.512	8453.42
281.58	8460.88
281.648	8442.64
281.716	8436.72
281.784	8438.26
281.852	8431.19
281.92	8433.59
281.989	8448.37
282.057	8432.15
282.125	8474.32
282.193	8467.44
282.261	8470.9
282.329	8468.83
282.397	8476.24
282.465	8478.26
282.533	8495.05
282.601	8488.37
282.67	8465.75
282.738	8463.15
282.806	8476.96
282.874	8466.8
282.942	8468.2
283.01	8459.2
283.078	8466.75
283.146	8464.78
283.214	8473.49
283.282	8475.27
283.35	8487.54
283.418	8476.96
283.486	8484.12
283.554	8439.17
283.622	8443.26
283.69	8442.87
283.758	8437.82
283.826	8442.39
283.894	8458.51
283.962	8480.61
284.03	8494.32
284.098	8494.8
284.165	8485.08
284.233	8483.16
284.301	8479.02
284.369	8467.61
284.437	8463.19
284.505	8458.28
284.573	8474.01
284.641	8465.59
284.709	8473
284.777	8450.92
284.845	8458.47
284.912	8462.85
284.98	8470.12
285.048	8458.76
285.116	8464.29
285.184	8478.92
285.252	8479.21
285.319	8455.78
285.387	8444.56
285.455	8425.22
285.523	8435.85
285.591	8436.48
285.659	8440.86
285.726	8453.56
285.794	8443.65
285.862	8439.37
285.93	8440.33
285.997	8441.87
286.065	8432.63
286.133	8423.68
286.201	8429.46
286.269	8416.7
286.336	8410.16
286.404	8405.3
286.472	8421.18
286.539	8397.56
286.607	8382.69
286.675	8385.14
286.743	8395.92
286.81	8387.83
286.878	8404
286.946	8395.19
287.013	8395.53
287.081	8391.73
287.149	8372.58
287.216	8393.55
287.284	8394.13
287.352	8393.94
287.419	8382.1
287.487	8403.71
287.555	8408.47
287.622	8402.79
287.69	8409.63
287.758	8423.05
287.825	8418.24
287.893	8405.25
287.96	8415.74
288.028	8420.55
288.096	8420.02
288.163	8424.54
288.231	8409
288.298	8413.96
288.366	8434.7
288.433	8433.06
288.501	8429.02
288.569	8433.5
288.636	8433.93
288.704	8448.17
288.771	8458.81
288.839	8451.69
288.906	8441.73
288.974	8450.48
289.041	8453.18
289.109	8441.34
289.176	8442.35
289.244	8447.4
289.311	8457.85
289.379	8469.68
289.446	8476.61
289.514	8475.17
289.581	8475.27
289.649	8487.29
289.716	8487.92
289.783	8471.12
289.851	8487.24
289.918	8481.95
289.986	8491.19
290.053	8491.19
290.121	8483.01
290.188	8490.37
290.255	8519.53
290.323	8513.42
290.39	8509.81
290.458	8515.73
290.525	8528.48
290.592	8527.9
290.66	8531.9
290.727	8529.68
290.794	8542.39
290.862	8542.53
290.929	8547.01
290.996	8545.61
291.064	8548.93
291.131	8554.42
291.198	8569.24
291.266	8574.54
291.333	8578.96
291.4	8582.77
291.468	8599.9
291.535	8593.55
291.602	8597.21
291.669	8593.84
291.737	8601.25
291.804	8603.65
291.871	8624.06
291.938	8635.23
292.006	8659.78
292.073	8672.29
292.14	8684.32
292.207	8676.43
292.275	8676.19
292.342	8682.49
292.409	8712.67
292.476	8737.32
292.543	8735.49
292.611	8738.71
292.678	8754.98
292.745	8784.39
292.812	8802.78
292.879	8798.88
292.946	8807.78
293.014	8816.35
293.081	8824.1
293.148	8837.14
293.215	8851.05
293.282	8832.62
293.349	8842.39
293.416	8825.01
293.484	8841.43
293.551	8849.75
293.618	8873.77
293.685	8906.07
293.752	8904.39
293.819	8893.75
293.886	8885.76
293.953	8888.84
294.02	8901.93
294.087	8902.8
294.154	8896.68
294.221	8908.14
294.288	8910.98
294.356	8933.17
294.423	8939.29
294.49	8930.43
294.557	8946.56
294.624	8941.46
294.691	8969.13
294.758	8967.64
294.825	8976.11
294.892	8970.67
294.959	8975.68
295.026	8975.97
295.093	8965.71
295.16	8966.19
295.226	8976.25
295.293	9000.9
295.36	9019.1
295.427	9024.16
295.494	9039.71
295.561	9050.54
295.628	9070.38
295.695	9080.73
295.762	9078.13
295.829	9085.55
295.896	9105.52
295.963	9112.12
296.03	9120.83
296.096	9129.64
296.163	9140.76
296.23	9158
296.297	9166.38
296.364	9159.64
296.431	9171.58
296.498	9167.73
296.564	9196.76
296.631	9194.73
296.698	9180.34
296.765	9188.67
296.832	9184.86
296.899	9170.27
296.965	9180.43
297.032	9160.5
297.099	9179.23
297.166	9195.45
297.233	9193
297.299	9189.63
297.366	9189.77
297.433	9188.62
297.5	9198.54
297.566	9202.68
297.633	9202.15
297.7	9203.45
297.767	9203.78
297.833	9207.3
297.9	9213.8
297.967	9193.92
298.033	9215.01
298.1	9250.59
298.167	9248.09
298.234	9249.15
298.3	9262.77
298.367	9261.18
298.434	9271.68
298.5	9262
298.567	9257.91
298.634	9262.05
298.7	9277.84
298.767	9280.25
298.834	9299.22
298.9	9290.12
298.967	9287.04
299.033	9296.62
299.1	9313.91
299.167	9332.2
299.233	9323.92
299.3	9341.21
299.366	9359.98
299.433	9368.8
299.5	9334.08
299.566	9342.98
299.633	9362.58
299.699	9375.58
299.766	9373.08
299.832	9372.74
299.899	9384.45
299.965	9388.97
300.032	9386.28
300.099	9389.79
300.165	9401.78
300.232	9398.27
300.298	9400.48
300.365	9407.7
300.431	9408.18
300.498	9401.78
300.564	9409.82
300.631	9423.21
300.697	9432.46
300.763	9434.53
300.83	9430.05
300.896	9450.17
300.963	9457.2
301.029	9458.79
301.096	9459.56
301.162	9475.99
301.229	9476.71
301.295	9467.89
301.361	9481.76
301.428	9487.64
301.494	9473
301.561	9470.93
301.627	9472.42
301.693	9475.6
301.76	9480.99
301.826	9474.3
301.892	9488.94
301.959	9492.99
302.025	9490.87
302.092	9487.69
302.158	9497.85
302.224	9501.22
302.291	9490.63
302.357	9481.38
302.423	9476.95
302.49	9471.22
302.556	9480.9
302.622	9480.8
302.688	9492.46
302.755	9495.39
302.821	9501.41
302.887	9512.3
302.954	9514.41
303.02	9521.25
303.086	9528.19
303.152	9523.13
303.219	9521.45
303.285	9527.32
303.351	9538.69
303.417	9539.99
303.483	9530.65
303.55	9518.66
303.616	9518.85
303.682	9513.21
303.748	9508.4
303.815	9525.26
303.881	9536.24
303.947	9524.2
304.013	9524
304.079	9520.05
304.145	9502.52
304.212	9501.51
304.278	9500.26
304.344	9492.17
304.41	9476.81
304.476	9465.93
304.542	9465.35
304.608	9471.75
304.674	9450.9
304.741	9441.61
304.807	9441.65
304.873	9442.33
304.939	9464.43
305.005	9452.01
305.071	9454.94
305.137	9455.52
305.203	9426.53
305.269	9424.8
305.335	9432.94
305.401	9428.94
305.467	9424.65
305.533	9432.26
305.599	9441.17
305.666	9450.22
305.732	9456.44
305.798	9472.04
305.864	9499.87
305.93	9507.53
305.996	9509.89
306.062	9512.83
306.128	9506.18
306.194	9501.66
306.259	9507.58
306.325	9493.37
306.391	9497.08
306.457	9505.8
306.523	9510.51
306.589	9540.18
306.655	9532.47
306.721	9514.37
306.787	9506.86
306.853	9519.09
306.919	9505.08
306.985	9496.89
307.051	9486.78
307.117	9478.2
307.183	9472.81
307.248	9444.59
307.314	9443.1
307.38	9443.67
307.446	9448.68
307.512	9439.82
307.578	9441.99
307.644	9432.12
307.709	9436.98
307.775	9435.3
307.841	9433.51
307.907	9434.28
307.973	9409.24
308.039	9407.75
308.104	9421.67
308.17	9424.31
308.236	9405.29
308.302	9409.82
308.368	9400.24
308.433	9397.73
308.499	9391.91
308.565	9381.65
308.631	9389.79
308.696	9365.57
308.762	9351.94
308.828	9346.02
308.894	9330.66
308.959	9305.96
309.025	9304.18
309.091	9300.66
309.156	9293.87
309.222	9293.15
309.288	9278.51
309.354	9257.38
309.419	9256.75
309.485	9238.4
309.551	9237.87
309.616	9226.13
309.682	9220.2
309.748	9219.53
309.813	9219.43
309.879	9207.06
309.945	9197.29
310.01	9187.66
310.076	9197
310.141	9190.74
310.207	9181.69
310.273	9185.87
310.338	9196.22
310.404	9177.59
310.469	9155.97
310.535	9146.25
310.601	9128.1
310.666	9138.98
310.732	9155.78
310.797	9137.53
310.863	9126.27
310.928	9122.08
310.994	9129.88
311.059	9130.16
311.125	9125.74
311.191	9132.57
311.256	9125.59
311.322	9125.93
311.387	9099.4
311.453	9485.69
311.518	9460.94
311.584	9458.97
311.649	9465.9
311.715	9454.59
311.78	9455.94
311.846	9451.36
311.911	9455.26
311.976	9451.51
312.042	9433.89
312.107	9412.51
312.173	9403.56
312.238	9391.43
312.304	9378.77
312.369	9365.38
312.434	9356.62
312.5	9342.47
312.565	9308.43
312.631	9311.51
312.696	9302.27
312.761	9306.02
312.827	8910.59
312.892	8950.89
312.958	8947.57
313.023	8944.15
313.088	8940.58
313.154	8930.09
313.219	8926.34
313.284	8920.37
313.35	8919.21
313.415	8908.38
313.48	8902.7
313.546	8905.93
313.611	8924.36
313.676	8914.3
313.741	8904.1
313.807	8906.99
313.872	8906.51
313.937	8911.61
314.003	8927.06
314.068	8934.14
314.133	8942.22
314.198	8931.59
314.264	8913.82
314.329	8905.92
314.394	8905.35
314.459	8901.74
314.525	8918.68
314.59	8914.11
314.655	8897.98
314.72	8900.24
314.785	8902.75
314.851	8901.35
314.916	8886.48
314.981	8867.8
315.046	8862.94
315.111	8858.13
315.176	8840.99
315.242	8851.05
315.307	8856.15
315.372	8829.34
315.437	8816.3
315.502	8808.11
315.567	8821.16
315.632	8804.07
315.698	8803.3
315.763	8796.32
315.828	8792.47
315.893	8789.19
315.958	8787.08
316.023	8780.1
316.088	8764.74
316.153	8743.42
316.218	8737.7
316.283	8719.65
316.348	8706.71
316.413	8710.32
316.479	8692.27
316.544	8664.32
316.609	8628.94
316.674	8587.51
316.739	8555.85
316.804	8527.32
316.869	8496.28
316.934	8453.06
316.999	8427.13
317.064	8375.74
317.129	8329.06
317.194	8291.77
317.259	8247.36
317.324	8193.05
317.389	8148.69
317.454	8109
317.518	8077.16
317.583	8052.38
317.648	8031.46
317.713	7991.15
317.778	7930.21
317.843	7901.01
317.908	7867.49
317.973	7832.67
318.038	7809.64
318.103	7773.53
318.168	7744.82
318.233	7716.21
318.297	7666.68
318.362	7627.68
318.427	7589.66
318.492	7563.07
318.557	7516.49
318.622	7482.93
318.687	7463.75
318.751	7423.43
318.816	7394.15
318.881	7360.12
318.946	7306.43
319.011	7262.88
319.075	7226.17
319.14	7194.88
319.205	7153.7
319.27	7122.66
319.335	7079.65
319.399	7034.73
319.464	7009.89
319.529	6954.88
319.594	6914.42
319.658	6883.44
319.723	6842.94
319.788	6818.11
319.853	6768.1
319.917	6739.29
319.982	6688.95
320.047	6651.78
320.112	6629.07
320.176	6578.5
320.241	6549.11
320.306	6518
320.37	6480.02
320.435	6451.35
320.5	6419.91
320.564	6383.38
320.629	6341.76
320.694	6312.14
320.758	6277.16
320.823	6234.49
320.888	6205.22
320.952	6155.31
321.017	6123.45
321.082	6083.63
321.146	6046.92
321.211	6011.94
321.275	5973.42
321.34	5929.59
321.405	5885.07
321.469	5840.71
321.534	5799.8
321.598	5745.13
321.663	5717.21
321.727	5683.12
321.792	5636.22
321.857	5594.5
321.921	5555.81
321.986	5512.19
322.05	5455.92
322.115	5415.08
322.179	5369.99
322.244	5319.68
322.308	5288.73
322.373	5242.1
322.437	5199.51
322.502	5174.15
322.566	5129.36
322.631	5092.47
322.695	5054.55
322.76	5011.02
322.824	4975.05
322.889	4934.59
322.953	4892.32
323.018	4826.15
323.082	4761.58
323.146	4707.93
323.211	4658.29
323.275	4611.53
323.34	4568.18
323.404	4533.11
323.468	4488.66
323.533	4449.1
323.597	4404.2
323.662	4353.06
323.726	4314.93
323.79	4273.32
323.855	4205.24
323.919	4160.29
323.983	4114.15
324.048	4048.93
324.112	4210.02
324.177	4082.06
324.241	3872.19
324.305	3666.61
324.37	3464.68
324.434	3272.21
324.498	3231.12
324.562	3178.79
324.627	3121.7
324.691	3066.57
324.755	3000.79
324.82	2926.98
324.884	2849.65
324.948	2779.56
325.012	2685.83
325.077	2564.48
