Data from 20250704_urea_0.5M_MAYP1162681_11-13-03-725.txt Node
Date: Fri Jul 04 11:13:03 BST 2025
User: adleo
Spectrometer: MAYP116268
Trigger mode: 0
Integration Time (sec): 1.000000E0
Scans to average: 1
Electric dark correction enabled: true
Nonlinearity correction enabled: true
Boxcar width: 10
XAxis mode: Wavelengths
Number of Pixels in Spectrum: 2068
>>>>>Begin Spectral Data<<<<<
179.565	1230.64
179.642	1289.15
179.718	1330.13
179.795	1373.18
179.871	1406.56
179.948	1424.85
180.024	1447.45
180.101	1473.8
180.177	1489.18
180.254	1512.76
180.33	1534.09
180.407	1589.55
180.483	1685.42
180.56	1779.35
180.636	1865.71
180.712	1852.78
180.789	1860.1
180.865	1875.12
180.942	1885
181.018	1897.84
181.095	1911.01
181.171	1917.95
181.248	1918.91
181.324	1936.31
181.4	1942.97
181.477	1954.81
181.553	1968.16
181.63	1989.99
181.706	2004.07
181.782	2012.06
181.859	2010.63
181.935	2017.05
182.011	2014.67
182.088	2036.08
182.164	2054.11
182.24	2067.23
182.317	2078.97
182.393	2077.83
182.469	2089.25
182.546	2102.09
182.622	2106.08
182.698	2098.52
182.775	2111.46
182.851	2123.73
182.927	2118.4
183.003	2113.27
183.08	2108.46
183.156	2118.59
183.232	2112.55
183.308	2102.14
183.385	2110.7
183.461	2131.91
183.537	2132.67
183.613	2144.18
183.69	2131.39
183.766	2119.97
183.842	2128.53
183.918	2134.19
183.995	2148.03
184.071	2154.17
184.147	2149.7
184.223	2137.15
184.299	2152.85
184.375	2139.91
184.452	2150.28
184.528	2199.39
184.604	2211.42
184.68	2220.55
184.756	2229.6
184.832	2235.59
184.908	2239.92
184.985	2238.68
185.061	2218.94
185.137	2230.5
185.213	2219.08
185.289	2221.13
185.365	2213.95
185.441	2211.52
185.517	2223.52
185.593	2221.09
185.669	2216.81
185.745	2227.51
185.822	2245.63
185.898	2233.64
185.974	2242.25
186.05	2231.97
186.126	2198.52
186.202	2192.91
186.278	2193.71
186.354	2182.67
186.43	2188.86
186.506	2184.68
186.582	2186.06
186.658	2192.62
186.734	2169.6
186.81	2173.88
186.886	2176.83
186.962	2190
187.038	2189.05
187.114	2182.24
187.19	2189.76
187.266	2178.58
187.341	2180.63
187.417	2175.02
187.493	2176.11
187.569	2179.16
187.645	2172.83
187.721	2160.36
187.797	2165.02
187.873	2166.74
187.949	2160.79
188.025	2154.84
188.101	2160.12
188.176	2164.12
188.252	2160.6
188.328	2168.16
188.404	2167.02
188.48	2162.16
188.556	2159.98
188.632	2158.5
188.707	2160.21
188.783	2159.17
188.859	2155.7
188.935	2144.04
189.011	2150.84
189.086	2148.51
189.162	2140.38
189.238	2139.47
189.314	2135.33
189.39	2129.91
189.465	2122.01
189.541	2137.95
189.617	2123.4
189.693	2117.64
189.768	2121.73
189.844	2147.1
189.92	2139.25
189.996	2149.67
190.071	2162.9
190.147	2158.71
190.223	2168.09
190.298	2161.52
190.374	2145.49
190.45	2157.76
190.526	2165.99
190.601	2158.19
190.677	2157.95
190.753	2187.37
190.828	2189.46
190.904	2206.3
190.98	2222.29
191.055	2233.05
191.131	2225.67
191.207	2246.7
191.282	2257.07
191.358	2246.98
191.433	2234.98
191.509	2249.3
191.585	2245.21
191.66	2245.3
191.736	2255.39
191.811	2245.82
191.887	2261.1
191.963	2286.99
192.038	2289.42
192.114	2288.99
192.189	2295.13
192.265	2290.56
192.34	2264.42
192.416	2267.13
192.491	2262.99
192.567	2262.76
192.642	2264.61
192.718	2264.8
192.793	2251.72
192.869	2248.96
192.944	2253.28
193.02	2260.81
193.095	2267.04
193.171	2270.51
193.246	2267.66
193.322	2261.8
193.397	2261.76
193.473	2245
193.548	2227.15
193.624	2236.67
193.699	2236.58
193.775	2253.29
193.85	2256.76
193.925	2268.08
194.001	2265.85
194.076	2257.57
194.152	2249.29
194.227	2241.96
194.302	2231.21
194.378	2234.87
194.453	2233.02
194.529	2244.25
194.604	2227.78
194.679	2219.6
194.755	2201.95
194.83	2215.47
194.905	2210.09
194.981	2222.42
195.056	2217.9
195.131	2223.13
195.207	2221.8
195.282	2212.38
195.357	2191.82
195.433	2206.95
195.508	2195.43
195.583	2200.81
195.659	2213.47
195.734	2217.85
195.809	2218.27
195.884	2230.55
195.96	2231.83
196.035	2245.92
196.11	2242.92
196.185	2256.43
196.261	2257.15
196.336	2289.55
196.411	2274.98
196.486	2283.64
196.561	2275.6
196.637	2282.36
196.712	2301.3
196.787	2305.35
196.862	2317.06
196.937	2329.48
197.013	2333.9
197.088	2344.8
197.163	2370.32
197.238	2388.52
197.313	2391.71
197.388	2407.23
197.464	2439.37
197.539	2449.7
197.614	2445.23
197.689	2454.99
197.764	2471.56
197.839	2496.22
197.914	2489.89
197.989	2514.93
198.065	2528.55
198.14	2577.2
198.215	2602.29
198.29	2609.63
198.365	2621.35
198.44	2632.06
198.515	2658.88
198.59	2673.65
198.665	2699.18
198.74	2705.47
198.815	2708.57
198.89	2732.62
198.965	2763.99
199.04	2756.31
199.115	2773.41
199.19	2812.05
199.265	2817.58
199.34	2823.01
199.415	2858.54
199.49	2880.83
199.565	2888.98
199.64	2913.91
199.715	2912.71
199.79	2923.77
199.865	2932.02
199.94	2931.54
200.015	2966.91
200.09	2971.92
200.165	2981.69
200.24	2990.04
200.315	3030.98
200.39	3046.62
200.464	3054.29
200.539	3051.72
200.614	3070.41
200.689	3093.87
200.764	3102.45
200.839	3119.85
200.914	3127.67
200.989	3115.17
201.063	3128.85
201.138	3110.99
201.213	3110.56
201.288	3092.53
201.363	3096.06
201.438	3095.97
201.512	3110.31
201.587	3093.62
201.662	3098.96
201.737	3108.31
201.812	3115.6
201.886	3081.15
201.961	3091.17
202.036	3076.87
202.111	3074.77
202.186	3044.55
202.26	3026.43
202.335	3006.16
202.41	2999.92
202.485	2985.23
202.559	2964.36
202.634	2938.61
202.709	2949
202.784	2929.69
202.858	2927.41
202.933	2908.63
203.008	2899.9
203.082	2878.17
203.157	2877.94
203.232	2835.29
203.306	2816.99
203.381	2783.19
203.456	2759.94
203.53	2735.9
203.605	2712.94
203.68	2690.02
203.754	2682.12
203.829	2665.53
203.904	2641.15
203.978	2629.33
204.053	2632.66
204.127	2622.42
204.202	2622.95
204.277	2605.37
204.351	2597.99
204.426	2592.27
204.5	2585.41
204.575	2555.18
204.65	2566.47
204.724	2555.32
204.799	2559.31
204.873	2553.22
204.948	2554.55
205.022	2544.6
205.097	2537.45
205.171	2554.3
205.246	2562.79
205.32	2560.79
205.395	2563.79
205.469	2556.7
205.544	2559.41
205.618	2539.93
205.693	2552.17
205.767	2539.32
205.842	2561.94
205.916	2556.75
205.991	2546.56
206.065	2553.13
206.14	2568.65
206.214	2566.74
206.289	2562.84
206.363	2581.27
206.438	2583.93
206.512	2589.94
206.586	2608.36
206.661	2615.89
206.735	2590.95
206.81	2592.33
206.884	2612
206.958	2599.76
207.033	2617.33
207.107	2629.1
207.181	2665.36
207.256	2661.17
207.33	2682.75
207.405	2701.73
207.479	2729.27
207.553	2743.03
207.628	2733.41
207.702	2752.47
207.776	2754.23
207.851	2764.95
207.925	2787.5
207.999	2795.03
208.073	2807.37
208.148	2824.58
208.222	2827.06
208.296	2881.42
208.371	2914.19
208.445	2941.51
208.519	2988.79
208.593	3023.88
208.668	3046.68
208.742	3073.07
208.816	3102.92
208.89	3148.68
208.965	3178.57
209.039	3218.14
209.113	3272.3
209.187	3331.77
209.261	3369.27
209.336	3434.62
209.41	3505.28
209.484	3552.85
209.558	3628.45
209.632	3698.89
209.707	3768.5
209.781	3853.68
209.855	3936.43
209.929	4025.55
210.003	4105.39
210.077	4186.91
210.151	4315.74
210.226	4435.2
210.3	4554.57
210.374	4672.36
210.448	4769.69
210.522	4874.23
210.596	4986.92
210.67	5103.46
210.744	5260.96
210.818	5411.25
210.892	5547.39
210.966	5661.96
211.041	5806.24
211.115	5935.15
211.189	6091.36
211.263	6243.26
211.337	6391.51
211.411	6547.27
211.485	6687.43
211.559	6854.78
211.633	7010.99
211.707	7130.32
211.781	7290.79
211.855	7418.52
211.929	7573.52
212.003	7723.43
212.077	7909.03
212.151	8088.96
212.225	8270.06
212.299	8431.76
212.373	8589.29
212.447	8758.89
212.52	8972.74
212.594	9158.23
212.668	9354.31
212.742	9526.93
212.816	9707.85
212.89	9884.68
212.964	10071.19
213.038	10267.5
213.112	10468.3
213.186	10672.46
213.26	10857.41
213.333	11012.47
213.407	11208.62
213.481	11401.89
213.555	11609.96
213.629	11797.5
213.703	11977.56
213.777	12170.93
213.85	12354.38
213.924	12584.77
213.998	12785.05
214.072	12969.58
214.146	13147.54
214.219	13335.97
214.293	13516.59
214.367	13705.31
214.441	13914.95
214.515	14089.55
214.588	14252
214.662	14399.74
214.736	14561.95
214.81	14743.1
214.883	14920.83
214.957	15082.7
215.031	15245.67
215.105	15387.24
215.178	15532.18
215.252	15697.37
215.326	15836.57
215.4	15973.32
215.473	16091.79
215.547	16233.44
215.621	16375.18
215.694	16537.56
215.768	16664.84
215.842	16805.24
215.915	16938.36
215.989	17057.97
216.063	17193.93
216.136	17339.42
216.21	17474.03
216.284	17624.44
216.357	17758.99
216.431	17892.58
216.504	18034.8
216.578	18196.29
216.652	18339.85
216.725	18461.63
216.799	18589.48
216.873	18707.4
216.946	18834.24
217.02	18948.84
217.093	19066.86
217.167	19165.45
217.24	19268.48
217.314	19377.83
217.387	19480.04
217.461	19578.44
217.535	19693.67
217.608	19784.8
217.682	19873.37
217.755	19987.68
217.829	20069.9
217.902	20160.31
217.976	20260.4
218.049	20339.63
218.123	20405.99
218.196	20489.7
218.27	20579.78
218.343	20655.2
218.417	20748.46
218.49	20832.94
218.563	20924.95
218.637	21011.8
218.71	21104.19
218.784	21178.75
218.857	21268.16
218.931	21340.84
219.004	21423.4
219.077	21496.43
219.151	21565.83
219.224	21628.64
219.298	21683.39
219.371	21758.54
219.444	21816.29
219.518	21875.19
219.591	21935.2
219.665	22016.81
219.738	22083.72
219.811	22124.35
219.885	22192.9
219.958	22262.18
220.031	22310.58
220.105	22361.58
220.178	22396.68
220.251	22439.68
220.325	22485.77
220.398	22523.18
220.471	22582.19
220.544	22625.77
220.618	22662.51
220.691	22713.33
220.764	22758.88
220.838	22808.11
220.911	22840.9
220.984	22894.07
221.057	22931.59
221.131	22975.17
221.204	22981.82
221.277	23025.36
221.35	23088.24
221.424	23105.55
221.497	23125.56
221.57	23152.32
221.643	23185.88
221.716	23221.95
221.79	23230.63
221.863	23255.75
221.936	23281.35
222.009	23286.17
222.082	23317.28
222.155	23324.46
222.229	23342.35
222.302	23355.76
222.375	23360.82
222.448	23379.96
222.521	23391.63
222.594	23401.09
222.667	23393.85
222.74	23408.37
222.814	23411.45
222.887	23415.7
222.96	23432.53
223.033	23445.4
223.106	23446.75
223.179	23462.09
223.252	23467.64
223.325	23479.69
223.398	23476.75
223.471	23471.49
223.544	23484.51
223.617	23473.32
223.69	23471.06
223.763	23456.59
223.837	23458.91
223.91	23466.57
223.983	23445.02
224.056	23425.05
224.129	23425.2
224.202	23436.68
224.275	23424.67
224.348	23402.29
224.42	23382.91
224.493	23354.41
224.566	23332.95
224.639	23334.4
224.712	23303.73
224.785	23278.36
224.858	23261.05
224.931	23240.8
225.004	23215.63
225.077	23196.97
225.15	23162.35
225.223	23147.11
225.296	23161.19
225.369	23127.73
225.442	23101.4
225.514	23081.29
225.587	23076.67
225.66	23055.35
225.733	23045.42
225.806	23039.87
225.879	23026.23
225.952	22994.07
226.025	22988.19
226.097	22996.67
226.17	22978.11
226.243	22945.42
226.316	22930.14
226.389	22913.45
226.461	22912.54
226.534	22906.08
226.607	22894.79
226.68	22900.97
226.753	22891.47
226.825	22846.96
226.898	22838.67
226.971	22821.41
227.044	22813.79
227.117	22796.68
227.189	22781.63
227.262	22759.55
227.335	22741.66
227.407	22714.52
227.48	22702.95
227.553	22685.74
227.626	22652.04
227.698	22635.31
227.771	22625.86
227.844	22599.73
227.916	22577.74
227.989	22534.45
228.062	22503.02
228.134	22495.5
228.207	22467.25
228.28	22436.1
228.352	22417.16
228.425	22403.51
228.498	22389.92
228.57	22365.77
228.643	22348.6
228.716	22322.43
228.788	22286.42
228.861	22250.41
228.934	22245.34
229.006	22218.2
229.079	22190.39
229.151	22152.54
229.224	22109.06
229.296	22084.87
229.369	22091.9
229.442	22088.96
229.514	22058.5
229.587	22063.51
229.659	22016.75
229.732	21991.49
229.804	21977.71
229.877	21977.61
229.949	21958.91
230.022	21955.73
230.094	21923.72
230.167	21900.15
230.239	21856.57
230.312	21834.5
230.384	21843.03
230.457	21820.23
230.529	21796.76
230.602	21765.91
230.674	21743.98
230.747	21734.1
230.819	21712.55
230.892	21645.98
230.964	21610.65
231.037	21592.72
231.109	21550.11
231.181	21527.27
231.254	21492.32
231.326	21458.1
231.399	21412.4
231.471	21385.32
231.544	21328.25
231.616	21307.09
231.688	21286.75
231.761	21266.12
231.833	21234.21
231.905	21173.39
231.978	21148.27
232.05	21114.78
232.122	21089.91
232.195	21056.32
232.267	21033.33
232.339	20998.62
232.412	20994.62
232.484	20958.38
232.556	20921.95
232.629	20920.98
232.701	20903.63
232.773	20876.74
232.846	20837.17
232.918	20806.9
232.99	20772.06
233.062	20747.05
233.135	20721.89
233.207	20675.67
233.279	20649.84
233.351	20627.57
233.424	20587.86
233.496	20532.54
233.568	20528.92
233.64	20486.18
233.713	20460.01
233.785	20428.01
233.857	20398.22
233.929	20340.1
234.001	20325.16
234.074	20319.28
234.146	20255.52
234.218	20226.32
234.29	20187.57
234.362	20152.54
234.434	20114.42
234.507	20073.12
234.579	20028.4
234.651	19985.8
234.723	19962.18
234.795	19938.52
234.867	19897.17
234.939	19883.68
235.012	19864.64
235.084	19836.74
235.156	19811.3
235.228	19762.91
235.3	19719.3
235.372	19691.45
235.444	19685.42
235.516	19629.28
235.588	19591.26
235.66	19565.23
235.732	19513.19
235.804	19542.68
235.876	19519.12
235.948	19497.43
236.02	19454.49
236.092	19418.64
236.164	19391.03
236.236	19342.16
236.308	19302.7
236.38	19278.79
236.452	19239.71
236.524	19204
236.596	19180.68
236.668	19163.38
236.74	19130.85
236.812	19098.85
236.884	19074.18
236.956	19029.03
237.028	18992.55
237.1	18945.71
237.172	18931.78
237.244	18916.89
237.316	18842.29
237.388	18807.06
237.46	18764.37
237.532	18756.8
237.604	18720.8
237.675	18702.83
237.747	18678.06
237.819	18636.38
237.891	18599.12
237.963	18556.14
238.035	18520.19
238.107	18444.39
238.178	18411.47
238.25	18381.64
238.322	18378.7
238.394	18320.58
238.466	18276.92
238.538	18246.13
238.609	18221.17
238.681	18168.54
238.753	18127.68
238.825	18090.52
238.897	18056.89
238.968	18046.28
239.04	18006.33
239.112	17997.95
239.184	17944.79
239.255	17905.71
239.327	17871.64
239.399	17835.45
239.471	17811.69
239.542	17787.01
239.614	17769.04
239.686	17707.79
239.758	17685.57
239.829	17637.57
239.901	17618.25
239.973	17586.78
240.044	17559.5
240.116	17524.32
240.188	17474.78
240.259	17445.57
240.331	17410.2
240.403	17376.71
240.474	17322.54
240.546	17274.73
240.618	17223.07
240.689	17197.09
240.761	17170.39
240.833	17156.8
240.904	17123.11
240.976	17081.28
241.048	17040.99
241.119	17020.31
241.191	17002.82
241.262	16982.53
241.334	16949.37
241.405	16910.67
241.477	16873.61
241.549	16840.07
241.62	16808.21
241.692	16787.39
241.763	16761.85
241.835	16726.04
241.906	16694.18
241.978	16651.19
242.049	16635.62
242.121	16612.2
242.192	16582.32
242.264	16527.95
242.335	16475.27
242.407	16452.42
242.478	16417.34
242.55	16391.5
242.621	16339.84
242.693	16297.42
242.764	16261.52
242.836	16215.15
242.907	16194.86
242.979	16167.58
243.05	16136.3
243.122	16113.84
243.193	16085.02
243.264	16024.57
243.336	15996.23
243.407	15967.31
243.479	15953.38
243.55	15921.19
243.622	15896.66
243.693	15867.54
243.764	15867.4
243.836	15822.47
243.907	15785.89
243.978	15750.66
244.05	15724.63
244.121	15681.92
244.192	15667.22
244.264	15615.55
244.335	15592.85
244.407	15537.8
244.478	15519.2
244.549	15489.84
244.62	15441.35
244.692	15409.78
244.763	15395.13
244.834	15353.58
244.906	15321.04
244.977	15290.58
245.048	15271.54
245.119	15223.09
245.191	15177.74
245.262	15114.59
245.333	15106.97
245.405	15084.03
245.476	15064.7
245.547	15034.91
245.618	15013.99
245.689	14983
245.761	14963.47
245.832	14930.5
245.903	14916.19
245.974	14886.54
246.045	14847.01
246.117	14833.13
246.188	14783.43
246.259	14739.95
246.33	14712.57
246.401	14677.86
246.473	14634.24
246.544	14598.71
246.615	14586.76
246.686	14559.96
246.757	14548.48
246.828	14510.88
246.899	14495.51
246.97	14445.76
247.042	14405.27
247.113	14392.54
247.184	14387.87
247.255	14352.43
247.326	14327.8
247.397	14295.26
247.468	14262.15
247.539	14244.94
247.61	14196.3
247.681	14185.69
247.752	14173.16
247.823	14139.94
247.894	14115.74
247.965	14079.69
248.037	14039.58
248.108	13995.42
248.179	13971.8
248.25	13944.76
248.321	13923.59
248.392	13879.39
248.463	13885.66
248.534	13858.32
248.605	13842.8
248.675	13804.67
248.746	13781.48
248.817	13763.07
248.888	13744.17
248.959	13705.75
249.03	13683.67
249.101	13666.22
249.172	13638.65
249.243	13587.98
249.314	13583.4
249.385	13569.18
249.456	13554.19
249.527	13536.11
249.598	13515.62
249.669	13491.57
249.739	13473.78
249.81	13453.05
249.881	13419.07
249.952	13394.09
250.023	13378.19
250.094	13324.1
250.165	13286.45
250.235	13265.77
250.306	13230.24
250.377	13193.99
250.448	13176.2
250.519	13127.71
250.59	13128.24
250.66	13101.53
250.731	13101.43
250.802	13071.55
250.873	13043.73
250.944	13025.17
251.014	12987.23
251.085	12990.41
251.156	12971.13
251.227	12958.5
251.297	12950.07
251.368	12938.21
251.439	12923.75
251.51	12916.61
251.58	12891.5
251.651	12861.95
251.722	12850.95
251.792	12815.38
251.863	12791.86
251.934	12788.96
252.005	12792.34
252.075	12762.35
252.146	12747.41
252.217	12740.13
252.287	12729.28
252.358	12707.79
252.429	12703.35
252.499	12685.71
252.57	12664.35
252.641	12650.28
252.711	12630.75
252.782	12591.37
252.852	12591.95
252.923	12564.04
252.994	12529.28
253.064	12522.34
253.135	12499.01
253.205	12475.73
253.276	12475.63
253.347	12473.41
253.417	12444.06
253.488	12424.1
253.558	12397.64
253.629	12372.81
253.699	12352.42
253.77	12334.54
253.841	12315.35
253.911	12300.31
253.982	12286.05
254.052	12272.11
254.123	12251.63
254.193	12228.44
254.264	12250.76
254.334	12215.23
254.405	12183.52
254.475	12162.65
254.546	12142.06
254.616	12133.63
254.687	12116.23
254.757	12093.14
254.827	12068.41
254.898	12048.5
254.968	12031.25
255.039	12007.97
255.109	11999.72
255.18	11969.36
255.25	11934.27
255.321	11919.66
255.391	11880.91
255.461	11883.51
255.532	11839.89
255.602	11818.3
255.673	11777.38
255.743	11740.69
255.813	11702.09
255.884	11699.1
255.954	11686.76
256.024	11685.8
256.095	11678.08
256.165	11648.44
256.235	11644.06
256.306	11625.45
256.376	11623.91
256.446	11603.86
256.517	11593.64
256.587	11585.74
256.657	11570.46
256.728	11555.04
256.798	11535.37
256.868	11516.14
256.938	11489.73
257.009	11488.04
257.079	11473.97
257.149	11488.28
257.219	11457.97
257.29	11444.86
257.36	11407.17
257.43	11402.88
257.5	11362.98
257.571	11332.66
257.641	11323.79
257.711	11293.38
257.781	11285.29
257.852	11270.59
257.922	11237.96
257.992	11212.32
258.062	11193.04
258.132	11187.6
258.202	11165.14
258.273	11154.68
258.343	11151.74
258.413	11125.33
258.483	11098.73
258.553	11070.15
258.623	11039.41
258.693	11021.38
258.764	11027.21
258.834	11027.41
258.904	11002.25
258.974	10982.01
259.044	10969.24
259.114	10959.27
259.184	10947.56
259.254	10920.96
259.324	10883.18
259.394	10879.8
259.464	10889.06
259.535	10878.84
259.605	10855.18
259.675	10830.94
259.745	10819.81
259.815	10794.51
259.885	10773.5
259.955	10790.03
260.025	10768.01
260.095	10747.39
260.165	10737.61
260.235	10735.39
260.305	10708.79
260.375	10683.26
260.445	10681.52
260.515	10678.44
260.585	10663.55
260.655	10648.95
260.725	10648.42
260.795	10636.95
260.865	10640.76
260.934	10610.35
261.004	10594.26
261.074	10579.71
261.144	10582.74
261.214	10575.56
261.284	10561.11
261.354	10554.8
261.424	10527.52
261.494	10538.41
261.564	10532.29
261.634	10529.88
261.703	10487.14
261.773	10484.2
261.843	10475.05
261.913	10470.38
261.983	10436.03
262.053	10434.68
262.123	10412.08
262.192	10380.96
262.262	10380.33
262.332	10349.55
262.402	10335.86
262.472	10318.81
262.541	10275.74
262.611	10276.61
262.681	10246.79
262.751	10245.39
262.821	10223.62
262.89	10191.53
262.96	10179.58
263.03	10181.27
263.1	10166.62
263.169	10158.67
263.239	10152.51
263.309	10159.97
263.379	10145.43
263.448	10139.64
263.518	10119.65
263.588	10109.44
263.657	10117.82
263.727	10113
263.797	10098.21
263.867	10089.25
263.936	10064.11
264.006	10071.91
264.076	10054.13
264.145	10041.47
264.215	10011.31
264.285	10008.9
264.354	9986.51
264.424	9964.88
264.494	9928.85
264.563	9907.55
264.633	9920.42
264.702	9909.38
264.772	9872.87
264.842	9855.82
264.911	9848.98
264.981	9825.76
265.05	9809.1
265.12	9790.7
265.19	9780.48
265.259	9780.82
265.329	9777.21
265.398	9769.41
265.468	9777.64
265.537	9757.56
265.607	9760.16
265.676	9767.34
265.746	9766.04
265.815	9767.14
265.885	9758.19
265.955	9739.93
266.024	9724.33
266.094	9683.63
266.163	9679.78
266.232	9687.77
266.302	9670.82
266.371	9661.67
266.441	9649.53
266.51	9652.04
266.58	9636.87
266.649	9612.11
266.719	9609.75
266.788	9603.63
266.858	9609.12
266.927	9572.77
266.996	9559.38
267.066	9544.02
267.135	9516.13
267.205	9512.42
267.274	9499.52
267.343	9500.34
267.413	9496.05
267.482	9501.49
267.552	9508.19
267.621	9480.25
267.69	9449.63
267.76	9449.43
267.829	9436.43
267.898	9429.07
267.968	9406.19
268.037	9403.02
268.106	9405.66
268.176	9374.36
268.245	9354.95
268.314	9332.47
268.384	9342.1
268.453	9339.35
268.522	9330.73
268.592	9330.73
268.661	9308.1
268.73	9298.85
268.799	9272.03
268.869	9278.97
268.938	9248.97
269.007	9232.17
269.076	9219.74
269.146	9224.56
269.215	9210.55
269.284	9223.65
269.353	9205.3
269.422	9198.42
269.492	9180.22
269.561	9137.42
269.63	9139.49
269.699	9124.71
269.768	9117.77
269.838	9107.95
269.907	9102.46
269.976	9078.97
270.045	9048.31
270.114	9044.98
270.183	9034.15
270.253	9023.71
270.322	8996.31
270.391	8987.89
270.46	8989.33
270.529	8993.14
270.598	8985.67
270.667	8979.46
270.736	8954.23
270.806	8951.97
270.875	8951.1
270.944	8938.88
271.013	8965.02
271.082	8954.95
271.151	8951.87
271.22	8927.71
271.289	8915.96
271.358	8906.19
271.427	8903.78
271.496	8900.22
271.565	8884.63
271.634	8882.32
271.703	8915.97
271.772	8912.55
271.841	8904.08
271.91	8882.95
271.979	8873.46
272.048	8850.46
272.117	8848.14
272.186	8833.17
272.255	8831.63
272.324	8831.1
272.393	8824.46
272.462	8808.82
272.531	8801.55
272.6	8787.01
272.669	8795.29
272.738	8787.4
272.807	8782.34
272.876	8761.94
272.945	8790.48
273.013	8794.52
273.082	8791.49
273.151	8748.02
273.22	8750.04
273.289	8746.48
273.358	8758.95
273.427	8750.19
273.496	8751.05
273.564	8751.63
273.633	8752.54
273.702	8739.98
273.771	8721.6
273.84	8722.99
273.909	8717.5
273.977	8716.25
274.046	8713.7
274.115	8715.39
274.184	8699.41
274.253	8693.06
274.322	8706.87
274.39	8673.03
274.459	8660.28
274.528	8633.13
274.597	8625.58
274.665	8618.26
274.734	8628.95
274.803	8609.46
274.872	8599.97
274.94	8588.33
275.009	8638.79
275.078	8627.53
275.147	8620.56
275.215	8624.55
275.284	8631.53
275.353	8624.07
275.421	8599.14
275.49	8614.4
275.559	8606.22
275.627	8603.52
275.696	8591.83
275.765	8587.4
275.833	8583.55
275.902	8581.53
275.971	8597.75
276.039	8608.91
276.108	8610.88
276.177	8601.35
276.245	8596.45
276.314	8590.48
276.383	8596.4
276.451	8533.13
276.52	8536.16
276.588	8551.9
276.657	8554.4
276.725	8541.7
276.794	8540.93
276.863	8554.54
276.931	8528.41
277	8534.67
277.068	8540.92
277.137	8562.05
277.205	8562.05
277.274	8577.5
277.342	8587.22
277.411	8571.63
277.48	8561.09
277.548	8550.12
277.617	8549.11
277.685	8545.16
277.754	8555.36
277.822	8548.19
277.89	8561.62
277.959	8555.94
278.027	8529.57
278.096	8522.45
278.164	8550.13
278.233	8541.51
278.301	8532.46
278.37	8537.37
278.438	8524.96
278.507	8529.24
278.575	8504.5
278.643	8496.85
278.712	8483.76
278.78	8468.03
278.849	8474.66
278.917	8488.04
278.985	8487.75
279.054	8494.64
279.122	8507.63
279.191	8506.57
279.259	8506.09
279.327	8481.64
279.396	8493.77
279.464	8494.35
279.532	8501.37
279.601	8495.4
279.669	8487.32
279.737	8504.26
279.806	8506.09
279.874	8510.32
279.942	8507.15
280.011	8499.74
280.079	8508.78
280.147	8520.91
280.215	8528.18
280.284	8530.92
280.352	8516.77
280.42	8531.59
280.488	8523.12
280.557	8512.2
280.625	8511.38
280.693	8510.9
280.761	8518.6
280.83	8503.78
280.898	8517.2
280.966	8495.5
281.034	8461.14
281.102	8457.58
281.171	8445.79
281.239	8458.11
281.307	8455.75
281.375	8447.48
281.443	8479.38
281.512	8475.77
281.58	8479.67
281.648	8464.61
281.716	8452.92
281.784	8453.25
281.852	8442.67
281.92	8439.97
281.989	8449.45
282.057	8435.98
282.125	8477.08
282.193	8472.7
282.261	8475.3
282.329	8466.93
282.397	8469.91
282.465	8477.95
282.533	8491.85
282.601	8486.32
282.67	8462.83
282.738	8454.41
282.806	8460.48
282.874	8441.66
282.942	8447.91
283.01	8443.44
283.078	8450.46
283.146	8456.33
283.214	8459.94
283.282	8464.08
283.35	8472.65
283.418	8465
283.486	8472.26
283.554	8432.07
283.622	8431.64
283.69	8427.98
283.758	8422.83
283.826	8432.26
283.894	8445.21
283.962	8460.94
284.03	8468.64
284.098	8471.53
284.165	8466.82
284.233	8469.13
284.301	8463.3
284.369	8451.99
284.437	8441.07
284.505	8434.48
284.573	8450.07
284.641	8447.09
284.709	8450.94
284.777	8434.09
284.845	8440.01
284.912	8442.47
284.98	8447.14
285.048	8446.65
285.116	8458.3
285.184	8478.08
285.252	8475.09
285.319	8456.18
285.387	8447.23
285.455	8436.69
285.523	8441.94
285.591	8443.28
285.659	8445.59
285.726	8456.52
285.794	8446.17
285.862	8445.79
285.93	8447.76
285.997	8435.63
286.065	8426.54
286.133	8416.58
286.201	8416.63
286.269	8409.07
286.336	8400.94
286.404	8392.42
286.472	8398.68
286.539	8369.76
286.607	8351.48
286.675	8354.99
286.743	8367.16
286.81	8366.87
286.878	8383.04
286.946	8376.88
287.013	8377.65
287.081	8374.77
287.149	8363.41
287.216	8378.57
287.284	8374.14
287.352	8376.55
287.419	8376.88
287.487	8397
287.555	8400.41
287.622	8397
287.69	8401.57
287.758	8417.21
287.825	8417.78
287.893	8402.63
287.96	8419.32
288.028	8433.28
288.096	8439.72
288.163	8439.15
288.231	8422.3
288.298	8414.32
288.366	8430.73
288.433	8424.23
288.501	8420.14
288.569	8426.4
288.636	8426.83
288.704	8441.41
288.771	8447.95
288.839	8442.23
288.906	8437.8
288.974	8449.3
289.041	8450.99
289.109	8444.06
289.176	8448.39
289.244	8450.94
289.311	8462.54
289.379	8462.01
289.446	8461.33
289.514	8457.15
289.581	8459.46
289.649	8466.62
289.716	8471.2
289.783	8464.17
289.851	8487.7
289.918	8488.9
289.986	8496.17
290.053	8498.19
290.121	8491.21
290.188	8490.78
290.255	8520.04
290.323	8509.55
290.39	8504.11
290.458	8517.1
290.525	8523.16
290.592	8516.52
290.66	8520.18
290.727	8527.01
290.794	8548.09
290.862	8549.44
290.929	8549.44
290.996	8545.93
291.064	8556.95
291.131	8566.19
291.198	8575.09
291.266	8572.73
291.333	8572.16
291.4	8578.12
291.468	8593.67
291.535	8595.79
291.602	8601.18
291.669	8590.97
291.737	8599.54
291.804	8601.03
291.871	8609.84
291.938	8627.45
292.006	8656.09
292.073	8669.33
292.14	8671.49
292.207	8661.19
292.275	8664.56
292.342	8677.17
292.409	8706.87
292.476	8729.54
292.543	8727.86
292.611	8730.26
292.678	8749.95
292.745	8776.37
292.812	8786.48
292.879	8783.88
292.946	8791.82
293.014	8810.64
293.081	8820.08
293.148	8829.75
293.215	8843.61
293.282	8840.29
293.349	8846.55
293.416	8831.48
293.484	8842.99
293.551	8858.25
293.618	8882.84
293.685	8902.96
293.752	8898.29
293.819	8890.98
293.886	8872.4
293.953	8876.73
294.02	8891.22
294.087	8894.15
294.154	8886.64
294.221	8900.9
294.288	8904.22
294.356	8918.46
294.423	8919.81
294.49	8916.49
294.557	8931.89
294.624	8920.68
294.691	8941.09
294.758	8942.15
294.825	8948.6
294.892	8942.82
294.959	8942
295.026	8940.51
295.093	8937.91
295.16	8943.21
295.226	8949.13
295.293	8983.55
295.36	8993.95
295.427	8998.62
295.494	9013.25
295.561	9019.75
295.628	9042.87
295.695	9058.18
295.762	9062.46
295.829	9074.35
295.896	9085.71
295.963	9096.11
296.03	9111.52
296.096	9115.51
296.163	9127.17
296.23	9145.08
296.297	9160.24
296.364	9162.02
296.431	9172.33
296.498	9170.5
296.564	9194.52
296.631	9190.86
296.698	9172.42
296.765	9191.1
296.832	9186.62
296.899	9171.5
296.965	9192.78
297.032	9170.73
297.099	9188.4
297.166	9201.79
297.233	9193.75
297.299	9188.93
297.366	9190.66
297.433	9193.99
297.5	9207.66
297.566	9206.84
297.633	9199.76
297.7	9202.32
297.767	9199.33
297.833	9203.18
297.9	9208.33
297.967	9192.06
298.033	9212.62
298.1	9240.93
298.167	9231.02
298.234	9235.3
298.3	9246.09
298.367	9238.43
298.434	9246.86
298.5	9235.2
298.567	9229.62
298.634	9232.36
298.7	9249.45
298.767	9248.15
298.834	9259.28
298.9	9254.65
298.967	9249.02
299.033	9263.37
299.1	9280.27
299.167	9295.97
299.233	9296.35
299.3	9308.39
299.366	9322.78
299.433	9339.25
299.5	9313.25
299.566	9316.67
299.633	9338.2
299.699	9346.38
299.766	9351.82
299.832	9359.91
299.899	9367.86
299.965	9377.2
300.032	9379.03
300.099	9386.06
300.165	9397.14
300.232	9397.04
300.298	9396.65
300.365	9413.17
300.431	9419.48
300.498	9413.89
300.564	9422.22
300.631	9433.44
300.697	9449
300.763	9447.65
300.83	9441.34
300.896	9463.1
300.963	9475.05
301.029	9473.99
301.096	9481.26
301.162	9488.87
301.229	9482.27
301.295	9468.16
301.361	9476.54
301.428	9478.56
301.494	9466.33
301.561	9467.97
301.627	9472.88
301.693	9473.07
301.76	9477.12
301.826	9461.03
301.892	9470.57
301.959	9475.19
302.025	9472.74
302.092	9465.51
302.158	9474.23
302.224	9476.73
302.291	9462.43
302.357	9458.58
302.423	9450.92
302.49	9449.24
302.556	9462.53
302.622	9458.72
302.688	9473.6
302.755	9484.68
302.821	9489.21
302.887	9496.09
302.954	9486.08
303.02	9485.55
303.086	9492
303.152	9482.18
303.219	9486.56
303.285	9491.57
303.351	9499.56
303.417	9501.05
303.483	9495.03
303.55	9489.45
303.616	9493.4
303.682	9496
303.748	9492.48
303.815	9510.69
303.881	9507.46
303.947	9490.32
304.013	9498.21
304.079	9490.89
304.145	9472.64
304.212	9471.82
304.278	9465.71
304.344	9468.16
304.41	9459.35
304.476	9452.51
304.542	9451.5
304.608	9455.93
304.674	9437.34
304.741	9425.93
304.807	9427.52
304.873	9428.43
304.939	9448.71
305.005	9424.34
305.071	9421.69
305.137	9420.58
305.203	9392.17
305.269	9394.72
305.335	9411.15
305.401	9406.62
305.467	9410.47
305.533	9415.77
305.599	9428.53
305.666	9438.98
305.732	9439.65
305.798	9455.88
305.864	9486.9
305.93	9495.23
305.996	9495.66
306.062	9496.87
306.128	9498.17
306.194	9485.55
306.259	9490.56
306.325	9475.58
306.391	9487.04
306.457	9497.97
306.523	9501.15
306.589	9527.35
306.655	9524.07
306.721	9502.31
306.787	9492.87
306.853	9506.79
306.919	9494.31
306.985	9483.82
307.051	9476.01
307.117	9469.61
307.183	9467.15
307.248	9428.1
307.314	9430.51
307.38	9430.79
307.446	9443.17
307.512	9429.74
307.578	9432.19
307.644	9419.53
307.709	9422.03
307.775	9419
307.841	9412.74
307.907	9414.57
307.973	9391.55
308.039	9389
308.104	9392.46
308.17	9387.07
308.236	9369.59
308.302	9367.95
308.368	9354.71
308.433	9358.85
308.499	9354.52
308.565	9337.57
308.631	9348.45
308.696	9319.85
308.762	9308.68
308.828	9298.85
308.894	9285.08
308.959	9265.39
309.025	9261.73
309.091	9252.78
309.156	9240.45
309.222	9242.42
309.288	9231.2
309.354	9210.79
309.419	9206.22
309.485	9194.23
309.551	9196.3
309.616	9180.17
309.682	9174.58
309.748	9172.9
309.813	9165.29
309.879	9154.26
309.945	9145.07
310.01	9137.75
310.076	9152.1
310.141	9144.54
310.207	9127.59
310.273	9129.9
310.338	9136.54
310.404	9124.27
310.469	9114.49
310.535	9106.26
310.601	9083.1
310.666	9087.34
310.732	9097.16
310.797	9089.12
310.863	9079.83
310.928	9076.94
310.994	9084.84
311.059	9088.3
311.125	9079.01
311.191	9092.06
311.256	9085.61
311.322	9092.83
311.387	9066.64
311.453	9394.32
311.518	9370.3
311.584	9369.58
311.649	9378.92
311.715	9368.76
311.78	9367.75
311.846	9360.77
311.911	9366.64
311.976	9367.94
312.042	9345.7
312.107	9332.17
312.173	9319.08
312.238	9309.79
312.304	9307.48
312.369	9294.29
312.434	9282.35
312.5	9281.58
312.565	9243.69
312.631	9259.33
312.696	9247.3
312.761	9254.18
312.827	8912.35
312.892	8949.37
312.958	8944.8
313.023	8935.17
313.088	8934.69
313.154	8923.52
313.219	8919.81
313.284	8907.25
313.35	8903.83
313.415	8899.35
313.48	8894.73
313.546	8900.03
313.611	8916.44
313.676	8907.2
313.741	8896.95
313.807	8903.35
313.872	8906.34
313.937	8908.89
314.003	8908.69
314.068	8916.44
314.133	8921.59
314.198	8904.36
314.264	8883.76
314.329	8876.87
314.394	8873.55
314.459	8865.32
314.525	8884.14
314.59	8875.43
314.655	8869.89
314.72	8874.23
314.785	8872.78
314.851	8868.88
314.916	8844.43
314.981	8822.15
315.046	8811.41
315.111	8803.76
315.176	8791.92
315.242	8790.43
315.307	8791.87
315.372	8769.92
315.437	8752.54
315.502	8741.66
315.567	8757.79
315.632	8737.62
315.698	8740.8
315.763	8731.65
315.828	8723.09
315.893	8719.57
315.958	8715.82
316.023	8701.14
316.088	8681.94
316.153	8663.12
316.218	8655.56
316.283	8646.9
316.348	8637.28
316.413	8630.88
316.479	8613.75
316.544	8578.19
316.609	8547.87
316.674	8514.43
316.739	8480.03
316.804	8452.31
316.869	8423.39
316.934	8383.45
316.999	8361.46
317.064	8310.03
317.129	8268.51
317.194	8237.04
317.259	8187.67
317.324	8141.01
317.389	8102.67
317.454	8065.1
317.518	8033.6
317.583	8009.35
317.648	7983.76
317.713	7947.35
317.778	7888
317.843	7866.46
317.908	7834.77
317.973	7794.85
318.038	7762.87
318.103	7726.28
318.168	7696.18
318.233	7665.89
318.297	7617.85
318.362	7585.73
318.427	7550.3
318.492	7531.07
318.557	7483.39
318.622	7454.93
318.687	7433.39
318.751	7392.93
318.816	7359.09
318.881	7325.3
318.946	7271.37
319.011	7227.01
319.075	7184.34
319.14	7156.09
319.205	7107.64
319.27	7075.35
319.335	7031.83
319.399	6996.7
319.464	6969.27
319.529	6914.85
319.594	6871.85
319.658	6845.28
319.723	6798.59
319.788	6772.7
319.853	6719.86
319.917	6687.31
319.982	6631.45
320.047	6590
320.112	6566.33
320.176	6519.13
320.241	6484.03
320.306	6457.72
320.37	6417.35
320.435	6389.65
320.5	6366.36
320.564	6329.79
320.629	6283.47
320.694	6259.42
320.758	6220.21
320.823	6174.34
320.888	6149.39
320.952	6105.72
321.017	6062.35
321.082	6022
321.146	5984.24
321.211	5948.3
321.275	5914.44
321.34	5874.26
321.405	5832.53
321.469	5787.59
321.534	5748.7
321.598	5702.09
321.663	5667.56
321.727	5638.88
321.792	5590.65
321.857	5543.85
321.921	5507.79
321.986	5467.73
322.05	5406.77
322.115	5367.18
322.179	5327.27
322.244	5270.21
322.308	5234.22
322.373	5192.02
322.437	5155.85
322.502	5128.24
322.566	5085.36
322.631	5047.14
322.695	5007.54
322.76	4963.77
322.824	4930.68
322.889	4887.83
322.953	4844.56
323.018	4781.22
323.082	4718.42
323.146	4668.22
323.211	4615.43
323.275	4567.52
323.34	4524.94
323.404	4490.41
323.468	4449.64
323.533	4408.07
323.597	4366.62
323.662	4315.92
323.726	4278.57
323.79	4228.11
323.855	4164.87
323.919	4116.86
323.983	4072.83
324.048	4007.05
324.112	4153.74
324.177	4023.97
324.241	3816.83
324.305	3611.35
324.37	3410.76
324.434	3217.33
324.498	3174.93
324.562	3125.85
324.627	3067.02
324.691	3010.06
324.755	2947.31
324.82	2867.55
324.884	2790.67
324.948	2717.7
325.012	2625.97
325.077	2505.16
