Data from 20250704_urea_0.1M_MAYP1162681_11-20-27-686.txt Node
Date: Fri Jul 04 11:20:27 BST 2025
User: adleo
Spectrometer: MAYP116268
Trigger mode: 0
Integration Time (sec): 1.000000E0
Scans to average: 1
Electric dark correction enabled: true
Nonlinearity correction enabled: true
Boxcar width: 10
XAxis mode: Wavelengths
Number of Pixels in Spectrum: 2068
>>>>>Begin Spectral Data<<<<<
179.565	1249.7
179.642	1314.11
179.718	1358.78
179.795	1398.78
179.871	1435.38
179.948	1454.92
180.024	1477.04
180.101	1499.53
180.177	1512.46
180.254	1533.67
180.33	1556.72
180.407	1612.65
180.483	1710.85
180.56	1803.65
180.636	1890.91
180.712	1877.64
180.789	1886.34
180.865	1899.22
180.942	1908.73
181.018	1920.37
181.095	1934.74
181.171	1938.59
181.248	1935.97
181.324	1948.43
181.4	1954.61
181.477	1965.22
181.553	1977.53
181.63	2000.12
181.706	2016.91
181.782	2026.8
181.859	2026.75
181.935	2031.13
182.011	2027.23
182.088	2045.59
182.164	2064.14
182.24	2079.41
182.317	2091.25
182.393	2090.34
182.469	2103.99
182.546	2118.93
182.622	2122.73
182.698	2114.36
182.775	2124.59
182.851	2138.14
182.927	2133.24
183.003	2129.49
183.08	2120.97
183.156	2129.44
183.232	2124.11
183.308	2111.22
183.385	2119.88
183.461	2139.05
183.537	2142
183.613	2157.79
183.69	2148.04
183.766	2140.99
183.842	2147.32
183.918	2151.7
183.995	2166.73
184.071	2172.54
184.147	2165.64
184.223	2154.27
184.299	2168.31
184.375	2158.56
184.452	2166.93
184.528	2216.99
184.604	2226.03
184.68	2238.63
184.756	2247.67
184.832	2250.86
184.908	2258.33
184.985	2257.9
185.061	2241.63
185.137	2251.62
185.213	2238.78
185.289	2240.06
185.365	2231.55
185.441	2230.88
185.517	2244.88
185.593	2240.12
185.669	2236.02
185.745	2249.82
185.822	2267.52
185.898	2260.76
185.974	2273.41
186.05	2266.46
186.126	2232.97
186.202	2228.4
186.278	2223.59
186.354	2212.98
186.43	2221.17
186.506	2220.65
186.582	2218.65
186.658	2223.88
186.734	2200.38
186.81	2201.76
186.886	2206.66
186.962	2221.69
187.038	2218.03
187.114	2209.27
187.19	2215.74
187.266	2204.28
187.341	2201.57
187.417	2192.43
187.493	2190.86
187.569	2191.72
187.645	2183.49
187.721	2170.5
187.797	2175.87
187.873	2181.49
187.949	2176.87
188.025	2168.92
188.101	2168.21
188.176	2175.3
188.252	2171.21
188.328	2181.24
188.404	2181.76
188.48	2174.63
188.556	2164.4
188.632	2163.87
188.707	2162.87
188.783	2159.64
188.859	2155.07
188.935	2144.89
189.011	2153.07
189.086	2148.13
189.162	2138.52
189.238	2137.75
189.314	2137.42
189.39	2135.47
189.465	2129.86
189.541	2146.18
189.617	2131.15
189.693	2127.25
189.768	2130.1
189.844	2155.51
189.92	2145.91
189.996	2154.95
190.071	2163.84
190.147	2163.18
190.223	2171.6
190.298	2165.94
190.374	2155.24
190.45	2168.5
190.526	2179.45
190.601	2176.4
190.677	2175.21
190.753	2205.49
190.828	2207.87
190.904	2221.57
190.98	2234.42
191.055	2246.32
191.131	2237.99
191.207	2261.3
191.282	2271.58
191.358	2262.87
191.433	2247.12
191.509	2260.72
191.585	2257.39
191.66	2261.15
191.736	2269.47
191.811	2261.38
191.887	2278.66
191.963	2301.69
192.038	2309.31
192.114	2306.83
192.189	2309.74
192.265	2307.17
192.34	2280.7
192.416	2279.84
192.491	2277.17
192.567	2281.32
192.642	2281.22
192.718	2281.7
192.793	2264.85
192.869	2259.48
192.944	2262.57
193.02	2273.18
193.095	2277.27
193.171	2283.7
193.246	2281.7
193.322	2277.7
193.397	2278.13
193.473	2262.23
193.548	2243.15
193.624	2242.86
193.699	2242.19
193.775	2260.14
193.85	2263.99
193.925	2274.7
194.001	2274.13
194.076	2265.8
194.152	2253.24
194.227	2243.67
194.302	2231.02
194.378	2238.15
194.453	2236.44
194.529	2248.91
194.604	2233.68
194.679	2227.45
194.755	2208.37
194.83	2219.8
194.905	2218.94
194.981	2228.08
195.056	2222.09
195.131	2230.22
195.207	2230.32
195.282	2220.23
195.357	2200.19
195.433	2215.65
195.508	2205.66
195.583	2211.47
195.659	2223.65
195.734	2233.5
195.809	2234.88
195.884	2245.82
195.96	2247.06
196.035	2260.05
196.11	2254.38
196.185	2265.95
196.261	2270.99
196.336	2303.54
196.411	2290.35
196.486	2295.64
196.561	2289.69
196.637	2298.49
196.712	2313.82
196.787	2319.29
196.862	2335.23
196.937	2346.32
197.013	2348.7
197.088	2359.03
197.163	2382.84
197.238	2400.75
197.313	2400.8
197.388	2413.27
197.464	2444.89
197.539	2456.03
197.614	2450.7
197.689	2464.26
197.764	2480.07
197.839	2500.26
197.914	2490.88
197.989	2515.31
198.065	2528.31
198.14	2576.38
198.215	2604.91
198.29	2617.59
198.365	2630.92
198.44	2641.3
198.515	2668.56
198.59	2682.56
198.665	2708.95
198.74	2717.43
198.815	2717.67
198.89	2737.63
198.965	2770.52
199.04	2768.09
199.115	2783.43
199.19	2828.4
199.265	2832.74
199.34	2843.17
199.415	2876.6
199.49	2899.99
199.565	2909.66
199.64	2932.63
199.715	2931.78
199.79	2938.4
199.865	2944.93
199.94	2942.84
200.015	2978.45
200.09	2981.36
200.165	2989.84
200.24	2998.33
200.315	3040.09
200.39	3056.92
200.464	3063.12
200.539	3064.26
200.614	3077.56
200.689	3102.22
200.764	3109.37
200.839	3125.29
200.914	3132.16
200.989	3122.66
201.063	3135.87
201.138	3119.24
201.213	3122.96
201.288	3102.84
201.363	3105.99
201.438	3103.98
201.512	3125.86
201.587	3105.64
201.662	3112.89
201.737	3129.2
201.812	3134.07
201.886	3100.94
201.961	3114.78
202.036	3107.2
202.111	3100.9
202.186	3075.93
202.26	3058
202.335	3038.97
202.41	3035.1
202.485	3020.85
202.559	3005.12
202.634	2984.23
202.709	2996.96
202.784	2980.32
202.858	2987.32
202.933	2974.55
203.008	2975.6
203.082	2956
203.157	2963.01
203.232	2927.6
203.306	2914.3
203.381	2894.75
203.456	2878.25
203.53	2863.32
203.605	2856.79
203.68	2852.5
203.754	2859.79
203.829	2864.12
203.904	2861.69
203.978	2871.23
204.053	2894.59
204.127	2900.74
204.202	2927.45
204.277	2939.27
204.351	2962.4
204.426	2987.68
204.5	3014.44
204.575	3019.25
204.65	3071.02
204.724	3109.54
204.799	3161.23
204.873	3204.38
204.948	3251.71
205.022	3294.6
205.097	3345.03
205.171	3417.2
205.246	3488.75
205.32	3554.23
205.395	3625.26
205.469	3690.91
205.544	3770.19
205.618	3835.18
205.693	3931.04
205.767	4002.31
205.842	4113.49
205.916	4204.72
205.991	4289.38
206.065	4394.53
206.14	4511.65
206.214	4613.4
206.289	4713.33
206.363	4840.11
206.438	4961.65
206.512	5086.66
206.586	5235.26
206.661	5370.03
206.735	5480.39
206.81	5615.93
206.884	5771.38
206.958	5893.77
207.033	6051.81
207.107	6208.11
207.181	6390.24
207.256	6539.74
207.33	6716.54
207.405	6892.27
207.479	7072.87
207.553	7242.5
207.628	7395.59
207.702	7576.31
207.776	7738.03
207.851	7914.36
207.925	8104.12
207.999	8274.26
208.073	8455.05
208.148	8633.24
208.222	8805.93
208.296	9022.77
208.371	9217.71
208.445	9411.45
208.519	9630.56
208.593	9839.75
208.668	10025.53
208.742	10214.66
208.816	10404.1
208.89	10601.43
208.965	10783.09
209.039	10981.71
209.113	11190.69
209.187	11400.91
209.261	11585.43
209.336	11797.81
209.41	12005.29
209.484	12198.14
209.558	12411.41
209.632	12615.1
209.707	12822.03
209.781	13035.95
209.855	13238.89
209.929	13446.26
210.003	13640.96
210.077	13829.19
210.151	14063.7
210.226	14274.06
210.3	14491.36
210.374	14706.83
210.448	14894.05
210.522	15088.16
210.596	15276.44
210.67	15467.41
210.744	15691.06
210.818	15907
210.892	16107.27
210.966	16272.11
211.041	16455.02
211.115	16626.99
211.189	16820.55
211.263	17004.85
211.337	17174.45
211.411	17354.98
211.485	17514.89
211.559	17691.23
211.633	17857.69
211.707	17978.84
211.781	18149.2
211.855	18270.26
211.929	18414.83
212.003	18552.08
212.077	18714.92
212.151	18874.96
212.225	19029.41
212.299	19171.19
212.373	19298.9
212.447	19429.2
212.52	19610.5
212.594	19765.34
212.668	19917.1
212.742	20040.23
212.816	20173.24
212.89	20305.72
212.964	20430.69
213.038	20570.07
213.112	20717.79
213.186	20851.82
213.26	20948.59
213.333	21038.52
213.407	21166
213.481	21285.77
213.555	21424.48
213.629	21528.35
213.703	21634.2
213.777	21754.23
213.85	21843.69
213.924	21992.6
213.998	22117.36
214.072	22224.38
214.146	22309.57
214.219	22410.32
214.293	22504.47
214.367	22608.85
214.441	22714.63
214.515	22808.21
214.588	22882.17
214.662	22932.6
214.736	23017.56
214.81	23121.6
214.883	23215.62
214.957	23289.05
215.031	23363.74
215.105	23422.51
215.178	23494.12
215.252	23572.1
215.326	23626.55
215.4	23679.74
215.473	23709.88
215.547	23758.26
215.621	23802.29
215.694	23881.1
215.768	23925.19
215.842	23986.97
215.915	24034.05
215.989	24073.21
216.063	24117.93
216.136	24184.16
216.21	24253.9
216.284	24319.66
216.357	24391.15
216.431	24445.8
216.504	24513.53
216.578	24603.41
216.652	24674.91
216.725	24732.51
216.799	24789.88
216.873	24845.27
216.946	24914.69
217.02	24962.69
217.093	25011.72
217.167	25043.95
217.24	25067.25
217.314	25113.52
217.387	25143.87
217.461	25175.96
217.535	25243.37
217.608	25286.85
217.682	25325.79
217.755	25376.13
217.829	25405.57
217.902	25448.38
217.976	25483.99
218.049	25519.56
218.123	25540.7
218.196	25584.04
218.27	25612.91
218.343	25634.77
218.417	25675.94
218.49	25703.6
218.563	25746.65
218.637	25789.9
218.71	25855.12
218.784	25908.55
218.857	25949.34
218.931	26002.14
219.004	26052.29
219.077	26075.76
219.151	26110.08
219.224	26137.26
219.298	26153.96
219.371	26192.19
219.444	26197.36
219.518	26231.25
219.591	26253.31
219.665	26302.42
219.738	26327.86
219.811	26349.2
219.885	26382.61
219.958	26420.71
220.031	26445.53
220.105	26479.95
220.178	26502.99
220.251	26518.34
220.325	26542.29
220.398	26574.5
220.471	26602.8
220.544	26624.19
220.618	26639.35
220.691	26660.06
220.764	26672.47
220.838	26715.21
220.911	26724.68
220.984	26753.26
221.057	26775.28
221.131	26799.76
221.204	26784.6
221.277	26818.79
221.35	26859.74
221.424	26861.34
221.497	26863.8
221.57	26877.8
221.643	26885.29
221.716	26902.77
221.79	26889.11
221.863	26891.14
221.936	26885.87
222.009	26887.8
222.082	26899.64
222.155	26896.84
222.229	26907.12
222.302	26925.86
222.375	26909.1
222.448	26925.23
222.521	26946.29
222.594	26939.19
222.667	26924.85
222.74	26933.06
222.814	26921.18
222.887	26909.2
222.96	26915.96
223.033	26920.26
223.106	26923.01
223.179	26925.04
223.252	26912.04
223.325	26920.06
223.398	26914.89
223.471	26914.46
223.544	26904.7
223.617	26889.54
223.69	26890.46
223.763	26879.49
223.837	26868.53
223.91	26866.79
223.983	26830.91
224.056	26793.34
224.129	26788.95
224.202	26794.21
224.275	26773.4
224.348	26740.32
224.42	26714.05
224.493	26697.19
224.566	26664.89
224.639	26648.56
224.712	26625.48
224.785	26614.47
224.858	26584.73
224.931	26553.97
225.004	26514.81
225.077	26485.56
225.15	26438.63
225.223	26414.34
225.296	26411.1
225.369	26371.27
225.442	26343.41
225.514	26323.33
225.587	26307.69
225.66	26284.27
225.733	26253.99
225.806	26231.4
225.879	26210.3
225.952	26176.27
226.025	26150.49
226.097	26157.44
226.17	26133.49
226.243	26086.43
226.316	26048.09
226.389	26031.49
226.461	26021.4
226.534	26021.4
226.607	26001.37
226.68	26010.25
226.753	25986.06
226.825	25928.62
226.898	25915.87
226.971	25891.98
227.044	25878.85
227.117	25845.88
227.189	25830.68
227.262	25813.2
227.335	25798.38
227.407	25771.98
227.48	25754.32
227.553	25729.51
227.626	25675.78
227.698	25656.38
227.771	25634.42
227.844	25604.93
227.916	25577.66
227.989	25528.78
228.062	25487.56
228.134	25480.61
228.207	25442.24
228.28	25401.46
228.352	25380.42
228.425	25345.97
228.498	25325.07
228.57	25280.82
228.643	25266.97
228.716	25227.4
228.788	25182.61
228.861	25138.7
228.934	25122.44
229.006	25088.81
229.079	25051.51
229.151	25027.72
229.224	24971.75
229.296	24949.36
229.369	24936.96
229.442	24922.48
229.514	24890.84
229.587	24871.44
229.659	24818.85
229.732	24782.86
229.804	24767.95
229.877	24760.9
229.949	24742.67
230.022	24725.58
230.094	24695.63
230.167	24664.07
230.239	24618.87
230.312	24590.02
230.384	24579.6
230.457	24543.9
230.529	24511.92
230.602	24481.82
230.674	24444.19
230.747	24429.72
230.819	24405.26
230.892	24339.08
230.964	24305.41
231.037	24268.75
231.109	24233.3
231.181	24207.78
231.254	24162.4
231.326	24121.49
231.399	24077.35
231.471	24036.45
231.544	23970.51
231.616	23945.1
231.688	23915.14
231.761	23878.83
231.833	23840.77
231.905	23786.71
231.978	23748.27
232.05	23707.76
232.122	23683.11
232.195	23649.79
232.267	23628.76
232.339	23589.16
232.412	23574.41
232.484	23518.85
232.556	23482.88
232.629	23482.74
232.701	23463.83
232.773	23434.03
232.846	23392.9
232.918	23354.27
232.99	23317.24
233.062	23305.33
233.135	23284.4
233.207	23228.9
233.279	23208.55
233.351	23173.16
233.424	23132.13
233.496	23087.72
233.568	23076.97
233.64	23021.81
233.713	22972.34
233.785	22916.26
233.857	22867.86
233.929	22819.06
234.001	22810.34
234.074	22785.03
234.146	22704.36
234.218	22656.53
234.29	22615.17
234.362	22577.47
234.434	22529.98
234.507	22474.83
234.579	22415.14
234.651	22355.79
234.723	22326.15
234.795	22285.41
234.867	22236.62
234.939	22205.48
235.012	22168.56
235.084	22126.37
235.156	22097.4
235.228	22050.07
235.3	22003.55
235.372	21980.7
235.444	21940.4
235.516	21869.3
235.588	21833.68
235.66	21802.44
235.732	21747.83
235.804	21778.97
235.876	21747.54
235.948	21723.59
236.02	21687.92
236.092	21643.86
236.164	21603.57
236.236	21549.97
236.308	21503.12
236.38	21474.35
236.452	21423.88
236.524	21386.77
236.596	21362.04
236.668	21322.81
236.74	21286.42
236.812	21259.81
236.884	21211.09
236.956	21180.58
237.028	21136.62
237.1	21088.96
237.172	21054.55
237.244	21029.15
237.316	20930.33
237.388	20880.55
237.46	20817.46
237.532	20788.06
237.604	20732.59
237.675	20702.81
237.747	20670.76
237.819	20617.07
237.891	20575.62
237.963	20527.29
238.035	20471.82
238.107	20384.44
238.178	20360.06
238.25	20313.65
238.322	20289.84
238.394	20237.36
238.466	20192.06
238.538	20151.14
238.609	20114.9
238.681	20050.42
238.753	20004.06
238.825	19968.64
238.897	19920.06
238.968	19899.49
239.04	19855.97
239.112	19843.34
239.184	19790.09
239.255	19752.21
239.327	19716.7
239.399	19675.98
239.471	19645.86
239.542	19617.72
239.614	19587.31
239.686	19509
239.758	19490.88
239.829	19427.32
239.901	19399.65
239.973	19348.09
240.044	19312.82
240.116	19271.04
240.188	19229.69
240.259	19180
240.331	19123.57
240.403	19095.38
240.474	19036.59
240.546	18975.44
240.618	18914.67
240.689	18868.84
240.761	18826.1
240.833	18793.67
240.904	18741.86
240.976	18690.15
241.048	18651.02
241.119	18628.95
241.191	18600.38
241.262	18573.39
241.334	18528.14
241.405	18478.5
241.477	18429.88
241.549	18388.29
241.62	18346.9
241.692	18312.92
241.763	18290.23
241.835	18257.21
241.906	18208.93
241.978	18158.91
242.049	18137.89
242.121	18110.09
242.192	18083.25
242.264	18029.03
242.335	17975.92
242.407	17951.73
242.478	17917.71
242.55	17873.85
242.621	17820.46
242.693	17780.7
242.764	17717.67
242.836	17673.86
242.907	17640.13
242.979	17615.84
243.05	17580.03
243.122	17541.91
243.193	17498.92
243.264	17437.28
243.336	17387.93
243.407	17364.71
243.479	17347.79
243.55	17313.04
243.622	17276.56
243.693	17241
243.764	17212.85
243.836	17162.97
243.907	17116.94
243.978	17075.25
244.05	17039.98
244.121	16983.11
244.192	16951.49
244.264	16901.27
244.335	16873.37
244.407	16817.41
244.478	16783.34
244.549	16741.99
244.62	16697.45
244.692	16665.6
244.763	16636.87
244.834	16602.41
244.906	16554.75
244.977	16516.33
245.048	16488.96
245.119	16444.38
245.191	16389.58
245.262	16331.64
245.333	16316.85
245.405	16281.18
245.476	16245.76
245.547	16214.52
245.618	16186.57
245.689	16156.78
245.761	16127.57
245.832	16092.73
245.903	16061.49
245.974	16026.12
246.045	15990.16
246.117	15964.71
246.188	15917.52
246.259	15866.53
246.33	15827.82
246.401	15792.16
246.473	15739.09
246.544	15697.88
246.615	15669.97
246.686	15633.19
246.757	15616.66
246.828	15569.95
246.899	15552.65
246.97	15503
247.042	15456.73
247.113	15430.65
247.184	15408.14
247.255	15367.8
247.326	15333.14
247.397	15312.22
247.468	15282.72
247.539	15249.56
247.61	15200.2
247.681	15179.91
247.752	15165.64
247.823	15124.09
247.894	15091.5
247.965	15049.23
248.037	15017.56
248.108	14970.61
248.179	14944.82
248.25	14918.69
248.321	14901.15
248.392	14854.53
248.463	14849.76
248.534	14821.8
248.605	14803.1
248.675	14769.12
248.746	14745.35
248.817	14718.84
248.888	14689.05
248.959	14637.13
249.03	14612.31
249.101	14584.93
249.172	14545.64
249.243	14489
249.314	14474.63
249.385	14443.69
249.456	14420.21
249.527	14380.73
249.598	14361.64
249.669	14327.22
249.739	14293.38
249.81	14261.57
249.881	14221.75
249.952	14190.66
250.023	14156.43
250.094	14113.19
250.165	14075.69
250.235	14041.94
250.306	14014.75
250.377	13968.28
250.448	13945.1
250.519	13900.22
250.59	13884.93
250.66	13853.41
250.731	13845.07
250.802	13817.01
250.873	13786.93
250.944	13766.3
251.014	13734.1
251.085	13724.84
251.156	13703.24
251.227	13688.83
251.297	13677.02
251.368	13652.58
251.439	13631.85
251.51	13615.99
251.58	13579.06
251.651	13541.61
251.722	13530.37
251.792	13484.05
251.863	13458.64
251.934	13450.79
252.005	13452.42
252.075	13425.43
252.146	13414.49
252.217	13399.45
252.287	13384.21
252.358	13369.89
252.429	13362.81
252.499	13335.23
252.57	13316.24
252.641	13305.06
252.711	13279.8
252.782	13230.53
252.852	13238.05
252.923	13209.03
252.994	13183.77
253.064	13174.08
253.135	13138.5
253.205	13109.73
253.276	13094.83
253.347	13085.48
253.417	13050.58
253.488	13023.92
253.558	13003.29
253.629	12980
253.699	12955.85
253.77	12939.32
253.841	12907.11
253.911	12891.98
253.982	12877.47
254.052	12854.14
254.123	12832.68
254.193	12806.22
254.264	12831.33
254.334	12790.5
254.405	12757.92
254.475	12727.65
254.546	12703.69
254.616	12698.87
254.687	12676.89
254.757	12673.46
254.827	12652.16
254.898	12634.85
254.968	12609.4
255.039	12578.07
255.109	12560.04
255.18	12531.98
255.25	12491.06
255.321	12468.35
255.391	12426.13
255.461	12421.79
255.532	12376.57
255.602	12353.58
255.673	12316.66
255.743	12274.19
255.813	12230.32
255.884	12223.14
255.954	12209.31
256.024	12211.57
256.095	12194.99
256.165	12164.43
256.235	12142.21
256.306	12119.02
256.376	12114.11
256.446	12093.38
256.517	12080.65
256.587	12071.59
256.657	12055.73
256.728	12038.38
256.798	12020.88
256.868	11996.88
256.938	11957.11
257.009	11943.23
257.079	11919.76
257.149	11923.37
257.219	11884.23
257.29	11872.67
257.36	11835.31
257.43	11827.6
257.5	11778
257.571	11750.62
257.641	11737.13
257.711	11703
257.781	11686.57
257.852	11670.57
257.922	11641.21
257.992	11624.54
258.062	11597.4
258.132	11589.74
258.202	11567.9
258.273	11556.87
258.343	11555.76
258.413	11532.33
258.483	11518.69
258.553	11492.72
258.623	11472.47
258.693	11462.79
258.764	11462.83
258.834	11454.59
258.904	11439.36
258.974	11409.05
259.044	11389.34
259.114	11382.06
259.184	11367.99
259.254	11347.02
259.324	11305
259.394	11298.11
259.464	11297.72
259.535	11276.47
259.605	11243.65
259.675	11212.76
259.745	11200.08
259.815	11172.08
259.885	11148.08
259.955	11156.32
260.025	11120.18
260.095	11095.12
260.165	11081.2
260.235	11070.93
260.305	11046.55
260.375	11016.14
260.445	11029.53
260.515	11026.35
260.585	11015.7
260.655	10999.85
260.725	10996.18
260.795	10981.92
260.865	10976.23
260.934	10948.33
261.004	10941.58
261.074	10929.73
261.144	10933.92
261.214	10927.75
261.284	10904.72
261.354	10899.52
261.424	10866.12
261.494	10882.11
261.564	10865.73
261.634	10854.6
261.703	10822.99
261.773	10816.72
261.843	10803.52
261.913	10779.09
261.983	10745.51
262.053	10732.54
262.123	10716.26
262.192	10685.08
262.262	10686.34
262.332	10654.92
262.402	10640.9
262.472	10626.83
262.541	10589.05
262.611	10586.16
262.681	10551.95
262.751	10553.54
262.821	10538.46
262.89	10514.8
262.96	10500.44
263.03	10511.67
263.1	10497.99
263.169	10486.62
263.239	10471.2
263.309	10477.61
263.379	10470.57
263.448	10461.52
263.518	10449.71
263.588	10434
263.657	10439.3
263.727	10427.69
263.797	10416.56
263.867	10399.36
263.936	10371.76
264.006	10368.58
264.076	10347.57
264.145	10332.01
264.215	10311.34
264.285	10312.74
264.354	10279.69
264.424	10256.13
264.494	10216.05
264.563	10195.53
264.633	10199.91
264.702	10192.88
264.772	10158.28
264.842	10139.88
264.911	10128.75
264.981	10100.71
265.05	10088.05
265.12	10064.49
265.19	10052.83
265.259	10048.25
265.329	10039.05
265.398	10026.05
265.468	10044.25
265.537	10027.59
265.607	10023.49
265.676	10017.47
265.746	10000.47
265.815	10006.58
265.885	9992.47
265.955	9972.43
266.024	9951.91
266.094	9907.07
266.163	9907.94
266.232	9903.07
266.302	9887.56
266.371	9877.45
266.441	9867.48
266.51	9862.85
266.58	9845.76
266.649	9824.08
266.719	9817.43
266.788	9812.13
266.858	9815.17
266.927	9772.16
266.996	9763.1
267.066	9752.5
267.135	9723.99
267.205	9713.44
267.274	9696.97
267.343	9697.69
267.413	9686.57
267.482	9692.21
267.552	9703.33
267.621	9674.91
267.69	9650.3
267.76	9642.26
267.829	9636.09
267.898	9622.42
267.968	9595.59
268.037	9595.88
268.106	9591.5
268.176	9563.23
268.245	9542.81
268.314	9522.96
268.384	9525.95
268.453	9517.09
268.522	9511.21
268.592	9514.34
268.661	9499.9
268.73	9494.79
268.799	9480.63
268.869	9491.03
268.938	9464.98
269.007	9446.3
269.076	9436.09
269.146	9436.09
269.215	9432.67
269.284	9441.48
269.353	9423.23
269.422	9419.72
269.492	9394.3
269.561	9359
269.63	9359.92
269.699	9348.31
269.768	9341.38
269.838	9339.16
269.907	9329.67
269.976	9300.64
270.045	9265.11
270.114	9259.91
270.183	9243.59
270.253	9231.89
270.322	9203.29
270.391	9193.51
270.46	9193.27
270.529	9193.42
270.598	9191.78
270.667	9168.72
270.736	9140.88
270.806	9139.15
270.875	9135.73
270.944	9126.2
271.013	9145.51
271.082	9141.61
271.151	9134.96
271.22	9108.72
271.289	9098.56
271.358	9081.23
271.427	9081.42
271.496	9076.8
271.565	9058.89
271.634	9049.31
271.703	9078.26
271.772	9073.2
271.841	9059
271.91	9043.64
271.979	9034.35
272.048	9010.61
272.117	9019.71
272.186	9002.33
272.255	9001.08
272.324	8996.12
272.393	8988.18
272.462	8967.72
272.531	8954.14
272.6	8944.32
272.669	8951.11
272.738	8936.57
272.807	8941.96
272.876	8926.56
272.945	8950.34
273.013	8957.8
273.082	8968.49
273.151	8924.1
273.22	8927.13
273.289	8919.38
273.358	8917.02
273.427	8901.18
273.496	8902.68
273.564	8891.55
273.633	8896.42
273.702	8878.9
273.771	8872.35
273.84	8877.31
273.909	8882.41
273.977	8878.17
274.046	8867.49
274.115	8869.12
274.184	8851.56
274.253	8836.78
274.322	8847.66
274.39	8819.93
274.459	8804.29
274.528	8768.43
274.597	8760.15
274.665	8753.55
274.734	8761.59
274.803	8757.93
274.872	8759.86
274.94	8742.44
275.009	8800.37
275.078	8783.95
275.147	8780.44
275.215	8768.79
275.284	8772.07
275.353	8751.03
275.421	8728.27
275.49	8747.67
275.559	8734.05
275.627	8729.14
275.696	8717.3
275.765	8709.21
275.833	8698.77
275.902	8699.88
275.971	8716.67
276.039	8729.96
276.108	8736.89
276.177	8733.18
276.245	8718.45
276.314	8708.49
276.383	8712.2
276.451	8652.1
276.52	8654.8
276.588	8668.95
276.657	8677.22
276.725	8672.75
276.794	8680.69
276.863	8692.86
276.931	8666.39
277	8675.97
277.068	8683.48
277.137	8706
277.205	8699.17
277.274	8719.23
277.342	8725.3
277.411	8701.05
277.48	8688.87
277.548	8676.88
277.617	8686.8
277.685	8683.38
277.754	8685.36
277.822	8680.4
277.89	8687.67
277.959	8680.69
278.027	8660.33
278.096	8652.44
278.164	8678.87
278.233	8673.04
278.301	8666.5
278.37	8670.64
278.438	8657.98
278.507	8660.82
278.575	8637.28
278.643	8637.67
278.712	8625.15
278.78	8611.1
278.849	8631.79
278.917	8634.44
278.985	8628.09
279.054	8627.27
279.122	8637.71
279.191	8636.94
279.259	8632.85
279.327	8612.2
279.396	8630.44
279.464	8628.66
279.532	8627.8
279.601	8618.31
279.669	8616.1
279.737	8624.37
279.806	8622.83
279.874	8628.99
279.942	8629.14
280.011	8624.81
280.079	8630.97
280.147	8642.47
280.215	8644.4
280.284	8634.72
280.352	8618.89
280.42	8626.93
280.488	8611.81
280.557	8605.41
280.625	8608.49
280.693	8610.13
280.761	8619.08
280.83	8598.77
280.898	8612.01
280.966	8601.27
281.034	8568.59
281.102	8548.34
281.171	8543.76
281.239	8553.78
281.307	8553.25
281.375	8540.49
281.443	8568.36
281.512	8567.69
281.58	8576.3
281.648	8564.56
281.716	8563.69
281.784	8567.5
281.852	8564.13
281.92	8564.9
281.989	8573.03
282.057	8558.64
282.125	8600.23
282.193	8598.74
282.261	8604.56
282.329	8597.44
282.397	8600.52
282.465	8600.42
282.533	8623.04
282.601	8612.98
282.67	8593.87
282.738	8581.51
282.806	8595.94
282.874	8580.01
282.942	8580.2
283.01	8573.03
283.078	8580.06
283.146	8576.69
283.214	8587.32
283.282	8588.91
283.35	8599.16
283.418	8598.63
283.486	8603.98
283.554	8560.46
283.622	8552.71
283.69	8549.25
283.758	8546.55
283.826	8553.96
283.894	8566.48
283.962	8580.39
284.03	8593.52
284.098	8593.57
284.165	8588.47
284.233	8581.35
284.301	8571.63
284.369	8561.71
284.437	8550.5
284.505	8544.97
284.573	8562.29
284.641	8555.36
284.709	8564.36
284.777	8546.99
284.845	8554.83
284.912	8556.18
284.98	8564.17
285.048	8566.43
285.116	8575
285.184	8586.55
285.252	8586.4
285.319	8571.05
285.387	8563.74
285.455	8548.43
285.523	8556.42
285.591	8554.64
285.659	8556.61
285.726	8567.63
285.794	8554.21
285.862	8558.69
285.93	8554.74
285.997	8549.21
286.065	8541.51
286.133	8527.93
286.201	8530.87
286.269	8517.06
286.336	8513.16
286.404	8509.02
286.472	8516.82
286.539	8490.74
286.607	8472.88
286.675	8472.64
286.743	8481.78
286.81	8475.34
286.878	8488.52
286.946	8481.59
287.013	8480.87
287.081	8482.94
287.149	8471.49
287.216	8495.45
287.284	8491.26
287.352	8494.53
287.419	8489.82
287.487	8505.75
287.555	8511.71
287.622	8507.14
287.69	8507.58
287.758	8518.5
287.825	8515.13
287.893	8501.27
287.96	8512.29
288.028	8527.98
288.096	8526.73
288.163	8529.95
288.231	8518.21
288.298	8516.62
288.366	8530.19
288.433	8530.62
288.501	8522.73
288.569	8529.9
288.636	8525.91
288.704	8536.5
288.771	8548.57
288.839	8542.37
288.906	8537.27
288.974	8549.97
289.041	8548.43
289.109	8545.16
289.176	8553.2
289.244	8555.56
289.311	8573.22
289.379	8585.88
289.446	8593.24
289.514	8599.64
289.581	8603.4
289.649	8607.97
289.716	8613.65
289.783	8605.27
289.851	8623.7
289.918	8626.64
289.986	8637.03
290.053	8642.13
290.121	8638.33
290.188	8637.23
290.255	8666.97
290.323	8660.95
290.39	8646.61
290.458	8653.11
290.525	8665.52
290.592	8657.24
290.66	8661.29
290.727	8653.25
290.794	8661.05
290.862	8654.84
290.929	8650.5
290.996	8649.2
291.064	8662.2
291.131	8672.5
291.198	8684.68
291.266	8682.9
291.333	8685.11
291.4	8684.77
291.468	8701.38
291.535	8700.99
291.602	8707.2
291.669	8699.65
291.737	8708.31
291.804	8708.36
291.871	8725.49
291.938	8730.3
292.006	8761.64
292.073	8769.63
292.14	8779.84
292.207	8780.89
292.275	8778.63
292.342	8793.46
292.409	8820.85
292.476	8840.97
292.543	8831.34
292.611	8836.78
292.678	8853.24
292.745	8877.02
292.812	8893.05
292.879	8889.54
292.946	8896.85
293.014	8908.45
293.081	8912.5
293.148	8927.13
293.215	8948.46
293.282	8943.79
293.349	8955.44
293.416	8933
293.484	8951.63
293.551	8959.81
293.618	8972.91
293.685	9002.42
293.752	8993.8
293.819	8989.81
293.886	8981
293.953	8995.53
294.02	9007.86
294.087	9015.51
294.154	9007.09
294.221	9024.76
294.288	9024.42
294.356	9041.9
294.423	9054.27
294.49	9055.81
294.557	9071.65
294.624	9068.86
294.691	9095.77
294.758	9095.43
294.825	9109.49
294.892	9101.98
294.959	9109.15
295.026	9118.16
295.093	9111.08
295.16	9117
295.226	9116.66
295.293	9145.55
295.36	9149.26
295.427	9159.03
295.494	9178.49
295.561	9195.67
295.628	9212.53
295.695	9230.63
295.762	9233.14
295.829	9241.04
295.896	9250.23
295.963	9258.32
296.03	9260.87
296.096	9263.13
296.163	9279.6
296.23	9291.3
296.297	9306.23
296.364	9298.33
296.431	9301.51
296.498	9301.37
296.564	9321.54
296.631	9324.28
296.698	9305.16
296.765	9326.59
296.832	9320.77
296.899	9298.86
296.965	9313.35
297.032	9290.52
297.099	9303.14
297.166	9307.28
297.233	9302.13
297.299	9299.53
297.366	9294.14
297.433	9301.98
297.5	9314.12
297.566	9314.7
297.633	9319.32
297.7	9325.97
297.767	9331.69
297.833	9341.81
297.9	9347.49
297.967	9338.77
298.033	9354.13
298.1	9387.8
298.167	9377.2
298.234	9380.67
298.3	9398.05
298.367	9392.03
298.434	9404.99
298.5	9393.81
298.567	9392.18
298.634	9391.02
298.7	9408.26
298.767	9415.48
298.834	9425.11
298.9	9415.87
298.967	9406.62
299.033	9410.62
299.1	9427.67
299.167	9443.51
299.233	9436.62
299.3	9445.05
299.366	9464.17
299.433	9487.62
299.5	9455.55
299.566	9466.19
299.633	9481.55
299.699	9489.11
299.766	9486.32
299.832	9489.98
299.899	9505.3
299.965	9523.11
300.032	9532.21
300.099	9542.38
300.165	9545.07
300.232	9544.64
300.298	9547.72
300.365	9562.65
300.431	9571.41
300.498	9561.3
300.564	9566.55
300.631	9578.64
300.697	9595.93
300.763	9593.66
300.83	9583.11
300.896	9599.44
300.963	9605.56
301.029	9612.83
301.096	9617.93
301.162	9635.17
301.229	9633.34
301.295	9621.45
301.361	9627.28
301.428	9623.81
301.494	9612.01
301.561	9618.61
301.627	9622.94
301.693	9630.36
301.76	9635.03
301.826	9628.91
301.892	9640.28
301.959	9648.42
302.025	9640.23
302.092	9637.58
302.158	9646.06
302.224	9647.02
302.291	9642.16
302.357	9636.09
302.423	9630.12
302.49	9618.8
302.556	9631.03
302.622	9629.88
302.688	9643.99
302.755	9654.73
302.821	9664.51
302.887	9673.9
302.954	9674.96
303.02	9683.63
303.086	9685.46
303.152	9679.63
303.219	9677.7
303.285	9678.76
303.351	9689.21
303.417	9701.59
303.483	9690.76
303.55	9680.74
303.616	9684.74
303.682	9684.74
303.748	9675.97
303.815	9689.36
303.881	9698.8
303.947	9685.8
304.013	9688.3
304.079	9672.79
304.145	9649.19
304.212	9653.14
304.278	9642.93
304.344	9632.29
304.41	9622.42
304.476	9611.2
304.542	9609.61
304.608	9614.86
304.674	9596.41
304.741	9587.79
304.807	9588.27
304.873	9596.7
304.939	9621.12
305.005	9603.06
305.071	9603.73
305.137	9613.99
305.203	9590.44
305.269	9590.48
305.335	9603.73
305.401	9599.15
305.467	9604.16
305.533	9614.32
305.599	9609.51
305.666	9624.53
305.732	9626.51
305.798	9640.43
305.864	9667.83
305.93	9673.56
305.996	9670.67
306.062	9678.43
306.128	9671.59
306.194	9662.58
306.259	9656.56
306.325	9643.6
306.391	9653.72
306.457	9659.59
306.523	9664.07
306.589	9690.56
306.655	9684.45
306.721	9662.68
306.787	9654.63
306.853	9671.78
306.919	9652.13
306.985	9652.42
307.051	9644.23
307.117	9639.9
307.183	9633.54
307.248	9604.79
307.314	9611.05
307.38	9613.31
307.446	9617.45
307.512	9612.11
307.578	9611.82
307.644	9612.73
307.709	9603.73
307.775	9597.85
307.841	9597.32
307.907	9590.1
307.973	9565.01
308.039	9565.25
308.104	9573.92
308.17	9576.27
308.236	9560
308.302	9569.19
308.368	9555.9
308.433	9562.93
308.499	9564.28
308.565	9551.18
308.631	9554.51
308.696	9525.61
308.762	9515.26
308.828	9514.01
308.894	9493.78
308.959	9478.18
309.025	9469.7
309.091	9471.49
309.156	9465.9
309.222	9461.85
309.288	9452.7
309.354	9432.82
309.419	9437.35
309.485	9416.35
309.551	9415.39
309.616	9400.6
309.682	9393.24
309.748	9385.68
309.813	9369.59
309.879	9355.53
309.945	9349.75
310.01	9345.47
310.076	9355.82
310.141	9350.09
310.207	9335.21
310.273	9337.23
310.338	9337.52
310.404	9318.74
310.469	9309.88
310.535	9298.9
310.601	9275.07
310.666	9280.51
310.732	9292.11
310.797	9272.37
310.863	9267.84
310.928	9260.67
310.994	9262.06
311.059	9261.05
311.125	9259.37
311.191	9267.8
311.256	9260.77
311.322	9261.44
311.387	9243.14
311.453	9671.26
311.518	9647.86
311.584	9642.9
311.649	9650.66
311.715	9643.15
311.78	9649.5
311.846	9634.77
311.911	9646.57
311.976	9652.87
312.042	9638.67
312.107	9622.54
312.173	9620.76
312.238	9618.45
312.304	9618.01
312.369	9613.29
312.434	9603.86
312.5	9603.66
312.565	9573.33
312.631	9577.04
312.696	9567.65
312.761	9566.78
312.827	9129.13
312.892	9164.81
312.958	9170.78
313.023	9164.95
313.088	9164.52
313.154	9149.64
313.219	9144.83
313.284	9130.05
313.35	9131.25
313.415	9119.26
313.48	9115.22
313.546	9114.69
313.611	9121.62
313.676	9111.32
313.741	9100.97
313.807	9105.88
313.872	9104.77
313.937	9116.33
314.003	9130.77
314.068	9129.76
314.133	9145.89
314.198	9134.34
314.264	9116.23
314.329	9099.72
314.394	9102.36
314.459	9094.66
314.525	9115.36
314.59	9110.4
314.655	9095.19
314.72	9096.78
314.785	9098.13
314.851	9093.41
314.916	9074.2
314.981	9056.25
315.046	9047.1
315.111	9039.59
315.176	9030.49
315.242	9028.37
315.307	9021.73
315.372	8999.05
315.437	8989.81
315.502	8974.26
315.567	8989.37
315.632	8975.65
315.698	8980.66
315.763	8969.3
315.828	8964.39
315.893	8951.73
315.958	8947.78
316.023	8946.62
316.088	8924.09
316.153	8902.34
316.218	8894.97
316.283	8878.56
316.348	8862.68
316.413	8863.31
316.479	8842.28
316.544	8808.3
316.609	8782.11
316.674	8745.49
316.739	8709.78
316.804	8681
316.869	8644.09
316.934	8600.43
316.999	8573.87
317.064	8520.3
317.129	8479.78
317.194	8441.87
317.259	8401.68
317.324	8348.81
317.389	8298.97
317.454	8265.33
317.518	8239.3
317.583	8214.86
317.648	8191.58
317.713	8156.8
317.778	8087.91
317.843	8063.9
317.908	8023.17
317.973	7982.52
318.038	7957.56
318.103	7920.62
318.168	7890.18
318.233	7858.29
318.297	7810.39
318.362	7767.16
318.427	7729.27
318.492	7702.63
318.557	7658.2
318.622	7629.16
318.687	7611.61
318.751	7576.04
318.816	7542.24
318.881	7502.77
318.946	7443.78
319.011	7401.91
319.075	7359.42
319.14	7332.99
319.205	7287.56
319.27	7250.81
319.335	7207.55
319.399	7158.58
319.464	7132.35
319.529	7071.43
319.594	7033.8
319.658	7005.21
319.723	6960.53
319.788	6927.96
319.853	6870.21
319.917	6837.12
319.982	6782.16
320.047	6746.47
320.112	6718.28
320.176	6665.59
320.241	6628.23
320.306	6604.17
320.37	6556.53
320.435	6523.59
320.5	6493.92
320.564	6447.78
320.629	6409.29
320.694	6378.33
320.758	6341.66
320.823	6296.92
320.888	6272.3
320.952	6222.1
321.017	6175.21
321.082	6134.43
321.146	6100.69
321.211	6068.02
321.275	6028.87
321.34	5985.5
321.405	5934.46
321.469	5888.16
321.534	5844.53
321.598	5797.81
321.663	5765.28
321.727	5735.45
321.792	5688.41
321.857	5644.52
321.921	5610.58
321.986	5570.13
322.05	5506.04
322.115	5470.67
322.179	5426.43
322.244	5371.61
322.308	5339.07
322.373	5296.95
322.437	5259.96
322.502	5232.82
322.566	5186.54
322.631	5151.47
322.695	5112.77
322.76	5069.81
322.824	5030.77
322.889	4992.13
322.953	4942.78
323.018	4876.78
323.082	4815.45
323.146	4764.67
323.211	4711.82
323.275	4670.56
323.34	4623.76
323.404	4594.05
323.468	4550.73
323.533	4509.11
323.597	4466.64
323.662	4413.59
323.726	4375.65
323.79	4326.77
323.855	4259.35
323.919	4213.69
323.983	4165.19
324.048	4096.38
324.112	4291.82
324.177	4161
324.241	3947.5
324.305	3742.83
324.37	3537.21
324.434	3338.48
324.498	3297.72
324.562	3248.44
324.627	3186.88
324.691	3135.68
324.755	3073.5
324.82	2994.52
324.884	2915.02
324.948	2845.76
325.012	2757.34
325.077	2639.62
