Data from 20250704_urea_0.1M_MAYP1162681_11-26-27-655.txt Node
Date: Fri Jul 04 11:26:27 BST 2025
User: adleo
Spectrometer: MAYP116268
Trigger mode: 0
Integration Time (sec): 1.000000E0
Scans to average: 1
Electric dark correction enabled: true
Nonlinearity correction enabled: true
Boxcar width: 10
XAxis mode: Wavelengths
Number of Pixels in Spectrum: 2068
>>>>>Begin Spectral Data<<<<<
179.565	1251.69
179.642	1309.94
179.718	1356.47
179.795	1395.21
179.871	1429.52
179.948	1449.74
180.024	1470.29
180.101	1494.59
180.177	1508.62
180.254	1531.52
180.33	1554.77
180.407	1611.51
180.483	1710.85
180.56	1805.4
180.636	1891.43
180.712	1876.83
180.789	1889.1
180.865	1900.88
180.942	1910.49
181.018	1922.8
181.095	1933.21
181.171	1936.4
181.248	1937.83
181.324	1949.34
181.4	1959.99
181.477	1969.5
181.553	1982.43
181.63	2006.83
181.706	2021.81
181.782	2030.08
181.859	2029.32
181.935	2035.03
182.011	2032.12
182.088	2048.15
182.164	2068.04
182.24	2081.31
182.317	2094.67
182.393	2093.05
182.469	2104.66
182.546	2119.31
182.622	2122.92
182.698	2116.12
182.775	2128.68
182.851	2143.14
182.927	2136.34
183.003	2129.54
183.08	2125.59
183.156	2135.06
183.232	2127.01
183.308	2115.08
183.385	2125.35
183.461	2144.61
183.537	2144.66
183.613	2157.65
183.69	2150.37
183.766	2138.95
183.842	2147.27
183.918	2151.94
183.995	2163.16
184.071	2170.59
184.147	2164.64
184.223	2152.84
184.299	2170.26
184.375	2160.5
184.452	2164.6
184.528	2217.08
184.604	2228.73
184.68	2241.01
184.756	2247.67
184.832	2255.33
184.908	2262.42
184.985	2262.47
185.061	2246.76
185.137	2257.33
185.213	2245.58
185.289	2244.15
185.365	2233.88
185.441	2235.21
185.517	2247.68
185.593	2245.78
185.669	2243.4
185.745	2254.15
185.822	2271.56
185.898	2262.8
185.974	2270.27
186.05	2263.7
186.126	2228.11
186.202	2220.55
186.278	2218.26
186.354	2212.36
186.43	2218.74
186.506	2216.74
186.582	2214.79
186.658	2223.4
186.734	2200.85
186.81	2203.8
186.886	2207.51
186.962	2223.97
187.038	2219.41
187.114	2209.69
187.19	2217.12
187.266	2205.56
187.341	2205.32
187.417	2197.33
187.493	2198.56
187.569	2202.75
187.645	2200.09
187.721	2190.29
187.797	2197.94
187.873	2201.61
187.949	2194.42
188.025	2186.95
188.101	2189.33
188.176	2193.61
188.252	2185.86
188.328	2196.6
188.404	2196.56
188.48	2193.08
188.556	2182.57
188.632	2182.81
188.707	2184.9
188.783	2182.81
188.859	2178.1
188.935	2167.2
189.011	2176.39
189.086	2168.58
189.162	2159.02
189.238	2153.69
189.314	2149.7
189.39	2143.08
189.465	2134.09
189.541	2149.08
189.617	2133.62
189.693	2130.34
189.768	2133.62
189.844	2159.08
189.92	2149.86
189.996	2159.57
190.071	2170.51
190.147	2172.17
190.223	2180.17
190.298	2173.89
190.374	2158.76
190.45	2170.98
190.526	2181.26
190.601	2173.41
190.677	2172.98
190.753	2201.16
190.828	2205.97
190.904	2225
190.98	2241.28
191.055	2252.74
191.131	2241.85
191.207	2265.35
191.282	2273.29
191.358	2263.64
191.433	2247.88
191.509	2261.43
191.585	2258.44
191.66	2258.44
191.736	2268.33
191.811	2259.05
191.887	2276
191.963	2299.27
192.038	2303.84
192.114	2301.93
192.189	2307.12
192.265	2305.88
192.34	2282.7
192.416	2280.27
192.491	2273.22
192.567	2273.84
192.642	2275.03
192.718	2276.65
192.793	2263.47
192.869	2258.57
192.944	2264.13
193.02	2271.56
193.095	2275.51
193.171	2279.89
193.246	2278.74
193.322	2274.17
193.397	2274.03
193.473	2259.08
193.548	2241.52
193.624	2244.85
193.699	2244
193.775	2260.76
193.85	2262.09
193.925	2272.22
194.001	2271.65
194.076	2265.04
194.152	2256.42
194.227	2250.52
194.302	2241.77
194.378	2244.2
194.453	2241.1
194.529	2252.1
194.604	2239.11
194.679	2231.59
194.755	2211.51
194.83	2225.94
194.905	2223.47
194.981	2234.41
195.056	2227.56
195.131	2233.94
195.207	2233.84
195.282	2225.28
195.357	2207.33
195.433	2223.22
195.508	2208.09
195.583	2216.8
195.659	2232.46
195.734	2241.79
195.809	2238.69
195.884	2245.88
195.96	2247.16
196.035	2264.86
196.11	2258.34
196.185	2271.14
196.261	2275.04
196.336	2309.59
196.411	2291.88
196.486	2295.4
196.561	2288.6
196.637	2295.16
196.712	2312.78
196.787	2318.35
196.862	2334.62
196.937	2342.1
197.013	2345.86
197.088	2360.18
197.163	2382.94
197.238	2398.04
197.313	2394.09
197.388	2406.8
197.464	2440.04
197.539	2453.03
197.614	2443.94
197.689	2458.65
197.764	2475.37
197.839	2496.56
197.914	2490.27
197.989	2516.32
198.065	2532.17
198.14	2584.64
198.215	2615.93
198.29	2630.94
198.365	2642.75
198.44	2653.37
198.515	2682.05
198.59	2698.91
198.665	2724.01
198.74	2729.88
198.815	2729.26
198.89	2753.88
198.965	2786.43
199.04	2779.66
199.115	2793.24
199.19	2838.88
199.265	2840.03
199.34	2849.27
199.415	2887.09
199.49	2908.96
199.565	2918.44
199.64	2944.42
199.715	2941.08
199.79	2947.47
199.865	2951.28
199.94	2949.95
200.015	2979.94
200.09	2987.04
200.165	2995.24
200.24	3004.49
200.315	3045.96
200.39	3065.51
200.464	3073.66
200.539	3077
200.614	3097.16
200.689	3120.29
200.764	3127.26
200.839	3148.32
200.914	3155.24
200.989	3140.06
201.063	3154.51
201.138	3136.22
201.213	3141.27
201.288	3122.39
201.363	3127.87
201.438	3131.02
201.512	3150.75
201.587	3135.54
201.662	3140.83
201.737	3154.09
201.812	3160.63
201.886	3128.89
201.961	3138
202.036	3127.56
202.111	3127.32
202.186	3097.39
202.26	3082.51
202.335	3062.15
202.41	3057.81
202.485	3043.41
202.559	3024.72
202.634	2999.41
202.709	3015.27
202.784	2997.06
202.858	3000.54
202.933	2986.85
203.008	2983.32
203.082	2966.16
203.157	2974.13
203.232	2938.19
203.306	2926.22
203.381	2905.57
203.456	2892.7
203.53	2879.86
203.605	2869.72
203.68	2858.94
203.754	2867.37
203.829	2867.37
203.904	2866.46
203.978	2878.77
204.053	2903.85
204.127	2915.81
204.202	2940.56
204.277	2948.76
204.351	2965.83
204.426	2990.44
204.5	3016.06
204.575	3015.91
204.65	3069.5
204.724	3100.48
204.799	3150.3
204.873	3191.3
204.948	3239.92
205.022	3280.38
205.097	3326.37
205.171	3403.79
205.246	3470.65
205.32	3538.9
205.395	3611.35
205.469	3670.22
205.544	3744.87
205.618	3799.15
205.693	3891.61
205.767	3961.43
205.842	4064.99
205.916	4152.04
205.991	4233.11
206.065	4333.65
206.14	4452.72
206.214	4546.89
206.289	4646.61
206.363	4767.48
206.438	4888.53
206.512	5012.02
206.586	5147.18
206.661	5281.34
206.735	5385.04
206.81	5515.66
206.884	5659.11
206.958	5776.64
207.033	5935.89
207.107	6084.15
207.181	6265.95
207.256	6410.44
207.33	6580.48
207.405	6748.47
207.479	6923.16
207.553	7093.01
207.628	7241.51
207.702	7414.7
207.776	7575.83
207.851	7741.83
207.925	7930.02
207.999	8094.91
208.073	8265.63
208.148	8446.52
208.222	8610.52
208.296	8816.22
208.371	9012.92
208.445	9203.79
208.519	9417.04
208.593	9608.48
208.668	9787.78
208.742	9975.4
208.816	10162.75
208.89	10358.48
208.965	10539.92
209.039	10732.55
209.113	10934.04
209.187	11142.61
209.261	11323.26
209.336	11534.48
209.41	11750.52
209.484	11932.52
209.558	12148.82
209.632	12352.27
209.707	12546.42
209.781	12760.43
209.855	12959.94
209.929	13163.07
210.003	13352.99
210.077	13532.07
210.151	13763.06
210.226	13986.29
210.3	14192.12
210.374	14395.58
210.448	14588.5
210.522	14777.16
210.596	14964.77
210.67	15146.01
210.744	15367.74
210.818	15571.49
210.892	15759.08
210.966	15925.23
211.041	16111.09
211.115	16263.25
211.189	16447.27
211.263	16628.3
211.337	16781.85
211.411	16964.18
211.485	17114.26
211.559	17294.31
211.633	17460.87
211.707	17593.07
211.781	17747.52
211.855	17862.41
211.929	18007.09
212.003	18131.9
212.077	18291.9
212.151	18457.63
212.225	18617.67
212.299	18749.57
212.373	18887.88
212.447	19023.2
212.52	19194.23
212.594	19344.29
212.668	19498.79
212.742	19624.43
212.816	19758.45
212.89	19891.21
212.964	20014.83
213.038	20152.37
213.112	20289.77
213.186	20438.73
213.26	20542.44
213.333	20627.89
213.407	20766.64
213.481	20888.91
213.555	21024.34
213.629	21127.48
213.703	21220.4
213.777	21329.52
213.85	21421.01
213.924	21564.26
213.998	21676.24
214.072	21778.19
214.146	21871.51
214.219	21972.55
214.293	22072.14
214.367	22181.81
214.441	22294.85
214.515	22390.06
214.588	22459.96
214.662	22509.96
214.736	22570.56
214.81	22657.33
214.883	22747.82
214.957	22816.23
215.031	22888.59
215.105	22943.02
215.178	23019.73
215.252	23103
215.326	23167.9
215.4	23227.6
215.473	23257.64
215.547	23317.82
215.621	23370.1
215.694	23440.03
215.768	23494.33
215.842	23556.25
215.915	23593.14
215.989	23637.99
216.063	23684.54
216.136	23749.84
216.21	23810.36
216.284	23881.45
216.357	23951.62
216.431	24011.96
216.504	24068.82
216.578	24151.26
216.652	24226.88
216.725	24282.74
216.799	24343.62
216.873	24397.8
216.946	24458.38
217.02	24496.29
217.093	24542.61
217.167	24577.77
217.24	24611.35
217.314	24649.27
217.387	24696.74
217.461	24754.2
217.535	24810.94
217.608	24836.27
217.682	24876.85
217.755	24933.78
217.829	24968.61
217.902	25009.63
217.976	25049.19
218.049	25087.7
218.123	25109.07
218.196	25151.2
218.27	25180.3
218.343	25197.86
218.417	25224.55
218.49	25253.84
218.563	25313.58
218.637	25340.17
218.71	25389.06
218.784	25433.17
218.857	25484.86
218.931	25502.23
219.004	25525.16
219.077	25563.38
219.151	25617.77
219.224	25659.38
219.298	25689.06
219.371	25734.58
219.444	25746.45
219.518	25775.22
219.591	25809.92
219.665	25868.43
219.738	25898.26
219.811	25922.2
219.885	25962.56
219.958	26007.89
220.031	26035.45
220.105	26064.9
220.178	26098.69
220.251	26108
220.325	26129.54
220.398	26144.5
220.471	26171.1
220.544	26203.93
220.618	26208.32
220.691	26227.24
220.764	26234.78
220.838	26255.78
220.911	26259.11
220.984	26297.1
221.057	26332.73
221.131	26347.75
221.204	26320.03
221.277	26345.67
221.35	26393.14
221.424	26397.48
221.497	26396.13
221.57	26408.54
221.643	26419.06
221.716	26434.47
221.79	26442.14
221.863	26447.94
221.936	26452.76
222.009	26461.99
222.082	26468.99
222.155	26470
222.229	26483.33
222.302	26488.06
222.375	26489.03
222.448	26495.98
222.521	26494.82
222.594	26472.41
222.667	26462.95
222.74	26483.38
222.814	26482.6
222.887	26468.21
222.96	26474.2
223.033	26486.41
223.106	26479.99
223.179	26477.68
223.252	26470.24
223.325	26476.66
223.398	26476.37
223.471	26477
223.544	26475.36
223.617	26473.38
223.69	26477.14
223.763	26457.69
223.837	26462.37
223.91	26463
223.983	26438.28
224.056	26422.25
224.129	26424.95
224.202	26427.12
224.275	26409.45
224.348	26381.5
224.42	26354.27
224.493	26317.19
224.566	26294.69
224.639	26291.41
224.712	26269.29
224.785	26257.8
224.858	26237.09
224.931	26213.29
225.004	26180.32
225.077	26160.76
225.15	26110.9
225.223	26088.79
225.296	26090.91
225.369	26058.81
225.442	26021.25
225.514	26011.69
225.587	25990.94
225.66	25969.4
225.733	25949.37
225.806	25922
225.879	25909.5
225.952	25873.06
226.025	25867.7
226.097	25861.91
226.17	25845.11
226.243	25799.59
226.316	25765.8
226.389	25739.3
226.461	25722.36
226.534	25712.13
226.607	25686.16
226.68	25683.8
226.753	25662.13
226.825	25615.07
226.898	25595.95
226.971	25579.16
227.044	25550.15
227.117	25530.51
227.189	25509.66
227.262	25497.54
227.335	25484.47
227.407	25444.7
227.48	25427.28
227.553	25398.52
227.626	25359.32
227.698	25313
227.771	25295.87
227.844	25264.36
227.916	25238.3
227.989	25189.08
228.062	25145.36
228.134	25140.49
228.207	25108.59
228.28	25071.92
228.352	25048.28
228.425	25012.23
228.498	24990.66
228.57	24958.15
228.643	24939.09
228.716	24901.16
228.788	24855.13
228.861	24815.71
228.934	24805
229.006	24776.58
229.079	24751.01
229.151	24713.62
229.224	24677.19
229.296	24653.46
229.369	24648.2
229.442	24632.52
229.514	24600.83
229.587	24588.24
229.659	24541.44
229.732	24519.87
229.804	24504.24
229.877	24491.51
229.949	24476.89
230.022	24467.77
230.094	24445.34
230.167	24418.23
230.239	24383.26
230.312	24358.41
230.384	24355.57
230.457	24324.12
230.529	24291.7
230.602	24271.3
230.674	24246.12
230.747	24232.9
230.819	24213.9
230.892	24155.29
230.964	24129.05
231.037	24111.02
231.109	24075.23
231.181	24051.11
231.254	24007.66
231.326	23958.99
231.399	23916.84
231.471	23872.42
231.544	23812.7
231.616	23784.54
231.688	23751.5
231.761	23708.1
231.833	23658.72
231.905	23593.08
231.978	23550.3
232.05	23517.61
232.122	23470.39
232.195	23425.26
232.267	23400.9
232.339	23355.04
232.412	23329.73
232.484	23281.45
232.556	23237.09
232.629	23222.87
232.701	23187.76
232.773	23152.08
232.846	23113.99
232.918	23079.75
232.99	23049.18
233.062	23020.88
233.135	22980.23
233.207	22921.94
233.279	22901.3
233.351	22869.15
233.424	22831.97
233.496	22780.92
233.568	22758.55
233.64	22707.78
233.713	22673.89
233.785	22629.43
233.857	22594.48
233.929	22544.2
234.001	22523.61
234.074	22498.25
234.146	22429.75
234.218	22386.21
234.29	22341.43
234.362	22306.91
234.434	22255.67
234.507	22207.02
234.579	22159.93
234.651	22116.25
234.723	22083.38
234.795	22044.14
234.867	22004.46
234.939	21983.54
235.012	21955.54
235.084	21926.03
235.156	21897.21
235.228	21847.95
235.3	21804.71
235.372	21774.53
235.444	21744.31
235.516	21673.98
235.588	21636.72
235.66	21605.83
235.732	21552.32
235.804	21566.16
235.876	21534.44
235.948	21513.57
236.02	21467.35
236.092	21416.65
236.164	21378.09
236.236	21332.54
236.308	21285.4
236.38	21256.05
236.452	21200.87
236.524	21165.1
236.596	21142.21
236.668	21106.54
236.74	21071.02
236.812	21037.43
236.884	20994.97
236.956	20963.01
237.028	20922.92
237.1	20872.94
237.172	20837.47
237.244	20814.24
237.316	20741.75
237.388	20691.72
237.46	20627.33
237.532	20598.08
237.604	20547.96
237.675	20516.35
237.747	20480.49
237.819	20428.35
237.891	20385.02
237.963	20334.52
238.035	20281.26
238.107	20196.78
238.178	20172.64
238.25	20128.44
238.322	20100.88
238.394	20045.65
238.466	19996.4
238.538	19955.63
238.609	19915.39
238.681	19859.87
238.753	19810.19
238.825	19770.19
238.897	19732.22
238.968	19713.85
239.04	19666.72
239.112	19660.89
239.184	19604.27
239.255	19569.04
239.327	19528.61
239.399	19487.5
239.471	19455.84
239.542	19422.35
239.614	19390.35
239.686	19311.9
239.758	19285.49
239.829	19233.11
239.901	19200.24
239.973	19155.57
240.044	19132.06
240.116	19089.36
240.188	19049.89
240.259	19004.16
240.331	18947.1
240.403	18912.94
240.474	18854.92
240.546	18814.82
240.618	18749.09
240.689	18714.11
240.761	18679.12
240.833	18666.49
240.904	18623.51
240.976	18580.23
241.048	18537.73
241.119	18516.72
241.191	18488.77
241.262	18465.3
241.334	18413.3
241.405	18374.22
241.477	18331.91
241.549	18277.02
241.62	18240.3
241.692	18207.43
241.763	18186.28
241.835	18153.32
241.906	18106.43
241.978	18055.01
242.049	18024.4
242.121	17998.72
242.192	17966.82
242.264	17905.76
242.335	17840.36
242.407	17810.82
242.478	17771.01
242.55	17737.33
242.621	17682.97
242.693	17638.73
242.764	17585.81
242.836	17550.83
242.907	17510.54
242.979	17477.38
243.05	17438.54
243.122	17402.63
243.193	17363.6
243.264	17296.56
243.336	17247.4
243.407	17215.98
243.479	17192.85
243.55	17160.7
243.622	17128.61
243.693	17085.23
243.764	17057.38
243.836	17008.26
243.907	16963.59
243.978	16924.6
244.05	16883.49
244.121	16822.76
244.192	16795.87
244.264	16738.32
244.335	16702.47
244.407	16654.37
244.478	16617.3
244.549	16587.66
244.62	16536.72
244.692	16496.24
244.763	16471.37
244.834	16435.7
244.906	16397.24
244.977	16365.96
245.048	16340.46
245.119	16288.65
245.191	16246.19
245.262	16197.99
245.333	16182.18
245.405	16149.46
245.476	16115.62
245.547	16082.22
245.618	16063.42
245.689	16036.05
245.761	16013.44
245.832	15977.77
245.903	15947.07
245.974	15917.81
246.045	15870.87
246.117	15862.29
246.188	15819.1
246.259	15770.9
246.33	15739.18
246.401	15694.45
246.473	15650.11
246.544	15605.77
246.615	15583.59
246.686	15546.19
246.757	15522.04
246.828	15476.44
246.899	15457.89
246.97	15417.78
247.042	15377.24
247.113	15347.84
247.184	15327.6
247.255	15287.4
247.326	15259.68
247.397	15223.82
247.468	15191.23
247.539	15164.91
247.61	15110.49
247.681	15084.13
247.752	15071.45
247.823	15031.25
247.894	15004.3
247.965	14951.47
248.037	14912.57
248.108	14865.76
248.179	14829.47
248.25	14795.05
248.321	14777.45
248.392	14722.45
248.463	14709.63
248.534	14681.67
248.605	14655.64
248.675	14618.96
248.746	14588.3
248.817	14562.37
248.888	14539.76
248.959	14489.87
249.03	14458.44
249.101	14428.17
249.172	14393.31
249.243	14345.69
249.314	14330.93
249.385	14304.52
249.456	14294.3
249.527	14260.07
249.598	14239.59
249.669	14213.07
249.739	14194.95
249.81	14164.62
249.881	14127.36
249.952	14092.75
250.023	14057.51
250.094	14012.73
250.165	13977.68
250.235	13955.27
250.306	13923.93
250.377	13885.9
250.448	13863.1
250.519	13822.75
250.59	13819.28
250.66	13788.04
250.731	13775.6
250.802	13746.53
250.873	13720.31
250.944	13690.52
251.014	13655.95
251.085	13647.9
251.156	13630.84
251.227	13608.57
251.297	13596.9
251.368	13583.98
251.439	13569.28
251.51	13557.47
251.58	13525.26
251.651	13488.68
251.722	13471.03
251.792	13419.4
251.863	13396.94
251.934	13390.53
252.005	13388.5
252.075	13354.23
252.146	13345.07
252.217	13327.33
252.287	13306.74
252.358	13279.31
252.429	13276.52
252.499	13251.31
252.57	13228.6
252.641	13211.63
252.711	13189.94
252.782	13150.8
252.852	13144.72
252.923	13116.67
252.994	13090.54
253.064	13081.62
253.135	13048.45
253.205	13018.42
253.276	13017.07
253.347	13013.26
253.417	12981.69
253.488	12953.68
253.558	12923.55
253.629	12895.98
253.699	12875.73
253.77	12860.64
253.841	12842.81
253.911	12818.42
253.982	12803.57
254.052	12788.38
254.123	12765.29
254.193	12738.97
254.264	12753.29
254.334	12715.98
254.405	12679.92
254.475	12651.91
254.546	12622.08
254.616	12623.86
254.687	12598.99
254.757	12582.89
254.827	12549.72
254.898	12535.74
254.968	12511.5
255.039	12487.63
255.109	12475.05
255.18	12444.4
255.25	12400.1
255.321	12386.5
255.391	12347.36
255.461	12345.82
255.532	12293.18
255.602	12271.2
255.673	12232.78
255.743	12198.85
255.813	12154.21
255.884	12153.78
255.954	12143.37
256.024	12147.75
256.095	12123.7
256.165	12095.36
256.235	12088.32
256.306	12061.81
256.376	12044.31
256.446	12036.69
256.517	12017.9
256.587	12010.18
256.657	11995.43
256.728	11983.96
256.798	11954.46
256.868	11937.3
256.938	11900.09
257.009	11894.6
257.079	11881.29
257.149	11885.25
257.219	11846.16
257.29	11837.77
257.36	11792.42
257.43	11780.65
257.5	11735.15
257.571	11704.02
257.641	11693.61
257.711	11656.44
257.781	11643.77
257.852	11638.66
257.922	11602.46
257.992	11586.22
258.062	11557.64
258.132	11543.03
258.202	11519.42
258.273	11501.73
258.343	11495.18
258.413	11473.39
258.483	11450.74
258.553	11416.42
258.623	11391.07
258.693	11377.48
258.764	11380.52
258.834	11375.79
258.904	11349.04
258.974	11321.62
259.044	11300.03
259.114	11281.72
259.184	11263.6
259.254	11239.98
259.324	11192.22
259.394	11178.83
259.464	11177.19
259.535	11161.28
259.605	11139.31
259.675	11115.36
259.745	11101.43
259.815	11073.67
259.885	11050.06
259.955	11061.38
260.025	11041.34
260.095	11024.42
260.165	11015.84
260.235	11003.12
260.305	10979.07
260.375	10954.69
260.445	10966.64
260.515	10971.17
260.585	10966.98
260.655	10950.93
260.725	10942.31
260.795	10932.52
260.865	10931.66
260.934	10901.01
261.004	10887.8
261.074	10875.32
261.144	10870.17
261.214	10868.19
261.284	10850.12
261.354	10848.34
261.424	10814.65
261.494	10817.4
261.564	10794.12
261.634	10779.76
261.703	10748.49
261.773	10741.46
261.843	10733.6
261.913	10709.03
261.983	10671.49
262.053	10670.63
262.123	10656.8
262.192	10628.27
262.262	10627.12
262.332	10598.21
262.402	10594.06
262.472	10578.02
262.541	10539.38
262.611	10540.2
262.681	10511.72
262.751	10503.05
262.821	10482.38
262.89	10460.79
262.96	10451.11
263.03	10463.39
263.1	10451.54
263.169	10444.41
263.239	10431.88
263.309	10437.18
263.379	10428.22
263.448	10418.11
263.518	10401.43
263.588	10380.52
263.657	10391.75
263.727	10379.37
263.797	10366.89
263.867	10350.89
263.936	10324.97
264.006	10323.77
264.076	10299.25
264.145	10279.21
264.215	10259.36
264.285	10252.28
264.354	10217.64
264.424	10193.41
264.494	10160.07
264.563	10136.56
264.633	10137.96
264.702	10126.44
264.772	10092.43
264.842	10076.63
264.911	10072.1
264.981	10036.36
265.05	10026.63
265.12	9997.48
265.19	9985.87
265.259	9978.45
265.329	9969.78
265.398	9953.98
265.468	9969.35
265.537	9952.2
265.607	9947.48
265.676	9943.63
265.746	9932.69
265.815	9937.7
265.885	9923.01
265.955	9894.4
266.024	9874.94
266.094	9833.13
266.163	9837.18
266.232	9835.16
266.302	9819.5
266.371	9805.78
266.441	9795.9
266.51	9790.99
266.58	9776.73
266.649	9754.87
266.719	9754.91
266.788	9743.21
266.858	9756.12
266.927	9719.17
266.996	9713.06
267.066	9705.98
267.135	9682.09
267.205	9674.48
267.274	9663.02
267.343	9663.84
267.413	9656.23
267.482	9661.91
267.552	9671.73
267.621	9641.25
267.69	9607.68
267.76	9597.71
267.829	9593.76
267.898	9585.14
267.968	9565.01
268.037	9562.12
268.106	9557.69
268.176	9534.91
268.245	9520.03
268.314	9495.66
268.384	9493.73
268.453	9483.43
268.522	9475.77
268.592	9474.81
268.661	9458.87
268.73	9447.65
268.799	9423.14
268.869	9430.26
268.938	9402.53
269.007	9378.98
269.076	9369.54
269.146	9373.54
269.215	9363.95
269.284	9364.48
269.353	9346.72
269.422	9333.04
269.492	9314.51
269.561	9281.52
269.63	9271.27
269.699	9260.91
269.768	9255.28
269.838	9248.2
269.907	9243.77
269.976	9213.2
270.045	9178.82
270.114	9180.27
270.183	9165.97
270.253	9159.37
270.322	9129
270.391	9120.04
270.46	9121
270.529	9121.73
270.598	9117.25
270.667	9109.5
270.736	9088.69
270.806	9087.68
270.875	9091.92
270.944	9083.5
271.013	9100.44
271.082	9093.56
271.151	9088.41
271.22	9059.18
271.289	9046.38
271.358	9037.66
271.427	9038.48
271.496	9039.68
271.565	9014.99
271.634	9011.09
271.703	9040.17
271.772	9047.34
271.841	9034.3
271.91	9012.15
271.979	8999.54
272.048	8979.61
272.117	8983.08
272.186	8965.22
272.255	8960.16
272.324	8954.82
272.393	8947.6
272.462	8935.37
272.531	8928
272.6	8915.44
272.669	8923.76
272.738	8910.05
272.807	8898.4
272.876	8877.56
272.945	8903.55
273.013	8911.88
273.082	8910.58
273.151	8867.01
273.22	8861.47
273.289	8858.82
273.358	8870.33
273.427	8868.35
273.496	8868.84
273.564	8858.82
273.633	8869.27
273.702	8853.05
273.771	8843.9
273.84	8842.46
273.909	8842.36
273.977	8840.92
274.046	8829.32
274.115	8835.33
274.184	8822.2
274.253	8820.75
274.322	8831.97
274.39	8799.33
274.459	8776.08
274.528	8755.67
274.597	8741.28
274.665	8736.47
274.734	8742.25
274.803	8732.72
274.872	8714.81
274.94	8699.6
275.009	8729.89
275.078	8705.1
275.147	8703.13
275.215	8692.49
275.284	8696.34
275.353	8678.24
275.421	8654.08
275.49	8671.22
275.559	8652.59
275.627	8644.22
275.696	8631.61
275.765	8626.12
275.833	8617.22
275.902	8620.64
275.971	8628.53
276.039	8648.89
276.108	8653.32
276.177	8646.63
276.245	8636.33
276.314	8631.99
276.383	8638.59
276.451	8599.98
276.52	8603.83
276.588	8616.1
276.657	8618.89
276.725	8610.47
276.794	8612.39
276.863	8622.84
276.931	8593.91
277	8603.2
277.068	8612.29
277.137	8626.49
277.205	8628.9
277.274	8650.74
277.342	8659.46
277.411	8640.4
277.48	8626.11
277.548	8615.47
277.617	8619.32
277.685	8616.67
277.754	8627.98
277.822	8625.34
277.89	8638.81
277.959	8634.53
278.027	8610.52
278.096	8603.49
278.164	8634.3
278.233	8626.93
278.301	8612.98
278.37	8617.41
278.438	8604.27
278.507	8609.9
278.575	8585.02
278.643	8579.48
278.712	8557.68
278.78	8544.88
278.849	8556.53
278.917	8567.84
278.985	8561.96
279.054	8565.82
279.122	8574.19
279.191	8567.45
279.259	8557.39
279.327	8539.2
279.396	8549.84
279.464	8551.52
279.532	8557.15
279.601	8548.58
279.669	8549.01
279.737	8565.18
279.806	8573.99
279.874	8585.83
279.942	8583.71
280.011	8583.42
280.079	8584
280.147	8605.85
280.215	8613.07
280.284	8606.76
280.352	8590.74
280.42	8599.3
280.488	8586.26
280.557	8578.95
280.625	8586.31
280.693	8590.11
280.761	8590.83
280.83	8577.45
280.898	8588.47
280.966	8571.58
281.034	8539.29
281.102	8517.69
281.171	8505.22
281.239	8515.33
281.307	8504.64
281.375	8493.29
281.443	8519.28
281.512	8524.47
281.58	8526.25
281.648	8507.29
281.716	8503.16
281.784	8506.43
281.852	8496.76
281.92	8498.78
281.989	8511.29
282.057	8489.11
282.125	8533.25
282.193	8526.9
282.261	8530.75
282.329	8526.94
282.397	8529.25
282.465	8530.99
282.533	8551.77
282.601	8552.06
282.67	8527.99
282.738	8521.35
282.806	8533.53
282.874	8519.23
282.942	8518.08
283.01	8509.51
283.078	8514.03
283.146	8513.84
283.214	8522.46
283.282	8528.52
283.35	8540.79
283.418	8528.18
283.486	8533.09
283.554	8486.74
283.622	8488.81
283.69	8487.51
283.758	8482.45
283.826	8489.58
283.894	8505.02
283.962	8524.47
284.03	8540.78
284.098	8538.57
284.165	8534.38
284.233	8530.87
284.301	8526.64
284.369	8521.15
284.437	8516.14
284.505	8516.48
284.573	8532.65
284.641	8525.96
284.709	8530.34
284.777	8511.09
284.845	8520.43
284.912	8525.91
284.98	8531.73
285.048	8523.79
285.116	8524.66
285.184	8538.71
285.252	8546.75
285.319	8528.8
285.387	8515.03
285.455	8497.61
285.523	8508.01
285.591	8506.71
285.659	8509.69
285.726	8520.81
285.794	8506.8
285.862	8502.14
285.93	8501.03
285.997	8498.38
286.065	8490.11
286.133	8484.33
286.201	8482.7
286.269	8469.12
286.336	8464.84
286.404	8459.26
286.472	8470.23
286.539	8451.8
286.607	8432.56
286.675	8428.03
286.743	8432.17
286.81	8432.46
286.878	8442.9
286.946	8432.6
287.013	8432.41
287.081	8430.63
287.149	8419.56
287.216	8439.63
287.284	8436.6
287.352	8436.74
287.419	8432.46
287.487	8444.63
287.555	8451.18
287.622	8449.93
287.69	8455.7
287.758	8464.6
287.825	8464.75
287.893	8457.14
287.96	8464.41
288.028	8481.2
288.096	8483.03
288.163	8487.27
288.231	8477.02
288.298	8476.82
288.366	8492.03
288.433	8487.17
288.501	8483.42
288.569	8482.36
288.636	8478.17
288.704	8500.65
288.771	8510.94
288.839	8496.27
288.906	8493.72
288.974	8500.46
289.041	8496.56
289.109	8492.37
289.176	8497.43
289.244	8500.89
289.311	8511.38
289.379	8527.45
289.446	8526.83
289.514	8531.3
289.581	8529.48
289.649	8529.76
289.716	8531.83
289.783	8523.85
289.851	8540.97
289.918	8541.17
289.986	8552.24
290.053	8557.82
290.121	8542.99
290.188	8542.8
290.255	8577.16
290.323	8574.85
290.39	8571.1
290.458	8582.89
290.525	8592.51
290.592	8589.48
290.66	8588.95
290.727	8582.07
290.794	8591.07
290.862	8592.56
290.929	8596.51
290.996	8602.33
291.064	8609.35
291.131	8616.43
291.198	8633.37
291.266	8637.85
291.333	8640.59
291.4	8644.54
291.468	8660.08
291.535	8661.58
291.602	8670
291.669	8664.13
291.737	8663.98
291.804	8660.23
291.871	8679.67
291.938	8689.44
292.006	8719.72
292.073	8738.01
292.14	8755.67
292.207	8752.5
292.275	8753.32
292.342	8758.08
292.409	8777.72
292.476	8805.54
292.543	8803.28
292.611	8801.98
292.678	8819.21
292.745	8841.26
292.812	8853.77
292.879	8843.81
292.946	8849.39
293.014	8862.82
293.081	8872.35
293.148	8887.75
293.215	8906.91
293.282	8898.97
293.349	8903.97
293.416	8887.46
293.484	8892.42
293.551	8899.35
293.618	8912.2
293.685	8938.78
293.752	8926.98
293.819	8926.84
293.886	8918.37
293.953	8924.43
294.02	8939.98
294.087	8945.61
294.154	8940.32
294.221	8955.34
294.288	8961.41
294.356	8979.17
294.423	8980.27
294.49	8974.45
294.557	8989.57
294.624	8983.21
294.691	9001.26
294.758	9000.35
294.825	9009.88
294.892	9005.79
294.959	9006.27
295.026	9014.21
295.093	9006.61
295.16	9012.24
295.226	9018.74
295.293	9045.36
295.36	9050.27
295.427	9060.58
295.494	9078.2
295.561	9088.26
295.628	9113.93
295.695	9129.77
295.762	9141.47
295.829	9156.25
295.896	9173.05
295.963	9181.96
296.03	9191.93
296.096	9196.93
296.163	9216.05
296.23	9231.7
296.297	9251.68
296.364	9249.37
296.431	9255.19
296.498	9253.7
296.564	9279.94
296.631	9277.1
296.698	9260.29
296.765	9282.73
296.832	9270.69
296.899	9253.89
296.965	9272.62
297.032	9246.27
297.099	9264.62
297.166	9266.21
297.233	9259.08
297.299	9252.73
297.366	9252.53
297.433	9252.68
297.5	9265.25
297.566	9266.45
297.633	9263.08
297.7	9263.22
297.767	9267.32
297.833	9276.8
297.9	9285.42
297.967	9273.19
298.033	9290.04
298.1	9320.43
298.167	9312.49
298.234	9316.05
298.3	9325.77
298.367	9319.61
298.434	9333.24
298.5	9324.57
298.567	9325.49
298.634	9328.57
298.7	9346.82
298.767	9351.05
298.834	9364.2
298.9	9359.48
298.967	9352.3
299.033	9367.33
299.1	9386.69
299.167	9402.29
299.233	9395.84
299.3	9406.14
299.366	9421.79
299.433	9439.32
299.5	9409.46
299.566	9412.83
299.633	9434.84
299.699	9441.39
299.766	9446.06
299.832	9445.72
299.899	9459.11
299.965	9464.12
300.032	9458.2
300.099	9462.87
300.165	9467.25
300.232	9466.91
300.298	9470.57
300.365	9485.45
300.431	9482.27
300.498	9471.73
300.564	9477.65
300.631	9493.78
300.697	9513.58
300.763	9520.9
300.83	9512.28
300.896	9531.44
300.963	9549.16
301.029	9547.28
301.096	9555.13
301.162	9562.89
301.229	9557.16
301.295	9542.32
301.361	9549.6
301.428	9554.07
301.494	9546.22
301.561	9552
301.627	9553.98
301.693	9552.48
301.76	9555.66
301.826	9550.27
301.892	9565.01
301.959	9577
302.025	9569.15
302.092	9558.22
302.158	9561.68
302.224	9573.68
302.291	9563.8
302.357	9554.56
302.423	9557.35
302.49	9552.77
302.556	9566.93
302.622	9572.14
302.688	9585.96
302.755	9594.24
302.821	9606.62
302.887	9616.78
302.954	9613.12
303.02	9624.19
303.086	9639.51
303.152	9637.49
303.219	9638.88
303.285	9642.98
303.351	9645.34
303.417	9651.45
303.483	9642.98
303.55	9637.15
303.616	9631.08
303.682	9634.4
303.748	9628.67
303.815	9636.91
303.881	9647.55
303.947	9635.03
304.013	9635.85
304.079	9626.89
304.145	9610.57
304.212	9612.68
304.278	9606.76
304.344	9603.78
304.41	9594.19
304.476	9575.84
304.542	9570.64
304.608	9579.12
304.674	9558.31
304.741	9551.33
304.807	9549.11
304.873	9554.12
304.939	9567.37
305.005	9545.84
305.071	9549.69
305.137	9548.82
305.203	9525.42
305.269	9520.8
305.335	9530.81
305.401	9528.84
305.467	9523.25
305.533	9537.12
305.599	9543.09
305.666	9549.74
305.732	9554.8
305.798	9564.19
305.864	9595.54
305.93	9599.92
305.996	9589.28
306.062	9595.25
306.128	9590.92
306.194	9582.11
306.259	9584.95
306.325	9573.68
306.391	9591.59
306.457	9589.42
306.523	9601.75
306.589	9626.41
306.655	9619.96
306.721	9602.48
306.787	9590.77
306.853	9607.29
306.919	9585.86
306.985	9577.34
307.051	9569.68
307.117	9562.55
307.183	9558.17
307.248	9529.56
307.314	9534.04
307.38	9543.43
307.446	9546.47
307.512	9539.15
307.578	9543.48
307.644	9530.43
307.709	9536.83
307.775	9524.99
307.841	9521.33
307.907	9519.02
307.973	9500.47
308.039	9500.91
308.104	9504.08
308.17	9511.02
308.236	9500.66
308.302	9506.06
308.368	9490.55
308.433	9486.36
308.499	9480.39
308.565	9468.26
308.631	9469.46
308.696	9450.25
308.762	9435.7
308.828	9436.52
308.894	9421.02
308.959	9398.77
309.025	9398.82
309.091	9394.39
309.156	9396.22
309.222	9397.66
309.288	9380.42
309.354	9357.55
309.419	9351.82
309.485	9340.12
309.551	9342.29
309.616	9325.15
309.682	9322.35
309.748	9320.76
309.813	9318.4
309.879	9311.18
309.945	9299.72
310.01	9289.56
310.076	9292.74
310.141	9287.49
310.207	9268.57
310.273	9265.1
310.338	9274.3
310.404	9255.33
310.469	9244.25
310.535	9229.81
310.601	9201.98
310.666	9208.29
310.732	9223.64
310.797	9214.98
310.863	9205.73
310.928	9197.64
310.994	9202.17
311.059	9199.42
311.125	9193.26
311.191	9208.24
311.256	9196.2
311.322	9204.63
311.387	9193.7
311.453	9483.3
311.518	9455.96
311.584	9455.14
311.649	9456.44
311.715	9445.51
311.78	9451.24
311.846	9436.41
311.911	9439.25
311.976	9452.59
312.042	9434.05
312.107	9415.85
312.173	9408.29
312.238	9398.42
312.304	9390.38
312.369	9383.4
312.434	9376.56
312.5	9374.11
312.565	9338.48
312.631	9344.25
312.696	9333.04
312.761	9330.53
312.827	9028.99
312.892	9067.65
312.958	9067.89
313.023	9074.78
313.088	9073.76
313.154	9062.55
313.219	9058.99
313.284	9053.55
313.35	9046.56
313.415	9037.08
313.48	9029.72
313.546	9030.54
313.611	9046.86
313.676	9039.1
313.741	9027.74
313.807	9030.05
313.872	9032.8
313.937	9039.39
314.003	9051.48
314.068	9055.52
314.133	9068.62
314.198	9058.03
314.264	9042.23
314.329	9026.15
314.394	9023.6
314.459	9016.67
314.525	9032.89
314.59	9035.3
314.655	9024.42
314.72	9034.24
314.785	9041.22
314.851	9033.23
314.916	9017.68
314.981	8993.71
315.046	8982.98
315.111	8975.23
315.176	8964.73
315.242	8970.12
315.307	8967.33
315.372	8949.95
315.437	8935.51
315.502	8917.5
315.567	8929.1
315.632	8911
315.698	8916.35
315.763	8904.26
315.828	8898.58
315.893	8888.62
315.958	8875.28
316.023	8867.39
316.088	8843.85
316.153	8818.49
316.218	8820.56
316.283	8800.25
316.348	8787.64
316.413	8788.55
316.479	8770.7
316.544	8738.12
316.609	8708.95
316.674	8670.98
316.739	8629.45
316.804	8604.43
316.869	8573.87
316.934	8537.1
316.999	8509.09
317.064	8459.24
317.129	8414.82
317.194	8377.97
317.259	8330.38
317.324	8280.64
317.389	8233.73
317.454	8195.33
317.518	8163.92
317.583	8133.85
317.648	8115.76
317.713	8082.86
317.778	8019.6
317.843	7992.38
317.908	7953.32
317.973	7912.05
318.038	7886.32
318.103	7853.19
318.168	7819.33
318.233	7788.17
318.297	7738.01
318.362	7704.54
318.427	7666.22
318.492	7647.13
318.557	7603.1
318.622	7577.8
318.687	7556.36
318.751	7517.05
318.816	7484.02
318.881	7451.24
318.946	7399.56
319.011	7351.54
319.075	7309.14
319.14	7275.12
319.205	7231.63
319.27	7193.91
319.335	7145.52
319.399	7104.48
319.464	7077.43
319.529	7019.58
319.594	6973.41
319.658	6940.69
319.723	6894.23
319.788	6865.17
319.853	6805.79
319.917	6776.21
319.982	6720.35
320.047	6679.81
320.112	6650.76
320.176	6597.55
320.241	6565.66
320.306	6536.41
320.37	6495.46
320.435	6465.21
320.5	6438.27
320.564	6397.8
320.629	6360.51
320.694	6331.42
320.758	6291.82
320.823	6247.33
320.888	6226.12
320.952	6183.07
321.017	6142.14
321.082	6108.31
321.146	6069.68
321.211	6037.06
321.275	5992.35
321.34	5952.2
321.405	5906.92
321.469	5862.89
321.534	5822.95
321.598	5769.28
321.663	5735.22
321.727	5710.86
321.792	5659.64
321.857	5618.26
321.921	5578.27
321.986	5538.3
322.05	5480.5
322.115	5442.39
322.179	5398.05
322.244	5340.5
322.308	5309.02
322.373	5266.85
322.437	5219.6
322.502	5197.79
322.566	5155.63
322.631	5122.44
322.695	5085.46
322.76	5044.13
322.824	5010.46
322.889	4972.11
322.953	4926.73
323.018	4862.42
323.082	4787.51
323.146	4740.51
323.211	4685.32
323.275	4642.81
323.34	4596.92
323.404	4561.76
323.468	4517.11
323.533	4473.29
323.597	4429.68
323.662	4375.9
323.726	4340.22
323.79	4291.82
323.855	4222.68
323.919	4171.52
323.983	4128.33
324.048	4058.95
324.112	4207.11
324.177	4075.29
324.241	3862.6
324.305	3657.65
324.37	3454.47
324.434	3264.81
324.498	3219.46
324.562	3170.56
324.627	3108.58
324.691	3051.23
324.755	2987.16
324.82	2908.06
324.884	2829.05
324.948	2755.18
325.012	2659.21
325.077	2530.65
