Data from 20250704_urea_1.5M_MAYP1162681_11-55-04-552.txt Node
Date: Fri Jul 04 11:55:04 BST 2025
User: adleo
Spectrometer: MAYP116268
Trigger mode: 0
Integration Time (sec): 1.000000E0
Scans to average: 1
Electric dark correction enabled: true
Nonlinearity correction enabled: true
Boxcar width: 10
XAxis mode: Wavelengths
Number of Pixels in Spectrum: 2068
>>>>>Begin Spectral Data<<<<<
179.565	1277.14
179.642	1336.06
179.718	1384.92
179.795	1424.38
179.871	1455.44
179.948	1472.95
180.024	1494.1
180.101	1518.77
180.177	1534.23
180.254	1558.18
180.33	1581.51
180.407	1639.49
180.483	1740.78
180.56	1838.14
180.636	1926.07
180.712	1911.18
180.789	1921.26
180.865	1934.19
180.942	1941.41
181.018	1953.87
181.095	1964.33
181.171	1968.33
181.248	1969.8
181.324	1983.79
181.4	1992.78
181.477	2005.71
181.553	2022.4
181.63	2044.85
181.706	2059.88
181.782	2066.15
181.859	2063.35
181.935	2070.1
182.011	2067.25
182.088	2082.8
182.164	2101.89
182.24	2116.39
182.317	2127.18
182.393	2125.99
182.469	2143.17
182.546	2157.29
182.622	2161.43
182.698	2157.25
182.775	2168.52
182.851	2181.94
182.927	2174.32
183.003	2168.24
183.08	2162.62
183.156	2169.14
183.232	2166.29
183.308	2156.2
183.385	2166.05
183.461	2187.41
183.537	2187.45
183.613	2200.92
183.69	2190.93
183.766	2176.93
183.842	2187.07
183.918	2191.64
183.995	2206.67
184.071	2210.43
184.147	2199.73
184.223	2190.07
184.299	2205.49
184.375	2196.02
184.452	2205.07
184.528	2253.75
184.604	2266.4
184.68	2279.39
184.756	2288.1
184.832	2293.43
184.908	2298.14
184.985	2296.09
185.061	2278.2
185.137	2284.34
185.213	2273.78
185.289	2275.59
185.365	2270.3
185.441	2266.88
185.517	2279.49
185.593	2274.73
185.669	2269.16
185.745	2283.11
185.822	2296.14
185.898	2285.81
185.974	2293.71
186.05	2284.23
186.126	2252.02
186.202	2243.98
186.278	2238.17
186.354	2228.23
186.43	2233.99
186.506	2230.94
186.582	2231.61
186.658	2239.41
186.734	2220.15
186.81	2222.86
186.886	2227.76
186.962	2239.56
187.038	2236.99
187.114	2232.56
187.19	2239.27
187.266	2233.32
187.341	2235.47
187.417	2230.66
187.493	2225.57
187.569	2229.47
187.645	2221.67
187.721	2206.73
187.797	2212.67
187.873	2217.62
187.949	2212.24
188.025	2204.1
188.101	2209.91
188.176	2217.52
188.252	2211
188.328	2222.75
188.404	2222.8
188.48	2217.8
188.556	2211
188.632	2210.33
188.707	2209.19
188.783	2207.57
188.859	2199.68
188.935	2187.16
189.011	2194.3
189.086	2193.11
189.162	2184.4
189.238	2184.16
189.314	2182.45
189.39	2179.6
189.465	2174.93
189.541	2193.3
189.617	2178.41
189.693	2171.75
189.768	2171.13
189.844	2200.17
189.92	2188.99
189.996	2195.37
190.071	2204.89
190.147	2205.69
190.223	2214.26
190.298	2204.84
190.374	2190.61
190.45	2203.07
190.526	2212.4
190.601	2209.21
190.677	2212.5
190.753	2240.97
190.828	2243.25
190.904	2260.24
190.98	2272.18
191.055	2281.61
191.131	2269.8
191.207	2292.93
191.282	2301.44
191.358	2296.02
191.433	2279.5
191.509	2292.43
191.585	2289.91
191.66	2293.15
191.736	2299.48
191.811	2289.39
191.887	2308.81
191.963	2333.22
192.038	2336.89
192.114	2337.46
192.189	2341.41
192.265	2337.17
192.34	2313.7
192.416	2313.6
192.491	2306.7
192.567	2312.51
192.642	2315.8
192.718	2318.27
192.793	2302.14
192.869	2299.95
192.944	2300.04
193.02	2308.37
193.095	2315.94
193.171	2321.98
193.246	2322.37
193.322	2318.65
193.397	2321.75
193.473	2308.13
193.548	2290.09
193.624	2299.71
193.699	2296.42
193.775	2310.18
193.85	2311.37
193.925	2322.6
194.001	2324.6
194.076	2318.08
194.152	2307.42
194.227	2298.66
194.302	2287.24
194.378	2293.57
194.453	2287.86
194.529	2301.95
194.604	2286.34
194.679	2276.44
194.755	2254.32
194.83	2266.27
194.905	2263.51
194.981	2271.94
195.056	2264.94
195.131	2271.56
195.207	2267.03
195.282	2258.56
195.357	2241.05
195.433	2255.94
195.508	2244.23
195.583	2247.8
195.659	2264.41
195.734	2270.17
195.809	2270.22
195.884	2277.69
195.96	2275.26
196.035	2292.87
196.11	2286.58
196.185	2300.86
196.261	2308.67
196.336	2343.17
196.411	2327.41
196.486	2334.64
196.561	2327.6
196.637	2335.07
196.712	2352.06
196.787	2357.06
196.862	2372.67
196.937	2381.72
197.013	2389.24
197.088	2398.95
197.163	2423.47
197.238	2439.53
197.313	2442.1
197.388	2457.33
197.464	2493.15
197.539	2506.14
197.614	2501.91
197.689	2516.48
197.764	2529.86
197.839	2549
197.914	2542.53
197.989	2563.1
198.065	2575.53
198.14	2626.14
198.215	2655.57
198.29	2665.44
198.365	2679.16
198.44	2689.44
198.515	2717.26
198.59	2732.56
198.665	2758.86
198.74	2766.53
198.815	2768.3
198.89	2789.07
198.965	2820.48
199.04	2812.81
199.115	2829.86
199.19	2873.9
199.265	2878.28
199.34	2889.15
199.415	2922.34
199.49	2943.83
199.565	2954.03
199.64	2977.67
199.715	2977.43
199.79	2985.2
199.865	2993.73
199.94	2991.49
200.015	3028.97
200.09	3033.03
200.165	3036.74
200.24	3043.71
200.315	3087.14
200.39	3103.97
200.464	3113.08
200.539	3112.7
200.614	3129.81
200.689	3152.23
200.764	3156.04
200.839	3174.59
200.914	3181.41
200.989	3170
201.063	3188.51
201.138	3173.59
201.213	3180.22
201.288	3162.48
201.363	3165.58
201.438	3166.63
201.512	3181.93
201.587	3161.94
201.662	3167.76
201.737	3183.69
201.812	3193.33
201.886	3158.43
201.961	3169.7
202.036	3158.25
202.111	3155.77
202.186	3125.32
202.26	3110.58
202.335	3089.55
202.41	3082.39
202.485	3063.42
202.559	3044.06
202.634	3013.74
202.709	3021.98
202.784	2996.76
202.858	2994.33
202.933	2974.97
203.008	2970.68
203.082	2951.71
203.157	2950.04
203.232	2907.64
203.306	2884.7
203.381	2850.56
203.456	2829.35
203.53	2803.69
203.605	2780.92
203.68	2756.75
203.754	2752.18
203.829	2737.16
203.904	2715.77
203.978	2704.71
204.053	2708.57
204.127	2695.81
204.202	2693.23
204.277	2676.51
204.351	2669.85
204.426	2661.27
204.5	2651.45
204.575	2612.21
204.65	2622.65
204.724	2616.55
204.799	2625.02
204.873	2619.16
204.948	2621.63
205.022	2605.49
205.097	2596.34
205.171	2611.53
205.246	2618.82
205.32	2613.64
205.395	2610.87
205.469	2604.06
205.544	2608.4
205.618	2590.49
205.693	2601.73
205.767	2591.02
205.842	2611.31
205.916	2605.22
205.991	2594.4
206.065	2601.98
206.14	2619.4
206.214	2615.82
206.289	2607.25
206.363	2619.39
206.438	2625.54
206.512	2630.83
206.586	2648.88
206.661	2655.03
206.735	2630.17
206.81	2631.32
206.884	2652.41
206.958	2642.32
207.033	2659.17
207.107	2665.18
207.181	2700.78
207.256	2695.44
207.33	2717.16
207.405	2730.51
207.479	2751.67
207.553	2760.86
207.628	2744.38
207.702	2753.86
207.776	2746.48
207.851	2750.48
207.925	2764.59
207.999	2758.49
208.073	2754.01
208.148	2759.92
208.222	2750.24
208.296	2785.68
208.371	2802.03
208.445	2811.99
208.519	2843.01
208.593	2854.64
208.668	2851.92
208.742	2849.06
208.816	2850.68
208.89	2863.46
208.965	2862.22
209.039	2871.99
209.113	2888.49
209.187	2907.49
209.261	2905.92
209.336	2924.27
209.41	2942.95
209.484	2944.19
209.558	2967.08
209.632	2981.52
209.707	2992.39
209.781	3017.13
209.855	3030.43
209.929	3052.06
210.003	3059.11
210.077	3057.35
210.151	3109.66
210.226	3145.11
210.3	3177.57
210.374	3206.27
210.448	3212.61
210.522	3225.97
210.596	3238.62
210.67	3249.92
210.744	3301.4
210.818	3335.07
210.892	3359.45
210.966	3360.55
211.041	3386.22
211.115	3389.94
211.189	3424.44
211.263	3450.93
211.337	3462.53
211.411	3489.16
211.485	3490.26
211.559	3513.02
211.633	3526.05
211.707	3504.02
211.781	3526
211.855	3505.8
211.929	3511.48
212.003	3509
212.077	3539.57
212.151	3576.35
212.225	3611.78
212.299	3627.08
212.373	3643.31
212.447	3670.26
212.52	3728.15
212.594	3759.36
212.668	3806.07
212.742	3823.61
212.816	3855.39
212.89	3889.45
212.964	3928.7
213.038	3973.98
213.112	4035.28
213.186	4101.71
213.26	4132.86
213.333	4135.64
213.407	4195.42
213.481	4257.94
213.555	4333.12
213.629	4381.69
213.703	4425.81
213.777	4491.1
213.85	4543.56
213.924	4650.75
213.998	4726.41
214.072	4797.93
214.146	4862.24
214.219	4936.9
214.293	5013.94
214.367	5101.71
214.441	5201.75
214.515	5284.52
214.588	5354.78
214.662	5415.8
214.736	5488.8
214.81	5595.42
214.883	5711.34
214.957	5806.37
215.031	5901.64
215.105	5984.6
215.178	6079.45
215.252	6187.28
215.326	6272.28
215.4	6365.29
215.473	6430.79
215.547	6529.97
215.621	6637.87
215.694	6761.08
215.768	6863.11
215.842	6977.05
215.915	7081
215.989	7181.97
216.063	7290.32
216.136	7414.82
216.21	7537.39
216.284	7678.31
216.357	7807.23
216.431	7931.21
216.504	8066.79
216.578	8218.96
216.652	8359.4
216.725	8493.6
216.799	8633.56
216.873	8771.62
216.946	8912.53
217.02	9043.49
217.093	9171.88
217.167	9275.88
217.24	9394.77
217.314	9524.87
217.387	9648.23
217.461	9773.83
217.535	9914.8
217.608	10040.66
217.682	10173.76
217.755	10317.5
217.829	10441.76
217.902	10569.48
217.976	10702.41
218.049	10822.91
218.123	10936.11
218.196	11071.27
218.27	11190.83
218.343	11299.32
218.417	11424.86
218.49	11544.91
218.563	11687.86
218.637	11819.49
218.71	11969.77
218.784	12093.16
218.857	12228.27
218.931	12355.42
219.004	12491.64
219.077	12613.25
219.151	12734.44
219.224	12851.86
219.298	12963.99
219.371	13090.77
219.444	13191.85
219.518	13310.49
219.591	13430.47
219.665	13577.93
219.738	13696.08
219.811	13801.75
219.885	13931.08
219.958	14047.02
220.031	14149.55
220.105	14263.03
220.178	14364.06
220.251	14460.38
220.325	14575.25
220.398	14677.3
220.471	14783.88
220.544	14876.38
220.618	14967.29
220.691	15072.81
220.764	15164.97
220.838	15263.31
220.911	15351.71
220.984	15472.89
221.057	15569.68
221.131	15652.97
221.204	15698.42
221.277	15799.45
221.35	15919.51
221.424	15987.09
221.497	16070.9
221.57	16165.52
221.643	16240.61
221.716	16324.91
221.79	16399.09
221.863	16482.66
221.936	16557.7
222.009	16631.15
222.082	16710.39
222.155	16775.98
222.229	16862.64
222.302	16947.03
222.375	17008.43
222.448	17079.76
222.521	17146.12
222.594	17202.55
222.667	17268.53
222.74	17351.09
222.814	17401.06
222.887	17458.8
222.96	17531.09
223.033	17596.73
223.106	17655.81
223.179	17723.04
223.252	17785.98
223.325	17840.72
223.398	17884.86
223.471	17940.43
223.544	17997.97
223.617	18050.26
223.69	18105.68
223.763	18143.94
223.837	18188.42
223.91	18246.3
223.983	18272.18
224.056	18295.55
224.129	18344.46
224.202	18395.79
224.275	18422.73
224.348	18453.62
224.42	18463.54
224.493	18479.35
224.566	18505.9
224.639	18548.65
224.712	18580.5
224.785	18605.85
224.858	18635.87
224.931	18664.45
225.004	18675.05
225.077	18698.52
225.15	18698.95
225.223	18727.33
225.296	18760.15
225.369	18753.26
225.442	18758.71
225.514	18782.46
225.587	18815.81
225.66	18834.89
225.733	18848.72
225.806	18866.99
225.879	18882.22
225.952	18892.09
226.025	18926.6
226.097	18956.19
226.17	18959.42
226.243	18944.86
226.316	18955.08
226.389	18974.35
226.461	18984.14
226.534	19003.94
226.607	19015.03
226.68	19050.49
226.753	19057.29
226.825	19042.35
226.898	19079.5
226.971	19102.44
227.044	19121.57
227.117	19127.94
227.189	19135.12
227.262	19157.23
227.335	19169.62
227.407	19174.34
227.48	19187.02
227.553	19187.4
227.626	19187.98
227.698	19193.23
227.771	19210.63
227.844	19210.05
227.916	19214
227.989	19204.46
228.062	19202.24
228.134	19227.98
228.207	19230
228.28	19232.51
228.352	19240.89
228.425	19237.57
228.498	19235.49
228.57	19218.58
228.643	19235.49
228.716	19229.76
228.788	19217.66
228.861	19209.76
228.934	19227.69
229.006	19225.13
229.079	19234.72
229.151	19231.54
229.224	19214.19
229.296	19213.52
229.369	19232.84
229.442	19242.1
229.514	19238.19
229.587	19256.7
229.659	19237.52
229.732	19237.23
229.804	19246.48
229.877	19271.64
229.949	19277.08
230.022	19292.99
230.094	19298.09
230.167	19284.41
230.239	19275.93
230.312	19265.76
230.384	19287.01
230.457	19281.13
230.529	19292.84
230.602	19285.47
230.674	19276.5
230.747	19288.6
230.819	19291.97
230.892	19248.22
230.964	19245.71
231.037	19249.37
231.109	19241.95
231.181	19233.86
231.254	19220.32
231.326	19203.59
231.399	19187.35
231.471	19174
231.544	19138.2
231.616	19142.34
231.688	19136.22
231.761	19127.41
231.833	19121.77
231.905	19085.24
231.978	19070.4
232.05	19045.15
232.122	19034.11
232.195	19017.82
232.267	19018.59
232.339	18999.99
232.412	19016.95
232.484	18990.88
232.556	18968.91
232.629	18969.44
232.701	18970.93
232.773	18955.71
232.846	18941.15
232.918	18919.66
232.99	18911.52
233.062	18919.23
233.135	18901.25
233.207	18869.16
233.279	18858.41
233.351	18842.51
233.424	18833.3
233.496	18808.49
233.568	18822.99
233.64	18787.43
233.713	18767.09
233.785	18745.5
233.857	18736.25
233.929	18700.54
234.001	18699.58
234.074	18697.17
234.146	18653.51
234.218	18627.73
234.29	18610.52
234.362	18587.44
234.434	18562.19
234.507	18533.66
234.579	18493.95
234.651	18471.73
234.723	18466.92
234.795	18453.52
234.867	18440.7
234.939	18432.41
235.012	18415.21
235.084	18396.22
235.156	18386.53
235.228	18364.27
235.3	18336.13
235.372	18317.96
235.444	18311.94
235.516	18271.7
235.588	18256.81
235.66	18245.53
235.732	18215.31
235.804	18253.96
235.876	18242.59
235.948	18235.65
236.02	18209.77
236.092	18195.84
236.164	18170.4
236.236	18145.24
236.308	18123.75
236.38	18107.32
236.452	18077.78
236.524	18064.09
236.596	18055.66
236.668	18050.93
236.74	18037.59
236.812	18025.73
236.884	18008.24
236.956	17985.01
237.028	17949.11
237.1	17920.82
237.172	17913.01
237.244	17918.65
237.316	17848.87
237.388	17816.48
237.46	17784.24
237.532	17774.56
237.604	17740.68
237.675	17736
237.747	17726.08
237.819	17695.23
237.891	17659.76
237.963	17624.92
238.035	17590.75
238.107	17529.07
238.178	17513.31
238.25	17476.63
238.322	17482.9
238.394	17438.42
238.466	17422.17
238.538	17417.11
238.609	17399.33
238.681	17358.95
238.753	17318.22
238.825	17299.91
238.897	17273.93
238.968	17261.26
239.04	17237.74
239.112	17235.48
239.184	17194.7
239.255	17156.63
239.327	17142.85
239.399	17125.26
239.471	17117.06
239.542	17104.48
239.614	17101.69
239.686	17052.39
239.758	17050.75
239.829	16997.88
239.901	16983.42
239.973	16949.01
240.044	16926.26
240.116	16896.67
240.188	16867.85
240.259	16840.52
240.331	16809.2
240.403	16801.29
240.474	16761.97
240.546	16724.9
240.618	16688.28
240.689	16661.82
240.761	16646.83
240.833	16632.56
240.904	16599.59
240.976	16566.82
241.048	16537.47
241.119	16513.18
241.191	16489.56
241.262	16482.09
241.334	16461.71
241.405	16432.06
241.477	16400.64
241.549	16367.14
241.62	16349.84
241.692	16329.45
241.763	16316.05
241.835	16293.01
241.906	16260
241.978	16227.22
242.049	16213.34
242.121	16192.04
242.192	16182.35
242.264	16133.38
242.335	16080.22
242.407	16067.35
242.478	16041.08
242.55	16014.67
242.621	15979.68
242.693	15946.37
242.764	15903.86
242.836	15868
242.907	15855.56
242.979	15838.45
243.05	15820.14
243.122	15794.4
243.193	15765.43
243.264	15713.57
243.336	15684.02
243.407	15671.15
243.479	15660.4
243.55	15641.75
243.622	15622.71
243.693	15595.57
243.764	15597.36
243.836	15561.74
243.907	15526.55
243.978	15495.07
244.05	15473.72
244.121	15431.5
244.192	15418.77
244.264	15382.81
244.335	15359.24
244.407	15310.41
244.478	15287.76
244.549	15251.56
244.62	15209.19
244.692	15181.42
244.763	15170.05
244.834	15129.75
244.906	15093.65
244.977	15071.76
245.048	15057.11
245.119	15022.26
245.191	14977.43
245.262	14919.59
245.333	14914.28
245.405	14898.57
245.476	14885.6
245.547	14860.39
245.618	14839.95
245.689	14818.12
245.761	14786.59
245.832	14753.96
245.903	14741.42
245.974	14717.03
246.045	14697.12
246.117	14692.06
246.188	14649.64
246.259	14607.08
246.33	14589
246.401	14555.98
246.473	14506.76
246.544	14470.61
246.615	14456.82
246.686	14438.75
246.757	14428.24
246.828	14396.08
246.899	14384.47
246.97	14334.57
247.042	14296.73
247.113	14275.72
247.184	14266.03
247.255	14235.75
247.326	14222.3
247.397	14189.23
247.468	14162.96
247.539	14133.56
247.61	14088.29
247.681	14080.48
247.752	14073.59
247.823	14028.61
247.894	14010.05
247.965	13977.27
248.037	13943.43
248.108	13897.15
248.179	13872.13
248.25	13847.12
248.321	13826.19
248.392	13786.09
248.463	13781.07
248.534	13760.25
248.605	13749.06
248.675	13720.86
248.746	13706.98
248.817	13686.15
248.888	13673.62
248.959	13625.08
249.03	13609.7
249.101	13591.91
249.172	13555.61
249.243	13507.6
249.314	13512.85
249.385	13488.27
249.456	13474.09
249.527	13451.24
249.598	13436.97
249.669	13407.47
249.739	13391.76
249.81	13372.76
249.881	13324.99
249.952	13311.01
250.023	13287.53
250.094	13250.66
250.165	13210.89
250.235	13184.03
250.306	13152.56
250.377	13115.68
250.448	13103.14
250.519	13061.59
250.59	13048.67
250.66	13032.33
250.731	13027.51
250.802	12997.52
250.873	12982.73
250.944	12969.85
251.014	12937.17
251.085	12935.68
251.156	12920.11
251.227	12904.82
251.297	12899.71
251.368	12891.42
251.439	12877.93
251.51	12867.95
251.58	12833.09
251.651	12811.5
251.722	12809.76
251.792	12774.33
251.863	12752.64
251.934	12750.23
252.005	12751.53
252.075	12727.19
252.146	12713.59
252.217	12702.55
252.287	12694.36
252.358	12669.68
252.429	12663.94
252.499	12639.45
252.57	12618.39
252.641	12610.05
252.711	12589.71
252.782	12544.39
252.852	12551.05
252.923	12529.21
252.994	12512.48
253.064	12504.09
253.135	12475.51
253.205	12444.76
253.276	12446.06
253.347	12439.12
253.417	12406.72
253.488	12385.61
253.558	12364.26
253.629	12347.58
253.699	12332.54
253.77	12319.71
253.841	12299.52
253.911	12277.63
253.982	12271.95
254.052	12259.99
254.123	12242.49
254.193	12224.37
254.264	12250.64
254.334	12219.45
254.405	12182.43
254.475	12153.56
254.546	12139.72
254.616	12133.51
254.687	12117.79
254.757	12105.84
254.827	12087.09
254.898	12070.89
254.968	12054.41
255.039	12030.31
255.109	12014.64
255.18	11985.53
255.25	11941.52
255.321	11925.42
255.391	11897.32
255.461	11892.02
255.532	11846.71
255.602	11823.04
255.673	11783.14
255.743	11756.09
255.813	11709.68
255.884	11706.02
255.954	11698.64
256.024	11701.05
256.095	11680.04
256.165	11648.9
256.235	11636.61
256.306	11612.8
256.376	11607.5
256.446	11593.91
256.517	11586.68
256.587	11578.92
256.657	11562.15
256.728	11550
256.798	11538.77
256.868	11519.25
256.938	11494.43
257.009	11486.67
257.079	11479.73
257.149	11495.78
257.219	11451.29
257.29	11441.56
257.36	11401.32
257.43	11388.16
257.5	11337.12
257.571	11321.17
257.641	11314.08
257.711	11277.84
257.781	11266.85
257.852	11255.48
257.922	11219.96
257.992	11198.75
258.062	11181.84
258.132	11170.95
258.202	11147.48
258.273	11121.89
258.343	11129.65
258.413	11105.74
258.483	11089.55
258.553	11052.11
258.623	11017.7
258.693	11012.06
258.764	11022.85
258.834	11029.5
258.904	11010.32
258.974	10988.45
259.044	10968.11
259.114	10954.62
259.184	10946.71
259.254	10931.15
259.324	10892.6
259.394	10883.2
259.464	10883.88
259.535	10861.18
259.605	10844.12
259.675	10826.68
259.745	10821.47
259.815	10785.57
259.885	10764.08
259.955	10779.41
260.025	10755.27
260.095	10736.62
260.165	10724.96
260.235	10720.29
260.305	10690.07
260.375	10665.69
260.445	10676.44
260.515	10683.13
260.585	10680.97
260.655	10662.8
260.725	10657.26
260.795	10648.83
260.865	10649.79
260.934	10623.58
261.004	10616.11
261.074	10602.33
261.144	10602.86
261.214	10597.7
261.284	10582.09
261.354	10577.9
261.424	10549.66
261.494	10557.42
261.564	10546.58
261.634	10539.54
261.703	10507.55
261.773	10499.89
261.843	10493.14
261.913	10476.71
261.983	10438.07
262.053	10427.81
262.123	10416.01
262.192	10384.55
262.262	10381.41
262.332	10352.22
262.402	10341.86
262.472	10325.24
262.541	10292.19
262.611	10287.61
262.681	10267.81
262.751	10260.25
262.821	10246.33
262.89	10216.12
262.96	10210.09
263.03	10216.07
263.1	10200.17
263.169	10180.76
263.239	10174.3
263.309	10177.62
263.379	10179.79
263.448	10167.99
263.518	10150.41
263.588	10131.23
263.657	10134.17
263.727	10132.15
263.797	10124.2
263.867	10108.35
263.936	10086.05
264.006	10084.99
264.076	10063.94
264.145	10045.68
264.215	10025.16
264.285	10017.31
264.354	9992.21
264.424	9972.27
264.494	9946.16
264.563	9925.5
264.633	9936.53
264.702	9927.9
264.772	9895.63
264.842	9867.93
264.911	9857.09
264.981	9832.05
265.05	9827.04
265.12	9805.6
265.19	9792.5
265.259	9783.98
265.329	9782.29
265.398	9771.07
265.468	9787.06
265.537	9769.24
265.607	9757.05
265.676	9755.71
265.746	9750.12
265.815	9744.05
265.885	9729.02
265.955	9705.38
266.024	9690.98
266.094	9655.67
266.163	9657.07
266.232	9658.66
266.302	9641.47
266.371	9638.87
266.441	9627.74
266.51	9620.56
266.58	9611.75
266.649	9589.74
266.719	9593.64
266.788	9584.06
266.858	9594.41
266.927	9549.58
266.996	9547.41
267.066	9547.84
267.135	9525.21
267.205	9518.32
267.274	9514.04
267.343	9513.22
267.413	9503.49
267.482	9503.73
267.552	9510.67
267.621	9481.67
267.69	9447.63
267.76	9442.72
267.829	9433.09
267.898	9426.83
267.968	9403.14
268.037	9399.77
268.106	9400.2
268.176	9373.76
268.245	9359.41
268.314	9335.91
268.384	9340.82
268.453	9327.34
268.522	9315.54
268.592	9317.46
268.661	9298.64
268.73	9290.84
268.799	9271.53
268.869	9273.98
268.938	9251.02
269.007	9225.11
269.076	9216.4
269.146	9223.09
269.215	9212.45
269.284	9217.94
269.353	9206.72
269.422	9190.35
269.492	9170.76
269.561	9126.95
269.63	9123.24
269.699	9108.07
269.768	9102.2
269.838	9086.36
269.907	9087.42
269.976	9062.38
270.045	9030.47
270.114	9031.62
270.183	9022.48
270.253	9017.71
270.322	8990.95
270.391	8979.1
270.46	8988.3
270.529	8983.44
270.598	8984.01
270.667	8980.93
270.736	8958.02
270.806	8955.9
270.875	8962.15
270.944	8955.22
271.013	8985.69
271.082	8974.67
271.151	8970.38
271.22	8936.16
271.289	8932.5
271.358	8914.64
271.427	8905.64
271.496	8903.86
271.565	8882.2
271.634	8876.42
271.703	8904.35
271.772	8910.41
271.841	8905.79
271.91	8883.94
271.979	8886.49
272.048	8861.41
272.117	8850.96
272.186	8838.11
272.255	8829.45
272.324	8829.11
272.393	8820.83
272.462	8800.13
272.531	8791.37
272.6	8784.15
272.669	8804.51
272.738	8798.06
272.807	8797.43
272.876	8782.18
272.945	8809.33
273.013	8815.01
273.082	8811.83
273.151	8767.25
273.22	8765.32
273.289	8753.68
273.358	8760.03
273.427	8740.15
273.496	8738.85
273.564	8748.48
273.633	8752.47
273.702	8734.09
273.771	8724.27
273.84	8725.81
273.909	8723.55
273.977	8727.45
274.046	8713.87
274.115	8715.51
274.184	8701.51
274.253	8689.33
274.322	8700.73
274.39	8668.24
274.459	8655.34
274.528	8629.02
274.597	8616.08
274.665	8615.5
274.734	8624.69
274.803	8612.66
274.872	8611.94
274.94	8602.46
275.009	8657.5
275.078	8640.08
275.147	8642.77
275.215	8641.47
275.284	8646.58
275.353	8639.89
275.421	8610.48
275.49	8626.66
275.559	8609.67
275.627	8602.74
275.696	8600.14
275.765	8599.46
275.833	8589.17
275.902	8587.2
275.971	8600.96
276.039	8617.27
276.108	8614.72
276.177	8616.79
276.245	8614.67
276.314	8607.84
276.383	8609.28
276.451	8539.03
276.52	8539.94
276.588	8548.27
276.657	8552.12
276.725	8538.35
276.794	8540.66
276.863	8552.5
276.931	8528.72
277	8539.31
277.068	8549.51
277.137	8565.4
277.205	8564.91
277.274	8585.36
277.342	8594.03
277.411	8575.12
277.48	8567.37
277.548	8562.08
277.617	8557.79
277.685	8548.12
277.754	8556.21
277.822	8549.95
277.89	8564.15
277.959	8567.37
278.027	8547.6
278.096	8535.9
278.164	8564.54
278.233	8552.65
278.301	8550.44
278.37	8556.21
278.438	8540.14
278.507	8536.82
278.575	8512.57
278.643	8507.13
278.712	8492.16
278.78	8478.16
278.849	8487.15
278.917	8490.33
278.985	8483.5
279.054	8486.14
279.122	8494.47
279.191	8483.01
279.259	8479.12
279.327	8454.72
279.396	8463.23
279.464	8468.05
279.532	8475.99
279.601	8474.73
279.669	8471.08
279.737	8480.32
279.806	8487.63
279.874	8492.59
279.942	8498.56
280.011	8492.54
280.079	8503.37
280.147	8515.59
280.215	8521.94
280.284	8518.72
280.352	8508.62
280.42	8517.76
280.488	8513.09
280.557	8507.36
280.625	8516.41
280.693	8520.26
280.761	8524.74
280.83	8511.07
280.898	8519.92
280.966	8502.7
281.034	8468.04
281.102	8455.29
281.171	8449.47
281.239	8454.19
281.307	8452.65
281.375	8436.53
281.443	8465.07
281.512	8460.45
281.58	8467.81
281.648	8453.08
281.716	8458.52
281.784	8458.47
281.852	8452.7
281.92	8446.35
281.989	8460.49
282.057	8442.4
282.125	8488.23
282.193	8486.73
282.261	8486.3
282.329	8482.36
282.397	8488.51
282.465	8498.23
282.533	8517.82
282.601	8506.12
282.67	8483.41
282.738	8472.1
282.806	8490.34
282.874	8474.22
282.942	8474.7
283.01	8470.94
283.078	8476.67
283.146	8470.08
283.214	8484.08
283.282	8483.84
283.35	8503.52
283.418	8497.46
283.486	8504.58
283.554	8461.07
283.622	8460.92
283.69	8458.23
283.758	8454.96
283.826	8456.25
283.894	8463.09
283.962	8482.77
284.03	8499.33
284.098	8501.44
284.165	8500.1
284.233	8493.17
284.301	8490.57
284.369	8484.84
284.437	8472.14
284.505	8467.9
284.573	8483.01
284.641	8473.39
284.709	8483.16
284.777	8459.62
284.845	8464.24
284.912	8467.95
284.98	8476.37
285.048	8470.21
285.116	8477.48
285.184	8492.73
285.252	8488.88
285.319	8469.3
285.387	8454.52
285.455	8435.66
285.523	8446.1
285.591	8445.24
285.659	8448.03
285.726	8459.19
285.794	8448.32
285.862	8445.57
285.93	8446.05
285.997	8445.57
286.065	8435.95
286.133	8428.68
286.201	8428.97
286.269	8416.56
286.336	8406.12
286.404	8395.29
286.472	8405.2
286.539	8384.61
286.607	8364.78
286.675	8369.55
286.743	8382.15
286.81	8379.79
286.878	8397.84
286.946	8387.59
287.013	8394.42
287.081	8401.16
287.149	8387.78
287.216	8402.7
287.284	8401.93
287.352	8399.81
287.419	8393.94
287.487	8410.88
287.555	8413.67
287.622	8409.68
287.69	8415.02
287.758	8431.62
287.825	8430.46
287.893	8419.78
287.96	8428.82
288.028	8439.41
288.096	8442.87
288.163	8449.61
288.231	8438.59
288.298	8441.67
288.366	8460.59
288.433	8449.09
288.501	8433.3
288.569	8436.82
288.636	8433.74
288.704	8446.78
288.771	8458.57
288.839	8446.3
288.906	8436.87
288.974	8445.1
289.041	8441.39
289.109	8431.33
289.176	8440.67
289.244	8443.94
289.311	8465.07
289.379	8477
289.446	8478.78
289.514	8479.31
289.581	8475.41
289.649	8478.11
289.716	8473.2
289.783	8466.03
289.851	8491.82
289.918	8496.92
289.986	8505.1
290.053	8504.38
290.121	8503.9
290.188	8505
290.255	8541.34
290.323	8541.72
290.39	8533.97
290.458	8545.76
290.525	8561.01
290.592	8549.56
290.66	8555.43
290.727	8547.1
290.794	8557.84
290.862	8555.72
290.929	8555.33
290.996	8552.98
291.064	8561.69
291.131	8578.19
291.198	8585.8
291.266	8580.12
291.333	8582.72
291.4	8587.1
291.468	8610.01
291.535	8605.82
291.602	8611.79
291.669	8601.58
291.737	8606.69
291.804	8608.85
291.871	8621.6
291.938	8628.58
292.006	8664.06
292.073	8675.9
292.14	8682.11
292.207	8678.5
292.275	8682.88
292.342	8691.3
292.409	8719.75
292.476	8746.89
292.543	8739.29
292.611	8745.02
292.678	8765.91
292.745	8788.09
292.812	8800.42
292.879	8794.5
292.946	8803.88
293.014	8817.07
293.081	8832.47
293.148	8846.81
293.215	8866.02
293.282	8864.43
293.349	8874.3
293.416	8851.67
293.484	8860.43
293.551	8870.78
293.618	8889.6
293.685	8910.54
293.752	8910.4
293.819	8906.31
293.886	8889.89
293.953	8893.65
294.02	8901.54
294.087	8907.7
294.154	8903.13
294.221	8919.64
294.288	8926.14
294.356	8941.93
294.423	8951.27
294.49	8934.52
294.557	8946.51
294.624	8933.32
294.691	8955.27
294.758	8958.16
294.825	8964.36
294.892	8956.57
294.959	8960.9
295.026	8966.77
295.093	8970.29
295.16	8973.56
295.226	8974.81
295.293	9004.42
295.36	9010.1
295.427	9019.59
295.494	9031.62
295.561	9043.13
295.628	9063.35
295.695	9069.9
295.762	9067.88
295.829	9073.85
295.896	9097.2
295.963	9105.81
296.03	9123.48
296.096	9135.13
296.163	9150.73
296.23	9172.74
296.297	9190.6
296.364	9187.32
296.431	9190.5
296.498	9180.53
296.564	9204.65
296.631	9209.32
296.698	9191.17
296.765	9213.61
296.832	9206.24
296.899	9190.74
296.965	9204.89
297.032	9184.28
297.099	9204.6
297.166	9218.81
297.233	9211.73
297.299	9199.4
297.366	9202.05
297.433	9201.33
297.5	9200.61
297.566	9195.12
297.633	9189.29
297.7	9190.98
297.767	9187.99
297.833	9196.8
297.9	9199.88
297.967	9182.41
298.033	9192.09
298.1	9227.24
298.167	9219
298.234	9221.94
298.3	9231.81
298.367	9231.38
298.434	9239.27
298.5	9227.38
298.567	9216.88
298.634	9221.07
298.7	9239.08
298.767	9235.37
298.834	9250.3
298.9	9242.59
298.967	9236.24
299.033	9250.93
299.1	9263.3
299.167	9285.35
299.233	9279.19
299.3	9291.37
299.366	9309.76
299.433	9326.81
299.5	9297.63
299.566	9304.22
299.633	9319.92
299.699	9332.83
299.766	9330.18
299.832	9337.06
299.899	9351.99
299.965	9371.93
300.032	9366.58
300.099	9379.44
300.165	9388.2
300.232	9384.78
300.298	9389.07
300.365	9407.17
300.431	9396.72
300.498	9393.45
300.564	9395.38
300.631	9407.94
300.697	9428.8
300.763	9430
300.83	9427.45
300.896	9446.13
300.963	9454.89
301.029	9460.14
301.096	9473.53
301.162	9486.77
301.229	9475.84
301.295	9462.22
301.361	9462.07
301.428	9467.94
301.494	9451.77
301.561	9457.06
301.627	9460.1
301.693	9467.95
301.76	9467.27
301.826	9473.58
301.892	9487.26
301.959	9491.83
302.025	9492.7
302.092	9488.65
302.158	9497.61
302.224	9509.51
302.291	9497.56
302.357	9499.78
302.423	9495.44
302.49	9477.96
302.556	9488.99
302.622	9495.16
302.688	9510.95
302.755	9529.3
302.821	9537.68
302.887	9552.12
302.954	9553.14
303.02	9560.5
303.086	9565.61
303.152	9559.35
303.219	9551.93
303.285	9555.3
303.351	9568.26
303.417	9568.31
303.483	9555.84
303.55	9551.69
303.616	9538.21
303.682	9533.39
303.748	9519.48
303.815	9534.12
303.881	9541.97
303.947	9526.36
304.013	9527.42
304.079	9519.86
304.145	9495.73
304.212	9497.76
304.278	9486.54
304.344	9478.78
304.41	9464
304.476	9450.42
304.542	9449.94
304.608	9458.94
304.674	9440.26
304.741	9430.77
304.807	9436.6
304.873	9445.17
304.939	9460
305.005	9442.18
305.071	9445.12
305.137	9445.6
305.203	9422.2
305.269	9417
305.335	9434.72
305.401	9427.06
305.467	9425.23
305.533	9435.97
305.599	9437.71
305.666	9448.44
305.732	9444.3
305.798	9458.65
305.864	9493.04
305.93	9501.42
305.996	9496.22
306.062	9497.57
306.128	9493.67
306.194	9477.48
306.259	9478.78
306.325	9464.53
306.391	9478.64
306.457	9489.42
306.523	9489.76
306.589	9518.13
306.655	9514.9
306.721	9498.14
306.787	9490.68
306.853	9507
306.919	9488.03
306.985	9485.38
307.051	9475.03
307.117	9474.5
307.183	9470.98
307.248	9440.88
307.314	9443.92
307.38	9449.21
307.446	9457.59
307.512	9450.42
307.578	9459.04
307.644	9451.48
307.709	9452.59
307.775	9451.91
307.841	9446.33
307.907	9450.42
307.973	9426.63
308.039	9425.37
308.104	9423.11
308.17	9425.61
308.236	9406.25
308.302	9408.81
308.368	9393.45
308.433	9396.91
308.499	9391.71
308.565	9382.52
308.631	9388.25
308.696	9364.89
308.762	9355.98
308.828	9354.44
308.894	9336.63
308.959	9307.45
309.025	9296.62
309.091	9292.43
309.156	9275
309.222	9278.13
309.288	9271.58
309.354	9253.67
309.419	9252.17
309.485	9244.37
309.551	9247.07
309.616	9235.8
309.682	9231.33
309.748	9230.07
309.813	9224.78
309.879	9219.38
309.945	9205.28
310.01	9195.12
310.076	9200.08
310.141	9194.3
310.207	9176.24
310.273	9178.79
310.338	9190.2
310.404	9174.85
310.469	9166.27
310.535	9164.4
310.601	9139.5
310.666	9140.76
310.732	9150.05
310.797	9137.39
310.863	9122.36
310.928	9120.25
310.994	9119.43
311.059	9117.36
311.125	9111.05
311.191	9118.18
311.256	9108.07
311.322	9119.09
311.387	9090.74
311.453	9477.5
311.518	9449.34
311.584	9451.7
311.649	9460.08
311.715	9445.73
311.78	9447.75
311.846	9435.28
311.911	9438.46
311.976	9449.2
312.042	9430.95
312.107	9416.75
312.173	9408.81
312.238	9403.9
312.304	9391.96
312.369	9385.5
312.434	9376.98
312.5	9372.6
312.565	9338.33
312.631	9343.72
312.696	9327.25
312.761	9335.15
312.827	8933.75
312.892	8967.59
312.958	8964.99
313.023	8954.69
313.088	8953.63
313.154	8940.54
313.219	8930.96
313.284	8920.08
313.35	8909.24
313.415	8906.5
313.48	8895.91
313.546	8904.43
313.611	8914.35
313.676	8910.98
313.741	8900.39
313.807	8908.77
313.872	8912.91
313.937	8923.01
314.003	8932.35
314.068	8936.35
314.133	8949.97
314.198	8940.97
314.264	8929.08
314.329	8916.18
314.394	8917
314.459	8915.07
314.525	8941.83
314.59	8942.41
314.655	8935.72
314.72	8939.86
314.785	8934.71
314.851	8934.23
314.916	8916.85
314.981	8894.23
315.046	8879.5
315.111	8871.37
315.176	8853.89
315.242	8857.36
315.307	8854.33
315.372	8832.95
315.437	8823.81
315.502	8805.8
315.567	8818.27
315.632	8798.1
315.698	8800.41
315.763	8796.13
315.828	8789.24
315.893	8777.69
315.958	8775.04
316.023	8765.75
316.088	8742.7
316.153	8727.01
316.218	8718.54
316.283	8701.22
316.348	8692.02
316.413	8694.09
316.479	8679.37
316.544	8654.83
316.609	8623.93
316.674	8590.53
316.739	8558.25
316.804	8530.38
316.869	8499.78
316.934	8464.6
316.999	8434.67
317.064	8382.61
317.129	8339.59
317.194	8305.67
317.259	8257.7
317.324	8204.45
317.389	8155.81
317.454	8122.52
317.518	8086.4
317.583	8063.4
317.648	8037.38
317.713	8008.32
317.778	7945.46
317.843	7915.88
317.908	7872.26
317.973	7834.31
318.038	7809.5
318.103	7772.52
318.168	7738.95
318.233	7706.49
318.297	7655.86
318.362	7622.83
318.427	7584.9
318.492	7557.64
318.557	7503.9
318.622	7479.09
318.687	7456.88
318.751	7424.87
318.816	7393.48
318.881	7359.94
318.946	7302.93
319.011	7259.38
319.075	7214.15
319.14	7183.79
319.205	7141.54
319.27	7111.8
319.335	7070.91
319.399	7027.85
319.464	7000.42
319.529	6944.6
319.594	6907.12
319.658	6880.56
319.723	6842.17
319.788	6818.5
319.853	6762.49
319.917	6738.14
319.982	6686.94
320.047	6651.68
320.112	6620.61
320.176	6572.35
320.241	6540.28
320.306	6517.04
320.37	6477.95
320.435	6451.02
320.5	6427.93
320.564	6395.23
320.629	6355.11
320.694	6319.44
320.758	6279.37
320.823	6236.7
320.888	6212.47
320.952	6163.96
321.017	6122.93
321.082	6083.58
321.146	6046.25
321.211	6019.14
321.275	5981.58
321.34	5933.81
321.405	5893.9
321.469	5853.8
321.534	5815.72
321.598	5774.28
321.663	5736.77
321.727	5704.83
321.792	5650.46
321.857	5603.08
321.921	5556.96
321.986	5520.24
322.05	5465.03
322.115	5427.69
322.179	5385.66
322.244	5328.69
322.308	5299.94
322.373	5256.82
322.437	5213.36
322.502	5190.64
322.566	5141
322.631	5105.41
322.695	5067.49
322.76	5019.69
322.824	4984.72
322.889	4939.43
322.953	4888.06
323.018	4825.14
323.082	4763.87
323.146	4716.54
323.211	4663.8
323.275	4624.79
323.34	4575.84
323.404	4542.35
323.468	4496.89
323.533	4455.84
323.597	4412.81
323.662	4361.77
323.726	4324.88
323.79	4281.26
323.855	4209.17
323.919	4163.98
323.983	4118.27
324.048	4051.72
324.112	4213.33
324.177	4084.93
324.241	3875.73
324.305	3669.53
324.37	3468.27
324.434	3272.45
324.498	3229.92
324.562	3182.81
324.627	3121.42
324.691	3067.05
324.755	3002.55
324.82	2927.99
324.884	2847.43
324.948	2779.72
325.012	2683.66
325.077	2557.55
