Data from 20250704_urea_0.5M_MAYP1162681_11-16-03-709.txt Node
Date: Fri Jul 04 11:16:03 BST 2025
User: adleo
Spectrometer: MAYP116268
Trigger mode: 0
Integration Time (sec): 1.000000E0
Scans to average: 1
Electric dark correction enabled: true
Nonlinearity correction enabled: true
Boxcar width: 10
XAxis mode: Wavelengths
Number of Pixels in Spectrum: 2068
>>>>>Begin Spectral Data<<<<<
179.565	1243.52
179.642	1299.55
179.718	1349.5
179.795	1389.11
179.871	1422.44
179.948	1440.56
180.024	1460.01
180.101	1482.79
180.177	1497.97
180.254	1521.47
180.33	1542.77
180.407	1597.42
180.483	1697.62
180.56	1790.69
180.636	1876.67
180.712	1864.59
180.789	1874.67
180.865	1887.07
180.942	1896.72
181.018	1905.37
181.095	1918.17
181.171	1924.73
181.248	1928.82
181.324	1938.9
181.4	1947.74
181.477	1958.44
181.553	1974.84
181.63	1995.15
181.706	2011.94
181.782	2020.3
181.859	2018.26
181.935	2025.77
182.011	2023.11
182.088	2039.99
182.164	2058.55
182.24	2074.76
182.317	2081.99
182.393	2081.23
182.469	2096.02
182.546	2109.48
182.622	2118.38
182.698	2114.19
182.775	2123.04
182.851	2135.36
182.927	2132.12
183.003	2127.7
183.08	2123.18
183.156	2127.37
183.232	2124.09
183.308	2114.1
183.385	2121.99
183.461	2144.16
183.537	2144.78
183.613	2158.81
183.69	2149.2
183.766	2137.68
183.842	2142.82
183.918	2147.01
183.995	2159.76
184.071	2164.47
184.147	2157
184.223	2144.63
184.299	2159.62
184.375	2150.25
184.452	2155.25
184.528	2202.4
184.604	2212.67
184.68	2222.28
184.756	2232.85
184.832	2239.65
184.908	2241.32
184.985	2239.46
185.061	2221.1
185.137	2230.56
185.213	2219.19
185.289	2221.19
185.365	2216.63
185.441	2216.34
185.517	2233.05
185.593	2228.96
185.669	2224.29
185.745	2238.09
185.822	2251.88
185.898	2240.27
185.974	2248.02
186.05	2238.98
186.126	2205.96
186.202	2199.64
186.278	2197.69
186.354	2187.36
186.43	2192.12
186.506	2192.74
186.582	2195.07
186.658	2201.11
186.734	2179.18
186.81	2179.37
186.886	2179.66
186.962	2191.36
187.038	2188.79
187.114	2178.27
187.19	2185.31
187.266	2175.99
187.341	2174.28
187.417	2169.71
187.493	2171.52
187.569	2173.09
187.645	2173.51
187.721	2162.62
187.797	2169.28
187.873	2173.84
187.949	2169.56
188.025	2162.09
188.101	2165.14
188.176	2168.85
188.252	2163.33
188.328	2171.08
188.404	2175.46
188.48	2172.55
188.556	2164.7
188.632	2161.52
188.707	2163.75
188.783	2160.66
188.859	2155.33
188.935	2144.44
189.011	2152.53
189.086	2145.77
189.162	2138.59
189.238	2130.69
189.314	2124.65
189.39	2118.28
189.465	2110.52
189.541	2125.03
189.617	2112.48
189.693	2107.44
189.768	2109.77
189.844	2134.08
189.92	2126.67
189.996	2134.38
190.071	2143.51
190.147	2142.99
190.223	2156.17
190.298	2150.12
190.374	2139.37
190.45	2152.21
190.526	2161.97
190.601	2153.31
190.677	2156.16
190.753	2185.87
190.828	2192.14
190.904	2208.99
190.98	2222.55
191.055	2232.87
191.131	2225.54
191.207	2246.43
191.282	2256.42
191.358	2249.04
191.433	2233.67
191.509	2247.37
191.585	2243.94
191.66	2246.08
191.736	2254.55
191.811	2241.61
191.887	2254.84
191.963	2280.59
192.038	2286.63
192.114	2286.06
192.189	2293.91
192.265	2290.53
192.34	2266.96
192.416	2264.54
192.491	2260.35
192.567	2264.11
192.642	2267.3
192.718	2268.87
192.793	2256.16
192.869	2252.79
192.944	2256.02
193.02	2268.97
193.095	2270.59
193.171	2276.77
193.246	2273.15
193.322	2270.82
193.397	2272.58
193.473	2259.97
193.548	2238.55
193.624	2240.84
193.699	2238.17
193.775	2250.59
193.85	2249.79
193.925	2260.21
194.001	2257.83
194.076	2249.6
194.152	2244.22
194.227	2238.18
194.302	2225.62
194.378	2227.19
194.453	2222.05
194.529	2231.95
194.604	2213.58
194.679	2210.06
194.755	2191.13
194.83	2206.36
194.905	2203.79
194.981	2212.78
195.056	2204.13
195.131	2207.93
195.207	2209.31
195.282	2203.27
195.357	2186.14
195.433	2201.07
195.508	2187.75
195.583	2197.31
195.659	2214.63
195.734	2217.82
195.809	2214.87
195.884	2227.34
195.96	2230.62
196.035	2248.27
196.11	2244.61
196.185	2257.55
196.261	2259.21
196.336	2289
196.411	2276.34
196.486	2281.15
196.561	2276.2
196.637	2284.62
196.712	2302.99
196.787	2305.85
196.862	2317.7
196.937	2325.55
197.013	2333.88
197.088	2345.49
197.163	2367.73
197.238	2384.45
197.313	2384.83
197.388	2398.77
197.464	2428.25
197.539	2441.77
197.614	2434.35
197.689	2447.39
197.764	2465.77
197.839	2489.43
197.914	2485.24
197.989	2505.05
198.065	2521.29
198.14	2570.08
198.215	2599.46
198.29	2613.61
198.365	2625.8
198.44	2640.66
198.515	2671.77
198.59	2687.77
198.665	2713.55
198.74	2723.08
198.815	2720.07
198.89	2742.84
198.965	2774.11
199.04	2765.25
199.115	2779.58
199.19	2823.27
199.265	2828.23
199.34	2837.09
199.415	2870.09
199.49	2892.39
199.565	2904.73
199.64	2929.37
199.715	2927.89
199.79	2934.47
199.865	2940.43
199.94	2939.95
200.015	2969.08
200.09	2973.28
200.165	2977.9
200.24	2987.92
200.315	3030.05
200.39	3048.74
200.464	3056.71
200.539	3060.19
200.614	3079.68
200.689	3103.72
200.764	3113.59
200.839	3127.99
200.914	3133.33
200.989	3119.16
201.063	3131.56
201.138	3113.21
201.213	3112.16
201.288	3092.66
201.363	3099.24
201.438	3097.81
201.512	3114.54
201.587	3096.99
201.662	3097.27
201.737	3112.54
201.812	3121.84
201.886	3084.47
201.961	3097.49
202.036	3082.53
202.111	3077.14
202.186	3048.31
202.26	3030.76
202.335	3005.86
202.41	3002.38
202.485	2982.41
202.559	2966.25
202.634	2939.75
202.709	2948.85
202.784	2929.11
202.858	2930.68
202.933	2912.95
203.008	2905.99
203.082	2886.59
203.157	2886.07
203.232	2849.2
203.306	2824.21
203.381	2787.89
203.456	2766.49
203.53	2741.35
203.605	2722.06
203.68	2699.57
203.754	2692.38
203.829	2674.51
203.904	2653.07
203.978	2643.26
204.053	2649.45
204.127	2638.16
204.202	2637.64
204.277	2624.2
204.351	2615.63
204.426	2606.53
204.5	2596.24
204.575	2562.63
204.65	2572.44
204.724	2563.96
204.799	2569.1
204.873	2565.57
204.948	2564.1
205.022	2552.1
205.097	2545.09
205.171	2558.19
205.246	2565.38
205.32	2564.1
205.395	2566.05
205.469	2553.96
205.544	2555.68
205.618	2538.15
205.693	2549.15
205.767	2531.58
205.842	2549.26
205.916	2543.5
205.991	2532.97
206.065	2539.26
206.14	2556.63
206.214	2550.96
206.289	2546.29
206.363	2559.72
206.438	2565.01
206.512	2574.54
206.586	2593.39
206.661	2598.68
206.735	2580.21
206.81	2581.78
206.884	2601.74
206.958	2594.69
207.033	2618.25
207.107	2629.17
207.181	2662.38
207.256	2659.66
207.33	2686.81
207.405	2705.02
207.479	2731.27
207.553	2747.8
207.628	2736.56
207.702	2753.62
207.776	2757.86
207.851	2767.24
207.925	2793.61
207.999	2801.09
208.073	2808.38
208.148	2826.02
208.222	2828.26
208.296	2873.71
208.371	2908.25
208.445	2937.28
208.519	2981.67
208.593	3013.32
208.668	3033.02
208.742	3063.57
208.816	3092.32
208.89	3135.59
208.965	3167.25
209.039	3209.25
209.113	3258.63
209.187	3320.91
209.261	3360.22
209.336	3423.09
209.41	3493.65
209.484	3541.03
209.558	3615.4
209.632	3691.52
209.707	3762.08
209.781	3852.43
209.855	3935.31
209.929	4022.76
210.003	4099.11
210.077	4175.8
210.151	4308.56
210.226	4429.11
210.3	4546.04
210.374	4661.95
210.448	4763.59
210.522	4870.24
210.596	4982.11
210.67	5097.44
210.744	5254.9
210.818	5404.42
210.892	5541.56
210.966	5652.71
211.041	5796.66
211.115	5926.2
211.189	6076.6
211.263	6228.03
211.337	6371.2
211.411	6528.24
211.485	6666.28
211.559	6826.4
211.633	6980.29
211.707	7102.42
211.781	7269.49
211.855	7392.25
211.929	7546.37
212.003	7693.26
212.077	7876.89
212.151	8063.75
212.225	8250.28
212.299	8413.14
212.373	8571.83
212.447	8746.77
212.52	8963.11
212.594	9149.94
212.668	9338.89
212.742	9513.44
212.816	9693.39
212.89	9870.95
212.964	10058.32
213.038	10249.9
213.112	10462.54
213.186	10670.55
213.26	10842.78
213.333	10981.12
213.407	11179.63
213.481	11381.48
213.555	11585.49
213.629	11757.7
213.703	11936.13
213.777	12127.33
213.85	12307.94
213.924	12535.97
213.998	12734.41
214.072	12920.82
214.146	13099.07
214.219	13287.84
214.293	13466
214.367	13654.67
214.441	13854.82
214.515	14037.17
214.588	14195.86
214.662	14336.77
214.736	14497.96
214.81	14682.68
214.883	14875.93
214.957	15044.59
215.031	15197.01
215.105	15361.19
215.178	15529.22
215.252	15689.34
215.326	15822.81
215.4	15961.82
215.473	16082.65
215.547	16221.07
215.621	16356.89
215.694	16517.29
215.768	16652.48
215.842	16804.39
215.915	16943.44
215.989	17063.68
216.063	17186.91
216.136	17335.64
216.21	17477.81
216.284	17630.15
216.357	17765.91
216.431	17905.19
216.504	18038.2
216.578	18206.1
216.652	18338.86
216.725	18457.32
216.799	18585.26
216.873	18720.15
216.946	18846.89
217.02	18953.15
217.093	19067.22
217.167	19157.77
217.24	19248.32
217.314	19349.9
217.387	19445.12
217.461	19540.69
217.535	19661.79
217.608	19755.76
217.682	19852.38
217.755	19957.73
217.829	20045.39
217.902	20136.33
217.976	20223.56
218.049	20313.19
218.123	20381.24
218.196	20468.23
218.27	20546.07
218.343	20624
218.417	20705.49
218.49	20786.99
218.563	20888.25
218.637	20981.17
218.71	21080.46
218.784	21166.44
218.857	21256.33
218.931	21337.06
219.004	21421.89
219.077	21501.8
219.151	21583.41
219.224	21645.97
219.298	21709.45
219.371	21781.95
219.444	21840.03
219.518	21900.76
219.591	21954.89
219.665	22039.78
219.738	22100.28
219.811	22148.43
219.885	22214.43
219.958	22275.32
220.031	22322.85
220.105	22376.45
220.178	22415.65
220.251	22461.16
220.325	22518.34
220.398	22561.39
220.471	22611.57
220.544	22653.42
220.618	22675.02
220.691	22705.63
220.764	22750.66
220.838	22795.55
220.911	22830.41
220.984	22884.79
221.057	22921.92
221.131	22964.64
221.204	22965.12
221.277	23006.78
221.35	23080.16
221.424	23097.47
221.497	23115.27
221.57	23146.03
221.643	23170.86
221.716	23199.89
221.79	23207.55
221.863	23221.68
221.936	23246.52
222.009	23261.32
222.082	23283.11
222.155	23293.43
222.229	23331.24
222.302	23359.11
222.375	23363.55
222.448	23380.52
222.521	23393.16
222.594	23401.98
222.667	23395.42
222.74	23411.72
222.814	23412.83
222.887	23408.01
222.96	23432.55
223.033	23452.61
223.106	23462.74
223.179	23477.06
223.252	23484.68
223.325	23507.97
223.398	23512.89
223.471	23515.74
223.544	23512.65
223.617	23517.62
223.69	23537
223.763	23520.13
223.837	23518.53
223.91	23524.47
223.983	23502.52
224.056	23496.21
224.129	23501.32
224.202	23515.78
224.275	23510.62
224.348	23494.86
224.42	23470.6
224.493	23433.85
224.566	23422.04
224.639	23418.28
224.712	23393.64
224.785	23368.03
224.858	23346.43
224.931	23314.41
225.004	23284.03
225.077	23276.75
225.15	23233.93
225.223	23209.82
225.296	23222.89
225.369	23188.17
225.442	23161.89
225.514	23154.42
225.587	23125.15
225.66	23105.57
225.733	23086.86
225.806	23071.67
225.879	23060
225.952	23037.3
226.025	23029.77
226.097	23034.79
226.17	23010.68
226.243	22970.42
226.316	22948.1
226.389	22933.3
226.461	22929.2
226.534	22919.65
226.607	22888.6
226.68	22891.69
226.753	22875.44
226.825	22834.69
226.898	22822.93
226.971	22813.48
227.044	22790.87
227.117	22782.19
227.189	22763.39
227.262	22749.11
227.335	22732.43
227.407	22705.58
227.48	22686.63
227.553	22680.03
227.626	22634.46
227.698	22614.65
227.771	22601.25
227.844	22574.83
227.916	22556.27
227.989	22524.88
228.062	22496.15
228.134	22509.12
228.207	22491.76
228.28	22453.92
228.352	22426.2
228.425	22407.3
228.498	22390.57
228.57	22356.1
228.643	22338.7
228.716	22308.47
228.788	22275.07
228.861	22243.05
228.934	22227.92
229.006	22206.18
229.079	22168.96
229.151	22141.82
229.224	22098.05
229.296	22076.46
229.369	22085.18
229.442	22071.25
229.514	22034.62
229.587	22023.1
229.659	21960.91
229.732	21941.97
229.804	21938.64
229.877	21929
229.949	21912.7
230.022	21903.3
230.094	21877.32
230.167	21854.19
230.239	21819.14
230.312	21794.42
230.384	21792.44
230.457	21772.82
230.529	21746.36
230.602	21721.49
230.674	21698.45
230.747	21699.17
230.819	21694.83
230.892	21635.5
230.964	21616.22
231.037	21601.9
231.109	21576.26
231.181	21570.67
231.254	21519.72
231.326	21482.08
231.399	21455.66
231.471	21411.51
231.544	21358.54
231.616	21348.51
231.688	21319.93
231.761	21289.38
231.833	21255.2
231.905	21201.27
231.978	21159.48
232.05	21130.32
232.122	21099.77
232.195	21068.54
232.267	21046.51
232.339	21002.31
232.412	20996.67
232.484	20948.14
232.556	20906.11
232.629	20887.37
232.701	20860.33
232.773	20836.71
232.846	20800.42
232.918	20769.05
232.99	20753.58
233.062	20735.31
233.135	20707.07
233.207	20658.97
233.279	20640.22
233.351	20626.34
233.424	20596.27
233.496	20559.02
233.568	20553.57
233.64	20515.79
233.713	20477.38
233.785	20438.87
233.857	20420.41
233.929	20364.75
234.001	20348.99
234.074	20349.23
234.146	20310.05
234.218	20266.44
234.29	20233.04
234.362	20200.51
234.434	20146.35
234.507	20096.32
234.579	20050.25
234.651	20012.32
234.723	19991.7
234.795	19959.84
234.867	19920.38
234.939	19889.15
235.012	19861.82
235.084	19823.9
235.156	19801.06
235.228	19765.2
235.3	19725.44
235.372	19691.61
235.444	19668.19
235.516	19621.11
235.588	19578.32
235.66	19543.24
235.732	19507.62
235.804	19526.9
235.876	19506.8
235.948	19497.55
236.02	19466.81
236.092	19422.71
236.164	19394.18
236.236	19354.62
236.308	19316.98
236.38	19287.54
236.452	19250.34
236.524	19224.99
236.596	19204.08
236.668	19177.43
236.74	19146.39
236.812	19123.65
236.884	19091.31
236.956	19062.74
237.028	19018.16
237.1	18973.15
237.172	18955.66
237.244	18943.56
237.316	18874.26
237.388	18836.92
237.46	18789.11
237.532	18764.25
237.604	18724.88
237.675	18699.72
237.747	18676.69
237.819	18632.25
237.891	18590.86
237.963	18552.16
238.035	18511.3
238.107	18434.67
238.178	18415.3
238.25	18384.99
238.322	18362.92
238.394	18309.43
238.466	18265.33
238.538	18241.53
238.609	18209.87
238.681	18147.99
238.753	18099.51
238.825	18067.51
238.897	18023.42
238.968	18008.96
239.04	17971.08
239.112	17965.11
239.184	17918.65
239.255	17879.86
239.327	17860.53
239.399	17832.15
239.471	17806.99
239.542	17779.18
239.614	17770.22
239.686	17707.67
239.758	17679.86
239.829	17630.75
239.901	17606.32
239.973	17574.51
240.044	17542.32
240.116	17502.42
240.188	17473.36
240.259	17436.3
240.331	17395.53
240.403	17370.46
240.474	17316.39
240.546	17276.3
240.618	17222.99
240.689	17184
240.761	17150.51
240.833	17129.93
240.904	17081.4
240.976	17043.57
241.048	17010.7
241.119	16981.49
241.191	16953.97
241.262	16940.96
241.334	16899.85
241.405	16869.54
241.477	16837.63
241.549	16805.44
241.62	16786.02
241.692	16756.57
241.763	16739.75
241.835	16707.55
241.906	16678.78
241.978	16630.2
242.049	16615.02
242.121	16599.5
242.192	16575.88
242.264	16527.93
242.335	16468.31
242.407	16450.67
242.478	16416.2
242.55	16388.06
242.621	16342.85
242.693	16296.29
242.764	16252.91
242.836	16216.67
242.907	16183.7
242.979	16154.69
243.05	16122.63
243.122	16089.28
243.193	16057.76
243.264	16003.73
243.336	15968.01
243.407	15937.99
243.479	15932.64
243.55	15885.83
243.622	15856.43
243.693	15821.73
243.764	15807.65
243.836	15771.36
243.907	15739.11
243.978	15702.72
244.05	15675.73
244.121	15628.2
244.192	15615.62
244.264	15573.4
244.335	15551.81
244.407	15505.48
244.478	15473.48
244.549	15431.74
244.62	15392.26
244.692	15355.34
244.763	15333.55
244.834	15295.95
244.906	15259.51
244.977	15226.93
245.048	15216.56
245.119	15174.97
245.191	15136.11
245.262	15084.97
245.333	15073.98
245.405	15039.32
245.476	15019.12
245.547	14991.6
245.618	14977.43
245.689	14951.35
245.761	14920.45
245.832	14885.07
245.903	14870.42
245.974	14847.04
246.045	14820
246.117	14807.13
246.188	14767.6
246.259	14725.9
246.33	14694.28
246.401	14658.22
246.473	14610.21
246.544	14577.43
246.615	14559.5
246.686	14533.81
246.757	14518.04
246.828	14476.44
246.899	14461.31
246.97	14416.81
247.042	14376.13
247.113	14357.28
247.184	14343.06
247.255	14309.8
247.326	14278.08
247.397	14251.85
247.468	14225.58
247.539	14200.85
247.61	14155.1
247.681	14141.22
247.752	14130.33
247.823	14095.09
247.894	14074.17
247.965	14044.33
248.037	14009.72
248.108	13967
248.179	13932.44
248.25	13908.43
248.321	13896.33
248.392	13863.94
248.463	13861.43
248.534	13835.21
248.605	13814.91
248.675	13786.81
248.746	13766.51
248.817	13757.16
248.888	13727.13
248.959	13675.89
249.03	13650.29
249.101	13631.58
249.172	13602.66
249.243	13557.83
249.314	13547.46
249.385	13527.22
249.456	13508.51
249.527	13483.2
249.598	13463.1
249.669	13442.86
249.739	13419.76
249.81	13398.12
249.881	13356.37
249.952	13329.14
250.023	13300.79
250.094	13253.31
250.165	13214.36
250.235	13183.89
250.306	13155.59
250.377	13120.26
250.448	13108.64
250.519	13068.44
250.59	13053.11
250.66	13015.8
250.731	13011.36
250.802	12985.52
250.873	12959.39
250.944	12938.28
251.014	12906.46
251.085	12909.45
251.156	12888.92
251.227	12879.32
251.297	12861.58
251.368	12854.16
251.439	12843.36
251.51	12831.65
251.58	12802.77
251.651	12775.1
251.722	12773.03
251.792	12731.53
251.863	12712.24
251.934	12711.95
252.005	12721.69
252.075	12703.61
252.146	12703.9
252.217	12687.51
252.287	12680.38
252.358	12659.46
252.429	12657.72
252.499	12632.46
252.57	12610.39
252.641	12599.64
252.711	12579.49
252.782	12546.56
252.852	12545.21
252.923	12526.08
252.994	12506.41
253.064	12502.75
253.135	12474.93
253.205	12444.8
253.276	12452.76
253.347	12450.64
253.417	12415.54
253.488	12387.3
253.558	12364.01
253.629	12344.4
253.699	12332.2
253.77	12318.7
253.841	12296.72
253.911	12281.97
253.982	12266.5
254.052	12251.46
254.123	12234.25
254.193	12213.04
254.264	12236.71
254.334	12199.4
254.405	12160.74
254.475	12135.87
254.546	12112.01
254.616	12105.94
254.687	12093.07
254.757	12069.4
254.827	12046.21
254.898	12032.48
254.968	12016.38
255.039	11990.06
255.109	11976.95
255.18	11945.67
255.25	11901.08
255.321	11886.62
255.391	11848.21
255.461	11851.72
255.532	11806.85
255.602	11789.74
255.673	11745.06
255.743	11705.92
255.813	11666.73
255.884	11664.04
255.954	11652.18
256.024	11653.53
256.095	11634.83
256.165	11599.64
256.235	11587.16
256.306	11559.4
256.376	11554.14
256.446	11544.02
256.517	11534.62
256.587	11521.95
256.657	11503.87
256.728	11490.24
256.798	11470.91
256.868	11450.38
256.938	11418.95
257.009	11408.78
257.079	11395.15
257.149	11408.88
257.219	11376.11
257.29	11366.32
257.36	11322.57
257.43	11310.28
257.5	11263.19
257.571	11245.41
257.641	11236.88
257.711	11214.08
257.781	11211.24
257.852	11195.14
257.922	11161.5
257.992	11140.68
258.062	11122.56
258.132	11120.78
258.202	11100.3
258.273	11087.57
258.343	11094.56
258.413	11067.77
258.483	11054.18
258.553	11018.9
258.623	10995.96
258.693	10979.63
258.764	10980.06
258.834	10985.94
258.904	10975.48
258.974	10958.52
259.044	10934.52
259.114	10927.2
259.184	10907.83
259.254	10877.61
259.324	10836.61
259.394	10823.35
259.464	10828.51
259.535	10807.69
259.605	10780.71
259.675	10755.56
259.745	10750.79
259.815	10720.28
259.885	10705.01
259.955	10715.08
260.025	10697.83
260.095	10679.04
260.165	10665.79
260.235	10665.36
260.305	10635.72
260.375	10602.33
260.445	10614.47
260.515	10622.13
260.585	10617.75
260.655	10599.87
260.725	10598.04
260.795	10589.95
260.865	10597.13
260.934	10566.72
261.004	10561.47
261.074	10551.59
261.144	10560.07
261.214	10554.19
261.284	10543.79
261.354	10539.45
261.424	10519.16
261.494	10527.4
261.564	10510.92
261.634	10505.09
261.703	10471.8
261.773	10470.5
261.843	10464.96
261.913	10440.48
261.983	10398.86
262.053	10387.39
262.123	10375.49
262.192	10353.38
262.262	10359.3
262.332	10325
262.402	10314.35
262.472	10300.81
262.541	10268.49
262.611	10264.35
262.681	10229.22
262.751	10217.76
262.821	10199.55
262.89	10163.08
262.96	10149.49
263.03	10155.13
263.1	10147.52
263.169	10138.27
263.239	10123.81
263.309	10129.16
263.379	10125.41
263.448	10128.63
263.518	10113.7
263.588	10100.55
263.657	10103.73
263.727	10096.88
263.797	10088.79
263.867	10071.59
263.936	10039.75
264.006	10028.24
264.076	10004.78
264.145	9999.44
264.215	9980.7
264.285	9981.66
264.354	9957.92
264.424	9933.64
264.494	9908.25
264.563	9888.12
264.633	9897.7
264.702	9892.5
264.772	9857.72
264.842	9842.79
264.911	9834.27
264.981	9806.33
265.05	9789.42
265.12	9769.96
265.19	9755.8
265.259	9745.01
265.329	9738.51
265.398	9732.3
265.468	9752.67
265.537	9734.47
265.607	9722.14
265.676	9717.99
265.746	9704.65
265.815	9706.53
265.885	9697.67
265.955	9674.84
266.024	9659.24
266.094	9617.86
266.163	9618.92
266.232	9626.63
266.302	9609.34
266.371	9591.72
266.441	9583.82
266.51	9583.09
266.58	9564.99
266.649	9542.98
266.719	9548.37
266.788	9543.22
266.858	9544.66
266.927	9509.89
266.996	9504.31
267.066	9503.01
267.135	9480.13
267.205	9478.25
267.274	9466.65
267.343	9468.04
267.413	9457.55
267.482	9463.47
267.552	9470.98
267.621	9444.35
267.69	9409.78
267.76	9401.21
267.829	9396.49
267.898	9390.18
267.968	9370.34
268.037	9372.84
268.106	9368.37
268.176	9339.86
268.245	9329.07
268.314	9322.81
268.384	9320.69
268.453	9310.19
268.522	9296.09
268.592	9299.99
268.661	9281.3
268.73	9274.47
268.799	9255.4
268.869	9262.38
268.938	9228.19
269.007	9208.26
269.076	9196.99
269.146	9202.14
269.215	9196.46
269.284	9198.39
269.353	9182.69
269.422	9168.11
269.492	9151.74
269.561	9117.56
269.63	9116.74
269.699	9102.49
269.768	9088.33
269.838	9083.28
269.907	9084.86
269.976	9061.47
270.045	9031.09
270.114	9023.39
270.183	9006.88
270.253	8998.21
270.322	8967.59
270.391	8964.85
270.46	8967.83
270.529	8968.89
270.598	8962.15
270.667	8946.17
270.736	8928.36
270.806	8922.15
270.875	8924.7
270.944	8907.8
271.013	8926.96
271.082	8917.86
271.151	8905.68
271.22	8874.49
271.289	8864.05
271.358	8849.22
271.427	8846.43
271.496	8838.1
271.565	8829.34
271.634	8827.95
271.703	8832.95
271.772	8838.39
271.841	8824.72
271.91	8804.6
271.979	8797.33
272.048	8779.96
272.117	8786.31
272.186	8768.21
272.255	8768.45
272.324	8773.27
272.393	8770.52
272.462	8760.32
272.531	8752.28
272.6	8747.66
272.669	8751.99
272.738	8742.55
272.807	8739.38
272.876	8719.07
272.945	8749.92
273.013	8751.51
273.082	8754.88
273.151	8732.21
273.22	8728.31
273.289	8722.78
273.358	8731.1
273.427	8716.86
273.496	8711.47
273.564	8707.71
273.633	8718.49
273.702	8700.25
273.771	8682.2
273.84	8679.94
273.909	8673.83
273.977	8671.47
274.046	8663.63
274.115	8674.07
274.184	8652.56
274.253	8642.6
274.322	8652.89
274.39	8617.61
274.459	8599.13
274.528	8569.2
274.597	8567.32
274.665	8567.47
274.734	8574.49
274.803	8566.5
274.872	8561.4
274.94	8546.58
275.009	8572.34
275.078	8552.99
275.147	8550.97
275.215	8551.21
275.284	8562.23
275.353	8554.05
275.421	8532.11
275.49	8545.2
275.559	8534.27
275.627	8535.48
275.696	8532.2
275.765	8536.34
275.833	8526.19
275.902	8525.23
275.971	8541.49
276.039	8554.44
276.108	8555.59
276.177	8553.81
276.245	8539.76
276.314	8539.18
276.383	8551.84
276.451	8512.9
276.52	8515.78
276.588	8527.09
276.657	8534.17
276.725	8527.09
276.794	8528.29
276.863	8543.26
276.931	8520.78
277	8530.8
277.068	8539.79
277.137	8562.7
277.205	8557.79
277.274	8578.87
277.342	8592.78
277.411	8572.47
277.48	8555.48
277.548	8540.42
277.617	8545.81
277.685	8539.89
277.754	8541.29
277.822	8530.9
277.89	8554.67
277.959	8550.97
278.027	8530.81
278.096	8520.27
278.164	8535.81
278.233	8527.68
278.301	8516.23
278.37	8517.09
278.438	8499.82
278.507	8499.67
278.575	8465.46
278.643	8460.6
278.712	8443.27
278.78	8428.5
278.849	8440.29
278.917	8457.23
278.985	8452.9
279.054	8456.17
279.122	8465.89
279.191	8463
279.259	8458.38
279.327	8430.27
279.396	8443.41
279.464	8442.3
279.532	8443.22
279.601	8441.2
279.669	8438.31
279.737	8447.79
279.806	8457.27
279.874	8462.18
279.942	8461.5
280.011	8458.81
280.079	8465.69
280.147	8482.53
280.215	8487.39
280.284	8482.53
280.352	8456.69
280.42	8464.49
280.488	8450
280.557	8451.16
280.625	8454.19
280.693	8461.07
280.761	8463.67
280.83	8449.42
280.898	8462.08
280.966	8449.09
281.034	8414.63
281.102	8401.69
281.171	8398.8
281.239	8410.06
281.307	8408.67
281.375	8399.14
281.443	8428.59
281.512	8428.64
281.58	8434.89
281.648	8420.41
281.716	8420.94
281.784	8426.81
281.852	8425.22
281.92	8424.12
281.989	8433.93
282.057	8410.65
282.125	8449.54
282.193	8446.75
282.261	8445.74
282.329	8439.34
282.397	8444.15
282.465	8451.85
282.533	8466.13
282.601	8456.46
282.67	8427.83
282.738	8423.11
282.806	8435.38
282.874	8417.91
282.942	8416.42
283.01	8411.18
283.078	8419.79
283.146	8416.37
283.214	8424.94
283.282	8430.38
283.35	8442.89
283.418	8433.36
283.486	8448.9
283.554	8406.26
283.622	8400.14
283.69	8398.51
283.758	8395.53
283.826	8402.69
283.894	8413.18
283.962	8431.09
284.03	8443.5
284.098	8447.83
284.165	8441.29
284.233	8441.24
284.301	8442.4
284.369	8433.69
284.437	8427.81
284.505	8424.93
284.573	8438.3
284.641	8425.79
284.709	8425.46
284.777	8411.79
284.845	8417.32
284.912	8416.65
284.98	8429.16
285.048	8433.4
285.116	8442.2
285.184	8455.58
285.252	8450.29
285.319	8429.21
285.387	8419.68
285.455	8403.23
285.523	8405.34
285.591	8396.06
285.659	8392.83
285.726	8399.23
285.794	8388.02
285.862	8385.76
285.93	8386.34
285.997	8384.27
286.065	8385.14
286.133	8379.07
286.201	8373.64
286.269	8360.21
286.336	8356.46
286.404	8347.46
286.472	8352.32
286.539	8327.21
286.607	8311.57
286.675	8312.43
286.743	8325.86
286.81	8320.8
286.878	8332.54
286.946	8329.8
287.013	8337.02
287.081	8336.15
287.149	8325.76
287.216	8344.62
287.284	8341.06
287.352	8334.85
287.419	8327.39
287.487	8343.95
287.555	8352.9
287.622	8350.97
287.69	8362.09
287.758	8375.66
287.825	8371.86
287.893	8362.71
287.96	8374.74
288.028	8386.05
288.096	8393.6
288.163	8395.19
288.231	8385.23
288.298	8385.52
288.366	8401.74
288.433	8393.85
288.501	8388.79
288.569	8393.75
288.636	8390.57
288.704	8399.38
288.771	8416.03
288.839	8409.39
288.906	8402.22
288.974	8408.04
289.041	8405.97
289.109	8390.96
289.176	8400.25
289.244	8400.11
289.311	8414.78
289.379	8425.56
289.446	8430.81
289.514	8427.34
289.581	8430.61
289.649	8430.32
289.716	8431.62
289.783	8421.37
289.851	8447.74
289.918	8451.59
289.986	8457.51
290.053	8465.06
290.121	8468.67
290.188	8467.32
290.255	8499.37
290.323	8495.86
290.39	8487.05
290.458	8502.26
290.525	8519.77
290.592	8510.97
290.66	8513.76
290.727	8503.7
290.794	8517.85
290.862	8513.52
290.929	8515.59
290.996	8516.12
291.064	8531.22
291.131	8547.64
291.198	8559.28
291.266	8559.71
291.333	8557.41
291.4	8561.16
291.468	8578.01
291.535	8569.01
291.602	8574.3
291.669	8568.09
291.737	8575.84
291.804	8579.54
291.871	8591.58
291.938	8594.94
292.006	8625.46
292.073	8643.8
292.14	8662.28
292.207	8647.79
292.275	8654.77
292.342	8665.84
292.409	8690
292.476	8714.17
292.543	8699.97
292.611	8703
292.678	8719.08
292.745	8750.12
292.812	8760.71
292.879	8752.19
292.946	8765.28
293.014	8775.38
293.081	8784.63
293.148	8795.5
293.215	8818.46
293.282	8811.63
293.349	8825.64
293.416	8801.13
293.484	8812.01
293.551	8817.4
293.618	8841.9
293.685	8868.43
293.752	8865.01
293.819	8864.34
293.886	8851.15
293.953	8859.76
294.02	8871.6
294.087	8874.59
294.154	8863.9
294.221	8882.15
294.288	8887.63
294.356	8899.91
294.423	8907.27
294.49	8895.91
294.557	8906.02
294.624	8890.43
294.691	8912.71
294.758	8917.24
294.825	8926.67
294.892	8918.44
294.959	8922.58
295.026	8927.92
295.093	8916.95
295.16	8922.53
295.226	8920.08
295.293	8947.76
295.36	8954.16
295.427	8962.83
295.494	8969.71
295.561	8981.65
295.628	9000.72
295.695	9011.21
295.762	9011.21
295.829	9017.37
295.896	9038.99
295.963	9051.12
296.03	9059.74
296.096	9056.9
296.163	9059.83
296.23	9076.59
296.297	9096.66
296.364	9093.82
296.431	9103.02
296.498	9102.73
296.564	9122.03
296.631	9125.11
296.698	9113.32
296.765	9135.75
296.832	9132.67
296.899	9129.54
296.965	9148.85
297.032	9127.9
297.099	9145.57
297.166	9152.55
297.233	9151.69
297.299	9141.72
297.366	9137.77
297.433	9144.22
297.5	9165.89
297.566	9169.5
297.633	9166.76
297.7	9164.69
297.767	9168.54
297.833	9172.78
297.9	9170.03
297.967	9156.75
298.033	9170.95
298.1	9193.92
298.167	9191.89
298.234	9192.67
298.3	9203.02
298.367	9194.45
298.434	9201.76
298.5	9194.83
298.567	9193.77
298.634	9190.31
298.7	9209.13
298.767	9212.93
298.834	9226.7
298.9	9216.93
298.967	9209.32
299.033	9217.65
299.1	9229.64
299.167	9239.17
299.233	9235.66
299.3	9251.5
299.366	9269.31
299.433	9284.53
299.5	9259.73
299.566	9261.8
299.633	9277.35
299.699	9288.43
299.766	9286.07
299.832	9290.89
299.899	9298.54
299.965	9313.03
300.032	9316.4
300.099	9323.44
300.165	9333.35
300.232	9325.8
300.298	9324.54
300.365	9341.88
300.431	9345.3
300.498	9341.83
300.564	9350.98
300.631	9352.9
300.697	9371.83
300.763	9370.77
300.83	9363.64
300.896	9374.48
300.963	9383.77
301.029	9392.77
301.096	9394.89
301.162	9408.71
301.229	9404.38
301.295	9397.54
301.361	9402.16
301.428	9410.73
301.494	9399.13
301.561	9399.18
301.627	9409
301.693	9412.66
301.76	9414.1
301.826	9411.99
301.892	9426.72
301.959	9437.22
302.025	9440.78
302.092	9430.77
302.158	9434.62
302.224	9443.82
302.291	9439.53
302.357	9436.74
302.423	9421.14
302.49	9409.15
302.556	9411.79
302.622	9415.31
302.688	9429.18
302.755	9441.65
302.821	9447.82
302.887	9458.75
302.954	9455.62
303.02	9457.88
303.086	9467.13
303.152	9466.79
303.219	9460.58
303.285	9460.62
303.351	9462.84
303.417	9466.79
303.483	9465.39
303.55	9459.61
303.616	9460.96
303.682	9465.34
303.748	9454.22
303.815	9475.41
303.881	9487.16
303.947	9483.31
304.013	9483.98
304.079	9473.53
304.145	9449.5
304.212	9440.3
304.278	9436.6
304.344	9437.9
304.41	9429.23
304.476	9421.04
304.542	9415.55
304.608	9427.93
304.674	9415.26
304.741	9407.32
304.807	9410.5
304.873	9413.29
304.939	9432.74
305.005	9407.12
305.071	9400.48
305.137	9404.52
305.203	9381.27
305.269	9380.59
305.335	9389.89
305.401	9384.88
305.467	9385.5
305.533	9394.12
305.599	9408.62
305.666	9410.93
305.732	9413.29
305.798	9421.76
305.864	9453.55
305.93	9459.33
305.996	9458.89
306.062	9455.76
306.128	9451.96
306.194	9437.27
306.259	9435.54
306.325	9422.3
306.391	9436.12
306.457	9448.11
306.523	9448.92
306.589	9468.38
306.655	9463.66
306.721	9445.99
306.787	9435.78
306.853	9449.02
306.919	9429.62
306.985	9420.81
307.051	9414.64
307.117	9402.03
307.183	9397.11
307.248	9355.99
307.314	9358.49
307.38	9352.66
307.446	9356.95
307.512	9347.22
307.578	9351.75
307.644	9345.59
307.709	9353.24
307.775	9348.57
307.841	9346.5
307.907	9348.62
307.973	9335.09
308.039	9332.29
308.104	9344.57
308.17	9346.79
308.236	9327.96
308.302	9341.73
308.368	9329.02
308.433	9326.03
308.499	9327.57
308.565	9320.5
308.631	9332.1
308.696	9309.18
308.762	9306.68
308.828	9308.6
308.894	9295.41
308.959	9273.84
309.025	9267.25
309.091	9259.11
309.156	9251.84
309.222	9251.4
309.288	9237.39
309.354	9215
309.419	9212.36
309.485	9190.3
309.551	9196.03
309.616	9183.71
309.682	9175.71
309.748	9172.97
309.813	9177.26
309.879	9166.28
309.945	9155.93
310.01	9142.06
310.076	9147.4
310.141	9135.03
310.207	9117.65
310.273	9121.89
310.338	9127.18
310.404	9106.14
310.469	9092.57
310.535	9081.4
310.601	9059.63
310.666	9068.49
310.732	9076.53
310.797	9057.66
310.863	9048.8
310.928	9038.07
310.994	9041.29
311.059	9038.64
311.125	9032.82
311.191	9038.6
311.256	9028.05
311.322	9034.94
311.387	9019.2
311.453	9286.81
311.518	9263.66
311.584	9261.1
311.649	9268.04
311.715	9257.11
311.78	9265.58
311.846	9256.24
311.911	9261.78
311.976	9265.73
312.042	9251.62
312.107	9237.13
312.173	9238.62
312.238	9233.23
312.304	9227.55
312.369	9218.98
312.434	9208.01
312.5	9202.37
312.565	9165.93
312.631	9168.48
312.696	9153.61
312.761	9158.56
312.827	8880.94
312.892	8924.89
312.958	8923.54
313.023	8909.73
313.088	8912.18
313.154	8900.82
313.219	8900.05
313.284	8894.18
313.35	8885.61
313.415	8871.65
313.48	8868.28
313.546	8864.14
313.611	8877.38
313.676	8873.43
313.741	8863.9
313.807	8870.4
313.872	8874.54
313.937	8881.14
314.003	8893.12
314.068	8895.43
314.133	8896.44
314.198	8887.15
314.264	8863.95
314.329	8850.08
314.394	8854.41
314.459	8855.52
314.525	8870.49
314.59	8854.37
314.655	8845.08
314.72	8851.91
314.785	8851.82
314.851	8848.26
314.916	8838.53
314.981	8824.43
315.046	8814.47
315.111	8804.07
315.176	8791.94
315.242	8792.13
315.307	8792.04
315.372	8766.77
315.437	8756.42
315.502	8749.97
315.567	8758.15
315.632	8740.29
315.698	8744.96
315.763	8734.37
315.828	8719.88
315.893	8715.26
315.958	8717.72
316.023	8707.66
316.088	8691.82
316.153	8676.37
316.218	8668.92
316.283	8645.43
316.348	8629.31
316.413	8622
316.479	8609.87
316.544	8575.95
316.609	8545.87
316.674	8507.91
316.739	8475.82
316.804	8445.02
316.869	8407.78
316.934	8372.89
316.999	8345.56
317.064	8300.67
317.129	8263.34
317.194	8232.35
317.259	8182.55
317.324	8131.18
317.389	8085.39
317.454	8043.58
317.518	8011.5
317.583	7985.33
317.648	7967.96
317.713	7931.26
317.778	7874.75
317.843	7844.07
317.908	7809.73
317.973	7771.31
318.038	7745.1
318.103	7711.3
318.168	7680.53
318.233	7651.54
318.297	7598.7
318.362	7558.98
318.427	7518.8
318.492	7496.2
318.557	7448.03
318.622	7424.38
318.687	7405.01
318.751	7368.68
318.816	7335.75
318.881	7301.87
318.946	7251.2
319.011	7203.48
319.075	7159.32
319.14	7123.91
319.205	7081.81
319.27	7049.33
319.335	7007.44
319.399	6969.72
319.464	6944.36
319.529	6894.59
319.594	6859.76
319.658	6831.95
319.723	6792.52
319.788	6766.48
319.853	6707.78
319.917	6683.15
319.982	6627.68
320.047	6589.16
320.112	6562.37
320.176	6511.86
320.241	6476.47
320.306	6444.11
320.37	6405.42
320.435	6377.96
320.5	6354.39
320.564	6315.65
320.629	6273.56
320.694	6244.67
320.758	6202.53
320.823	6157.76
320.888	6129.16
320.952	6080.17
321.017	6041.74
321.082	6008.59
321.146	5972.94
321.211	5938.35
321.275	5896.04
321.34	5852.55
321.405	5811.25
321.469	5764.64
321.534	5726.04
321.598	5673.54
321.663	5642.36
321.727	5609.42
321.792	5559.22
321.857	5516.88
321.921	5478.1
321.986	5434.55
322.05	5373.93
322.115	5337.98
322.179	5298.4
322.244	5245.32
322.308	5211.06
322.373	5168.28
322.437	5120.04
322.502	5089.65
322.566	5050.66
322.631	5014.4
322.695	4979.44
322.76	4933.47
322.824	4902.92
322.889	4862.95
322.953	4817.53
323.018	4753.81
323.082	4691.74
323.146	4642.02
323.211	4586.65
323.275	4541.67
323.34	4498.52
323.404	4465.9
323.468	4422.12
323.533	4379.97
323.597	4338.14
323.662	4287.73
323.726	4248.84
323.79	4205.24
323.855	4141.04
323.919	4092.75
323.983	4048.43
324.048	3980.45
324.112	4101.91
324.177	3969.95
324.241	3762.19
324.305	3564.59
324.37	3365.67
324.434	3175.21
324.498	3132.55
324.562	3083.92
324.627	3024.26
324.691	2971.1
324.755	2906.21
324.82	2826.98
324.884	2743.82
324.948	2667.86
325.012	2572.38
325.077	2448.04
