Data from 20250704_urea_1M_MAYP1162681_11-39-50-621.txt Node
Date: Fri Jul 04 11:39:50 BST 2025
User: adleo
Spectrometer: MAYP116268
Trigger mode: 0
Integration Time (sec): 1.000000E0
Scans to average: 1
Electric dark correction enabled: true
Nonlinearity correction enabled: true
Boxcar width: 10
XAxis mode: Wavelengths
Number of Pixels in Spectrum: 2068
>>>>>Begin Spectral Data<<<<<
179.565	1251.91
179.642	1305.54
179.718	1352.54
179.795	1394.67
179.871	1430.59
179.948	1451.35
180.024	1475.36
180.101	1499.64
180.177	1515.54
180.254	1538.83
180.33	1561.52
180.407	1618.5
180.483	1719.27
180.56	1814.2
180.636	1903.12
180.712	1893.56
180.789	1906.07
180.865	1918.23
180.942	1927.46
181.018	1937.15
181.095	1949.24
181.171	1953.61
181.248	1956.56
181.324	1970.68
181.4	1976.15
181.477	1985.85
181.553	1998.69
181.63	2018.66
181.706	2035.17
181.782	2043.87
181.859	2043.06
181.935	2050.48
182.011	2047.39
182.088	2062.56
182.164	2081.88
182.24	2094.86
182.317	2104.14
182.393	2101.19
182.469	2118.4
182.546	2129.2
182.622	2136.34
182.698	2131.96
182.775	2144.76
182.851	2159.17
182.927	2152.46
183.003	2149.46
183.08	2145.14
183.156	2153.41
183.232	2148.56
183.308	2137.57
183.385	2144.66
183.461	2163.73
183.537	2162.16
183.613	2174.44
183.69	2165.49
183.766	2152.98
183.842	2160.26
183.918	2164.4
183.995	2178.67
184.071	2183.48
184.147	2178.48
184.223	2165.69
184.299	2179.06
184.375	2166.98
184.452	2177.5
184.528	2226.08
184.604	2237.78
184.68	2247.39
184.756	2255.91
184.832	2263.95
184.908	2268.42
184.985	2268.75
185.061	2254.29
185.137	2263.85
185.213	2252.72
185.289	2254.67
185.365	2248.63
185.441	2247.58
185.517	2261.81
185.593	2256.01
185.669	2249.44
185.745	2261.96
185.822	2281.46
185.898	2274.79
185.974	2285.4
186.05	2274.55
186.126	2242.29
186.202	2234.77
186.278	2233.16
186.354	2223.4
186.43	2230.59
186.506	2227.88
186.582	2226.17
186.658	2231.59
186.734	2209.33
186.81	2214.27
186.886	2217.46
186.962	2229.64
187.038	2227.17
187.114	2216.55
187.19	2222.64
187.266	2213.89
187.341	2216.65
187.417	2207.18
187.493	2204.09
187.569	2210.23
187.645	2204
187.721	2190.34
187.797	2198.81
187.873	2201.38
187.949	2196.48
188.025	2190
188.101	2193.66
188.176	2200.28
188.252	2197.09
188.328	2207.36
188.404	2205.5
188.48	2200.84
188.556	2192.33
188.632	2191.18
188.707	2194.71
188.783	2192.95
188.859	2188.48
188.935	2174.29
189.011	2184.19
189.086	2181.48
189.162	2172.06
189.238	2170.15
189.314	2167.25
189.39	2161.12
189.465	2155.17
189.541	2171.54
189.617	2152.56
189.693	2147.85
189.768	2148.61
189.844	2172.98
189.92	2165.23
189.996	2174.08
190.071	2183.93
190.147	2184.59
190.223	2194.44
190.298	2184.02
190.374	2170.99
190.45	2181.69
190.526	2192.44
190.601	2183.64
190.677	2184.02
190.753	2209.01
190.828	2213.2
190.904	2230.9
190.98	2246.03
191.055	2257.36
191.131	2248.03
191.207	2270.44
191.282	2280.67
191.358	2272.15
191.433	2256.06
191.509	2268.85
191.585	2267.76
191.66	2268.85
191.736	2280.08
191.811	2268.09
191.887	2285.18
191.963	2311.16
192.038	2319.11
192.114	2319.25
192.189	2325.87
192.265	2321.11
192.34	2300.68
192.416	2298.54
192.491	2293.17
192.567	2291.31
192.642	2291.93
192.718	2291.55
192.793	2279.13
192.869	2273.84
192.944	2276.32
193.02	2283.65
193.095	2289.07
193.171	2295.16
193.246	2297.21
193.322	2291.98
193.397	2295.4
193.473	2280.88
193.548	2258.66
193.624	2265.89
193.699	2260.89
193.775	2276.08
193.85	2277.03
193.925	2285.17
194.001	2287.17
194.076	2278.22
194.152	2272.18
194.227	2262.85
194.302	2253.29
194.378	2256.38
194.453	2254.81
194.529	2267.38
194.604	2254
194.679	2245.3
194.755	2223.79
194.83	2235.65
194.905	2234.41
194.981	2242.74
195.056	2235.89
195.131	2244.17
195.207	2241.5
195.282	2233.51
195.357	2215.61
195.433	2231.07
195.508	2217.89
195.583	2220.32
195.659	2237.5
195.734	2243.02
195.809	2244.88
195.884	2254.53
195.96	2255.58
196.035	2268.57
196.11	2266.81
196.185	2277.94
196.261	2283.8
196.336	2314.58
196.411	2298.4
196.486	2301.3
196.561	2297.49
196.637	2307.44
196.712	2324.15
196.787	2326.15
196.862	2341.61
196.937	2349.65
197.013	2356.51
197.088	2367.65
197.163	2393.79
197.238	2409.84
197.313	2412.03
197.388	2427.31
197.464	2458.98
197.539	2467.69
197.614	2462.98
197.689	2478.89
197.764	2497.13
197.839	2516.27
197.914	2512.12
197.989	2535.5
198.065	2549.31
198.14	2596.73
198.215	2626.59
198.29	2637.79
198.365	2653.94
198.44	2665.56
198.515	2696
198.59	2711.39
198.665	2736.39
198.74	2743.35
198.815	2742.59
198.89	2766.7
198.965	2795.39
199.04	2790.38
199.115	2812.2
199.19	2853.08
199.265	2852.32
199.34	2862.23
199.415	2898.04
199.49	2920.29
199.565	2932.92
199.64	2957.42
199.715	2957.52
199.79	2964.24
199.865	2971.91
199.94	2969.91
200.015	3003.48
200.09	3009.16
200.165	3013.49
200.24	3023.46
200.315	3064.59
200.39	3083.28
200.464	3092.44
200.539	3096.45
200.614	3114.61
200.689	3136.36
200.764	3145.47
200.839	3162.92
200.914	3165.82
200.989	3156.23
201.063	3171.69
201.138	3154.96
201.213	3153.91
201.288	3129.68
201.363	3132.5
201.438	3133.83
201.512	3147.04
201.587	3129.15
201.662	3133.25
201.737	3145.7
201.812	3151.57
201.886	3117.15
201.961	3127.32
202.036	3113.16
202.111	3107.53
202.186	3073.93
202.26	3052.42
202.335	3030.86
202.41	3027.81
202.485	3011.84
202.559	2992.01
202.634	2961.97
202.709	2966.12
202.784	2948.63
202.858	2950.48
202.933	2932.75
203.008	2925.5
203.082	2904.73
203.157	2902.15
203.232	2859.5
203.306	2840.24
203.381	2809.69
203.456	2788.38
203.53	2763.29
203.605	2743.34
203.68	2719.6
203.754	2715.46
203.829	2702.88
203.904	2684.53
203.978	2672.62
204.053	2677.29
204.127	2664.67
204.202	2664.47
204.277	2650.57
204.351	2645.28
204.426	2637.75
204.5	2627.7
204.575	2592.6
204.65	2602.51
204.724	2595.46
204.799	2601.08
204.873	2595.64
204.948	2595.5
205.022	2579.98
205.097	2571.36
205.171	2582.98
205.246	2591.74
205.32	2593.5
205.395	2596.08
205.469	2584.84
205.544	2589.51
205.618	2573.13
205.693	2581.84
205.767	2568.18
205.842	2588.9
205.916	2581.42
205.991	2572.66
206.065	2579.85
206.14	2595.89
206.214	2589.7
206.289	2584.93
206.363	2599.51
206.438	2604.51
206.512	2611.08
206.586	2631.18
206.661	2640.99
206.735	2618.9
206.81	2622
206.884	2636.15
206.958	2623.33
207.033	2641.9
207.107	2646.86
207.181	2679.5
207.256	2677.03
207.33	2696.98
207.405	2710.95
207.479	2735.2
207.553	2743.54
207.628	2726.59
207.702	2735.35
207.776	2732.16
207.851	2736.4
207.925	2749.79
207.999	2750.75
208.073	2749.94
208.148	2756.99
208.222	2745.03
208.296	2776.08
208.371	2794.05
208.445	2804.01
208.519	2831.08
208.593	2844.42
208.668	2842.7
208.742	2844.09
208.816	2843.9
208.89	2858.58
208.965	2859.72
209.039	2864.68
209.113	2884.27
209.187	2907.61
209.261	2909.23
209.336	2935.02
209.41	2956.57
209.484	2964.05
209.558	2986.75
209.632	3006.87
209.707	3024.46
209.781	3055.79
209.855	3084.79
209.929	3107.37
210.003	3122.1
210.077	3130.93
210.151	3187.07
210.226	3235.65
210.3	3274.62
210.374	3318.3
210.448	3342.21
210.522	3368.23
210.596	3398.77
210.67	3429.07
210.744	3503.03
210.818	3562.44
210.892	3606.37
210.966	3627.9
211.041	3670.26
211.115	3699.14
211.189	3757.27
211.263	3811.3
211.337	3852.14
211.411	3906.39
211.485	3946.74
211.559	4007.94
211.633	4061.49
211.707	4087.7
211.781	4148.23
211.855	4177.3
211.929	4227.26
212.003	4271.61
212.077	4348.7
212.151	4430.42
212.225	4514.55
212.299	4575.51
212.373	4644.15
212.447	4723.68
212.52	4843.1
212.594	4939.9
212.668	5047.32
212.742	5127.66
212.816	5221.68
212.89	5322.15
212.964	5426.2
213.038	5543.12
213.112	5674.63
213.186	5810.14
213.26	5906.51
213.333	5983.66
213.407	6115.91
213.481	6253.7
213.555	6401.95
213.629	6521.56
213.703	6644.88
213.777	6785.68
213.85	6915
213.924	7087.84
213.998	7241.97
214.072	7390.06
214.146	7533.76
214.219	7684.39
214.293	7837.32
214.367	7989.68
214.441	8164.85
214.515	8320.16
214.588	8462.21
214.662	8581.78
214.736	8723.89
214.81	8899.61
214.883	9083.15
214.957	9243.45
215.031	9397.55
215.105	9540.39
215.178	9698.52
215.252	9861.54
215.326	10009.84
215.4	10152.65
215.473	10280.89
215.547	10433
215.621	10581.21
215.694	10753.81
215.768	10904.24
215.842	11069.37
215.915	11234.18
215.989	11368.4
216.063	11527.83
216.136	11688.32
216.21	11862.06
216.284	12041.07
216.357	12205.67
216.431	12361.79
216.504	12530.21
216.578	12715.98
216.652	12891.87
216.725	13057.93
216.799	13229.44
216.873	13384.22
216.946	13557.42
217.02	13716.78
217.093	13866.99
217.167	13997.82
217.24	14127.83
217.314	14268.83
217.387	14401.2
217.461	14543.84
217.535	14711.01
217.608	14837.16
217.682	14979.36
217.755	15121.27
217.829	15247.22
217.902	15384.45
217.976	15520.28
218.049	15643.97
218.123	15755.79
218.196	15889.4
218.27	16011.63
218.343	16117.33
218.417	16254.74
218.49	16373.07
218.563	16499.06
218.637	16620.99
218.71	16762.98
218.784	16892.57
218.857	17021.16
218.931	17147.14
219.004	17263.05
219.077	17373.22
219.151	17489.17
219.224	17593.56
219.298	17703.58
219.371	17822.95
219.444	17919.53
219.518	18015.77
219.591	18108.78
219.665	18231.91
219.738	18332.87
219.811	18409.4
219.885	18514.89
219.958	18612.66
220.031	18702.3
220.105	18793.81
220.178	18875.93
220.251	18945.61
220.325	19032.59
220.398	19112.83
220.471	19200
220.544	19287.33
220.618	19350.74
220.691	19437.44
220.764	19514.83
220.838	19590.25
220.911	19648.27
220.984	19721.76
221.057	19796.12
221.131	19871.2
221.204	19909.8
221.277	19993.65
221.35	20093.7
221.424	20148.2
221.497	20195.72
221.57	20255.62
221.643	20311.38
221.716	20380.49
221.79	20438.95
221.863	20480.88
221.936	20534.47
222.009	20574.37
222.082	20612.35
222.155	20649.65
222.229	20696.49
222.302	20742.95
222.375	20779.82
222.448	20835.53
222.521	20876.88
222.594	20908.45
222.667	20934.38
222.74	20980.79
222.814	20999.93
222.887	21026.87
222.96	21063.69
223.033	21111.55
223.106	21142.11
223.179	21185.73
223.252	21209.05
223.325	21240.77
223.398	21269.93
223.471	21301.54
223.544	21330.9
223.617	21354.9
223.69	21383.34
223.763	21388.4
223.837	21413.41
223.91	21432.21
223.983	21423.29
224.056	21433.7
224.129	21456.07
224.202	21480.5
224.275	21481.85
224.348	21486.05
224.42	21482.82
224.493	21492.17
224.566	21484.36
224.639	21501.03
224.712	21502.72
224.785	21505.32
224.858	21494.53
224.931	21499.78
225.004	21483.25
225.077	21481.18
225.15	21449.42
225.223	21458.09
225.296	21480.26
225.369	21457.51
225.442	21456.84
225.514	21471.2
225.587	21477.37
225.66	21480.21
225.733	21479.59
225.806	21477.42
225.879	21464.74
225.952	21447.97
226.025	21434.04
226.097	21450.48
226.17	21437.9
226.243	21401.03
226.316	21389.89
226.389	21397.02
226.461	21392.45
226.534	21396.98
226.607	21390.95
226.68	21415.82
226.753	21407.72
226.825	21378.61
226.898	21385.6
226.971	21374.42
227.044	21354.85
227.117	21341.26
227.189	21334.89
227.262	21340.15
227.335	21340.82
227.407	21327.52
227.48	21325.74
227.553	21327.09
227.626	21303.85
227.698	21286.6
227.771	21296.05
227.844	21278.79
227.916	21267.27
227.989	21242.55
228.062	21229.58
228.134	21233.77
228.207	21222.3
228.28	21206.01
228.352	21192.47
228.425	21184.81
228.498	21187.94
228.57	21170.49
228.643	21179.17
228.716	21162.88
228.788	21146.92
228.861	21125.67
228.934	21129.77
229.006	21113.43
229.079	21102.29
229.151	21081.66
229.224	21060.31
229.296	21045.33
229.369	21068.8
229.442	21065.91
229.514	21041.28
229.587	21031.69
229.659	21003.64
229.732	20991.97
229.804	20978.96
229.877	20977.76
229.949	20974.82
230.022	20978.14
230.094	20970.86
230.167	20949.66
230.239	20920.55
230.312	20886.52
230.384	20896.88
230.457	20886.04
230.529	20871.68
230.602	20853.7
230.674	20838.47
230.747	20833.56
230.819	20828.11
230.892	20758.28
230.964	20737.02
231.037	20727.09
231.109	20703.82
231.181	20689.17
231.254	20654.85
231.326	20641.36
231.399	20631.19
231.471	20591.43
231.544	20533.26
231.616	20518.99
231.688	20499.43
231.761	20475.86
231.833	20457.6
231.905	20404.25
231.978	20370.61
232.05	20346.51
232.122	20332.2
232.195	20304.73
232.267	20288.25
232.339	20254.85
232.412	20262.17
232.484	20232.68
232.556	20202.99
232.629	20207.09
232.701	20193.02
232.773	20173.6
232.846	20139.86
232.918	20114.18
232.99	20100.49
233.062	20091.19
233.135	20069.74
233.207	20020.2
233.279	20008.97
233.351	19987.72
233.424	19970.23
233.496	19942.86
233.568	19943.87
233.64	19895.1
233.713	19870.43
233.785	19842.04
233.857	19824.55
233.929	19784.89
234.001	19771.3
234.074	19760.65
234.146	19709.18
234.218	19685.28
234.29	19655.54
234.362	19625.57
234.434	19587.4
234.507	19550.63
234.579	19512.03
234.651	19480.28
234.723	19474.3
234.795	19454.45
234.867	19425.77
234.939	19407.56
235.012	19385.44
235.084	19356.04
235.156	19341.1
235.228	19305.06
235.3	19268.24
235.372	19235.23
235.444	19215.09
235.516	19174.99
235.588	19144.58
235.66	19118.95
235.732	19070.61
235.804	19096.44
235.876	19080.01
235.948	19056.93
236.02	19025.89
236.092	18994.96
236.164	18963.44
236.236	18916.79
236.308	18873.13
236.38	18845.33
236.452	18802.05
236.524	18778.15
236.596	18767.16
236.668	18746.39
236.74	18728.27
236.812	18713.82
236.884	18694.2
236.956	18669.24
237.028	18624.52
237.1	18588.14
237.172	18574.26
237.244	18559.22
237.316	18491.13
237.388	18453.21
237.46	18418.22
237.532	18400.97
237.604	18362.56
237.675	18349.69
237.747	18337.16
237.819	18301.98
237.891	18272.59
237.963	18242.08
238.035	18191.48
238.107	18108.06
238.178	18093.22
238.25	18059.58
238.322	18049.9
238.394	17992.16
238.466	17958.05
238.538	17935.83
238.609	17915.49
238.681	17854.96
238.753	17817.13
238.825	17790.15
238.897	17761.09
238.968	17743.93
239.04	17704.99
239.112	17700.9
239.184	17654.97
239.255	17619.5
239.327	17596.08
239.399	17570.83
239.471	17554.54
239.542	17539.26
239.614	17542.83
239.686	17478.25
239.758	17448.56
239.829	17404.95
239.901	17395.89
239.973	17364.03
240.044	17340.47
240.116	17317.24
240.188	17301.19
240.259	17275.07
240.331	17244.13
240.403	17220.51
240.474	17179.84
240.546	17137.91
240.618	17089.18
240.689	17056.32
240.761	17025.28
240.833	17009.42
240.904	16971.01
240.976	16931.49
241.048	16909.37
241.119	16875.01
241.191	16847.3
241.262	16832.31
241.334	16795.78
241.405	16756.01
241.477	16713.99
241.549	16685.6
241.62	16645.84
241.692	16621.21
241.763	16597.45
241.835	16555.81
241.906	16524.48
241.978	16473.3
242.049	16466.98
242.121	16449
242.192	16437.1
242.264	16394.25
242.335	16338.25
242.407	16315.26
242.478	16280.02
242.55	16241.03
242.621	16204.64
242.693	16173.8
242.764	16141.84
242.836	16114.71
242.907	16099.09
242.979	16077.21
243.05	16046.5
243.122	16027.42
243.193	15992.23
243.264	15944.95
243.336	15923.84
243.407	15898.29
243.479	15895.02
243.55	15855.64
243.622	15827.05
243.693	15791.58
243.764	15776.88
243.836	15740.29
243.907	15702.99
243.978	15676.28
244.05	15658.35
244.121	15612.47
244.192	15594.58
244.264	15546.77
244.335	15507.48
244.407	15456.44
244.478	15426.8
244.549	15396.52
244.62	15349.77
244.692	15321.04
244.763	15312.89
244.834	15273.56
244.906	15235.1
244.977	15204.39
245.048	15193.26
245.119	15151.61
245.191	15108.37
245.262	15057.9
245.333	15056.27
245.405	15035.54
245.476	15009.65
245.547	14978.85
245.618	14960.73
245.689	14939.57
245.761	14910.64
245.832	14888.76
245.903	14870.01
245.974	14848.94
246.045	14816.79
246.117	14802.38
246.188	14760.39
246.259	14706.93
246.33	14678.35
246.401	14653.81
246.473	14616.16
246.544	14581.31
246.615	14569.89
246.686	14537.16
246.757	14526.7
246.828	14481.58
246.899	14472.8
246.97	14426.62
247.042	14392.73
247.113	14375.86
247.184	14361.55
247.255	14342.17
247.326	14318.59
247.397	14290.25
247.468	14259.93
247.539	14245.66
247.61	14202.42
247.681	14181.74
247.752	14170.22
247.823	14141.87
247.894	14119.65
247.965	14078.87
248.037	14041.94
248.108	13997.78
248.179	13977.05
248.25	13952.28
248.321	13941.09
248.392	13892.74
248.463	13898.53
248.534	13865.22
248.605	13849.36
248.675	13813.73
248.746	13790.35
248.817	13763.16
248.888	13741.57
248.959	13708.26
249.03	13679.14
249.101	13659.09
249.172	13628.43
249.243	13583.64
249.314	13570.15
249.385	13545.66
249.456	13525.89
249.527	13509.5
249.598	13492.53
249.669	13469.1
249.739	13448.13
249.81	13426.25
249.881	13390.82
249.952	13361.84
250.023	13344.54
250.094	13295.17
250.165	13269.82
250.235	13239.26
250.306	13219.68
250.377	13185.65
250.448	13168.15
250.519	13121.34
250.59	13118.31
250.66	13094.73
250.731	13088.71
250.802	13058.58
250.873	13041.9
250.944	13032.69
251.014	12999.48
251.085	13000.25
251.156	12985.35
251.227	12982.65
251.297	12970.41
251.368	12967.13
251.439	12951.42
251.51	12940.04
251.58	12918.15
251.651	12880.07
251.722	12871.01
251.792	12827.43
251.863	12809.31
251.934	12800.73
252.005	12811.23
252.075	12781.01
252.146	12779.66
252.217	12774.02
252.287	12763.27
252.358	12739.21
252.429	12730.92
252.499	12702.96
252.57	12684.5
252.641	12666.38
252.711	12636.44
252.782	12598.36
252.852	12594.36
252.923	12574.26
252.994	12551.26
253.064	12550.49
253.135	12528.17
253.205	12504.07
253.276	12504.89
253.347	12506.38
253.417	12475.24
253.488	12449.21
253.558	12432.92
253.629	12406.7
253.699	12381.83
253.77	12377.87
253.841	12357.58
253.911	12341.91
253.982	12322.25
254.052	12307.3
254.123	12294.77
254.193	12277.75
254.264	12296.79
254.334	12267.24
254.405	12235.58
254.475	12207.33
254.546	12182.26
254.616	12179.18
254.687	12164.28
254.757	12160.67
254.827	12135.94
254.898	12124.33
254.968	12107.31
255.039	12078.97
255.109	12064.22
255.18	12036.45
255.25	11986.66
255.321	11973.75
255.391	11940
255.461	11947.86
255.532	11903.27
255.602	11881.58
255.673	11838.59
255.743	11807.79
255.813	11765.61
255.884	11762.48
255.954	11751.3
256.024	11751.2
256.095	11732.84
256.165	11701.27
256.235	11676.54
256.306	11649.89
256.376	11646.66
256.446	11641.6
256.517	11635.14
256.587	11632.58
256.657	11624.49
256.728	11615.23
256.798	11597.98
256.868	11577.93
256.938	11550.26
257.009	11551.23
257.079	11539.47
257.149	11550.6
257.219	11510.89
257.29	11498.31
257.36	11462.64
257.43	11460.04
257.5	11413.73
257.571	11398.11
257.641	11389.73
257.711	11368.08
257.781	11353.48
257.852	11335.7
257.922	11294.49
257.992	11272.32
258.062	11248.42
258.132	11238.34
258.202	11217.33
258.273	11201.09
258.343	11205.28
258.413	11186.2
258.483	11163.93
258.553	11134.73
258.623	11112.08
258.693	11113.76
258.764	11113.33
258.834	11112.61
258.904	11098.34
258.974	11078.78
259.044	11058.25
259.114	11045.96
259.184	11026.93
259.254	11016.23
259.324	10973.48
259.394	10964.86
259.464	10965.44
259.535	10945.58
259.605	10919.66
259.675	10900
259.745	10890.89
259.815	10859.47
259.885	10831.09
259.955	10841.16
260.025	10817.36
260.095	10794.28
260.165	10776.54
260.235	10780.93
260.305	10755.44
260.375	10724.6
260.445	10735.92
260.515	10734.38
260.585	10732.11
260.655	10720.31
260.725	10711.3
260.795	10708.12
260.865	10713.71
260.934	10689.52
261.004	10684.55
261.074	10669.71
261.144	10672.03
261.214	10663.79
261.284	10648.27
261.354	10648.22
261.424	10623.26
261.494	10629.23
261.564	10618.97
261.634	10611.26
261.703	10571.85
261.773	10564.52
261.843	10555.71
261.913	10532.05
261.983	10497.31
262.053	10486.57
262.123	10466.33
262.192	10434.82
262.262	10439.06
262.332	10400.47
262.402	10394.45
262.472	10375.37
262.541	10345.4
262.611	10345.74
262.681	10321.31
262.751	10321.41
262.821	10302.04
262.89	10266.78
262.96	10255.98
263.03	10264.8
263.1	10253.24
263.169	10236.38
263.239	10227.8
263.309	10230.45
263.379	10233.54
263.448	10228.33
263.518	10217.44
263.588	10205.74
263.657	10209.83
263.727	10198.99
263.797	10192.54
263.867	10174.57
263.936	10154.91
264.006	10155.78
264.076	10137.43
264.145	10121.14
264.215	10096.82
264.285	10095.13
264.354	10066.76
264.424	10046.34
264.494	10007.17
264.563	9985.69
264.633	9997.39
264.702	9989.44
264.772	9957.12
264.842	9927.69
264.911	9919.98
264.981	9887.13
265.05	9879.66
265.12	9866.56
265.19	9854.23
265.259	9850.61
265.329	9844.21
265.398	9832.5
265.468	9845.22
265.537	9822
265.607	9816.42
265.676	9814.83
265.746	9805.92
265.815	9811.98
265.885	9803.12
265.955	9782.7
266.024	9767.44
266.094	9733.96
266.163	9734.83
266.232	9742.15
266.302	9733.29
266.371	9720.77
266.441	9713.78
266.51	9705.64
266.58	9684.89
266.649	9655.27
266.719	9656.76
266.788	9651.46
266.858	9660.18
266.927	9625.16
266.996	9619.72
267.066	9612.11
267.135	9584.52
267.205	9582.3
267.274	9572.96
267.343	9570.31
267.413	9564.15
267.482	9567.71
267.552	9566.55
267.621	9532.17
267.69	9503.61
267.76	9494.8
267.829	9479.48
267.898	9471.15
267.968	9451.51
268.037	9453.96
268.106	9457
268.176	9426.85
268.245	9413.03
268.314	9391.74
268.384	9391.11
268.453	9378.74
268.522	9367.81
268.592	9368.77
268.661	9349.89
268.73	9343.87
268.799	9319.94
268.869	9329.77
268.938	9301.88
269.007	9282.63
269.076	9279.16
269.146	9273.33
269.215	9267.94
269.284	9284.31
269.353	9263.9
269.422	9254.51
269.492	9236.84
269.561	9198.85
269.63	9196.16
269.699	9176.03
269.768	9169.34
269.838	9163.51
269.907	9166.02
269.976	9142.57
270.045	9119.27
270.114	9111.37
270.183	9097.7
270.253	9094.33
270.322	9062.55
270.391	9053.26
270.46	9063.95
270.529	9062.99
270.598	9067.75
270.667	9054.95
270.736	9027.5
270.806	9021.53
270.875	9020.33
270.944	9007.53
271.013	9037.04
271.082	9031.98
271.151	9032.22
271.22	9003.58
271.289	8990.44
271.358	8970.99
271.427	8966.7
271.496	8956.31
271.565	8946.53
271.634	8940.52
271.703	8969.79
271.772	8973.07
271.841	8964.5
271.91	8942.83
271.979	8934.02
272.048	8908.41
272.117	8912.46
272.186	8902.88
272.255	8913.37
272.324	8914.53
272.393	8911.98
272.462	8894.02
272.531	8886.46
272.6	8876.4
272.669	8881.69
272.738	8865.86
272.807	8866.92
272.876	8847.57
272.945	8877.27
273.013	8875.34
273.082	8880.49
273.151	8833.94
273.22	8831.97
273.289	8824.99
273.358	8837.36
273.427	8821.67
273.496	8823.4
273.564	8811.75
273.633	8808.48
273.702	8784.46
273.771	8775.6
273.84	8772.43
273.909	8770.16
273.977	8766.31
274.046	8752.02
274.115	8757.17
274.184	8745.43
274.253	8735.03
274.322	8747.01
274.39	8710.96
274.459	8697.24
274.528	8666.97
274.597	8660.67
274.665	8657.63
274.734	8662.11
274.803	8645.41
274.872	8642.28
274.94	8624.81
275.009	8652.54
275.078	8639.26
275.147	8637.14
275.215	8631.41
275.284	8640.22
275.353	8622.7
275.421	8597.19
275.49	8614.57
275.559	8602.05
275.627	8597.39
275.696	8585.45
275.765	8586.32
275.833	8583.58
275.902	8583.77
275.971	8601.62
276.039	8619.38
276.108	8622.37
276.177	8624.34
276.245	8612.02
276.314	8606
276.383	8610
276.451	8574.18
276.52	8573.94
276.588	8588
276.657	8591.17
276.725	8573.75
276.794	8575.87
276.863	8590.3
276.931	8565.81
277	8572.25
277.068	8584.72
277.137	8609.41
277.205	8604.16
277.274	8619.75
277.342	8625.67
277.411	8596.18
277.48	8575.82
277.548	8565.37
277.617	8564.08
277.685	8567.3
277.754	8575.67
277.822	8567.54
277.89	8585.45
277.959	8587.66
278.027	8564.8
278.096	8553.54
278.164	8588.1
278.233	8583.91
278.301	8566.98
278.37	8572.56
278.438	8561.83
278.507	8561.63
278.575	8533.62
278.643	8526.5
278.712	8504.37
278.78	8490.07
278.849	8505.85
278.917	8519.91
278.985	8513.22
279.054	8518.22
279.122	8526.64
279.191	8522.31
279.259	8521.54
279.327	8489.68
279.396	8503.16
279.464	8501.09
279.532	8504.75
279.601	8499.26
279.669	8490.45
279.737	8508.5
279.806	8507.34
279.874	8515.91
279.942	8510.18
280.011	8508.59
280.079	8519.09
280.147	8539.34
280.215	8546.66
280.284	8540.79
280.352	8530.3
280.42	8540.88
280.488	8527.31
280.557	8515.14
280.625	8524.14
280.693	8524.38
280.761	8537.56
280.83	8519.32
280.898	8532.84
280.966	8511.86
281.034	8472.59
281.102	8463.55
281.171	8455.99
281.239	8468.79
281.307	8459.27
281.375	8453.11
281.443	8481.26
281.512	8476.02
281.58	8480.25
281.648	8465.43
281.716	8466.78
281.784	8461.48
281.852	8451.96
281.92	8452.68
281.989	8466.68
282.057	8449.26
282.125	8498.31
282.193	8493.69
282.261	8491.19
282.329	8488.73
282.397	8497.3
282.465	8505.86
282.533	8522.94
282.601	8515.44
282.67	8492.58
282.738	8488.44
282.806	8495.37
282.874	8475.15
282.942	8477.99
283.01	8474.86
283.078	8482.95
283.146	8483.57
283.214	8485.59
283.282	8485.31
283.35	8496.47
283.418	8486.22
283.486	8484.01
283.554	8439.91
283.622	8440.35
283.69	8440.39
283.758	8431.4
283.826	8437.03
283.894	8438.71
283.962	8455.12
284.03	8470.52
284.098	8472.64
284.165	8465.57
284.233	8472.88
284.301	8466
284.369	8461.38
284.437	8451.27
284.505	8447.04
284.573	8455.8
284.641	8456.76
284.709	8469.32
284.777	8450.6
284.845	8456.18
284.912	8462.77
284.98	8465.66
285.048	8460.85
285.116	8468.79
285.184	8477.69
285.252	8475.52
285.319	8468.4
285.387	8460.12
285.455	8438.47
285.523	8445.21
285.591	8445.83
285.659	8438.52
285.726	8453.39
285.794	8433.23
285.862	8430.54
285.93	8429.77
285.997	8427.89
286.065	8416.87
286.133	8402.96
286.201	8397.04
286.269	8386.27
286.336	8375.34
286.404	8365.34
286.472	8371.59
286.539	8353.11
286.607	8347.24
286.675	8349.99
286.743	8355.52
286.81	8350.42
286.878	8367.64
286.946	8359.66
287.013	8355.47
287.081	8360.91
287.149	8344.16
287.216	8369.62
287.284	8366.44
287.352	8364.76
287.419	8359.66
287.487	8377.8
287.555	8380.54
287.622	8382.7
287.69	8388.96
287.758	8405.32
287.825	8401.33
287.893	8390.36
287.96	8395.45
288.028	8402.29
288.096	8404.21
288.163	8408.54
288.231	8399.21
288.298	8395.31
288.366	8413.16
288.433	8416.1
288.501	8403.44
288.569	8406.52
288.636	8402
288.704	8419.28
288.771	8427.74
288.839	8421.1
288.906	8413.5
288.974	8429.58
289.041	8429.29
289.109	8417.64
289.176	8426.31
289.244	8431.02
289.311	8448.3
289.379	8455.37
289.446	8458.59
289.514	8461.24
289.581	8459.46
289.649	8457.97
289.716	8462.25
289.783	8456.43
289.851	8473.6
289.918	8473.22
289.986	8488.09
290.053	8488.62
290.121	8481.3
290.188	8485.11
290.255	8515.18
290.323	8503.35
290.39	8499.4
290.458	8504.88
290.525	8520.72
290.592	8515.71
290.66	8520.43
290.727	8511.33
290.794	8526.97
290.862	8523.02
290.929	8522.06
290.996	8523.7
291.064	8538.61
291.131	8551.42
291.198	8555.99
291.266	8550.17
291.333	8550.94
291.4	8552.48
291.468	8572.11
291.535	8570.81
291.602	8573.85
291.669	8564.8
291.737	8580.63
291.804	8574.56
291.871	8586.69
291.938	8593.57
292.006	8616.05
292.073	8629.62
292.14	8641.03
292.207	8639.01
292.275	8644.35
292.342	8647.53
292.409	8672.75
292.476	8696.77
292.543	8687.81
292.611	8692.19
292.678	8713.9
292.745	8742.39
292.812	8755.05
292.879	8748.5
292.946	8752.93
293.014	8764.15
293.081	8775.7
293.148	8786.09
293.215	8800
293.282	8801.16
293.349	8808.81
293.416	8791.05
293.484	8806.02
293.551	8816.41
293.618	8826.96
293.685	8851.6
293.752	8855.11
293.819	8846.4
293.886	8829.5
293.953	8838.75
294.02	8844.57
294.087	8852.32
294.154	8842.21
294.221	8855.36
294.288	8852.57
294.356	8871.58
294.423	8876.34
294.49	8866.81
294.557	8877.55
294.624	8866.62
294.691	8885.39
294.758	8887.42
294.825	8896.47
294.892	8883.71
294.959	8886.21
295.026	8892.18
295.093	8884.91
295.16	8882.75
295.226	8887.75
295.293	8911.87
295.36	8914.62
295.427	8928.58
295.494	8938.98
295.561	8954.76
295.628	8969.98
295.695	8986.44
295.762	8980.23
295.829	8994
295.896	9013.36
295.963	9025.82
296.03	9041.56
296.096	9050.9
296.163	9060.58
296.23	9073.58
296.297	9091.2
296.364	9088.94
296.431	9097.27
296.498	9093.61
296.564	9118.73
296.631	9119.65
296.698	9105.35
296.765	9128.99
296.832	9120.85
296.899	9107.81
296.965	9121.62
297.032	9104.91
297.099	9131.73
297.166	9145.89
297.233	9139
297.299	9130.43
297.366	9128.27
297.433	9131.11
297.5	9138.43
297.566	9138.96
297.633	9134.33
297.7	9135.44
297.767	9135.15
297.833	9144.88
297.9	9150.99
297.967	9137.99
298.033	9153.26
298.1	9179.02
298.167	9165.97
298.234	9167.12
298.3	9175.55
298.367	9175.31
298.434	9177.38
298.5	9163.7
298.567	9158.45
298.634	9158.41
298.7	9174.68
298.767	9173.67
298.834	9187.2
298.9	9177.81
298.967	9171.31
299.033	9185.85
299.1	9202.37
299.167	9216.76
299.233	9208.67
299.3	9221.81
299.366	9238.76
299.433	9253.45
299.5	9233.42
299.566	9234.43
299.633	9251.28
299.699	9266.26
299.766	9260.05
299.832	9265.63
299.899	9272.42
299.965	9284.55
300.032	9285.57
300.099	9289.95
300.165	9294.91
300.232	9291.2
300.298	9302.23
300.365	9322.35
300.431	9319.9
300.498	9313.68
300.564	9318.5
300.631	9327.7
300.697	9338.1
300.763	9337.76
300.83	9335.64
300.896	9349.51
300.963	9366.89
301.029	9372.04
301.096	9371.61
301.162	9377.53
301.229	9379.94
301.295	9366.31
301.361	9373.2
301.428	9378.69
301.494	9366.22
301.561	9371.51
301.627	9378.25
301.693	9374.84
301.76	9373.73
301.826	9366.55
301.892	9380.04
301.959	9391.88
302.025	9387.98
302.092	9382.54
302.158	9386.59
302.224	9388.85
302.291	9377.1
302.357	9371.9
302.423	9369.93
302.49	9361.6
302.556	9379.65
302.622	9377.87
302.688	9391.5
302.755	9404.6
302.821	9413.31
302.887	9432.77
302.954	9434.6
303.02	9438.26
303.086	9439.7
303.152	9436.72
303.219	9444.37
303.285	9442.93
303.351	9443.7
303.417	9444.71
303.483	9441.15
303.55	9435.13
303.616	9432.53
303.682	9436.38
303.748	9426.94
303.815	9441.34
303.881	9450.59
303.947	9431.76
304.013	9429.21
304.079	9415.05
304.145	9392.08
304.212	9385.14
304.278	9370.17
304.344	9360.35
304.41	9349.8
304.476	9347.92
304.542	9346.57
304.608	9349.37
304.674	9335.88
304.741	9330.01
304.807	9336.51
304.873	9336.65
304.939	9351.77
305.005	9332.7
305.071	9330.06
305.137	9332.51
305.203	9299.09
305.269	9297.5
305.335	9316.04
305.401	9319.08
305.467	9323.07
305.533	9333.23
305.599	9339.69
305.666	9343.68
305.732	9352.35
305.798	9361.02
305.864	9380.38
305.93	9383.65
305.996	9385.58
306.062	9383.03
306.128	9378.93
306.194	9366.17
306.259	9374.12
306.325	9363.38
306.391	9375.03
306.457	9382.25
306.523	9384.23
306.589	9413.84
306.655	9407
306.721	9386.39
306.787	9370.7
306.853	9385.82
306.919	9363.28
306.985	9355.15
307.051	9354.62
307.117	9343.78
307.183	9343.69
307.248	9316.29
307.314	9322.69
307.38	9317.49
307.446	9328.52
307.512	9326.4
307.578	9330.2
307.644	9319.61
307.709	9324.42
307.775	9315.47
307.841	9314.7
307.907	9317.39
307.973	9298.61
308.039	9295
308.104	9299.14
308.17	9298.13
308.236	9282.67
308.302	9290.81
308.368	9282.62
308.433	9278.19
308.499	9273.48
308.565	9259.8
308.631	9256.29
308.696	9229.32
308.762	9216.66
308.828	9206.4
308.894	9178.96
308.959	9157.97
309.025	9146.95
309.091	9140.98
309.156	9140.78
309.222	9141.75
309.288	9127.93
309.354	9104
309.419	9104
309.485	9090.14
309.551	9094.37
309.616	9077.04
309.682	9077.81
309.748	9070.3
309.813	9067.36
309.879	9059.13
309.945	9049.98
310.01	9049.12
310.076	9049.5
310.141	9042.23
310.207	9034.19
310.273	9039.3
310.338	9041.17
310.404	9026.3
310.469	9009.88
310.535	9000.35
310.601	8978.68
310.666	8980.75
310.732	8989.27
310.797	8975.6
310.863	8968.14
310.928	8965.11
310.994	8970.11
311.059	8960.63
311.125	8960.44
311.191	8966.79
311.256	8954.52
311.322	8954.42
311.387	8934.4
311.453	9330.74
311.518	9304.51
311.584	9302.49
311.649	9307.25
311.715	9299.02
311.78	9295.84
311.846	9287.13
311.911	9288.62
311.976	9288.82
312.042	9277.55
312.107	9263.45
312.173	9254.3
312.238	9251.42
312.304	9239.91
312.369	9228.65
312.434	9212.28
312.5	9198.32
312.565	9166.94
312.631	9176.27
312.696	9167.08
312.761	9174.01
312.827	8769.63
312.892	8819.93
312.958	8809.1
313.023	8811.41
313.088	8808.96
313.154	8801.64
313.219	8791.63
313.284	8780.8
313.35	8774.78
313.415	8767.61
313.48	8763.62
313.546	8769.78
313.611	8770.89
313.676	8774.69
313.741	8766.12
313.807	8779.07
313.872	8784.41
313.937	8790.72
314.003	8796.93
314.068	8802.17
314.133	8803.91
314.198	8795.92
314.264	8768.04
314.329	8762.31
314.394	8749.65
314.459	8745.51
314.525	8766.74
314.59	8765.01
314.655	8756.92
314.72	8768.14
314.785	8765.68
314.851	8761.78
314.916	8747.44
314.981	8737.91
315.046	8718.61
315.111	8707.4
315.176	8694.84
315.242	8696.71
315.307	8695.22
315.372	8676.02
315.437	8663.31
315.502	8655.13
315.567	8660.85
315.632	8647.91
315.698	8648.53
315.763	8643.96
315.828	8640.59
315.893	8632.79
315.958	8629.57
316.023	8618.98
316.088	8596.6
316.153	8574.18
316.218	8571.82
316.283	8550.02
316.348	8533.42
316.413	8534.19
316.479	8525
316.544	8490.99
316.609	8462.36
316.674	8428.77
316.739	8395.29
316.804	8364.3
316.869	8329.71
316.934	8297.18
316.999	8268.17
317.064	8219.77
317.129	8182.87
317.194	8146.69
317.259	8101.18
317.324	8054.82
317.389	8012.87
317.454	7975.26
317.518	7943.76
317.583	7913.4
317.648	7894.84
317.713	7865.59
317.778	7804.18
317.843	7773.35
317.908	7743.73
317.973	7704.83
318.038	7678.53
318.103	7644.83
318.168	7616.17
318.233	7590.35
318.297	7540.4
318.362	7506.79
318.427	7465.75
318.492	7446.99
318.557	7400.42
318.622	7370.52
318.687	7348.37
318.751	7309.01
318.816	7279.45
318.881	7248.36
318.946	7199.67
319.011	7150.36
319.075	7103.32
319.14	7072.76
319.205	7029.18
319.27	6995.12
319.335	6954.67
319.399	6912.3
319.464	6884.82
319.529	6831.22
319.594	6787.5
319.658	6762.48
319.723	6715.98
319.788	6691.93
319.853	6630.49
319.917	6600
319.982	6553.08
320.047	6516.2
320.112	6491.96
320.176	6437.56
320.241	6407.07
320.306	6375.58
320.37	6339.86
320.435	6313.85
320.5	6286.63
320.564	6252.46
320.629	6208.55
320.694	6184.22
320.758	6145.64
320.823	6104.03
320.888	6081.48
320.952	6037.87
321.017	5993.83
321.082	5959.19
321.146	5924.56
321.211	5893.86
321.275	5852.81
321.34	5806.05
321.405	5762.85
321.469	5721.36
321.534	5684.93
321.598	5636.78
321.663	5608.2
321.727	5576.98
321.792	5522.52
321.857	5486.04
321.921	5447.16
321.986	5408.92
322.05	5345.05
322.115	5310.4
322.179	5266.65
322.244	5212.9
322.308	5177.59
322.373	5134.72
322.437	5092.56
322.502	5067.31
322.566	5024.1
322.631	4991.64
322.695	4957.21
322.76	4916.61
322.824	4879.11
322.889	4836.32
322.953	4788.93
323.018	4723.53
323.082	4661.89
323.146	4617.73
323.211	4562.79
323.275	4520.29
323.34	4475.76
323.404	4445.86
323.468	4400.84
323.533	4358.41
323.597	4314.72
323.662	4262.88
323.726	4229.11
323.79	4186.17
323.855	4123.32
323.919	4074.56
323.983	4035.26
324.048	3970.05
324.112	4094.72
324.177	3970.26
324.241	3765.56
324.305	3564.86
324.37	3367.08
324.434	3175.86
324.498	3132.85
324.562	3082
324.627	3021.64
324.691	2966.58
324.755	2900.94
324.82	2822.6
324.884	2746.19
324.948	2673.38
325.012	2584.92
325.077	2459.76
