Data from 20250704_urea_1M_MAYP1162681_11-38-20-628.txt Node
Date: Fri Jul 04 11:38:20 BST 2025
User: adleo
Spectrometer: MAYP116268
Trigger mode: 0
Integration Time (sec): 1.000000E0
Scans to average: 1
Electric dark correction enabled: true
Nonlinearity correction enabled: true
Boxcar width: 10
XAxis mode: Wavelengths
Number of Pixels in Spectrum: 2068
>>>>>Begin Spectral Data<<<<<
179.565	1260.16
179.642	1316.35
179.718	1360.06
179.795	1398.66
179.871	1434.85
179.948	1454.97
180.024	1473.48
180.101	1494.99
180.177	1509.55
180.254	1533.79
180.33	1557.53
180.407	1615.79
180.483	1716.7
180.56	1812.16
180.636	1901.46
180.712	1887.48
180.789	1896.75
180.865	1910.77
180.942	1922.23
181.018	1931.31
181.095	1945.53
181.171	1949.95
181.248	1953.76
181.324	1969.64
181.4	1978.34
181.477	1987.52
181.553	2002.73
181.63	2025.85
181.706	2043.87
181.782	2054.61
181.859	2053.24
181.935	2058.09
182.011	2053
182.088	2066.98
182.164	2084.54
182.24	2097.24
182.317	2106.84
182.393	2105.84
182.469	2120.73
182.546	2132.62
182.622	2137
182.698	2129.15
182.775	2141.23
182.851	2155.51
182.927	2147.47
183.003	2144.18
183.08	2138.52
183.156	2143.52
183.232	2141.85
183.308	2131.53
183.385	2136.33
183.461	2155.32
183.537	2155.32
183.613	2168.83
183.69	2160.69
183.766	2151.79
183.842	2158.55
183.918	2163.21
183.995	2177.62
184.071	2181.38
184.147	2173.96
184.223	2163.88
184.299	2179.3
184.375	2168.78
184.452	2174.59
184.528	2228.03
184.604	2238.78
184.68	2251.86
184.756	2259.67
184.832	2263.52
184.908	2269.33
184.985	2268.14
185.061	2252.34
185.137	2266.05
185.213	2256.67
185.289	2256.67
185.365	2248.54
185.441	2248.59
185.517	2262.53
185.593	2257.92
185.669	2251.78
185.745	2263.87
185.822	2280.23
185.898	2271.71
185.974	2281.22
186.05	2271.23
186.126	2232.2
186.202	2224.78
186.278	2221.12
186.354	2213.12
186.43	2221.02
186.506	2217.5
186.582	2220.26
186.658	2225.16
186.734	2200.28
186.81	2199.76
186.886	2204.85
186.962	2217.22
187.038	2213.51
187.114	2204.7
187.19	2212.98
187.266	2205.42
187.341	2206.32
187.417	2199.04
187.493	2197.99
187.569	2200.8
187.645	2193.95
187.721	2184.43
187.797	2192
187.873	2198.28
187.949	2193.95
188.025	2187.57
188.101	2191.38
188.176	2195.28
188.252	2191.43
188.328	2199.18
188.404	2201.13
188.48	2193.52
188.556	2186.52
188.632	2184.95
188.707	2187.05
188.783	2183.71
188.859	2178.15
188.935	2165.06
189.011	2172.25
189.086	2165.97
189.162	2157.74
189.238	2158.45
189.314	2157.31
189.39	2152.27
189.465	2141.7
189.541	2157.98
189.617	2138.14
189.693	2131.96
189.768	2137.76
189.844	2162.51
189.92	2156.43
189.996	2163.28
190.071	2177.26
190.147	2176.79
190.223	2186.35
190.298	2180.21
190.374	2167.61
190.45	2179.69
190.526	2189.44
190.601	2182.35
190.677	2182.5
190.753	2209.87
190.828	2212.77
190.904	2225.57
190.98	2239.13
191.055	2252.27
191.131	2240.85
191.207	2265.87
191.282	2274.34
191.358	2261.73
191.433	2246.35
191.509	2258.86
191.585	2258.01
191.66	2258.15
191.736	2265.67
191.811	2255.1
191.887	2269.76
191.963	2293.08
192.038	2297.65
192.114	2298.74
192.189	2305.4
192.265	2305.31
192.34	2283.74
192.416	2281.12
192.491	2277.98
192.567	2280.7
192.642	2283.46
192.718	2283.55
192.793	2270.46
192.869	2269.51
192.944	2273.32
193.02	2280.74
193.095	2284.88
193.171	2289.26
193.246	2290.21
193.322	2285.6
193.397	2288.5
193.473	2275.12
193.548	2257.85
193.624	2262.03
193.699	2262.51
193.775	2279.36
193.85	2278.27
193.925	2287.5
194.001	2287.74
194.076	2278.75
194.152	2267.28
194.227	2257.38
194.302	2250.62
194.378	2254.48
194.453	2253
194.529	2267.18
194.604	2254.33
194.679	2248.77
194.755	2229.69
194.83	2242.36
194.905	2242.07
194.981	2251.97
195.056	2243.93
195.131	2248.93
195.207	2250.83
195.282	2238.74
195.357	2217.04
195.433	2234.79
195.508	2220.89
195.583	2228.55
195.659	2243.49
195.734	2250.82
195.809	2254.92
195.884	2265.71
195.96	2267
196.035	2281.37
196.11	2278.23
196.185	2291.7
196.261	2295.27
196.336	2329.06
196.411	2313.53
196.486	2321.77
196.561	2315.53
196.637	2323.24
196.712	2343.28
196.787	2348
196.862	2362.23
196.937	2373.5
197.013	2377.22
197.088	2389.97
197.163	2413.45
197.238	2434.41
197.313	2437.03
197.388	2446.45
197.464	2474.12
197.539	2484.5
197.614	2474.36
197.689	2488.74
197.764	2501.7
197.839	2525.27
197.914	2516.89
197.989	2541.41
198.065	2551.79
198.14	2601.35
198.215	2629.93
198.29	2636.64
198.365	2650.03
198.44	2661.36
198.515	2690.28
198.59	2706.76
198.665	2734.16
198.74	2742.21
198.815	2741.16
198.89	2765.22
198.965	2797.83
199.04	2793.25
199.115	2810.88
199.19	2855.8
199.265	2854.66
199.34	2864.76
199.415	2894.47
199.49	2919.01
199.565	2926.68
199.64	2953.85
199.715	2950.7
199.79	2955.56
199.865	2968.29
199.94	2965.77
200.015	3001.43
200.09	3007.06
200.165	3016.45
200.24	3022.46
200.315	3062.69
200.39	3079.14
200.464	3080.66
200.539	3079.04
200.614	3097.16
200.689	3119.48
200.764	3127.4
200.839	3144.55
200.914	3152.52
200.989	3145.31
201.063	3160.1
201.138	3144.32
201.213	3144.23
201.288	3126.06
201.363	3135.55
201.438	3131.5
201.512	3146.32
201.587	3126.24
201.662	3128.34
201.737	3138.4
201.812	3146.99
201.886	3113.15
201.961	3120.21
202.036	3110.87
202.111	3110.58
202.186	3079.75
202.26	3059.62
202.335	3036.21
202.41	3032.06
202.485	3012.28
202.559	2989.87
202.634	2958.79
202.709	2967.41
202.784	2948.29
202.858	2946.48
202.933	2925.46
203.008	2921.6
203.082	2902.29
203.157	2900.91
203.232	2859.89
203.306	2836.53
203.381	2804.63
203.456	2781.9
203.53	2762.63
203.605	2742.34
203.68	2717.12
203.754	2715.6
203.829	2702.16
203.904	2681.25
203.978	2670.39
204.053	2675.96
204.127	2662.81
204.202	2662.96
204.277	2647.57
204.351	2639.9
204.426	2633.61
204.5	2626.04
204.575	2590.08
204.65	2601.8
204.724	2593.18
204.799	2599.56
204.873	2598.27
204.948	2597.7
205.022	2584.03
205.097	2572.12
205.171	2585.79
205.246	2597.03
205.32	2591.7
205.395	2592.6
205.469	2584.23
205.544	2590.71
205.618	2574.94
205.693	2588.85
205.767	2576.33
205.842	2595.24
205.916	2588.76
205.991	2578.43
206.065	2580.9
206.14	2596.85
206.214	2591.94
206.289	2588.51
206.363	2604.61
206.438	2606.66
206.512	2611.09
206.586	2634.38
206.661	2643.67
206.735	2622.82
206.81	2620.77
206.884	2635.67
206.958	2621.72
207.033	2641.57
207.107	2645.53
207.181	2677.17
207.256	2672.88
207.33	2693.27
207.405	2708.05
207.479	2728.77
207.553	2739.58
207.628	2727.44
207.702	2740.16
207.776	2733.59
207.851	2731.3
207.925	2745.98
207.999	2744.69
208.073	2744.93
208.148	2744.12
208.222	2733.88
208.296	2766.98
208.371	2785.91
208.445	2798.68
208.519	2828.55
208.593	2840.08
208.668	2838.12
208.742	2842.13
208.816	2844.46
208.89	2859.67
208.965	2858.29
209.039	2868.35
209.113	2885.51
209.187	2907.47
209.261	2905.32
209.336	2930.21
209.41	2956.61
209.484	2960.76
209.558	2986.94
209.632	3003.62
209.707	3022.12
209.781	3053.73
209.855	3075.2
209.929	3098.87
210.003	3112.08
210.077	3124.67
210.151	3183.97
210.226	3232.17
210.3	3273.23
210.374	3312.53
210.448	3334.2
210.522	3361.69
210.596	3392.19
210.67	3425.75
210.744	3494.3
210.818	3549.7
210.892	3595.21
210.966	3619.79
211.041	3665.49
211.115	3695.62
211.189	3760.05
211.263	3812.92
211.337	3853.53
211.411	3910.34
211.485	3949.83
211.559	4013.14
211.633	4061.62
211.707	4083.15
211.781	4147.27
211.855	4173.52
211.929	4227.59
212.003	4271.32
212.077	4352.05
212.151	4434.55
212.225	4512.98
212.299	4581.94
212.373	4652.67
212.447	4731.15
212.52	4850.67
212.594	4944.51
212.668	5047.04
212.742	5123.07
212.816	5221.16
212.89	5321.05
212.964	5429.56
213.038	5546.57
213.112	5667.28
213.186	5807.97
213.26	5907.74
213.333	5982.25
213.407	6111.96
213.481	6243.6
213.555	6396.17
213.629	6516.9
213.703	6642.3
213.777	6787.66
213.85	6916.75
213.924	7099.4
213.998	7248.58
214.072	7390.08
214.146	7528.77
214.219	7680.64
214.293	7842.14
214.367	8000.66
214.441	8177.81
214.515	8334.09
214.588	8471.75
214.662	8609.56
214.736	8750.81
214.81	8931.88
214.883	9112.14
214.957	9277.88
215.031	9439.97
215.105	9583.68
215.178	9746.93
215.252	9912.22
215.326	10059.9
215.4	10211.92
215.473	10339.16
215.547	10501.09
215.621	10658.12
215.694	10839.48
215.768	10994.93
215.842	11147.1
215.915	11308.21
215.989	11447.29
216.063	11601.04
216.136	11773.58
216.21	11932.09
216.284	12105.46
216.357	12268.71
216.431	12427.92
216.504	12594.07
216.578	12774.49
216.652	12948.93
216.725	13102.85
216.799	13266.46
216.873	13416.57
216.946	13580.65
217.02	13727.87
217.093	13871.23
217.167	13999.56
217.24	14124.22
217.314	14267.43
217.387	14405.11
217.461	14537.48
217.535	14692.84
217.608	14821.16
217.682	14956.17
217.755	15112.98
217.829	15253.1
217.902	15393.99
217.976	15529.39
218.049	15654.52
218.123	15773.38
218.196	15900.24
218.27	16018.23
218.343	16126.63
218.417	16262.55
218.49	16377.31
218.563	16517.22
218.637	16646.39
218.71	16790.98
218.784	16921.54
218.857	17048.1
218.931	17167.67
219.004	17286.81
219.077	17406.14
219.151	17522.14
219.224	17631.34
219.298	17734.91
219.371	17847.92
219.444	17932.59
219.518	18030.76
219.591	18129.98
219.665	18253.93
219.738	18354.7
219.811	18446.5
219.885	18551.22
219.958	18642.49
220.031	18730.01
220.105	18826.1
220.178	18907.49
220.251	18987.2
220.325	19072.69
220.398	19156.49
220.471	19252.77
220.544	19343.18
220.618	19406.02
220.691	19494.54
220.764	19571.84
220.838	19647.55
220.911	19704.32
220.984	19790.1
221.057	19863.44
221.131	19929.41
221.204	19961.61
221.277	20044.64
221.35	20137.6
221.424	20196.83
221.497	20260.06
221.57	20322.8
221.643	20367.48
221.716	20421.89
221.79	20462.46
221.863	20513.45
221.936	20558.56
222.009	20591.48
222.082	20629.74
222.155	20670.8
222.229	20719.91
222.302	20758.28
222.375	20792.69
222.448	20835
222.521	20871.68
222.594	20906.09
222.667	20931.34
222.74	20973.47
222.814	21001.18
222.887	21017.13
222.96	21046.63
223.033	21089.57
223.106	21120.85
223.179	21168.38
223.252	21205.58
223.325	21231.9
223.398	21259.13
223.471	21289.01
223.544	21322.08
223.617	21345.11
223.69	21374.61
223.763	21379.53
223.837	21404.4
223.91	21433.51
223.983	21441.41
224.056	21442.43
224.129	21463.73
224.202	21493.52
224.275	21501.71
224.348	21499.06
224.42	21498.24
224.493	21498.43
224.566	21490.29
224.639	21504.46
224.712	21494.05
224.785	21490.05
224.858	21505.32
224.931	21498.24
225.004	21493.71
225.077	21495.83
225.15	21477.9
225.223	21476.69
225.296	21498.19
225.369	21473.66
225.442	21461.03
225.514	21467.3
225.587	21472.69
225.66	21466.62
225.733	21464.4
225.806	21470.09
225.879	21465.51
225.952	21463.49
226.025	21468.16
226.097	21480.89
226.17	21470.77
226.243	21446.72
226.316	21441.13
226.389	21432.26
226.461	21432.16
226.534	21426.33
226.607	21424.01
226.68	21445.66
226.753	21432.69
226.825	21409.46
226.898	21431.68
226.971	21425.8
227.044	21422.09
227.117	21414.42
227.189	21406.9
227.262	21404.11
227.335	21389.36
227.407	21377.36
227.48	21369.69
227.553	21366.9
227.626	21354.46
227.698	21346.08
227.771	21338.27
227.844	21315.04
227.916	21304.34
227.989	21278.6
228.062	21266.5
228.134	21274.17
228.207	21253.97
228.28	21235.56
228.352	21217.39
228.425	21191.46
228.498	21187.8
228.57	21156.37
228.643	21157.77
228.716	21156.66
228.788	21135.21
228.861	21121.72
228.934	21124.13
229.006	21106.15
229.079	21088.9
229.151	21057.52
229.224	21017.42
229.296	21010.29
229.369	21027.11
229.442	21022.34
229.514	20996.84
229.587	20988.55
229.659	20946.96
229.732	20936.93
229.804	20943.25
229.877	20949.75
229.949	20952.79
230.022	20954.96
230.094	20934.09
230.167	20915.05
230.239	20881.61
230.312	20868.98
230.384	20876.84
230.457	20860.11
230.529	20852.64
230.602	20834.71
230.674	20826.18
230.747	20830.28
230.819	20821.99
230.892	20777.7
230.964	20766.04
231.037	20768.3
231.109	20746.9
231.181	20742.66
231.254	20705.74
231.326	20677.26
231.399	20652.63
231.471	20619.09
231.544	20562.41
231.616	20562.85
231.688	20545.06
231.761	20522.61
231.833	20494.27
231.905	20431.28
231.978	20406.37
232.05	20377.64
232.122	20350.22
232.195	20319.96
232.267	20311.23
232.339	20289.84
232.412	20279.57
232.484	20250.99
232.556	20218.7
232.629	20215.86
232.701	20196.1
232.773	20179.91
232.846	20149.36
232.918	20126.75
232.99	20107
233.062	20110.08
233.135	20088.1
233.207	20050.03
233.279	20038.32
233.351	20026.47
233.424	20012.93
233.496	19980.59
233.568	19989.7
233.64	19959.19
233.713	19939.29
233.785	19915.44
233.857	19890.52
233.929	19846.62
234.001	19829.27
234.074	19820.21
234.146	19780.45
234.218	19749.37
234.29	19724.31
234.362	19691.78
234.434	19646.63
234.507	19597.62
234.579	19539.55
234.651	19504.27
234.723	19485.53
234.795	19456.57
234.867	19421.63
234.939	19405.29
235.012	19378.64
235.084	19339.99
235.156	19317.73
235.228	19283.28
235.3	19251.33
235.372	19223.62
235.444	19214.8
235.516	19163.76
235.588	19137.79
235.66	19103.96
235.732	19068.83
235.804	19093.65
235.876	19078.9
235.948	19069.6
236.02	19050.95
236.092	19030.13
236.164	19007.2
236.236	18967.92
236.308	18929.61
236.38	18890.62
236.452	18853.37
236.524	18824.99
236.596	18812.94
236.668	18794
236.74	18763.45
236.812	18731.45
236.884	18702.54
236.956	18675.84
237.028	18643.8
237.1	18593.39
237.172	18582.31
237.244	18566.02
237.316	18498.31
237.388	18466.02
237.46	18424.39
237.532	18409.79
237.604	18370.51
237.675	18359.43
237.747	18343.57
237.819	18310.18
237.891	18286.66
237.963	18253.6
238.035	18218.18
238.107	18150.13
238.178	18130.09
238.25	18100.59
238.322	18093.61
238.394	18050.81
238.466	18002.38
238.538	17976.12
238.609	17959.06
238.681	17905.61
238.753	17861.08
238.825	17828.07
238.897	17798.39
238.968	17782.87
239.04	17743.55
239.112	17742.87
239.184	17683.93
239.255	17649.09
239.327	17627.69
239.399	17604.61
239.471	17582.87
239.542	17565.81
239.614	17549.24
239.686	17486.25
239.758	17463.45
239.829	17419.74
239.901	17401.91
239.973	17382.35
240.044	17355.5
240.116	17333.04
240.188	17298.73
240.259	17268.08
240.331	17228.17
240.403	17205.09
240.474	17155.55
240.546	17116.56
240.618	17060.27
240.689	17028.41
240.761	16998.14
240.833	16993.9
240.904	16962.67
240.976	16927.11
241.048	16894.19
241.119	16870.53
241.191	16851.3
241.262	16834.19
241.334	16797.56
241.405	16761.51
241.477	16719.63
241.549	16689.21
241.62	16650.66
241.692	16627.48
241.763	16623.43
241.835	16598.12
241.906	16571.91
241.978	16535.04
242.049	16516.82
242.121	16506.12
242.192	16491.08
242.264	16444.71
242.335	16382.11
242.407	16353.24
242.478	16317.57
242.55	16284.26
242.621	16243.01
242.693	16214.14
242.764	16182.91
242.836	16144.35
242.907	16124.44
242.979	16097.4
243.05	16072.44
243.122	16054.22
243.193	16024.57
243.264	15955.6
243.336	15920.95
243.407	15890.63
243.479	15877.42
243.55	15847.35
243.622	15824.55
243.693	15798.09
243.764	15788.78
243.836	15752.63
243.907	15713.25
243.978	15687.13
244.05	15659.9
244.121	15609.91
244.192	15591.21
244.264	15543.68
244.335	15518.96
244.407	15472.64
244.478	15458.27
244.549	15418.99
244.62	15370.3
244.692	15346.64
244.763	15334.25
244.834	15300.84
244.906	15266.28
244.977	15242.42
245.048	15235.53
245.119	15191.62
245.191	15144.67
245.262	15092.37
245.333	15081.04
245.405	15057.13
245.476	15032.4
245.547	15008.21
245.618	15000.49
245.689	14969.93
245.761	14946.6
245.832	14920.86
245.903	14899.07
245.974	14864.61
246.045	14832.46
246.117	14817.51
246.188	14780.93
246.259	14738.41
246.33	14709.82
246.401	14672.61
246.473	14631.06
246.544	14592.01
246.615	14574.28
246.686	14547.81
246.757	14543.18
246.828	14502.64
246.899	14492.13
246.97	14444.94
247.042	14407.63
247.113	14391.53
247.184	14382.13
247.255	14346.07
247.326	14313.29
247.397	14279.69
247.468	14258.58
247.539	14234.72
247.61	14192.58
247.681	14166.51
247.752	14160.86
247.823	14125
247.894	14100.51
247.965	14064.4
248.037	14029.46
248.108	13990.31
248.179	13966.84
248.25	13929.62
248.321	13905.03
248.392	13865.65
248.463	13869.65
248.534	13846.18
248.605	13821.25
248.675	13785.44
248.746	13761.86
248.817	13750.2
248.888	13735.54
248.959	13684.73
249.03	13668.05
249.101	13654.31
249.172	13622.93
249.243	13568.99
249.314	13565.76
249.385	13547.49
249.456	13530.91
249.527	13507.33
249.598	13492.87
249.669	13459.9
249.739	13442.35
249.81	13430.97
249.881	13390.67
249.952	13360.35
250.023	13337.02
250.094	13299.08
250.165	13268.56
250.235	13250.29
250.306	13227.78
250.377	13191
250.448	13181.46
250.519	13143.61
250.59	13131.56
250.66	13110.3
250.731	13108.33
250.802	13084.99
250.873	13064.84
250.944	13052.79
251.014	13021.02
251.085	13012.4
251.156	13002.37
251.227	12996.58
251.297	12987.67
251.368	12979.47
251.439	12973.4
251.51	12959.66
251.58	12919.21
251.651	12898.49
251.722	12884.31
251.792	12842.18
251.863	12820.25
251.934	12813.98
252.005	12821.36
252.075	12797.11
252.146	12785.59
252.217	12781.59
252.287	12765.73
252.358	12737.82
252.429	12724.61
252.499	12702.72
252.57	12687.3
252.641	12674.23
252.711	12651.48
252.782	12618.94
252.852	12614.51
252.923	12587.08
252.994	12573.2
253.064	12580.81
253.135	12546.44
253.205	12528.41
253.276	12527.06
253.347	12525.04
253.417	12492.31
253.488	12458.57
253.558	12439.38
253.629	12415.91
253.699	12396.96
253.77	12388.72
253.841	12368.91
253.911	12349.82
253.982	12332.71
254.052	12325.04
254.123	12305.76
254.193	12283.97
254.264	12301.37
254.334	12270.67
254.405	12240.4
254.475	12213.45
254.546	12178.84
254.616	12177.73
254.687	12160.09
254.757	12144.91
254.827	12127.22
254.898	12115.99
254.968	12103.26
255.039	12076.22
255.109	12068.27
255.18	12033.8
255.25	11987.68
255.321	11981.55
255.391	11953.16
255.461	11961.45
255.532	11912.38
255.602	11892.96
255.673	11858.79
255.743	11823.98
255.813	11783.59
255.884	11783.93
255.954	11771.21
256.024	11782.1
256.095	11762.34
256.165	11723.92
256.235	11715.39
256.306	11688.88
256.376	11681.41
256.446	11673.22
256.517	11659.92
256.587	11650.03
256.657	11637.7
256.728	11626.47
256.798	11610.08
256.868	11587.81
256.938	11559.66
257.009	11548.63
257.079	11536.58
257.149	11544.34
257.219	11504.48
257.29	11501.88
257.36	11457.1
257.43	11447.61
257.5	11399.99
257.571	11375.41
257.641	11374.93
257.711	11338.49
257.781	11325.09
257.852	11310.59
257.922	11269.53
257.992	11249.86
258.062	11227.6
258.132	11212.51
258.202	11193.24
258.273	11174.87
258.343	11177.33
258.413	11151.16
258.483	11134.25
258.553	11105.04
258.623	11076.37
258.693	11069.19
258.764	11071.26
258.834	11070.73
258.904	11057.62
258.974	11040.71
259.044	11025.48
259.114	11013.82
259.184	11004.42
259.254	10981.19
259.324	10947.65
259.394	10941.68
259.464	10942.06
259.535	10930.26
259.605	10914.21
259.675	10891.71
259.745	10878.89
259.815	10845.2
259.885	10818.37
259.955	10833.21
260.025	10809.6
260.095	10794.08
260.165	10777.51
260.235	10777.84
260.305	10755.15
260.375	10718.19
260.445	10722.09
260.515	10717.37
260.585	10708.5
260.655	10688.94
260.725	10687.78
260.795	10678.2
260.865	10686.97
260.934	10668.32
261.004	10660.94
261.074	10641.96
261.144	10639.07
261.214	10637.19
261.284	10625.34
261.354	10630.64
261.424	10605.87
261.494	10615.41
261.564	10598.21
261.634	10594.54
261.703	10551.66
261.773	10546.99
261.843	10543.76
261.913	10534.99
261.983	10505.55
262.053	10499.53
262.123	10490.71
262.192	10459.64
262.262	10451.98
262.332	10417.43
262.402	10407.36
262.472	10389.92
262.541	10362.27
262.611	10358.36
262.681	10330.52
262.751	10323.14
262.821	10301.47
262.89	10269.81
262.96	10262.25
263.03	10266.87
263.1	10252.42
263.169	10247.46
263.239	10237.05
263.309	10244.37
263.379	10229.05
263.448	10222.26
263.518	10207.28
263.588	10187.72
263.657	10195.52
263.727	10199.33
263.797	10182.76
263.867	10166.57
263.936	10135.6
264.006	10133.38
264.076	10120.08
264.145	10103.51
264.215	10084.92
264.285	10081.21
264.354	10057.13
264.424	10034.2
264.494	10008.57
264.563	9987.13
264.633	9989.1
264.702	9978.89
264.772	9943.58
264.842	9929.8
264.911	9918.15
264.981	9888.57
265.05	9881.39
265.12	9867.23
265.19	9854.03
265.259	9852.59
265.329	9841.8
265.398	9837.27
265.468	9849.55
265.537	9833.32
265.607	9828.84
265.676	9829.37
265.746	9820.32
265.815	9815.74
265.885	9799.8
265.955	9778.32
266.024	9760.93
266.094	9727.65
266.163	9722.45
266.232	9727.12
266.302	9715.85
266.371	9713.88
266.441	9709.4
266.51	9707.52
266.58	9692.78
266.649	9665.52
266.719	9667.01
266.788	9659.26
266.858	9664.89
266.927	9632
266.996	9621.55
267.066	9610.86
267.135	9588.61
267.205	9577.53
267.274	9570.93
267.343	9575.36
267.413	9562.7
267.482	9572.23
267.552	9575.65
267.621	9556.53
267.69	9532.21
267.76	9520.56
267.829	9509.96
267.898	9495.66
267.968	9469.66
268.037	9459.74
268.106	9457.38
268.176	9433.15
268.245	9424.44
268.314	9406.43
268.384	9403.54
268.453	9396.75
268.522	9392.17
268.592	9390.1
268.661	9374.31
268.73	9363.76
268.799	9340.99
268.869	9352.35
268.938	9320.33
269.007	9305.93
269.076	9290.47
269.146	9282.1
269.215	9269.05
269.284	9278.15
269.353	9265.15
269.422	9255.81
269.492	9243.73
269.561	9210.94
269.63	9203.33
269.699	9186.43
269.768	9173.19
269.838	9170.11
269.907	9162.31
269.976	9138.67
270.045	9108.29
270.114	9104.53
270.183	9092.26
270.253	9087.59
270.322	9057.02
270.391	9050.23
270.46	9047.68
270.529	9052.88
270.598	9049.12
270.667	9044.55
270.736	9018.88
270.806	9015.95
270.875	9012.62
270.944	8999.87
271.013	9025.62
271.082	9022.69
271.151	9017.34
271.22	8992.7
271.289	8979.27
271.358	8966.75
271.427	8962.56
271.496	8953.71
271.565	8935.94
271.634	8930.84
271.703	8955.25
271.772	8959.54
271.841	8949.19
271.91	8927.72
271.979	8915.92
272.048	8898.45
272.117	8892.38
272.186	8874.96
272.255	8871.54
272.324	8876.93
272.393	8875.06
272.462	8852.28
272.531	8842.46
272.6	8831.49
272.669	8842.46
272.738	8837.45
272.807	8833.46
272.876	8814.64
272.945	8840.25
273.013	8840.83
273.082	8844.92
273.151	8799.81
273.22	8798.99
273.289	8789.75
273.358	8797.26
273.427	8789.8
273.496	8789.32
273.564	8786.77
273.633	8793.84
273.702	8778.34
273.771	8762.79
273.84	8754.71
273.909	8751.97
273.977	8750.23
274.046	8744.55
274.115	8746
274.184	8726.89
274.253	8720.54
274.322	8731.37
274.39	8704.89
274.459	8696.52
274.528	8670.43
274.597	8663.74
274.665	8654.02
274.734	8662.78
274.803	8657.77
274.872	8647.47
274.94	8633.08
275.009	8659.8
275.078	8646.52
275.147	8643.73
275.215	8642.91
275.284	8652.06
275.353	8643.44
275.421	8614.85
275.49	8626.98
275.559	8614.61
275.627	8605.42
275.696	8602.97
275.765	8602.06
275.833	8594.98
275.902	8593.11
275.971	8606.29
276.039	8623.33
276.108	8633.92
276.177	8635.22
276.245	8623.76
276.314	8625.11
276.383	8631.89
276.451	8594.78
276.52	8596.7
276.588	8599.21
276.657	8600.31
276.725	8591.17
276.794	8593
276.863	8603.1
276.931	8579.62
277	8583.32
277.068	8602.95
277.137	8615.56
277.205	8610.03
277.274	8629.23
277.342	8639.14
277.411	8619.37
277.48	8607.86
277.548	8591.16
277.617	8589.05
277.685	8582.55
277.754	8582.6
277.822	8571.43
277.89	8586.16
277.959	8577.93
278.027	8570.14
278.096	8558.97
278.164	8583.81
278.233	8572.74
278.301	8566.05
278.37	8570.82
278.438	8558.11
278.507	8554.5
278.575	8531.45
278.643	8525.44
278.712	8502.96
278.78	8485.97
278.849	8493.96
278.917	8499.98
278.985	8491.17
279.054	8495.79
279.122	8507.2
279.191	8506.62
279.259	8503.64
279.327	8482.6
279.396	8497.62
279.464	8490.55
279.532	8498.29
279.601	8493.43
279.669	8491.8
279.737	8502.38
279.806	8504.31
279.874	8517.06
279.942	8516.34
280.011	8507.92
280.079	8519.52
280.147	8539.2
280.215	8547.14
280.284	8545.84
280.352	8536.45
280.42	8550.99
280.488	8543.72
280.557	8532.7
280.625	8531.3
280.693	8537.27
280.761	8547.28
280.83	8529.09
280.898	8548.72
280.966	8530.97
281.034	8497.76
281.102	8485.1
281.171	8480.63
281.239	8487.22
281.307	8474.9
281.375	8462.49
281.443	8487.99
281.512	8482.12
281.58	8484.05
281.648	8469.8
281.716	8465.81
281.784	8464.9
281.852	8457.77
281.92	8452.53
281.989	8464.22
282.057	8446.66
282.125	8492.63
282.193	8485.22
282.261	8485.22
282.329	8478.58
282.397	8483.39
282.465	8489.26
282.533	8504.08
282.601	8497.49
282.67	8478
282.738	8473.04
282.806	8483.77
282.874	8468.61
282.942	8467.7
283.01	8462.26
283.078	8472.22
283.146	8470.87
283.214	8476.79
283.282	8481.94
283.35	8491.71
283.418	8487.67
283.486	8497.91
283.554	8454.83
283.622	8452.95
283.69	8454.11
283.758	8448.14
283.826	8451.7
283.894	8459.64
283.962	8480.58
284.03	8490.59
284.098	8495.88
284.165	8492.22
284.233	8490.2
284.301	8488.47
284.369	8485.25
284.437	8476.63
284.505	8466.48
284.573	8479.18
284.641	8468.55
284.709	8475.57
284.777	8461.57
284.845	8467.92
284.912	8473.46
284.98	8473.99
285.048	8470.62
285.116	8471.87
285.184	8484.29
285.252	8488.57
285.319	8474.33
285.387	8464.46
285.455	8450.74
285.523	8452.24
285.591	8448.58
285.659	8449.25
285.726	8461.33
285.794	8447.52
285.862	8443.82
285.93	8446.51
285.997	8440.45
286.065	8439.34
286.133	8427.74
286.201	8428.03
286.269	8411.14
286.336	8405.85
286.404	8399.59
286.472	8408.59
286.539	8392.91
286.607	8371.25
286.675	8364.81
286.743	8371.83
286.81	8365.72
286.878	8375.15
286.946	8374.09
287.013	8378.32
287.081	8378.52
287.149	8364.03
287.216	8385.25
287.284	8383.42
287.352	8388.48
287.419	8391.46
287.487	8401.56
287.555	8402.53
287.622	8401.23
287.69	8411.28
287.758	8419.37
287.825	8414.7
287.893	8406.14
287.96	8414.41
288.028	8429.86
288.096	8432.74
288.163	8432.07
288.231	8419.17
288.298	8423.22
288.366	8430.15
288.433	8422.21
288.501	8414.85
288.569	8416.92
288.636	8411.67
288.704	8424.08
288.771	8429.67
288.839	8416.92
288.906	8412.78
288.974	8428.76
289.041	8425.39
289.109	8414.22
289.176	8424.72
289.244	8428.13
289.311	8441.8
289.379	8449.5
289.446	8452.82
289.514	8452.29
289.581	8453.3
289.649	8453.83
289.716	8452.39
289.783	8443.48
289.851	8469.03
289.918	8468.5
289.986	8476.44
290.053	8477.5
290.121	8476.35
290.188	8474.57
290.255	8503.54
290.323	8497.71
290.39	8486.02
290.458	8485.49
290.525	8499.44
290.592	8485.44
290.66	8490.54
290.727	8478.75
290.794	8489.96
290.862	8485.68
290.929	8485.68
290.996	8487.03
291.064	8502.95
291.131	8518.21
291.198	8529.71
291.266	8525.86
291.333	8527.4
291.4	8532.31
291.468	8552
291.535	8547.13
291.602	8554.35
291.669	8546.94
291.737	8562.39
291.804	8565.52
291.871	8589.19
291.938	8594.68
292.006	8629.72
292.073	8637.61
292.14	8652.63
292.207	8651.14
292.275	8656.33
292.342	8677.51
292.409	8702.06
292.476	8723.09
292.543	8708.85
292.611	8716.16
292.678	8733.83
292.745	8761.64
292.812	8771.56
292.879	8766.6
292.946	8773.92
293.014	8787.92
293.081	8796.97
293.148	8797.5
293.215	8804.72
293.282	8795.67
293.349	8809.01
293.416	8788.45
293.484	8804.53
293.551	8813.82
293.618	8823.83
293.685	8850.25
293.752	8836.87
293.819	8834.8
293.886	8822.19
293.953	8831.87
294.02	8843.13
294.087	8851.75
294.154	8842.5
294.221	8858.68
294.288	8861.14
294.356	8881.74
294.423	8887.32
294.49	8879.67
294.557	8901.38
294.624	8902.44
294.691	8927.85
294.758	8926.02
294.825	8938.49
294.892	8934.59
294.959	8931.99
295.026	8943.16
295.093	8931.51
295.16	8932.14
295.226	8941.72
295.293	8964.73
295.36	8972.53
295.427	8979.7
295.494	8990.92
295.561	8999.39
295.628	9023.47
295.695	9035.12
295.762	9035.02
295.829	9040.08
295.896	9055.43
295.963	9057.55
296.03	9065.44
296.096	9069.68
296.163	9077.24
296.23	9090.43
296.297	9099.82
296.364	9101.12
296.431	9104.59
296.498	9103.62
296.564	9134.38
296.631	9130.53
296.698	9118.74
296.765	9134.53
296.832	9125.72
296.899	9111.46
296.965	9136.26
297.032	9111.46
297.099	9132.41
297.166	9139.72
297.233	9136.07
297.299	9130.91
297.366	9130.14
297.433	9129.33
297.5	9135.78
297.566	9137.94
297.633	9137.61
297.7	9140.3
297.767	9138.38
297.833	9148.01
297.9	9155.42
297.967	9136.74
298.033	9150.22
298.1	9179.21
298.167	9166.84
298.234	9169.53
298.3	9176.9
298.367	9165.2
298.434	9174.83
298.5	9165.2
298.567	9157.59
298.634	9157.3
298.7	9174.2
298.767	9177.86
298.834	9196.16
298.9	9189.51
298.967	9189.7
299.033	9199.33
299.1	9214.65
299.167	9233.18
299.233	9225.48
299.3	9239.3
299.366	9257.21
299.433	9275.46
299.5	9244.74
299.566	9262.21
299.633	9281.23
299.699	9294.47
299.766	9292.4
299.832	9300.3
299.899	9302.42
299.965	9321.92
300.032	9322.11
300.099	9330.3
300.165	9335.07
300.232	9328.9
300.298	9326.74
300.365	9334.54
300.431	9331.65
300.498	9327.99
300.564	9331.6
300.631	9344.41
300.697	9347.83
300.763	9349.13
300.83	9343.15
300.896	9363.09
300.963	9366.75
301.029	9372.33
301.096	9379.03
301.162	9391.74
301.229	9387.45
301.295	9378.16
301.361	9374.21
301.428	9373.78
301.494	9358.37
301.561	9369.01
301.627	9377.58
301.693	9388.03
301.76	9392.89
301.826	9383.55
301.892	9395.69
301.959	9401.18
302.025	9400.41
302.092	9404.26
302.158	9412.01
302.224	9415.34
302.291	9404.07
302.357	9397.62
302.423	9388.23
302.49	9372.19
302.556	9385.77
302.622	9387.02
302.688	9404.84
302.755	9425.07
302.821	9437.25
302.887	9441.05
302.954	9433.3
303.02	9442.83
303.086	9445.72
303.152	9441.87
303.219	9440.52
303.285	9443.65
303.351	9454.25
303.417	9459.45
303.483	9448.28
303.55	9435.76
303.616	9428.73
303.682	9428.44
303.748	9423.29
303.815	9441.3
303.881	9456.18
303.947	9440.04
304.013	9438.41
304.079	9432.39
304.145	9411.73
304.212	9410.57
304.278	9406
304.344	9402.82
304.41	9384.33
304.476	9374.46
304.542	9374.22
304.608	9378.12
304.674	9361.12
304.741	9356.73
304.807	9358.9
304.873	9364.73
304.939	9387.65
305.005	9370.36
305.071	9367.57
305.137	9369.98
305.203	9340.51
305.269	9335.16
305.335	9346.91
305.401	9342.91
305.467	9335.4
305.533	9339.64
305.599	9347.92
305.666	9360.25
305.732	9363.57
305.798	9379.51
305.864	9404.89
305.93	9408.02
305.996	9415.29
306.062	9412.93
306.128	9408.79
306.194	9391.79
306.259	9388.71
306.325	9374.41
306.391	9386.06
306.457	9393.04
306.523	9396.55
306.589	9429.06
306.655	9424.1
306.721	9402.58
306.787	9391.69
306.853	9402.48
306.919	9387.89
306.985	9382.5
307.051	9377.83
307.117	9369.01
307.183	9357.75
307.248	9330.49
307.314	9335.93
307.38	9338.1
307.446	9347.1
307.512	9335.74
307.578	9340.84
307.644	9332.85
307.709	9333.14
307.775	9332.75
307.841	9332.99
307.907	9333.09
307.973	9304
308.039	9303.72
308.104	9311.61
308.17	9308.63
308.236	9293.46
308.302	9295
308.368	9277.23
308.433	9277.81
308.499	9268.95
308.565	9261.34
308.631	9267.07
308.696	9235.39
308.762	9220.22
308.828	9222.83
308.894	9201.84
308.959	9180.99
309.025	9173.43
309.091	9169.63
309.156	9162.02
309.222	9161.01
309.288	9147.96
309.354	9130.05
309.419	9121.96
309.485	9113.25
309.551	9119.41
309.616	9101.89
309.682	9100.92
309.748	9096.78
309.813	9086.19
309.879	9079.4
309.945	9067.75
310.01	9056.63
310.076	9070.21
310.141	9062.45
310.207	9033.9
310.273	9040.31
310.338	9042.71
310.404	9028.37
310.469	9013.01
310.535	9001.94
310.601	8979.65
310.666	8988.51
310.732	9001.26
310.797	8988.02
310.863	8974.3
310.928	8964.67
310.994	8976.61
311.059	8965.01
311.125	8963.04
311.191	8975.94
311.256	8963.38
311.322	8969.78
311.387	8948.55
311.453	9336.28
311.518	9310.09
311.584	9319.34
311.649	9324.15
311.715	9306.77
311.78	9314.77
311.846	9305.47
311.911	9312.41
311.976	9317.03
312.042	9297.29
312.107	9279.43
312.173	9278.04
312.238	9273.46
312.304	9271.78
312.369	9255.84
312.434	9253.39
312.5	9249.97
312.565	9215.36
312.631	9224.36
312.696	9211.22
312.761	9219.11
312.827	8819.54
312.892	8862.29
312.958	8852.23
313.023	8849.39
313.088	8852.28
313.154	8834.37
313.219	8828.26
313.284	8813.48
313.35	8810.64
313.415	8798.9
313.48	8794.42
313.546	8794.85
313.611	8800.87
313.676	8792.98
313.741	8789.75
313.807	8796.2
313.872	8790.67
313.937	8795.58
314.003	8805.06
314.068	8807.71
314.133	8815.89
314.198	8800.73
314.264	8776.8
314.329	8768.71
314.394	8761.83
314.459	8767.51
314.525	8785.7
314.59	8783.15
314.655	8772.28
314.72	8776.08
314.785	8781.04
314.851	8773.43
314.916	8760.15
314.981	8743.74
315.046	8735.5
315.111	8724.92
315.176	8714.76
315.242	8718.76
315.307	8722.8
315.372	8700.42
315.437	8689.49
315.502	8672.21
315.567	8684.48
315.632	8670.43
315.698	8672.4
315.763	8669.95
315.828	8657.15
315.893	8653.78
315.958	8649.35
316.023	8639
316.088	8617.83
316.153	8598.92
316.218	8591.55
316.283	8574.18
316.348	8562.06
316.413	8563.02
316.479	8546.47
316.544	8510.24
316.609	8482.91
316.674	8442.73
316.739	8412.37
316.804	8383.17
316.869	8354.83
316.934	8317.15
316.999	8286.26
317.064	8235.75
317.129	8196.24
317.194	8163.48
317.259	8113.06
317.324	8063.38
317.389	8020.67
317.454	7986.32
317.518	7952.27
317.583	7928.32
317.648	7905.66
317.713	7868.44
317.778	7806.15
317.843	7780.85
317.908	7746.52
317.973	7708.29
318.038	7685.45
318.103	7648.19
318.168	7618.67
318.233	7589.24
318.297	7543.04
318.362	7507.85
318.427	7469.59
318.492	7442.81
318.557	7392.34
318.622	7369.03
318.687	7348.07
318.751	7314.01
318.816	7285.98
318.881	7255.51
318.946	7209.95
319.011	7167.65
319.075	7129.5
319.14	7093.8
319.205	7054.64
319.27	7023.27
319.335	6980.8
319.399	6933.86
319.464	6904.75
319.529	6855.32
319.594	6815.98
319.658	6788.12
319.723	6745.04
319.788	6720.12
319.853	6664.3
319.917	6638.71
319.982	6587.51
320.047	6552.94
320.112	6528.16
320.176	6469.73
320.241	6434.97
320.306	6403.33
320.37	6362.38
320.435	6331.56
320.5	6307.89
320.564	6263.93
320.629	6223.95
320.694	6198.28
320.758	6164.59
320.823	6125.87
320.888	6094.49
320.952	6042.48
321.017	6005.68
321.082	5972.25
321.146	5936.36
321.211	5904.41
321.275	5863.31
321.34	5819.58
321.405	5776.6
321.469	5732.15
321.534	5697.01
321.598	5649.06
321.663	5618.26
321.727	5586.42
321.792	5541.79
321.857	5494.57
321.921	5461.44
321.986	5417.5
322.05	5359.32
322.115	5321.89
322.179	5279.92
322.244	5227.04
322.308	5204.18
322.373	5152.58
322.437	5115.26
322.502	5091.21
322.566	5051.49
322.631	5016.39
322.695	4978.99
322.76	4937.09
322.824	4898.36
322.889	4854.37
322.953	4808.95
323.018	4742.21
323.082	4677.65
323.146	4625.01
323.211	4576.78
323.275	4531.69
323.34	4486.83
323.404	4452.91
323.468	4412.24
323.533	4372.35
323.597	4330.9
323.662	4276.65
323.726	4241.51
323.79	4194.02
323.855	4129.15
323.919	4079.23
323.983	4036.06
324.048	3970.23
324.112	4126.98
324.177	4005.77
324.241	3801.78
324.305	3600.94
324.37	3404.46
324.434	3215.38
324.498	3176.11
324.562	3128
324.627	3069.31
324.691	3019.3
324.755	2956.52
324.82	2878.47
324.884	2799.74
324.948	2730.5
325.012	2637.61
325.077	2523.08
