Data from 20250704_urea_1M_MAYP1162681_11-41-20-615.txt Node
Date: Fri Jul 04 11:41:20 BST 2025
User: adleo
Spectrometer: MAYP116268
Trigger mode: 0
Integration Time (sec): 1.000000E0
Scans to average: 1
Electric dark correction enabled: true
Nonlinearity correction enabled: true
Boxcar width: 10
XAxis mode: Wavelengths
Number of Pixels in Spectrum: 2068
>>>>>Begin Spectral Data<<<<<
179.565	1262.61
179.642	1319.01
179.718	1363.82
179.795	1405.22
179.871	1440.37
179.948	1458.89
180.024	1482.81
180.101	1508.4
180.177	1525.42
180.254	1546.22
180.33	1570.22
180.407	1624.34
180.483	1723.07
180.56	1818.24
180.636	1906.07
180.712	1893.66
180.789	1906.69
180.865	1917.52
180.942	1924.89
181.018	1934.63
181.095	1948.38
181.171	1954.42
181.248	1955.99
181.324	1971.02
181.4	1977.1
181.477	1988.09
181.553	2002.87
181.63	2021.85
181.706	2036.74
181.782	2042.01
181.859	2043.35
181.935	2049.86
182.011	2050.48
182.088	2068.79
182.164	2088.78
182.24	2102.62
182.317	2109.89
182.393	2104.47
182.469	2121.69
182.546	2138.43
182.622	2144.57
182.698	2139.34
182.775	2150.09
182.851	2166.64
182.927	2161.79
183.003	2158.13
183.08	2152.04
183.156	2159.03
183.232	2156.18
183.308	2144.38
183.385	2155.08
183.461	2174.73
183.537	2173.49
183.613	2184.24
183.69	2175.35
183.766	2164.3
183.842	2173.49
183.918	2177.01
183.995	2191.85
184.071	2197.04
184.147	2189.61
184.223	2178.58
184.299	2194.52
184.375	2184.77
184.452	2187.58
184.528	2238.12
184.604	2247.3
184.68	2258.38
184.756	2265.76
184.832	2270.47
184.908	2273.99
184.985	2271.47
185.061	2254.58
185.137	2262.43
185.213	2252.91
185.289	2254.15
185.365	2246.4
185.441	2245.4
185.517	2261.06
185.593	2256.68
185.669	2248.73
185.745	2259.53
185.822	2274.18
185.898	2263.81
185.974	2271.7
186.05	2264.71
186.126	2226.92
186.202	2223.07
186.278	2218.74
186.354	2211.88
186.43	2219.93
186.506	2221.83
186.582	2222.73
186.658	2228.78
186.734	2209.84
186.81	2212.6
186.886	2216.27
186.962	2229.16
187.038	2224.64
187.114	2215.45
187.19	2223.4
187.266	2215.45
187.341	2217.64
187.417	2211.55
187.493	2210.41
187.569	2213.22
187.645	2208.27
187.721	2197.8
187.797	2203.7
187.873	2209.65
187.949	2201.37
188.025	2189.76
188.101	2188.76
188.176	2192.04
188.252	2187.86
188.328	2196.65
188.404	2196.23
188.48	2189.66
188.556	2181.52
188.632	2179.95
188.707	2181.95
188.783	2179.91
188.859	2173.72
188.935	2161.54
189.011	2169.68
189.086	2164.16
189.162	2157.55
189.238	2155.36
189.314	2152.41
189.39	2146.56
189.465	2140.8
189.541	2161.69
189.617	2150.61
189.693	2147.42
189.768	2150.66
189.844	2177.64
189.92	2170.22
189.996	2179.88
190.071	2192.02
190.147	2193.73
190.223	2205.1
190.298	2196.2
190.374	2185.07
190.45	2200.29
190.526	2209.43
190.601	2202.81
190.677	2206.19
190.753	2235.47
190.828	2239.04
190.904	2257.17
190.98	2272.49
191.055	2282.25
191.131	2268.59
191.207	2290.62
191.282	2300.99
191.358	2293.04
191.433	2276.81
191.509	2290.84
191.585	2286.75
191.66	2286.84
191.736	2293.89
191.811	2284.56
191.887	2299.98
191.963	2321.92
192.038	2326.3
192.114	2325.77
192.189	2331.86
192.265	2325.02
192.34	2300.83
192.416	2299.73
192.491	2293.26
192.567	2295.92
192.642	2297.5
192.718	2298.92
192.793	2284.64
192.869	2280.46
192.944	2282.27
193.02	2287.98
193.095	2292.21
193.171	2296.16
193.246	2294.88
193.322	2292.74
193.397	2291.59
193.473	2279.12
193.548	2261.42
193.624	2267.94
193.699	2267.99
193.775	2284.46
193.85	2289.26
193.925	2294.93
194.001	2295.45
194.076	2289.4
194.152	2280.88
194.227	2274.65
194.302	2266.32
194.378	2270.42
194.453	2266.8
194.529	2280.79
194.604	2266.9
194.679	2259.85
194.755	2244.82
194.83	2259.77
194.905	2254.16
194.981	2264.82
195.056	2259.3
195.131	2268.05
195.207	2264.58
195.282	2255.39
195.357	2235.88
195.433	2249.63
195.508	2241.35
195.583	2245.96
195.659	2259.15
195.734	2264.24
195.809	2263.43
195.884	2275.04
195.96	2275.61
196.035	2292.79
196.11	2288.84
196.185	2301.45
196.261	2304.26
196.336	2333.38
196.411	2319.24
196.486	2327.9
196.561	2323.52
196.637	2330.85
196.712	2345.8
196.787	2352.13
196.862	2368.98
196.937	2379.07
197.013	2385.07
197.088	2394.87
197.163	2419.68
197.238	2436.21
197.313	2438.36
197.388	2452.07
197.464	2478.88
197.539	2492.83
197.614	2486.07
197.689	2497.26
197.764	2512.74
197.839	2535.02
197.914	2529.4
197.989	2551.21
198.065	2562.5
198.14	2611.15
198.215	2636.73
198.29	2649.12
198.365	2661.5
198.44	2676.32
198.515	2703
198.59	2722.01
198.665	2751.36
198.74	2757.88
198.815	2758.46
198.89	2781.85
198.965	2810.64
199.04	2805.87
199.115	2819.54
199.19	2863.1
199.265	2866.67
199.34	2877.92
199.415	2909.29
199.49	2932.74
199.565	2943.51
199.64	2971.63
199.715	2967.86
199.79	2976.01
199.865	2982.45
199.94	2981.69
200.015	3007.2
200.09	3015.97
200.165	3021.5
200.24	3027.99
200.315	3071.46
200.39	3089.58
200.464	3097.36
200.539	3098.79
200.614	3118.24
200.689	3139.6
200.764	3149.24
200.839	3169.54
200.914	3174.46
200.989	3168.01
201.063	3181.08
201.138	3160.88
201.213	3158.21
201.288	3139.32
201.363	3145.47
201.438	3144.9
201.512	3159.15
201.587	3140.89
201.662	3141.46
201.737	3150.28
201.812	3157.73
201.886	3123.41
201.961	3132.33
202.036	3116.55
202.111	3113.97
202.186	3084.66
202.26	3068.16
202.335	3043.26
202.41	3035.4
202.485	3020.09
202.559	2996.68
202.634	2969.75
202.709	2981.99
202.784	2963.88
202.858	2965.45
202.933	2946.43
203.008	2935.32
203.082	2916.78
203.157	2917.64
203.232	2876.28
203.306	2856.64
203.381	2822.74
203.456	2797.05
203.53	2773.78
203.605	2756.68
203.68	2734.08
203.754	2725.94
203.829	2713.45
203.904	2690.97
203.978	2678.34
204.053	2682.01
204.127	2667.1
204.202	2668.1
204.277	2650.53
204.351	2643.38
204.426	2633.47
204.5	2624.8
204.575	2595.28
204.65	2601.76
204.724	2594.22
204.799	2599.89
204.873	2596.31
204.948	2595.84
205.022	2585.51
205.097	2579.45
205.171	2588.93
205.246	2597.41
205.32	2596.08
205.395	2594.55
205.469	2584.66
205.544	2592.09
205.618	2575.13
205.693	2589.61
205.767	2575.99
205.842	2592.9
205.916	2586.57
205.991	2575.14
206.065	2582.8
206.14	2597.89
206.214	2594.37
206.289	2586.17
206.363	2601.22
206.438	2605.23
206.512	2613.32
206.586	2634.95
206.661	2639.62
206.735	2619.95
206.81	2619.91
206.884	2638.15
206.958	2628.48
207.033	2649.14
207.107	2655.48
207.181	2686.84
207.256	2684.31
207.33	2704.98
207.405	2721.39
207.479	2741.01
207.553	2752.11
207.628	2734.35
207.702	2746.54
207.776	2739.87
207.851	2745.11
207.925	2761.56
207.999	2759.42
208.073	2757.37
208.148	2757.8
208.222	2749.12
208.296	2784.22
208.371	2800.96
208.445	2813.54
208.519	2842.99
208.593	2856.47
208.668	2852.9
208.742	2856.81
208.816	2857.52
208.89	2870.02
208.965	2870.64
209.039	2879.55
209.113	2897.57
209.187	2922.76
209.261	2919.38
209.336	2947.17
209.41	2968.67
209.484	2968.91
209.558	2994.18
209.632	3013.82
209.707	3032.66
209.781	3060.12
209.855	3082.2
209.929	3106.83
210.003	3123.62
210.077	3132.07
210.151	3191.7
210.226	3237.85
210.3	3280.34
210.374	3318.64
210.448	3340.4
210.522	3370
210.596	3402.31
210.67	3434
210.744	3500.41
210.818	3560.1
210.892	3605.38
210.966	3628.29
211.041	3678.76
211.115	3706.64
211.189	3760.28
211.263	3814.06
211.337	3860.68
211.411	3913.59
211.485	3951.69
211.559	4008.36
211.633	4060.09
211.707	4077.41
211.781	4142.62
211.855	4166.92
211.929	4216.24
212.003	4262.9
212.077	4340.99
212.151	4424.6
212.225	4511.55
212.299	4578.78
212.373	4644.73
212.447	4722.88
212.52	4841.63
212.594	4934.84
212.668	5040.82
212.742	5130.94
212.816	5228.02
212.89	5326.59
212.964	5434.51
213.038	5553.25
213.112	5681.06
213.186	5814.51
213.26	5918.89
213.333	5994.88
213.407	6127.37
213.481	6265.48
213.555	6410.7
213.629	6531.82
213.703	6652.89
213.777	6790.58
213.85	6921.64
213.924	7111.84
213.998	7263.33
214.072	7405.78
214.146	7542.69
214.219	7695.1
214.293	7845.74
214.367	8006.48
214.441	8181.52
214.515	8332.88
214.588	8464.66
214.662	8597.23
214.736	8745.41
214.81	8926.15
214.883	9108.44
214.957	9265.65
215.031	9423.26
215.105	9565.61
215.178	9726.07
215.252	9883.26
215.326	10032.87
215.4	10176.88
215.473	10289.77
215.547	10442.83
215.621	10606.22
215.694	10786.81
215.768	10936.67
215.842	11084.16
215.915	11234.86
215.989	11372.4
216.063	11528.79
216.136	11707.25
216.21	11867.26
216.284	12037.31
216.357	12193.43
216.431	12353.55
216.504	12518.88
216.578	12701.13
216.652	12877.84
216.725	13030.35
216.799	13201.91
216.873	13363.64
216.946	13531.15
217.02	13685.45
217.093	13834.07
217.167	13962.78
217.24	14098.71
217.314	14238.27
217.387	14389.78
217.461	14532.75
217.535	14694.47
217.608	14825.59
217.682	14958.1
217.755	15110.95
217.829	15239.94
217.902	15377.8
217.976	15506.88
218.049	15629.89
218.123	15742.78
218.196	15874.41
218.27	15995.68
218.343	16101.81
218.417	16217.63
218.49	16344.54
218.563	16476.5
218.637	16601.43
218.71	16735.51
218.784	16855.75
218.857	16987.76
218.931	17107.96
219.004	17224.01
219.077	17341.51
219.151	17452.4
219.224	17564.06
219.298	17660.98
219.371	17778.13
219.444	17867.58
219.518	17973.46
219.591	18085.55
219.665	18211.47
219.738	18315.52
219.811	18410.07
219.885	18523.32
219.958	18624.86
220.031	18713.28
220.105	18813.18
220.178	18902.72
220.251	18988.84
220.325	19072.83
220.398	19149.6
220.471	19241.88
220.544	19324
220.618	19377.2
220.691	19463.03
220.764	19538.93
220.838	19625.09
220.911	19690.77
220.984	19787.88
221.057	19855.87
221.131	19924.4
221.204	19951.82
221.277	20028.54
221.35	20114.71
221.424	20167
221.497	20221.17
221.57	20270.03
221.643	20323.38
221.716	20377.07
221.79	20413.74
221.863	20458.71
221.936	20505.45
222.009	20552.97
222.082	20606.66
222.155	20660.68
222.229	20723.29
222.302	20766.47
222.375	20799.24
222.448	20853.08
222.521	20880.69
222.594	20915.59
222.667	20931.68
222.74	20989.81
222.814	21010.29
222.887	21038.1
222.96	21075.93
223.033	21129.24
223.106	21166.78
223.179	21200.91
223.252	21232.09
223.325	21263.42
223.398	21295.95
223.471	21329.02
223.544	21342.17
223.617	21361.07
223.69	21385.65
223.763	21388.25
223.837	21415.44
223.91	21441.08
223.983	21429.51
224.056	21439.78
224.129	21463.49
224.202	21491.4
224.275	21499.3
224.348	21508.7
224.42	21513.09
224.493	21513.71
224.566	21509.37
224.639	21523.54
224.712	21523.16
224.785	21520.7
224.858	21525.18
224.931	21520.36
225.004	21515.93
225.077	21522
225.15	21495.78
225.223	21487.83
225.296	21512.6
225.369	21484.7
225.442	21469.18
225.514	21477.95
225.587	21475.3
225.66	21477.66
225.733	21474.29
225.806	21469.42
225.879	21464.21
225.952	21449.46
226.025	21457.56
226.097	21466.05
226.17	21451.01
226.243	21434.28
226.316	21429.22
226.389	21432.16
226.461	21424.69
226.534	21421.56
226.607	21413.51
226.68	21438.33
226.753	21438.38
226.825	21401.31
226.898	21412.3
226.971	21410.61
227.044	21395.67
227.117	21386.66
227.189	21378.32
227.262	21379.53
227.335	21381.02
227.407	21365.26
227.48	21372.06
227.553	21361.74
227.626	21339.62
227.698	21327.9
227.771	21315.47
227.844	21291.61
227.916	21273.2
227.989	21260.62
228.062	21241.49
228.134	21255.51
228.207	21230.21
228.28	21205.73
228.352	21190.16
228.425	21181.92
228.498	21180.28
228.57	21164.04
228.643	21169.24
228.716	21152.32
228.788	21126.59
228.861	21097.96
228.934	21097.86
229.006	21064.8
229.079	21051.25
229.151	21022.38
229.224	20996.94
229.296	20981.85
229.369	21004.17
229.442	21011.01
229.514	20984.07
229.587	20987.11
229.659	20941.56
229.732	20938.33
229.804	20938.62
229.877	20955.39
229.949	20947.06
230.022	20943.49
230.094	20932.5
230.167	20909.66
230.239	20877.99
230.312	20858.76
230.384	20874.19
230.457	20864.35
230.529	20851.24
230.602	20829.94
230.674	20817.65
230.747	20827
230.819	20830.86
230.892	20778.76
230.964	20753.02
231.037	20742.56
231.109	20712.25
231.181	20701.21
231.254	20661.94
231.326	20637.79
231.399	20609.4
231.471	20574.85
231.544	20528.49
231.616	20513.79
231.688	20493.4
231.761	20469.5
231.833	20459.04
231.905	20399.76
231.978	20377.26
232.05	20357.11
232.122	20332.34
232.195	20314.32
232.267	20293.59
232.339	20255.38
232.412	20254.94
232.484	20231.76
232.556	20203.23
232.629	20208.82
232.701	20194.13
232.773	20173.16
232.846	20151.24
232.918	20117.79
232.99	20098.8
233.062	20096.01
233.135	20081.31
233.207	20041.6
233.279	20030.47
233.351	20002.08
233.424	19983.67
233.496	19944.64
233.568	19940.78
233.64	19911.48
233.713	19891.53
233.785	19862.91
233.857	19840.31
233.929	19795.97
234.001	19785.75
234.074	19770.33
234.146	19715.3
234.218	19687.88
234.29	19663.54
234.362	19630.15
234.434	19598.25
234.507	19565.14
234.579	19513.19
234.651	19479.7
234.723	19469.29
234.795	19451.17
234.867	19420.33
234.939	19403.65
235.012	19376.57
235.084	19353.54
235.156	19324.91
235.228	19283.61
235.3	19249.98
235.372	19222.22
235.444	19204.05
235.516	19147.91
235.588	19132.68
235.66	19123.19
235.732	19090.66
235.804	19122.32
235.876	19102.61
235.948	19088.4
236.02	19055.43
236.092	19034.76
236.164	19005.7
236.236	18972.36
236.308	18927.3
236.38	18906.91
236.452	18869.37
236.524	18841.66
236.596	18815.98
236.668	18790.34
236.74	18758.97
236.812	18731.26
236.884	18710.88
236.956	18683.41
237.028	18642.59
237.1	18594.69
237.172	18575.22
237.244	18555.51
237.316	18486.7
237.388	18446.17
237.46	18403.42
237.532	18390.32
237.604	18344.29
237.675	18325.31
237.747	18304.44
237.819	18277.84
237.891	18239.29
237.963	18194.52
238.035	18158.47
238.107	18098.14
238.178	18089.03
238.25	18054.67
238.322	18038.72
238.394	17995.83
238.466	17957.52
238.538	17942.91
238.609	17924.7
238.681	17862.05
238.753	17825.62
238.825	17793.95
238.897	17768.46
238.968	17766.39
239.04	17732.22
239.112	17734.92
239.184	17697.57
239.255	17659.07
239.327	17626.1
239.399	17599.89
239.471	17587.45
239.542	17570.34
239.614	17556.99
239.686	17496.37
239.758	17486.1
239.829	17445.43
239.901	17421.43
239.973	17385.67
240.044	17359.74
240.116	17331.6
240.188	17303.74
240.259	17272.13
240.331	17236.46
240.403	17209.14
240.474	17150.58
240.546	17107.16
240.618	17054.68
240.689	17018.72
240.761	16989.04
240.833	16983.11
240.904	16955.78
240.976	16927.2
241.048	16892.17
241.119	16864.69
241.191	16838.43
241.262	16826.38
241.334	16800.5
241.405	16770.18
241.477	16741.56
241.549	16699.09
241.62	16664.3
241.692	16641.11
241.763	16627.52
241.835	16596.92
241.906	16570.75
241.978	16529.69
242.049	16521.83
242.121	16504
242.192	16482.74
242.264	16436.47
242.335	16373.96
242.407	16343.79
242.478	16302.48
242.55	16282.77
242.621	16245.8
242.693	16213.7
242.764	16173.7
242.836	16135.62
242.907	16114.32
242.979	16095.04
243.05	16072.68
243.122	16053.73
243.193	16020.91
243.264	15961.39
243.336	15930.63
243.407	15905.43
243.479	15894.2
243.55	15857.03
243.622	15818.67
243.693	15788.01
243.764	15781.17
243.836	15748.25
243.907	15715.71
243.978	15686.98
244.05	15656.57
244.121	15609.96
244.192	15588.65
244.264	15535.92
244.335	15513.7
244.407	15461.98
244.478	15427.04
244.549	15396.77
244.62	15346.59
244.692	15308.46
244.763	15287.78
244.834	15248.98
244.906	15212.97
244.977	15183.71
245.048	15169.2
245.119	15147.95
245.191	15107.55
245.262	15051.16
245.333	15047.2
245.405	15019.25
245.476	14999.48
245.547	14967.33
245.618	14951.09
245.689	14924.86
245.761	14903.9
245.832	14865.19
245.903	14846.77
245.974	14827.59
246.045	14799.2
246.117	14791.15
246.188	14758.32
246.259	14727.85
246.33	14698.5
246.401	14663.11
246.473	14624.7
246.544	14590.09
246.615	14568.39
246.686	14539.18
246.757	14529.06
246.828	14489.39
246.899	14477.38
246.97	14431.78
247.042	14393.41
247.113	14368.34
247.184	14368.44
247.255	14333.25
247.326	14316.47
247.397	14278.97
247.468	14251.54
247.539	14220.83
247.61	14177.3
247.681	14166.79
247.752	14149.01
247.823	14110.92
247.894	14090.97
247.965	14058.09
248.037	14012.87
248.108	13963.56
248.179	13936.75
248.25	13908.36
248.321	13893.22
248.392	13852.54
248.463	13847.77
248.534	13823.37
248.605	13810.36
248.675	13769.82
248.746	13756.32
248.817	13737.42
248.888	13726
248.959	13682.23
249.03	13676.68
249.101	13661.83
249.172	13633.15
249.243	13582.39
249.314	13581.04
249.385	13556.12
249.456	13543.63
249.527	13525.99
249.598	13517.02
249.669	13496.24
249.739	13478.84
249.81	13454.06
249.881	13419.21
249.952	13399.93
250.023	13385.56
250.094	13348.97
250.165	13321.74
250.235	13297.59
250.306	13274.49
250.377	13244.17
250.448	13224.6
250.519	13170.51
250.59	13156.53
250.66	13129.73
250.731	13130.98
250.802	13106.54
250.873	13086.78
250.944	13058.92
251.014	13033.27
251.085	13035.01
251.156	13012.78
251.227	13004.73
251.297	12986.8
251.368	12976.39
251.439	12954.21
251.51	12930.74
251.58	12891.74
251.651	12862.52
251.722	12851.24
251.792	12804
251.863	12780.62
251.934	12782.31
252.005	12789.35
252.075	12761.1
252.146	12750.25
252.217	12742.78
252.287	12732.85
252.358	12710.92
252.429	12708.31
252.499	12680.4
252.57	12660.35
252.641	12647.29
252.711	12623.71
252.782	12592.57
252.852	12602.65
252.923	12583.22
252.994	12564.66
253.064	12563.94
253.135	12530.97
253.205	12500.84
253.276	12504.02
253.347	12506.82
253.417	12472.84
253.488	12443.82
253.558	12426.17
253.629	12407.28
253.699	12383.66
253.77	12369.34
253.841	12351.02
253.911	12330.78
253.982	12319.02
254.052	12304.65
254.123	12292.89
254.193	12276.02
254.264	12301.52
254.334	12268.5
254.405	12240.4
254.475	12219.38
254.546	12199.62
254.616	12207.62
254.687	12192.87
254.757	12183.42
254.827	12155.95
254.898	12145.87
254.968	12129.15
255.039	12105.53
255.109	12092.32
255.18	12069.52
255.25	12027.25
255.321	12014.33
255.391	11981.02
255.461	11983.34
255.532	11932.87
255.602	11905.64
255.673	11860.62
255.743	11823.21
255.813	11772.65
255.884	11764.56
255.954	11756.6
256.024	11756.75
256.095	11737.47
256.165	11703.34
256.235	11684.74
256.306	11660.4
256.376	11656.2
256.446	11645.17
256.517	11632.59
256.587	11624.2
256.657	11611.52
256.728	11595.14
256.798	11571.95
256.868	11557.35
256.938	11525.88
257.009	11520.67
257.079	11519.23
257.149	11529.83
257.219	11489.78
257.29	11479.56
257.36	11448.91
257.43	11441.78
257.5	11398.16
257.571	11371.89
257.641	11364.71
257.711	11330.59
257.781	11321.96
257.852	11304.03
257.922	11276.47
257.992	11259.89
258.062	11246.3
258.132	11230.58
258.202	11216.51
258.273	11202.05
258.343	11198.2
258.413	11178.92
258.483	11160.17
258.553	11126.83
258.623	11107.11
258.693	11102.54
258.764	11105.28
258.834	11102.78
258.904	11082.53
258.974	11060.08
259.044	11038.11
259.114	11027.46
259.184	11014.54
259.254	10992.81
259.324	10949.97
259.394	10935.51
259.464	10927.27
259.535	10901.29
259.605	10879.95
259.675	10856.77
259.745	10858.79
259.815	10830.84
259.885	10812.05
259.955	10828.92
260.025	10803.48
260.095	10783.91
260.165	10769.17
260.235	10773.75
260.305	10748.64
260.375	10718.77
260.445	10726.33
260.515	10734.23
260.585	10731.73
260.655	10718.09
260.725	10716.02
260.795	10715.06
260.865	10721.8
260.934	10705.18
261.004	10696.07
261.074	10680.65
261.144	10682.24
261.214	10669.23
261.284	10659.84
261.354	10654.34
261.424	10621.81
261.494	10627.02
261.564	10611.45
261.634	10603.99
261.703	10565.25
261.773	10561.05
261.843	10556.57
261.913	10541.83
261.983	10498.47
262.053	10493.89
262.123	10477.85
262.192	10450.63
262.262	10446.92
262.332	10413.53
262.402	10405.24
262.472	10394.06
262.541	10360.58
262.611	10353.69
262.681	10326.37
262.751	10324.3
262.821	10302.24
262.89	10280.94
262.96	10273.57
263.03	10275.21
263.1	10264.7
263.169	10258.97
263.239	10249.05
263.309	10249.43
263.379	10242.93
263.448	10238.06
263.518	10226.84
263.588	10212.29
263.657	10214.26
263.727	10207.42
263.797	10197.4
263.867	10180.25
263.936	10152.55
264.006	10151.4
264.076	10142.39
264.145	10126.92
264.215	10098.36
264.285	10095.66
264.354	10063.1
264.424	10044.65
264.494	10017.19
264.563	9997.54
264.633	10004.09
264.702	9996.04
264.772	9964.34
264.842	9938.96
264.911	9932.31
264.981	9898.21
265.05	9889.3
265.12	9866.08
265.19	9853.5
265.259	9846.62
265.329	9843.49
265.398	9836.21
265.468	9854.37
265.537	9827.45
265.607	9820.75
265.676	9822.2
265.746	9810.69
265.815	9808.13
265.885	9789.74
265.955	9764.26
266.024	9745.67
266.094	9704.78
266.163	9702.7
266.232	9704.53
266.302	9692.98
266.371	9686.33
266.441	9678.14
266.51	9677.76
266.58	9663.21
266.649	9641.2
266.719	9643.37
266.788	9630.8
266.858	9632.39
266.927	9583.31
266.996	9578.64
267.066	9569.59
267.135	9541.7
267.205	9541.13
267.274	9530.48
267.343	9538.43
267.413	9527.45
267.482	9528.56
267.552	9531.98
267.621	9507.8
267.69	9485.17
267.76	9477.8
267.829	9466.34
267.898	9451.27
267.968	9422.42
268.037	9421.03
268.106	9416.02
268.176	9390.78
268.245	9383.75
268.314	9367.57
268.384	9377.39
268.453	9367.52
268.522	9356.49
268.592	9363.96
268.661	9341.9
268.73	9346.04
268.799	9318.31
268.869	9333.14
268.938	9308.19
269.007	9291.68
269.076	9282.34
269.146	9278
269.215	9271.74
269.284	9277.91
269.353	9265.44
269.422	9261.83
269.492	9242.47
269.561	9208.68
269.63	9204
269.699	9183.25
269.768	9178.68
269.838	9169.53
269.907	9170.83
269.976	9153.59
270.045	9120.71
270.114	9118.93
270.183	9099
270.253	9091.82
270.322	9058.94
270.391	9052.3
270.46	9058.03
270.529	9053.79
270.598	9050.52
270.667	9038.15
270.736	9018.45
270.806	9014.41
270.875	9017.01
270.944	9017.44
271.013	9036.17
271.082	9028.66
271.151	9019.08
271.22	8983.41
271.289	8974.65
271.358	8957.8
271.427	8951.39
271.496	8945.23
271.565	8933.58
271.634	8927.76
271.703	8955.3
271.772	8957.18
271.841	8942.06
271.91	8918.28
271.979	8906.63
272.048	8883.72
272.117	8883.52
272.186	8864.17
272.255	8867.01
272.324	8854.88
272.393	8842.99
272.462	8830.57
272.531	8824.03
272.6	8822.58
272.669	8832.69
272.738	8822.68
272.807	8813.29
272.876	8791.35
272.945	8823.02
273.013	8829.86
273.082	8834.57
273.151	8793.8
273.22	8792.54
273.289	8793.51
273.358	8799.19
273.427	8790.72
273.496	8796.83
273.564	8794.76
273.633	8795.82
273.702	8776.03
273.771	8773.58
273.84	8773.39
273.909	8775.55
273.977	8771.37
274.046	8758.8
274.115	8768.19
274.184	8757.02
274.253	8754.71
274.322	8772.76
274.39	8738.68
274.459	8720.53
274.528	8689.01
274.597	8681.07
274.665	8675.82
274.734	8681.74
274.803	8672.26
274.872	8666.29
274.94	8648.25
275.009	8708.05
275.078	8698.81
275.147	8696.31
275.215	8689.86
275.284	8694.05
275.353	8680.24
275.421	8650.35
275.49	8666.81
275.559	8653.72
275.627	8644.1
275.696	8637.41
275.765	8630.77
275.833	8618.74
275.902	8611.9
275.971	8625.81
276.039	8644.34
276.108	8651.37
276.177	8645.69
276.245	8633.8
276.314	8635.05
276.383	8641.93
276.451	8571.2
276.52	8571.97
276.588	8585.73
276.657	8593.19
276.725	8586.55
276.794	8585.78
276.863	8599.16
276.931	8574.08
277	8575.82
277.068	8589.96
277.137	8609.5
277.205	8608.35
277.274	8632.89
277.342	8645.84
277.411	8626.25
277.48	8606.47
277.548	8596.13
277.617	8596.75
277.685	8598.1
277.754	8589.29
277.822	8583.04
277.89	8601.76
277.959	8596.42
278.027	8573.99
278.096	8558.3
278.164	8581.65
278.233	8574.19
278.301	8568.32
278.37	8574.86
278.438	8558.89
278.507	8556.39
278.575	8522.41
278.643	8520.58
278.712	8502.49
278.78	8487.57
278.849	8499.55
278.917	8513.74
278.985	8511.96
279.054	8515.86
279.122	8528.08
279.191	8536.89
279.259	8531.98
279.327	8507.44
279.396	8524.67
279.464	8527.89
279.532	8542.52
279.601	8534.34
279.669	8528.37
279.737	8541.79
279.806	8540.93
279.874	8557.29
279.942	8560.47
280.011	8560.08
280.079	8570.52
280.147	8580.29
280.215	8585.3
280.284	8581.83
280.352	8563.11
280.42	8575.53
280.488	8567.25
280.557	8554.88
280.625	8551.23
280.693	8555.27
280.761	8561.67
280.83	8544.73
280.898	8552.86
280.966	8529.67
281.034	8500.02
281.102	8489
281.171	8479.67
281.239	8492.42
281.307	8479.52
281.375	8464.9
281.443	8490.59
281.512	8483.04
281.58	8494.06
281.648	8477.94
281.716	8477.41
281.784	8481.07
281.852	8471.06
281.92	8465.38
281.989	8478.66
282.057	8467.16
282.125	8507.35
282.193	8500.09
282.261	8498.55
282.329	8497.34
282.397	8508.22
282.465	8507.69
282.533	8521.64
282.601	8513.46
282.67	8488.82
282.738	8489.45
282.806	8505.95
282.874	8492.48
282.942	8496.62
283.01	8493.05
283.078	8503.74
283.146	8501.62
283.214	8509.99
283.282	8508.64
283.35	8524.96
283.418	8520.72
283.486	8522.41
283.554	8478.32
283.622	8478.7
283.69	8479.14
283.758	8474.23
283.826	8473.36
283.894	8489
283.962	8512.39
284.03	8528.41
284.098	8531.73
284.165	8517.59
284.233	8512.82
284.301	8502.82
284.369	8495.84
284.437	8482.6
284.505	8478.56
284.573	8492.95
284.641	8480.39
284.709	8491.65
284.777	8467.06
284.845	8465.38
284.912	8468.79
284.98	8471.63
285.048	8466.05
285.116	8471.68
285.184	8480.87
285.252	8476.49
285.319	8454.41
285.387	8443.63
285.455	8424.04
285.523	8431.5
285.591	8435.93
285.659	8434.87
285.726	8453.15
285.794	8438.33
285.862	8434.58
285.93	8430.01
285.997	8422.36
286.065	8421.73
286.133	8407.53
286.201	8412.35
286.269	8396.51
286.336	8389.2
286.404	8384.25
286.472	8399.21
286.539	8378.81
286.607	8363.22
286.675	8358.26
286.743	8370.44
286.81	8365.09
286.878	8379.58
286.946	8369.57
287.013	8362.98
287.081	8354.7
287.149	8340.41
287.216	8359.56
287.284	8358.12
287.352	8362.45
287.419	8359.8
287.487	8379.39
287.555	8381.07
287.622	8381.5
287.69	8392.86
287.758	8409.22
287.825	8411.96
287.893	8395.41
287.96	8402.63
288.028	8412.1
288.096	8423.46
288.163	8425.91
288.231	8414.08
288.298	8420.57
288.366	8436.65
288.433	8435.68
288.501	8437.56
288.569	8439.73
288.636	8427.31
288.704	8436.26
288.771	8441.89
288.839	8431.93
288.906	8417.88
288.974	8427.26
289.041	8419.04
289.109	8408.5
289.176	8414.13
289.244	8414.61
289.311	8423.42
289.379	8435.88
289.446	8442.18
289.514	8441.12
289.581	8438.24
289.649	8442.66
289.716	8436.22
289.783	8427.31
289.851	8450.26
289.918	8444.49
289.986	8449.2
290.053	8457.87
290.121	8457.82
290.188	8460.37
290.255	8492.47
290.323	8485.34
290.39	8478.17
290.458	8491.21
290.525	8507
290.592	8498.33
290.66	8501.7
290.727	8499.97
290.794	8512.82
290.862	8504.54
290.929	8507.62
290.996	8507.86
291.064	8515.85
291.131	8531.64
291.198	8536.45
291.266	8537.51
291.333	8540.15
291.4	8548.48
291.468	8562.53
291.535	8561.09
291.602	8565.28
291.669	8558.54
291.737	8567.58
291.804	8572.73
291.871	8584.48
291.938	8584.19
292.006	8617.98
292.073	8633.09
292.14	8644.98
292.207	8635.5
292.275	8640.16
292.342	8644.88
292.409	8672.99
292.476	8699.08
292.543	8685.17
292.611	8692.96
292.678	8710.15
292.745	8737.92
292.812	8753.27
292.879	8747.69
292.946	8751.01
293.014	8760.63
293.081	8764.44
293.148	8776.47
293.215	8795.67
293.282	8792.02
293.349	8807.32
293.416	8782.39
293.484	8790.95
293.551	8803.04
293.618	8816.61
293.685	8844.43
293.752	8846.79
293.819	8840.82
293.886	8825.71
293.953	8829.7
294.02	8840
294.087	8844.43
294.154	8840.67
294.221	8857.04
294.288	8867.3
294.356	8889.15
294.423	8900.99
294.49	8893.48
294.557	8912.16
294.624	8899.45
294.691	8924
294.758	8921.93
294.825	8935.99
294.892	8927.42
294.959	8929.68
295.026	8941.72
295.093	8931.37
295.16	8935.51
295.226	8942.82
295.293	8969.93
295.36	8979.07
295.427	8988.8
295.494	9006.66
295.561	9012.39
295.628	9029.97
295.695	9038.87
295.762	9036.61
295.829	9043.45
295.896	9058.56
295.963	9061.74
296.03	9070.89
296.096	9073.2
296.163	9091.68
296.23	9096.84
296.297	9111.95
296.364	9103.57
296.431	9103.24
296.498	9102.47
296.564	9121.58
296.631	9120.57
296.698	9102.42
296.765	9125.14
296.832	9114.4
296.899	9094.23
296.965	9114.31
297.032	9090.76
297.099	9109.15
297.166	9121.86
297.233	9121.48
297.299	9121.77
297.366	9125.86
297.433	9129.33
297.5	9139.15
297.566	9128.32
297.633	9134.29
297.7	9137.27
297.767	9142.33
297.833	9150.32
297.9	9150.27
297.967	9131.25
298.033	9143.92
298.1	9174.88
298.167	9172.13
298.234	9179.88
298.3	9190.57
298.367	9187.88
298.434	9195.15
298.5	9180.65
298.567	9171.99
298.634	9166.79
298.7	9183.64
298.767	9186
298.834	9200.39
298.9	9190.95
298.967	9187.44
299.033	9195.77
299.1	9207.23
299.167	9226.39
299.233	9222.44
299.3	9239.34
299.366	9255.61
299.433	9270.49
299.5	9241.07
299.566	9239
299.633	9256.72
299.699	9270.83
299.766	9259.95
299.832	9267.32
299.899	9281.57
299.965	9287.06
300.032	9284.94
300.099	9285.57
300.165	9283.5
300.232	9279.74
300.298	9280.94
300.365	9302.18
300.431	9302.95
300.498	9299.48
300.564	9299.48
300.631	9309.88
300.697	9318.45
300.763	9322.16
300.83	9316.33
300.896	9327.84
300.963	9338.1
301.029	9336.56
301.096	9336.94
301.162	9357.02
301.229	9348.69
301.295	9337.23
301.361	9342.52
301.428	9345.08
301.494	9340.65
301.561	9347.63
301.627	9351.05
301.693	9356.39
301.76	9353.84
301.826	9346.47
301.892	9354.85
301.959	9363.71
302.025	9363.37
302.092	9361.45
302.158	9367.18
302.224	9368.91
302.291	9363.81
302.357	9365.54
302.423	9360.39
302.49	9346.91
302.556	9357.26
302.622	9356.64
302.688	9367.42
302.755	9380.66
302.821	9393.09
302.887	9404.02
302.954	9403.05
303.02	9407.97
303.086	9409.55
303.152	9413.7
303.219	9412.88
303.285	9422.8
303.351	9426.36
303.417	9428.53
303.483	9424.92
303.55	9417.84
303.616	9421.74
303.682	9425.06
303.748	9412.74
303.815	9427.47
303.881	9442.64
303.947	9430.07
304.013	9432.82
304.079	9423.47
304.145	9406.72
304.212	9401.52
304.278	9388.03
304.344	9384.37
304.41	9368.97
304.476	9366.03
304.542	9357.89
304.608	9361.16
304.674	9343.2
304.741	9340.36
304.807	9343.44
304.873	9343.2
304.939	9362.7
305.005	9339.83
305.071	9338.1
305.137	9341.13
305.203	9317.78
305.269	9312.14
305.335	9322.98
305.401	9323.75
305.467	9325
305.533	9334.29
305.599	9346
305.666	9357.84
305.732	9356.25
305.798	9379.61
305.864	9406.05
305.93	9408.79
305.996	9406.43
306.062	9401.37
306.128	9394.3
306.194	9379.18
306.259	9382.16
306.325	9367.62
306.391	9380.76
306.457	9390.54
306.523	9393.04
306.589	9415.82
306.655	9412.69
306.721	9393.86
306.787	9383.51
306.853	9397.38
306.919	9380.57
306.985	9369.3
307.051	9361.36
307.117	9359.62
307.183	9345.8
307.248	9310.17
307.314	9317.44
307.38	9325.38
307.446	9335.5
307.512	9325.14
307.578	9334.05
307.644	9330.49
307.709	9331.98
307.775	9329.48
307.841	9326.2
307.907	9325.29
307.973	9301.5
308.039	9298.76
308.104	9302.56
308.17	9299.77
308.236	9282.72
308.302	9291.15
308.368	9281.52
308.433	9279.64
308.499	9270.64
308.565	9256.05
308.631	9258.36
308.696	9230.19
308.762	9215.84
308.828	9212.04
308.894	9192.93
308.959	9161.92
309.025	9149.16
309.091	9143.82
309.156	9132.46
309.222	9129.28
309.288	9115.17
309.354	9100.1
309.419	9096.44
309.485	9084.89
309.551	9092.98
309.616	9080.56
309.682	9067.46
309.748	9059.85
309.813	9056.1
309.879	9047.19
309.945	9038.34
310.01	9034.44
310.076	9042.28
310.141	9035.93
310.207	9020.28
310.273	9023.22
310.338	9036.5
310.404	9022.01
310.469	9010.89
310.535	9001.74
310.601	8976.04
310.666	8986.2
310.732	8997.56
310.797	8986.72
310.863	8972.19
310.928	8958.08
310.994	8956.35
311.059	8954.04
311.125	8949.7
311.191	8955.72
311.256	8943.64
311.322	8950.91
311.387	8930.93
311.453	9353.11
311.518	9327.84
311.584	9327.99
311.649	9335.11
311.715	9318.79
311.78	9319.37
311.846	9310.75
311.911	9316.92
311.976	9318.89
312.042	9295.78
312.107	9277.68
312.173	9267.62
312.238	9259.73
312.304	9254.87
312.369	9252.08
312.434	9244.66
312.5	9238.16
312.565	9202.21
312.631	9213.32
312.696	9201.72
312.761	9206.78
312.827	8769.2
312.892	8804.14
312.958	8797.07
313.023	8793.98
313.088	8790.37
313.154	8773.34
313.219	8766.41
313.284	8754.71
313.35	8754.04
313.415	8744.41
313.48	8743.45
313.546	8746.67
313.611	8754.42
313.676	8745.61
313.741	8726.7
313.807	8735.03
313.872	8738.3
313.937	8747.06
314.003	8748.55
314.068	8751.53
314.133	8755.67
314.198	8749.03
314.264	8731.94
314.329	8722.46
314.394	8716.92
314.459	8719.23
314.525	8742.67
314.59	8737.86
314.655	8724.72
314.72	8728.23
314.785	8737.76
314.851	8733.1
314.916	8717.79
314.981	8710.52
315.046	8699.31
315.111	8695.36
315.176	8677.31
315.242	8681.89
315.307	8680.15
315.372	8662.06
315.437	8652.43
315.502	8638.95
315.567	8657.05
315.632	8638.76
315.698	8636.45
315.763	8634.38
315.828	8625.82
315.893	8621.92
315.958	8615.76
316.023	8614.27
316.088	8597.57
316.153	8570.96
316.218	8557.29
316.283	8540.45
316.348	8516.54
316.413	8521.54
316.479	8507.25
316.544	8478.48
316.609	8443.21
316.674	8411.74
316.739	8383.26
316.804	8357.33
316.869	8326.92
316.934	8284.48
316.999	8255.85
317.064	8209.29
317.129	8163.15
317.194	8128.95
317.259	8077.85
317.324	8029.42
317.389	7984.35
317.454	7947.21
317.518	7920.67
317.583	7899.36
317.648	7879.06
317.713	7851.65
317.778	7787.35
317.843	7762.44
317.908	7726.04
317.973	7698.05
318.038	7668.1
318.103	7628.05
318.168	7594.68
318.233	7565.16
318.297	7512.23
318.362	7482.03
318.427	7448.25
318.492	7424.5
318.557	7377.25
318.622	7353.41
318.687	7338.99
318.751	7300.21
318.816	7270.17
318.881	7239.36
318.946	7184.77
319.011	7136.71
319.075	7093.32
319.14	7066.85
319.205	7025.96
319.27	6992.04
319.335	6943.57
319.399	6905.04
319.464	6880.25
319.529	6832.6
319.594	6798.49
319.658	6773.99
319.723	6734.42
319.788	6708.1
319.853	6660.11
319.917	6633.61
319.982	6585.35
320.047	6550.43
320.112	6525.85
320.176	6473.85
320.241	6436.78
320.306	6412.73
320.37	6376.87
320.435	6352.73
320.5	6321.05
320.564	6282.07
320.629	6245.89
320.694	6218.39
320.758	6179.81
320.823	6138.06
320.888	6112.78
320.952	6066.18
321.017	6026.46
321.082	5984.86
321.146	5952.67
321.211	5917.41
321.275	5881.1
321.34	5838.04
321.405	5789.07
321.469	5740.49
321.534	5699.74
321.598	5649.83
321.663	5622.39
321.727	5589.84
321.792	5541.36
321.857	5501.43
321.921	5465.62
321.986	5425.56
322.05	5365.04
322.115	5328.52
322.179	5285.21
322.244	5223.69
322.308	5190.15
322.373	5145.31
322.437	5112.06
322.502	5086.13
322.566	5041.78
322.631	5005.04
322.695	4965.01
322.76	4919.91
322.824	4893.05
322.889	4856.52
322.953	4813.83
323.018	4744.51
323.082	4680.33
323.146	4628.18
323.211	4573.58
323.275	4525.96
323.34	4484.86
323.404	4457.5
323.468	4414.58
323.533	4375.84
323.597	4333.82
323.662	4283.46
323.726	4247.35
323.79	4196.65
323.855	4130.44
323.919	4086.41
323.983	4041.66
324.048	3979.32
324.112	4106.29
324.177	3979.57
324.241	3771.81
324.305	3570.4
324.37	3373.72
324.434	3186.07
324.498	3144.18
324.562	3098.1
324.627	3039.75
324.691	2981.15
324.755	2912.79
324.82	2835.37
324.884	2755.21
324.948	2685.87
325.012	2589.09
325.077	2466.13
