Data from 20250704_urea_2M_MAYP1162681_12-06-59-478.txt Node
Date: Fri Jul 04 12:06:59 BST 2025
User: adleo
Spectrometer: MAYP116268
Trigger mode: 0
Integration Time (sec): 1.000000E0
Scans to average: 1
Electric dark correction enabled: true
Nonlinearity correction enabled: true
Boxcar width: 10
XAxis mode: Wavelengths
Number of Pixels in Spectrum: 2068
>>>>>Begin Spectral Data<<<<<
179.565	1280.55
179.642	1337.65
179.718	1386.57
179.795	1429.08
179.871	1463.93
179.948	1484.24
180.024	1507.93
180.101	1531.75
180.177	1546.08
180.254	1571.46
180.33	1594.27
180.407	1651.97
180.483	1750.88
180.56	1845.43
180.636	1934.26
180.712	1920.9
180.789	1930.65
180.865	1942.58
180.942	1953.13
181.018	1964.83
181.095	1978.19
181.171	1981.43
181.248	1984.9
181.324	1999.93
181.4	2005.45
181.477	2016.77
181.553	2029.08
181.63	2049.01
181.706	2063.66
181.782	2071.41
181.859	2069.55
181.935	2075.4
182.011	2072.79
182.088	2090.86
182.164	2109.56
182.24	2122.92
182.317	2133.24
182.393	2134.77
182.469	2153.03
182.546	2163.74
182.622	2167.07
182.698	2163.31
182.775	2175.87
182.851	2189.52
182.927	2181.57
183.003	2179.53
183.08	2173.54
183.156	2183.48
183.232	2181
183.308	2169.35
183.385	2179.1
183.461	2198.94
183.537	2199.08
183.613	2213.41
183.69	2206.46
183.766	2199.46
183.842	2210.31
183.918	2215.45
183.995	2225.73
184.071	2228.15
184.147	2225.63
184.223	2215.26
184.299	2229.07
184.375	2219.27
184.452	2224.22
184.528	2277
184.604	2287.13
184.68	2300.93
184.756	2312.4
184.832	2315.02
184.908	2323.96
184.985	2324.01
185.061	2307.26
185.137	2317.59
185.213	2303.74
185.289	2303.88
185.365	2297.03
185.441	2294.27
185.517	2307.46
185.593	2305.27
185.669	2302.22
185.745	2311.17
185.822	2326.25
185.898	2317.59
185.974	2326.53
186.05	2320.2
186.126	2284.26
186.202	2279.03
186.278	2273.03
186.354	2260.28
186.43	2266.89
186.506	2261.09
186.582	2261.09
186.658	2268.22
186.734	2246.01
186.81	2249.2
186.886	2252.14
186.962	2262.33
187.038	2258.23
187.114	2250.85
187.19	2256.14
187.266	2243.58
187.341	2243.2
187.417	2237.11
187.493	2234.06
187.569	2237.3
187.645	2233.01
187.721	2218.78
187.797	2225.3
187.873	2232.39
187.949	2227.07
188.025	2222.83
188.101	2227.3
188.176	2234.01
188.252	2228.49
188.328	2238.24
188.404	2237.57
188.48	2231.96
188.556	2224.16
188.632	2223.3
188.707	2224.87
188.783	2222.82
188.859	2218.78
188.935	2211.5
189.011	2220.11
189.086	2214.5
189.162	2204.6
189.238	2199.27
189.314	2198.61
189.39	2190.9
189.465	2179.72
189.541	2196.23
189.617	2179.86
189.693	2173.92
189.768	2176.58
189.844	2202.19
189.92	2194.11
189.996	2205.34
190.071	2217.42
190.147	2218.95
190.223	2227.94
190.298	2220.14
190.374	2208.72
190.45	2223.03
190.526	2229.89
190.601	2220.85
190.677	2224.94
190.753	2253.22
190.828	2258.02
190.904	2273.06
190.98	2290.15
191.055	2302.04
191.131	2293.95
191.207	2315.36
191.282	2329.02
191.358	2318.93
191.433	2301.84
191.509	2315.01
191.585	2309.02
191.66	2311.06
191.736	2319.11
191.811	2309.97
191.887	2327.01
191.963	2354.81
192.038	2361.14
192.114	2360.47
192.189	2366.56
192.265	2361.76
192.34	2341.62
192.416	2339.81
192.491	2335.29
192.567	2338.81
192.642	2340.81
192.718	2337.96
192.793	2325.3
192.869	2318.92
192.944	2319.92
193.02	2326.2
193.095	2329.87
193.171	2340.38
193.246	2340.62
193.322	2339.15
193.397	2339.34
193.473	2322.48
193.548	2300.11
193.624	2301.11
193.699	2301.25
193.775	2318.87
193.85	2319.72
193.925	2327.62
194.001	2327.39
194.076	2318.01
194.152	2304.78
194.227	2296.35
194.302	2288.41
194.378	2294.55
194.453	2293.36
194.529	2308.68
194.604	2294.12
194.679	2287.13
194.755	2265.14
194.83	2278.29
194.905	2273.43
194.981	2284.52
195.056	2277.72
195.131	2283.19
195.207	2287.1
195.282	2273.72
195.357	2256.3
195.433	2272.76
195.508	2260.2
195.583	2266.34
195.659	2283.33
195.734	2290.99
195.809	2292.52
195.884	2299.65
195.96	2300.37
196.035	2315.17
196.11	2307.93
196.185	2323.4
196.261	2327.68
196.336	2361.24
196.411	2343.38
196.486	2348.85
196.561	2340.86
196.637	2349.47
196.712	2366.61
196.787	2368.66
196.862	2386.88
196.937	2395.74
197.013	2399.45
197.088	2410.16
197.163	2434.78
197.238	2452.7
197.313	2453.27
197.388	2467.84
197.464	2498.46
197.539	2508.45
197.614	2499.98
197.689	2516.74
197.764	2534.32
197.839	2561.23
197.914	2553.99
197.989	2575.94
198.065	2591.27
198.14	2643.03
198.215	2669.94
198.29	2683.14
198.365	2694.86
198.44	2707.81
198.515	2736.35
198.59	2754.65
198.665	2781.61
198.74	2791.19
198.815	2791.91
198.89	2814.59
198.965	2846.53
199.04	2844.91
199.115	2858.44
199.19	2902.08
199.265	2902.89
199.34	2912.81
199.415	2942.33
199.49	2965.92
199.565	2978.5
199.64	3002
199.715	2997.61
199.79	3007.43
199.865	3014.78
199.94	3014.63
200.015	3043.58
200.09	3045.58
200.165	3053.21
200.24	3061.27
200.315	3103.8
200.39	3120.06
200.464	3130.41
200.539	3132.7
200.614	3149.63
200.689	3176.24
200.764	3185.97
200.839	3204.37
200.914	3207.71
200.989	3199.22
201.063	3214.19
201.138	3199.8
201.213	3203.09
201.288	3183.68
201.363	3192.7
201.438	3190.65
201.512	3206.24
201.587	3190.11
201.662	3197.79
201.737	3210.05
201.812	3215.44
201.886	3178.35
201.961	3187.51
202.036	3172.07
202.111	3166.77
202.186	3136.22
202.26	3117.04
202.335	3093.1
202.41	3087.42
202.485	3073.26
202.559	3051.14
202.634	3023.86
202.709	3030.63
202.784	3008.89
202.858	3011.13
202.933	2989.43
203.008	2984.62
203.082	2964.03
203.157	2964.98
203.232	2922.47
203.306	2901.01
203.381	2872.31
203.456	2849.86
203.53	2824.91
203.605	2804.57
203.68	2783.21
203.754	2777.97
203.829	2764.39
203.904	2745.52
203.978	2733.04
204.053	2734.61
204.127	2720.03
204.202	2714.41
204.277	2696.93
204.351	2690.35
204.426	2682.35
204.5	2672.82
204.575	2635.67
204.65	2642.2
204.724	2630.19
204.799	2636.04
204.873	2633.04
204.948	2630.85
205.022	2616.99
205.097	2608.13
205.171	2621.56
205.246	2628.13
205.32	2626.56
205.395	2625.47
205.469	2613.9
205.544	2618
205.618	2598.47
205.693	2611.99
205.767	2602.56
205.842	2624.82
205.916	2619.24
205.991	2612.43
206.065	2619.29
206.14	2637.57
206.214	2636.19
206.289	2630.8
206.363	2644.57
206.438	2642.52
206.512	2647.14
206.586	2668.95
206.661	2676.63
206.735	2656.06
206.81	2655.92
206.884	2671.97
206.958	2658.54
207.033	2679.44
207.107	2685.54
207.181	2720.28
207.256	2712.85
207.33	2732.04
207.405	2738.86
207.479	2757.73
207.553	2762.64
207.628	2743.21
207.702	2752.12
207.776	2749.3
207.851	2753.5
207.925	2770.13
207.999	2768.9
208.073	2769.52
208.148	2772.14
208.222	2761.27
208.296	2795.8
208.371	2810.68
208.445	2821.45
208.519	2850.18
208.593	2862.53
208.668	2861.67
208.742	2863.53
208.816	2867.2
208.89	2881.26
208.965	2883.36
209.039	2891.27
209.113	2913.35
209.187	2935.4
209.261	2932.44
209.336	2952.85
209.41	2973.78
209.484	2973.3
209.558	2995.18
209.632	3006.43
209.707	3020.11
209.781	3042.95
209.855	3055.21
209.929	3072.29
210.003	3077.49
210.077	3080.87
210.151	3129.8
210.226	3163.44
210.3	3192.84
210.374	3217.49
210.448	3223.31
210.522	3234.29
210.596	3246.12
210.67	3256.09
210.744	3308.24
210.818	3340.33
210.892	3355.22
210.966	3350.12
211.041	3364.19
211.115	3364.62
211.189	3394.87
211.263	3411.19
211.337	3421.4
211.411	3441.31
211.485	3442.69
211.559	3459.01
211.633	3460.44
211.707	3431.97
211.781	3444.82
211.855	3412.55
211.929	3409.98
212.003	3396.86
212.077	3414.81
212.151	3435.58
212.225	3456.02
212.299	3448.71
212.373	3452.62
212.447	3465.75
212.52	3510.39
212.594	3532.12
212.668	3560.38
212.742	3564.16
212.816	3578.24
212.89	3594.24
212.964	3616.88
213.038	3644.84
213.112	3686.74
213.186	3736.25
213.26	3747.86
213.333	3734.34
213.407	3775.3
213.481	3820.09
213.555	3873.38
213.629	3905.93
213.703	3937.05
213.777	3979.42
213.85	4021.97
213.924	4111.17
213.998	4169.24
214.072	4224.75
214.146	4274.3
214.219	4341.24
214.293	4409.3
214.367	4481.89
214.441	4566.59
214.515	4637.16
214.588	4689.77
214.662	4737.73
214.736	4801.98
214.81	4896.54
214.883	5003.33
214.957	5091.86
215.031	5175.86
215.105	5256.12
215.178	5347.75
215.252	5445.91
215.326	5531.87
215.4	5618.11
215.473	5676.92
215.547	5769.02
215.621	5872.59
215.694	5992.31
215.768	6086.56
215.842	6191.23
215.915	6306.93
215.989	6406.8
216.063	6514.95
216.136	6646.19
216.21	6775.41
216.284	6921.93
216.357	7057.99
216.431	7189.18
216.504	7333.03
216.578	7490.41
216.652	7637.33
216.725	7780.2
216.799	7928.33
216.873	8077.19
216.946	8237.07
217.02	8382.24
217.093	8535.25
217.167	8658.83
217.24	8790.32
217.314	8933.06
217.387	9076.25
217.461	9218.23
217.535	9382.02
217.608	9527.96
217.682	9677.54
217.755	9845.27
217.829	9984.77
217.902	10139.68
217.976	10293.35
218.049	10436.67
218.123	10585.51
218.196	10737.31
218.27	10873.1
218.343	11009.56
218.417	11155.29
218.49	11297.93
218.563	11462.65
218.637	11607.14
218.71	11776.11
218.784	11940.13
218.857	12097.73
218.931	12247.82
219.004	12395.61
219.077	12545.52
219.151	12690.7
219.224	12833.38
219.298	12970.09
219.371	13113.6
219.444	13232.32
219.518	13365.95
219.591	13504.88
219.665	13659.52
219.738	13798.25
219.811	13921.08
219.885	14066.66
219.958	14207.61
220.031	14333.04
220.105	14463.87
220.178	14584.77
220.251	14700.79
220.325	14819.18
220.398	14938.24
220.471	15064.68
220.544	15177.96
220.618	15281.83
220.691	15400.46
220.764	15510.89
220.838	15625.65
220.911	15732.37
220.984	15868.82
221.057	15982.19
221.131	16087.31
221.204	16156.57
221.277	16272.15
221.35	16413.42
221.424	16494.05
221.497	16588.32
221.57	16679.22
221.643	16775.04
221.716	16880.87
221.79	16962.23
221.863	17041.99
221.936	17131.87
222.009	17212.89
222.082	17303.16
222.155	17372.94
222.229	17460.75
222.302	17540.7
222.375	17613.33
222.448	17703.21
222.521	17764.99
222.594	17829.95
222.667	17884.89
222.74	17959.2
222.814	18019.05
222.887	18069.03
222.96	18148.69
223.033	18207.77
223.106	18267.62
223.179	18324.63
223.252	18382.6
223.325	18437.93
223.398	18495.9
223.471	18546.89
223.544	18600.91
223.617	18651.07
223.69	18712.85
223.763	18742.83
223.837	18796.8
223.91	18848.84
223.983	18860.12
224.056	18892.5
224.129	18937.03
224.202	18995.63
224.275	19032.35
224.348	19055.48
224.42	19078.76
224.493	19084.49
224.566	19117.65
224.639	19156.1
224.712	19187.96
224.785	19210.17
224.858	19248.96
224.931	19274.31
225.004	19290.7
225.077	19315.9
225.15	19312.57
225.223	19333.44
225.296	19395.08
225.369	19397.82
225.442	19408.76
225.514	19438.35
225.587	19459.36
225.66	19481.91
225.733	19492.42
225.806	19506.93
225.879	19532.32
225.952	19541.72
226.025	19582.92
226.097	19609.71
226.17	19620.56
226.243	19605.71
226.316	19613.96
226.389	19619.59
226.461	19638.2
226.534	19660.46
226.607	19668.84
226.68	19704.36
226.753	19716.99
226.825	19695.11
226.898	19717.85
226.971	19714.05
227.044	19726.29
227.117	19743.54
227.189	19752.89
227.262	19774.19
227.335	19794.81
227.407	19790.72
227.48	19802.33
227.553	19809.99
227.626	19802.14
227.698	19810.72
227.771	19823.1
227.844	19813.99
227.916	19818.76
227.989	19815.25
228.062	19819.2
228.134	19846.57
228.207	19857.61
228.28	19854.14
228.352	19848.4
228.425	19846.14
228.498	19865.89
228.57	19856.64
228.643	19866.62
228.716	19860.02
228.788	19853.99
228.861	19845.94
228.934	19859.05
229.006	19850.47
229.079	19840.74
229.151	19829.66
229.224	19813.32
229.296	19815.39
229.369	19846.23
229.442	19859.15
229.514	19838.81
229.587	19839.44
229.659	19807.01
229.732	19795.63
229.804	19794.72
229.877	19812.11
229.949	19815.92
230.022	19822.91
230.094	19819.87
230.167	19810.33
230.239	19791.68
230.312	19782.28
230.384	19796.45
230.457	19790.96
230.529	19797.56
230.602	19794.91
230.674	19803.44
230.747	19806.38
230.819	19807.68
230.892	19774.67
230.964	19757.71
231.037	19764.36
231.109	19745.18
231.181	19756.16
231.254	19738
231.326	19725.42
231.399	19711.25
231.471	19699.64
231.544	19666.24
231.616	19668.31
231.688	19661.04
231.761	19648.36
231.833	19619.55
231.905	19578.53
231.978	19572.94
232.05	19563.84
232.122	19547.98
232.195	19526.06
232.267	19529.38
232.339	19525.72
232.412	19536.51
232.484	19521.62
232.556	19495.02
232.629	19507.41
232.701	19487.12
232.773	19476.18
232.846	19458.45
232.918	19453.77
232.99	19438.4
233.062	19438.78
233.135	19430.64
233.207	19398.5
233.279	19401.2
233.351	19404.28
233.424	19387.08
233.496	19365.78
233.568	19361.73
233.64	19333.2
233.713	19313.63
233.785	19290.89
233.857	19267.47
233.929	19227.23
234.001	19229.35
234.074	19231.18
234.146	19194.32
234.218	19180.49
234.29	19162.75
234.362	19143.52
234.434	19103.53
234.507	19078.95
234.579	19042.81
234.651	19015.87
234.723	19009.27
234.795	18988.79
234.867	18963.63
234.939	18961.99
235.012	18931.49
235.084	18911.83
235.156	18904.07
235.228	18873.13
235.3	18844.75
235.372	18821.23
235.444	18812.46
235.516	18766.01
235.588	18745.48
235.66	18721.82
235.732	18692.71
235.804	18738.01
235.876	18723.26
235.948	18721.86
236.02	18694.35
236.092	18659.84
236.164	18635.36
236.236	18602.3
236.308	18573.34
236.38	18550.5
236.452	18515.08
236.524	18500.19
236.596	18491.13
236.668	18478.94
236.74	18466.46
236.812	18452.72
236.884	18442.55
236.956	18416.77
237.028	18383.18
237.1	18348.73
237.172	18341.64
237.244	18327.33
237.316	18242.81
237.388	18206.28
237.46	18170.23
237.532	18164.88
237.604	18142.81
237.675	18135.05
237.747	18116.74
237.819	18087.29
237.891	18068.31
237.963	18039.73
238.035	18004.41
238.107	17935.11
238.178	17918.53
238.25	17894.72
238.322	17888.65
238.394	17843.74
238.466	17809.91
238.538	17791.93
238.609	17771.26
238.681	17725.18
238.753	17692.85
238.825	17678.49
238.897	17662.49
238.968	17655.26
239.04	17607.45
239.112	17612.61
239.184	17563.21
239.255	17537.14
239.327	17526.39
239.399	17503.84
239.471	17488.32
239.542	17465.62
239.614	17458.2
239.686	17403.6
239.758	17380.03
239.829	17339.5
239.901	17327.69
239.973	17307.07
240.044	17284.27
240.116	17260.03
240.188	17228.7
240.259	17201.96
240.331	17161.72
240.403	17135.79
240.474	17091.55
240.546	17063.54
240.618	17014.05
240.689	16979.44
240.761	16950.05
240.833	16931.64
240.904	16890.67
240.976	16856.64
241.048	16837.22
241.119	16812.45
241.191	16788.35
241.262	16781.56
241.334	16748.98
241.405	16715.34
241.477	16680.54
241.549	16655.38
241.62	16623.28
241.692	16608.97
241.763	16596.49
241.835	16570.12
241.906	16540.53
241.978	16494.16
242.049	16485.34
242.121	16466.93
242.192	16462.74
242.264	16421.92
242.335	16371.31
242.407	16356.66
242.478	16323.35
242.55	16288.55
242.621	16252.7
242.693	16224.64
242.764	16176.88
242.836	16139.62
242.907	16112.01
242.979	16090.08
243.05	16062.12
243.122	16037.11
243.193	16007.71
243.264	15960.37
243.336	15938.01
243.407	15926.39
243.479	15920.66
243.55	15900.17
243.622	15881.09
243.693	15847.16
243.764	15837.47
243.836	15791.15
243.907	15758.18
243.978	15729.11
244.05	15706.41
244.121	15670.26
244.192	15660.18
244.264	15626.2
244.335	15600.46
244.407	15554.48
244.478	15522.47
244.549	15491.29
244.62	15455.09
244.692	15425.16
244.763	15397.54
244.834	15361.87
244.906	15319.55
244.977	15288.5
245.048	15272.74
245.119	15226.86
245.191	15191.67
245.262	15137.44
245.333	15140.38
245.405	15119.75
245.476	15096.76
245.547	15075.16
245.618	15056.8
245.689	15017.75
245.761	14991.14
245.832	14966.99
245.903	14949.21
245.974	14927.03
246.045	14900.09
246.117	14896.18
246.188	14853.33
246.259	14815.34
246.33	14787.72
246.401	14760.05
246.473	14723.85
246.544	14680.04
246.615	14666.73
246.686	14634.34
246.757	14632.79
246.828	14588.78
246.899	14569.6
246.97	14523.71
247.042	14487.07
247.113	14466.49
247.184	14464.9
247.255	14439.49
247.326	14419.54
247.397	14387.29
247.468	14362.51
247.539	14342.36
247.61	14297.62
247.681	14280.08
247.752	14275.64
247.823	14232.98
247.894	14210.23
247.965	14178.65
248.037	14143.51
248.108	14102.01
248.179	14077.56
248.25	14044.3
248.321	14024.25
248.392	13981.44
248.463	13985.68
248.534	13955.12
248.605	13935.07
248.675	13899.11
248.746	13875.82
248.817	13843.91
248.888	13827.13
248.959	13785.39
249.03	13760.22
249.101	13735.16
249.172	13706.57
249.243	13657.69
249.314	13651.18
249.385	13627.9
249.456	13605.29
249.527	13587.55
249.598	13567.54
249.669	13550.81
249.739	13526.95
249.81	13505.31
249.881	13470.6
249.952	13445.68
250.023	13424.32
250.094	13385.47
250.165	13350.32
250.235	13324.77
250.306	13307.52
250.377	13276.33
250.448	13259.6
250.519	13219.54
250.59	13217.47
250.66	13193.27
250.731	13186.08
250.802	13169.74
250.873	13144.87
250.944	13125.2
251.014	13094.11
251.085	13098.64
251.156	13074.44
251.227	13072.12
251.297	13070.24
251.368	13066.48
251.439	13048.74
251.51	13045.27
251.58	13012.59
251.651	12986.85
251.722	12979.42
251.792	12937.73
251.863	12914.25
251.934	12906.97
252.005	12910.73
252.075	12884.84
252.146	12875.4
252.217	12866.43
252.287	12856.35
252.358	12839
252.429	12840.54
252.499	12813.5
252.57	12795.66
252.641	12791.08
252.711	12766.02
252.782	12720.8
252.852	12715.4
252.923	12697.57
252.994	12672.26
253.064	12670.47
253.135	12640.92
253.205	12614.7
253.276	12622.37
253.347	12626.41
253.417	12600.53
253.488	12576.52
253.558	12546.97
253.629	12529.19
253.699	12513.62
253.77	12493.61
253.841	12472.21
253.911	12453.75
253.982	12437.12
254.052	12424.15
254.123	12401.25
254.193	12380.52
254.264	12410.17
254.334	12382.31
254.405	12347.7
254.475	12324.32
254.546	12301.81
254.616	12301.33
254.687	12282.91
254.757	12265.9
254.827	12237.55
254.898	12220.92
254.968	12204.49
255.039	12176.72
255.109	12166.41
255.18	12132.28
255.25	12090.78
255.321	12083.21
255.391	12049.76
255.461	12056.12
255.532	12008.74
255.602	11991.1
255.673	11955.52
255.743	11914.26
255.813	11868.47
255.884	11858.45
255.954	11845.77
256.024	11847.7
256.095	11829.86
256.165	11794.2
256.235	11778.77
256.306	11755.3
256.376	11756.07
256.446	11733.51
256.517	11720.55
256.587	11715.39
256.657	11701.17
256.728	11684.59
256.798	11658.04
256.868	11633.31
256.938	11605.98
257.009	11595.19
257.079	11576.24
257.149	11584.24
257.219	11551.76
257.29	11538.31
257.36	11507.28
257.43	11500.87
257.5	11459.9
257.571	11438.35
257.641	11435.8
257.711	11408.66
257.781	11398.06
257.852	11373.53
257.922	11344.08
257.992	11331.17
258.062	11304.9
258.132	11297.72
258.202	11286.34
258.273	11273.43
258.343	11281.19
258.413	11260.22
258.483	11245.04
258.553	11214.3
258.623	11185.62
258.693	11172.85
258.764	11177.96
258.834	11178.87
258.904	11167.64
258.974	11142.58
259.044	11124.75
259.114	11109.09
259.184	11087.94
259.254	11064.52
259.324	11030.64
259.394	11029
259.464	11027.99
259.535	11012.47
259.605	10987.89
259.675	10960.23
259.745	10952.14
259.815	10919.75
259.885	10893.3
259.955	10907.61
260.025	10887.76
260.095	10874.6
260.165	10864.68
260.235	10861.21
260.305	10836.34
260.375	10795.67
260.445	10805.65
260.515	10809.02
260.585	10814.75
260.655	10805.6
260.725	10806.9
260.795	10799.14
260.865	10798.66
260.934	10779.91
261.004	10770.66
261.074	10758.04
261.144	10759.29
261.214	10754.04
261.284	10735.78
261.354	10731.49
261.424	10702.33
261.494	10707.25
261.564	10688.21
261.634	10680.5
261.703	10641.14
261.773	10632.18
261.843	10628.08
261.913	10614.54
261.983	10580.33
262.053	10562.65
262.123	10540.82
262.192	10511.05
262.262	10504.3
262.332	10472.64
262.402	10455.64
262.472	10438.63
262.541	10405.39
262.611	10401.58
262.681	10370.65
262.751	10365.15
262.821	10349.21
262.89	10318.9
262.96	10311.24
263.03	10321.41
263.1	10309.36
263.169	10303.53
263.239	10293.99
263.309	10298.62
263.379	10282.43
263.448	10266.05
263.518	10254.78
263.588	10243.17
263.657	10243.94
263.727	10240.61
263.797	10223.08
263.867	10216
263.936	10183.1
264.006	10186.52
264.076	10168.79
264.145	10156.5
264.215	10134.83
264.285	10131.6
264.354	10105.49
264.424	10084.05
264.494	10049.03
264.563	10034.19
264.633	10038.29
264.702	10029.9
264.772	9997.39
264.842	9976.43
264.911	9975.66
264.981	9948.73
265.05	9932.84
265.12	9915.35
265.19	9905.52
265.259	9906.68
265.329	9899.6
265.398	9894.01
265.468	9904.47
265.537	9882.45
265.607	9869.16
265.676	9863.14
265.746	9850.66
265.815	9851.48
265.885	9832.31
265.955	9814.01
266.024	9788
266.094	9755.83
266.163	9756.84
266.232	9758.19
266.302	9750.92
266.371	9735.36
266.441	9724.48
266.51	9730.64
266.58	9718.79
266.649	9694.28
266.719	9692.11
266.788	9681.94
266.858	9693.17
266.927	9652.71
266.996	9650.49
267.066	9646.4
267.135	9624.59
267.205	9621.45
267.274	9611.44
267.343	9613.7
267.413	9604.26
267.482	9611.78
267.552	9618.9
267.621	9593.38
267.69	9566.7
267.76	9557.4
267.829	9550.56
267.898	9532.99
267.968	9502.26
268.037	9499.18
268.106	9499.23
268.176	9474.04
268.245	9455.6
268.314	9439.75
268.384	9439.27
268.453	9423.28
268.522	9415.24
268.592	9428.43
268.661	9409.94
268.73	9404.31
268.799	9391.6
268.869	9396.89
268.938	9370.21
269.007	9345.8
269.076	9332.99
269.146	9335.79
269.215	9323.27
269.284	9334.29
269.353	9324.86
269.422	9316.82
269.492	9301.55
269.561	9260.53
269.63	9258.85
269.699	9248.45
269.768	9234.1
269.838	9236.5
269.907	9238.62
269.976	9219.75
270.045	9177.09
270.114	9172.47
270.183	9152.35
270.253	9140.98
270.322	9111.67
270.391	9101.36
270.46	9106.8
270.529	9106.56
270.598	9099.44
270.667	9092.46
270.736	9067.32
270.806	9066.12
270.875	9069.53
270.944	9053.94
271.013	9074.83
271.082	9064.04
271.151	9055.52
271.22	9028.28
271.289	9006.8
271.358	8998.23
271.427	8995.78
271.496	8994.14
271.565	8982.92
271.634	8982.35
271.703	8988.85
271.772	8996.16
271.841	8988.22
271.91	8964.15
271.979	8956.11
272.048	8932.33
272.117	8929.73
272.186	8907.97
272.255	8903.25
272.324	8904.17
272.393	8901.14
272.462	8885.15
272.531	8877.93
272.6	8866.33
272.669	8871.58
272.738	8867.15
272.807	8857.76
272.876	8832.4
272.945	8860.41
273.013	8862.43
273.082	8864.65
273.151	8840.97
273.22	8835.77
273.289	8830.42
273.358	8846.89
273.427	8836.83
273.496	8837.64
273.564	8840.82
273.633	8850.06
273.702	8835.91
273.771	8824.02
273.84	8821.62
273.909	8823.93
273.977	8821.95
274.046	8816.42
274.115	8823.35
274.184	8806.12
274.253	8800.2
274.322	8809.39
274.39	8775.17
274.459	8757.07
274.528	8734.59
274.597	8733
274.665	8725.3
274.734	8729.73
274.803	8718.99
274.872	8707.2
274.94	8694.64
275.009	8747.9
275.078	8736.35
275.147	8734.24
275.215	8727.64
275.284	8737.32
275.353	8729.76
275.421	8702.09
275.49	8717.11
275.559	8706.76
275.627	8699.64
275.696	8689
275.765	8693.33
275.833	8692.66
275.902	8688.95
275.971	8693.96
276.039	8705.84
276.108	8715.66
276.177	8712.82
276.245	8698.1
276.314	8698.67
276.383	8705.99
276.451	8642.71
276.52	8641.37
276.588	8654.46
276.657	8660.52
276.725	8644.74
276.794	8637.76
276.863	8652.63
276.931	8630.29
277	8635.2
277.068	8647.38
277.137	8670.91
277.205	8668.99
277.274	8680.92
277.342	8691.7
277.411	8675.97
277.48	8664.75
277.548	8656.48
277.617	8656.62
277.685	8648.68
277.754	8651.42
277.822	8644.45
277.89	8659.42
277.959	8650.03
278.027	8629.14
278.096	8616.01
278.164	8646.48
278.233	8642.53
278.301	8627.37
278.37	8633.2
278.438	8620.2
278.507	8621.6
278.575	8592.24
278.643	8586.08
278.712	8568.37
278.78	8560.19
278.849	8563.46
278.917	8575.88
278.985	8567.74
279.054	8571.35
279.122	8585.36
279.191	8586.56
279.259	8584.63
279.327	8558.45
279.396	8576.45
279.464	8573.99
279.532	8584.29
279.601	8576.45
279.669	8575.53
279.737	8591.6
279.806	8597.57
279.874	8609.27
279.942	8605.85
280.011	8603.15
280.079	8612.92
280.147	8630.63
280.215	8632.17
280.284	8638.91
280.352	8623.7
280.42	8633.23
280.488	8624.18
280.557	8618.98
280.625	8625.29
280.693	8626.97
280.761	8628.95
280.83	8611.04
280.898	8626.35
280.966	8606.67
281.034	8575.81
281.102	8557.77
281.171	8554.64
281.239	8561.67
281.307	8550.65
281.375	8540.59
281.443	8562.83
281.512	8559.31
281.58	8567.98
281.648	8554.07
281.716	8544.35
281.784	8544.35
281.852	8534.2
281.92	8531.89
281.989	8539.49
282.057	8516.39
282.125	8559.19
282.193	8559.76
282.261	8565.63
282.329	8562.26
282.397	8564
282.465	8563.95
282.533	8585.12
282.601	8574.68
282.67	8546.76
282.738	8537.04
282.806	8550.18
282.874	8536.66
282.942	8537.71
283.01	8525.49
283.078	8531.12
283.146	8529.92
283.214	8532.23
283.282	8538.24
283.35	8554.89
283.418	8545.46
283.486	8554.12
283.554	8509.64
283.622	8511.18
283.69	8504.06
283.758	8493.43
283.826	8496.99
283.894	8516.72
283.962	8539.87
284.03	8553.25
284.098	8557.29
284.165	8552.62
284.233	8549.06
284.301	8545.94
284.369	8535.35
284.437	8531.16
284.505	8526.88
284.573	8547.57
284.641	8546.03
284.709	8552.19
284.777	8530.87
284.845	8541.46
284.912	8543.14
284.98	8543.05
285.048	8534.14
285.116	8543.24
285.184	8559.99
285.252	8563.5
285.319	8541.07
285.387	8529.37
285.455	8510.8
285.523	8515.23
285.591	8512.44
285.659	8521.1
285.726	8533.23
285.794	8518.31
285.862	8513.02
285.93	8511.58
285.997	8505.66
286.065	8495.31
286.133	8483.66
286.201	8482.7
286.269	8471.92
286.336	8464.22
286.404	8462.06
286.472	8475.05
286.539	8456.53
286.607	8434.53
286.675	8437.9
286.743	8449.74
286.81	8440.21
286.878	8457.44
286.946	8453.01
287.013	8458.93
287.081	8454.84
287.149	8442.03
287.216	8466.77
287.284	8463.4
287.352	8467.59
287.419	8466.33
287.487	8481.64
287.555	8489.72
287.622	8489.14
287.69	8497.18
287.758	8509.12
287.825	8512
287.893	8495.98
287.96	8504.88
288.028	8521.58
288.096	8524.42
288.163	8521
288.231	8506.8
288.298	8504.11
288.366	8518.16
288.433	8514.12
288.501	8505.55
288.569	8509.4
288.636	8502.95
288.704	8521.58
288.771	8525.96
288.839	8513.25
288.906	8507.38
288.974	8519.51
289.041	8515.37
289.109	8501.18
289.176	8512.83
289.244	8513.31
289.311	8529.19
289.379	8538.24
289.446	8537.46
289.514	8534.05
289.581	8538.43
289.649	8545.93
289.716	8546.17
289.783	8538.67
289.851	8560.95
289.918	8560.9
289.986	8568.84
290.053	8574.13
290.121	8570.67
290.188	8575.19
290.255	8610.08
290.323	8607.24
290.39	8597.71
290.458	8606.09
290.525	8619.32
290.592	8609.26
290.66	8609.21
290.727	8600.55
290.794	8607.91
290.862	8605.65
290.929	8605.55
290.996	8599.35
291.064	8610.7
291.131	8628.56
291.198	8640.88
291.266	8643.05
291.333	8646.17
291.4	8651.57
291.468	8668.56
291.535	8663.94
291.602	8673.13
291.669	8667.79
291.737	8669.18
291.804	8668.41
291.871	8689.83
291.938	8695.12
292.006	8725.45
292.073	8744.08
292.14	8762.66
292.207	8760.44
292.275	8768.62
292.342	8783.69
292.409	8810.83
292.476	8836.45
292.543	8825.04
292.611	8825.33
292.678	8840.87
292.745	8863.3
292.812	8874.28
292.879	8868.55
292.946	8873.7
293.014	8881.02
293.081	8884.29
293.148	8898.39
293.215	8912.64
293.282	8899.64
293.349	8910.62
293.416	8890.54
293.484	8899.11
293.551	8902.48
293.618	8924.82
293.685	8945.95
293.752	8938.92
293.819	8943.26
293.886	8931.12
293.953	8938.49
294.02	8949.66
294.087	8955.39
294.154	8956.16
294.221	8970.99
294.288	8972.72
294.356	8989.61
294.423	8999.24
294.49	8994
294.557	9010.22
294.624	9007.96
294.691	9034.72
294.758	9039.1
294.825	9050.37
294.892	9044.74
294.959	9043.68
295.026	9043.19
295.093	9036.07
295.16	9038.28
295.226	9041.89
295.293	9060.33
295.36	9066.06
295.427	9075.69
295.494	9093.7
295.561	9104
295.628	9120.33
295.695	9135.01
295.762	9141.71
295.829	9149.31
295.896	9165.97
295.963	9175.6
296.03	9184.07
296.096	9187.93
296.163	9196.16
296.23	9213.11
296.297	9230.87
296.364	9234.39
296.431	9243.73
296.498	9244.69
296.564	9269.97
296.631	9271.51
296.698	9258.75
296.765	9282.82
296.832	9276.03
296.899	9261.15
296.965	9276.08
297.032	9260.48
297.099	9281.57
297.166	9283.21
297.233	9282.34
297.299	9276.32
297.366	9278.05
297.433	9282.82
297.5	9293.8
297.566	9296.16
297.633	9290.28
297.7	9293.08
297.767	9288.99
297.833	9295.2
297.9	9294.57
297.967	9276.28
298.033	9282.54
298.1	9315.28
298.167	9302.76
298.234	9310.27
298.3	9315.71
298.367	9305.75
298.434	9314.65
298.5	9299.87
298.567	9303.53
298.634	9300.74
298.7	9321.3
298.767	9323.51
298.834	9335.84
298.9	9325.82
298.967	9318.07
299.033	9333.39
299.1	9342.15
299.167	9366.9
299.233	9364.25
299.3	9381.58
299.366	9405.75
299.433	9424.78
299.5	9396.75
299.566	9409.22
299.633	9427.33
299.699	9442.21
299.766	9445.96
299.832	9446.69
299.899	9458.68
299.965	9468.74
300.032	9466.38
300.099	9468.26
300.165	9475.87
300.232	9468.84
300.298	9478.9
300.365	9493.59
300.431	9490.12
300.498	9483.33
300.564	9483.91
300.631	9493.78
300.697	9511.31
300.763	9505.82
300.83	9502.74
300.896	9520.32
300.963	9524.46
301.029	9524.26
301.096	9528.02
301.162	9542.18
301.229	9541.55
301.295	9533.08
301.361	9539.63
301.428	9543.67
301.494	9533.46
301.561	9532.64
301.627	9534.14
301.693	9533.27
301.76	9540.88
301.826	9540.73
301.892	9559.37
301.959	9567.32
302.025	9567.13
302.092	9557.69
302.158	9571.41
302.224	9570.59
302.291	9557.11
302.357	9552.05
302.423	9548.44
302.49	9529.85
302.556	9539
302.622	9540.4
302.688	9550.13
302.755	9561.59
302.821	9569.25
302.887	9574.06
302.954	9572.23
303.02	9581.81
303.086	9589.76
303.152	9582.44
303.219	9582.25
303.285	9583.36
303.351	9594.29
303.417	9593.23
303.483	9586.49
303.55	9575.36
303.616	9574.5
303.682	9574.21
303.748	9575.22
303.815	9591.21
303.881	9608.64
303.947	9595.93
304.013	9596.12
304.079	9589.19
304.145	9570.02
304.212	9573.24
304.278	9571.12
304.344	9570.16
304.41	9560.39
304.476	9546.23
304.542	9549.12
304.608	9548.59
304.674	9527.78
304.741	9519.11
304.807	9519.55
304.873	9524.89
304.939	9543.05
305.005	9525.28
305.071	9529.32
305.137	9518.39
305.203	9488.82
305.269	9487.81
305.335	9498.21
305.401	9491.23
305.467	9489.64
305.533	9498.12
305.599	9499.22
305.666	9507.03
305.732	9506.74
305.798	9521.28
305.864	9547.34
305.93	9548.59
305.996	9551.62
306.062	9556
306.128	9550.61
306.194	9542.42
306.259	9536.64
306.325	9527.35
306.391	9541.94
306.457	9555.81
306.523	9569.63
306.589	9599.01
306.655	9585.47
306.721	9563.08
306.787	9556.44
306.853	9571.99
306.919	9546.28
306.985	9542.52
307.051	9537.51
307.117	9532.5
307.183	9520.85
307.248	9490.7
307.314	9495.13
307.38	9490.22
307.446	9493.11
307.512	9485.21
307.578	9488.97
307.644	9491.71
307.709	9495.52
307.775	9488
307.841	9478.04
307.907	9480.73
307.973	9463.49
308.039	9469.85
308.104	9477.26
308.17	9481.21
308.236	9465.85
308.302	9475.77
308.368	9465.08
308.433	9465.51
308.499	9460.21
308.565	9448.75
308.631	9455.54
308.696	9433.3
308.762	9424.72
308.828	9423.57
308.894	9406.72
308.959	9389
309.025	9382.35
309.091	9372.38
309.156	9364.1
309.222	9359.09
309.288	9340.36
309.354	9311.57
309.419	9305.64
309.485	9293.22
309.551	9293.22
309.616	9283.97
309.682	9281.95
309.748	9274.73
309.813	9269.1
309.879	9260.81
309.945	9254.36
310.01	9249.5
310.076	9251.86
310.141	9247.62
310.207	9232.84
310.273	9237.08
310.338	9230.82
310.404	9212.42
310.469	9198.17
310.535	9189.46
310.601	9166.73
310.666	9172.17
310.732	9186.18
310.797	9174.63
310.863	9165.48
310.928	9160.71
310.994	9158.16
311.059	9150.46
311.125	9149.35
311.191	9153.35
311.256	9140.35
311.322	9147.23
311.387	9125.14
311.453	9470.84
311.518	9441.52
311.584	9440.8
311.649	9442.1
311.715	9439.26
311.78	9438.25
311.846	9425.63
311.911	9433.48
311.976	9442.68
312.042	9430.83
312.107	9411.53
312.173	9406.09
312.238	9399.68
312.304	9387.6
312.369	9374.5
312.434	9362.28
312.5	9352.84
312.565	9323.43
312.631	9325.74
312.696	9312.79
312.761	9316.59
312.827	8964.48
312.892	9005.26
312.958	9000.59
313.023	8998.13
313.088	9001.65
313.154	8992.74
313.219	8994.24
313.284	8983.69
313.35	8977.67
313.415	8961.74
313.48	8958.13
313.546	8964
313.611	8974.21
313.676	8972.72
313.741	8962.71
313.807	8970.5
313.872	8975.13
313.937	8984.32
314.003	8998.71
314.068	9003.72
314.133	9010.65
314.198	9000.02
314.264	8977.24
314.329	8966.46
314.394	8957.5
314.459	8953.56
314.525	8966.55
314.59	8958.13
314.655	8946.77
314.72	8951.34
314.785	8956.93
314.851	8957.98
314.916	8931.36
314.981	8912.3
315.046	8900.17
315.111	8895.94
315.176	8885.15
315.242	8889.82
315.307	8884.53
315.372	8862.09
315.437	8849.34
315.502	8838.55
315.567	8842.89
315.632	8827.87
315.698	8832.78
315.763	8830.71
315.828	8819.59
315.893	8819.16
315.958	8819.69
316.023	8811.26
316.088	8791.38
316.153	8768.91
316.218	8755.72
316.283	8743.21
316.348	8730.84
316.413	8731.03
316.479	8715.78
316.544	8688.83
316.609	8654.37
316.674	8623.76
316.739	8586.33
316.804	8561.02
316.869	8521.7
316.934	8484.6
316.999	8458.18
317.064	8401.55
317.129	8360.17
317.194	8324.95
317.259	8273.56
317.324	8219.87
317.389	8178.93
317.454	8139.05
317.518	8107.35
317.583	8087.53
317.648	8062.03
317.713	8029.08
317.778	7966.21
317.843	7940.52
317.908	7899.89
317.973	7863
318.038	7828.61
318.103	7799.28
318.168	7766.96
318.233	7737.05
318.297	7690.5
318.362	7650.64
318.427	7613.49
318.492	7590.5
318.557	7548.1
318.622	7524.3
318.687	7505.84
318.751	7463.88
318.816	7434.46
318.881	7400.53
318.946	7343.37
319.011	7298.47
319.075	7253.25
319.14	7222.26
319.205	7178.18
319.27	7148.68
319.335	7104.09
319.399	7062.28
319.464	7034.08
319.529	6981.61
319.594	6944.28
319.658	6917.62
319.723	6880.73
319.788	6856.86
319.853	6801.46
319.917	6770.73
319.982	6719.47
320.047	6681.81
320.112	6657.27
320.176	6607.43
320.241	6577.7
320.306	6551.96
320.37	6510.34
320.435	6479.95
320.5	6453.88
320.564	6413.31
320.629	6370.88
320.694	6344.77
320.758	6310.26
320.823	6268.02
320.888	6237.59
320.952	6191
321.017	6145.65
321.082	6108.37
321.146	6072.67
321.211	6040.47
321.275	5997.44
321.34	5949.52
321.405	5902.22
321.469	5856.75
321.534	5813.45
321.598	5758.35
321.663	5726.25
321.727	5697.15
321.792	5646.99
321.857	5604.45
321.921	5566.77
321.986	5525.74
322.05	5468.17
322.115	5431.88
322.179	5383.1
322.244	5329.67
322.308	5302.79
322.373	5261.44
322.437	5218.98
322.502	5196.16
322.566	5149.16
322.631	5112.28
322.695	5075.84
322.76	5033.98
322.824	5000.79
322.889	4963.25
322.953	4919.74
323.018	4851.79
323.082	4791.43
323.146	4743.86
323.211	4693.06
323.275	4649.98
323.34	4602.76
323.404	4563.72
323.468	4513.85
323.533	4475.63
323.597	4434.03
323.662	4377
323.726	4341.17
323.79	4291.86
323.855	4226.59
323.919	4179.64
323.983	4134.5
324.048	4070.32
324.112	4236.85
324.177	4105.59
324.241	3895.1
324.305	3690.38
324.37	3488.59
324.434	3291.72
324.498	3250.58
324.562	3196.97
324.627	3135.45
324.691	3083.53
324.755	3022.42
324.82	2950.48
324.884	2873.07
324.948	2798.72
325.012	2707.56
325.077	2585.31
