Data from 20250704_urea_1M_MAYP1162681_11-34-20-647.txt Node
Date: Fri Jul 04 11:34:20 BST 2025
User: adleo
Spectrometer: MAYP116268
Trigger mode: 0
Integration Time (sec): 1.000000E0
Scans to average: 1
Electric dark correction enabled: true
Nonlinearity correction enabled: true
Boxcar width: 10
XAxis mode: Wavelengths
Number of Pixels in Spectrum: 2068
>>>>>Begin Spectral Data<<<<<
179.565	1258.19
179.642	1319.34
179.718	1365.33
179.795	1404.67
179.871	1442.76
179.948	1458.44
180.024	1476.9
180.101	1501.14
180.177	1517.1
180.254	1541.59
180.33	1564.09
180.407	1620.35
180.483	1721.64
180.56	1815.86
180.636	1904.22
180.712	1891.76
180.789	1902.03
180.865	1912.77
180.942	1922.23
181.018	1931.17
181.095	1945.53
181.171	1950.57
181.248	1949.19
181.324	1964.08
181.4	1973.21
181.477	1981.01
181.553	1995.93
181.63	2020.28
181.706	2036.55
181.782	2042.97
181.859	2043.35
181.935	2050.2
182.011	2048.34
182.088	2062.13
182.164	2081.98
182.24	2094.53
182.317	2104.28
182.393	2103.71
182.469	2118.02
182.546	2134.2
182.622	2139.95
182.698	2135.1
182.775	2146.61
182.851	2163.31
182.927	2155.17
183.003	2147.38
183.08	2143.52
183.156	2150.28
183.232	2145.23
183.308	2134.15
183.385	2144.9
183.461	2160.55
183.537	2163.36
183.613	2172.92
183.69	2167.78
183.766	2158.78
183.842	2169.01
183.918	2174.44
183.995	2188.14
184.071	2195.04
184.147	2185.67
184.223	2172.68
184.299	2186.34
184.375	2173.07
184.452	2177.59
184.528	2229.08
184.604	2242.63
184.68	2252.62
184.756	2265.38
184.832	2269.09
184.908	2275.32
184.985	2274.84
185.061	2259.71
185.137	2266.19
185.213	2258.15
185.289	2257.67
185.365	2247.78
185.441	2244.68
185.517	2259.15
185.593	2254.87
185.669	2248.07
185.745	2259.82
185.822	2277.94
185.898	2267.56
185.974	2277.89
186.05	2270.08
186.126	2233.06
186.202	2226.73
186.278	2223.64
186.354	2211.98
186.43	2222.97
186.506	2219.26
186.582	2216.98
186.658	2222.97
186.734	2203.61
186.81	2202.09
186.886	2204.66
186.962	2218.22
187.038	2217.65
187.114	2209.51
187.19	2218.12
187.266	2209.79
187.341	2212.18
187.417	2205.37
187.493	2206.8
187.569	2208.46
187.645	2200.9
187.721	2189.77
187.797	2196.52
187.873	2202.14
187.949	2199.85
188.025	2190.71
188.101	2194.95
188.176	2202.84
188.252	2198.61
188.328	2206.12
188.404	2208.93
188.48	2203.7
188.556	2197.94
188.632	2194.85
188.707	2193.9
188.783	2190.66
188.859	2184.95
188.935	2172.25
189.011	2179.38
189.086	2172.96
189.162	2166.68
189.238	2164.35
189.314	2161.07
189.39	2155.07
189.465	2147.75
189.541	2160.07
189.617	2145.32
189.693	2138.33
189.768	2139.9
189.844	2163.6
189.92	2154.19
189.996	2163.42
190.071	2173.31
190.147	2172.6
190.223	2180.02
190.298	2175.22
190.374	2160.9
190.45	2172.88
190.526	2181.88
190.601	2177.02
190.677	2178.69
190.753	2205.11
190.828	2210.1
190.904	2229.56
190.98	2245.13
191.055	2254.55
191.131	2245.51
191.207	2265.06
191.282	2275.29
191.358	2264.87
191.433	2250.92
191.509	2267.52
191.585	2266.76
191.66	2270.66
191.736	2274.51
191.811	2264.66
191.887	2277.42
191.963	2299.36
192.038	2308.35
192.114	2308.88
192.189	2312.49
192.265	2307.59
192.34	2285.88
192.416	2284.65
192.491	2278.46
192.567	2279.27
192.642	2280.03
192.718	2281.41
192.793	2268.56
192.869	2264.32
192.944	2267.51
193.02	2275.37
193.095	2279.7
193.171	2282.12
193.246	2279.79
193.322	2277.94
193.397	2279.98
193.473	2267.27
193.548	2250.9
193.624	2256.28
193.699	2254.8
193.775	2271.09
193.85	2275.51
193.925	2283.79
194.001	2283.41
194.076	2275.56
194.152	2267.51
194.227	2261.85
194.302	2250.67
194.378	2257.52
194.453	2254.34
194.529	2270.66
194.604	2255.96
194.679	2245.34
194.755	2225.75
194.83	2238.41
194.905	2236.46
194.981	2246.45
195.056	2238.98
195.131	2243.84
195.207	2239.74
195.282	2230.08
195.357	2211.19
195.433	2223.08
195.508	2212.76
195.583	2219.56
195.659	2233.12
195.734	2240.98
195.809	2238.55
195.884	2249.16
195.96	2249.44
196.035	2264.29
196.11	2254.1
196.185	2269.43
196.261	2276.42
196.336	2309.4
196.411	2295.92
196.486	2304.87
196.561	2298.02
196.637	2306.63
196.712	2324.43
196.787	2328.86
196.862	2343.71
196.937	2355.7
197.013	2362.94
197.088	2374.5
197.163	2397.74
197.238	2415.51
197.313	2415.79
197.388	2434.17
197.464	2462.88
197.539	2472.83
197.614	2469.35
197.689	2486.73
197.764	2500.21
197.839	2521.59
197.914	2518.54
197.989	2540.54
198.065	2552.21
198.14	2602.05
198.215	2629.86
198.29	2642.06
198.365	2654.73
198.44	2665.11
198.515	2692.18
198.59	2709.61
198.665	2734.86
198.74	2743.87
198.815	2746.63
198.89	2765.97
198.965	2793
199.04	2791.57
199.115	2811.53
199.19	2854.51
199.265	2853.18
199.34	2861.38
199.415	2891.61
199.49	2911.52
199.565	2923.58
199.64	2946.46
199.715	2946.51
199.79	2954.56
199.865	2963.43
199.94	2961.96
200.015	2997.19
200.09	3001.15
200.165	3009.49
200.24	3015.26
200.315	3059.98
200.39	3075.14
200.464	3084.1
200.539	3085.63
200.614	3103.18
200.689	3124.26
200.764	3127.55
200.839	3148.85
200.914	3155.81
200.989	3147.56
201.063	3163.01
201.138	3140.57
201.213	3144.34
201.288	3121.88
201.363	3128.55
201.438	3127.74
201.512	3143.76
201.587	3127.35
201.662	3132.5
201.737	3144.09
201.812	3153.1
201.886	3112.96
201.961	3124.99
202.036	3111.4
202.111	3107.73
202.186	3075.66
202.26	3058.44
202.335	3037.65
202.41	3030.11
202.485	3016.15
202.559	2997.89
202.634	2970.76
202.709	2982.09
202.784	2963.4
202.858	2968.41
202.933	2947.24
203.008	2941.67
203.082	2921.79
203.157	2914.78
203.232	2872.14
203.306	2851.97
203.381	2818.12
203.456	2793.2
203.53	2769.4
203.605	2752.06
203.68	2729.71
203.754	2726.04
203.829	2708.17
203.904	2688.88
203.978	2678.49
204.053	2679.58
204.127	2662.39
204.202	2658.44
204.277	2641.19
204.351	2628.9
204.426	2616.37
204.5	2609.23
204.575	2570.61
204.65	2582.66
204.724	2578.47
204.799	2586.85
204.873	2578.75
204.948	2579.89
205.022	2571.41
205.097	2562.41
205.171	2576.6
205.246	2586.27
205.32	2583.18
205.395	2582.8
205.469	2575.7
205.544	2582.66
205.618	2564.89
205.693	2577.75
205.767	2563.99
205.842	2587
205.916	2581.34
205.991	2575.1
206.065	2581.77
206.14	2599.47
206.214	2591.94
206.289	2581.6
206.363	2591.27
206.438	2593.22
206.512	2600.61
206.586	2621.47
206.661	2625.85
206.735	2603.23
206.81	2601.76
206.884	2620
206.958	2608.23
207.033	2624.38
207.107	2631.24
207.181	2664.02
207.256	2659.83
207.33	2683.07
207.405	2695.56
207.479	2717.24
207.553	2722.14
207.628	2702
207.702	2714.15
207.776	2710.05
207.851	2718.77
207.925	2735.07
207.999	2731.92
208.073	2729.64
208.148	2732.4
208.222	2724.06
208.296	2755.83
208.371	2771.75
208.445	2784.1
208.519	2815.82
208.593	2828.55
208.668	2821.16
208.742	2825.59
208.816	2828.41
208.89	2843.47
208.965	2841.66
209.039	2854.2
209.113	2875.6
209.187	2900.65
209.261	2896.84
209.336	2919.38
209.41	2941.17
209.484	2944.94
209.558	2973.06
209.632	2992.27
209.707	3008.53
209.781	3038.52
209.855	3063.66
209.929	3091.2
210.003	3104.7
210.077	3115.48
210.151	3175.15
210.226	3226.69
210.3	3269.24
210.374	3307.58
210.448	3328.39
210.522	3359.84
210.596	3389.24
210.67	3421.56
210.744	3493.6
210.818	3553.67
210.892	3603
210.966	3628.35
211.041	3678.58
211.115	3710.48
211.189	3767.83
211.263	3827.5
211.337	3872.02
211.411	3929.51
211.485	3972.45
211.559	4035.81
211.633	4092.62
211.707	4117.63
211.781	4180.27
211.855	4206.34
211.929	4264.27
212.003	4311.12
212.077	4390.41
212.151	4472.53
212.225	4553.45
212.299	4620.93
212.373	4694.06
212.447	4774.61
212.52	4890.97
212.594	4986.06
212.668	5098.72
212.742	5186.77
212.816	5281.91
212.89	5387.86
212.964	5498.64
213.038	5609.76
213.112	5737.54
213.186	5872.5
213.26	5974.16
213.333	6055.68
213.407	6185.92
213.481	6322.38
213.555	6473.62
213.629	6602.14
213.703	6734.81
213.777	6880.84
213.85	7007.25
213.924	7190.98
213.998	7345.32
214.072	7495.19
214.146	7635.76
214.219	7789.07
214.293	7945.39
214.367	8107
214.441	8286.78
214.515	8439.13
214.588	8582.56
214.662	8711.73
214.736	8853.94
214.81	9031.27
214.883	9211.61
214.957	9373.11
215.031	9532.32
215.105	9679.74
215.178	9835.21
215.252	9997.71
215.326	10147.23
215.4	10305.94
215.473	10428.37
215.547	10582.21
215.621	10743.59
215.694	10928
215.768	11069.04
215.842	11230.71
215.915	11388.98
215.989	11526
216.063	11680.95
216.136	11844.62
216.21	12010.7
216.284	12191.93
216.357	12356.68
216.431	12516.9
216.504	12686.86
216.578	12874.37
216.652	13051.46
216.725	13216.18
216.799	13387.06
216.873	13538.04
216.946	13699.29
217.02	13847.95
217.093	14005.48
217.167	14129.18
217.24	14258.8
217.314	14405.35
217.387	14545.62
217.461	14684.02
217.535	14843.52
217.608	14974.3
217.682	15120.78
217.755	15274.12
217.829	15395.05
217.902	15536.09
217.976	15668.59
218.049	15795.17
218.123	15909.21
218.196	16035.49
218.27	16144.71
218.343	16250.12
218.417	16378.27
218.49	16498.38
218.563	16639.41
218.637	16747.8
218.71	16895.03
218.784	17021.5
218.857	17155
218.931	17269.84
219.004	17382.76
219.077	17488.4
219.151	17601.99
219.224	17703.49
219.298	17811.77
219.371	17925.51
219.444	18004.69
219.518	18101.7
219.591	18201.74
219.665	18322.27
219.738	18428
219.811	18520.81
219.885	18614.4
219.958	18722.87
220.031	18804.56
220.105	18892.79
220.178	18987.87
220.251	19058.42
220.325	19137.79
220.398	19218.46
220.471	19302.94
220.544	19378.79
220.618	19451.8
220.691	19530.69
220.764	19610.73
220.838	19680.99
220.911	19750.43
220.984	19843.35
221.057	19927.1
221.131	19997.6
221.204	20029.6
221.277	20092.35
221.35	20187.24
221.424	20246.95
221.497	20300.01
221.57	20355
221.643	20420.49
221.716	20480.68
221.79	20529.5
221.863	20579.53
221.936	20622.23
222.009	20659.82
222.082	20716.01
222.155	20752.4
222.229	20812.3
222.302	20854.14
222.375	20892.84
222.448	20935.06
222.521	20964.94
222.594	20989.52
222.667	21008.02
222.74	21058.97
222.814	21089.81
222.887	21115.84
222.96	21158.11
223.033	21191.9
223.106	21233.68
223.179	21256.38
223.252	21275.42
223.325	21306.27
223.398	21335.38
223.471	21365.74
223.544	21401.46
223.617	21419
223.69	21443.05
223.763	21448.6
223.837	21472.74
223.91	21493.13
223.983	21489.9
224.056	21491.3
224.129	21504.31
224.202	21521.66
224.275	21524.75
224.348	21525.86
224.42	21514.58
224.493	21510.14
224.566	21512.94
224.639	21521.71
224.712	21524.07
224.785	21534.2
224.858	21532.27
224.931	21521.91
225.004	21514.58
225.077	21508.46
225.15	21490.14
225.223	21488.46
225.296	21510.34
225.369	21498.68
225.442	21487.2
225.514	21504.12
225.587	21510.72
225.66	21518.97
225.733	21520.12
225.806	21526.49
225.879	21520.51
225.952	21508.17
226.025	21511.64
226.097	21521.14
226.17	21513.47
226.243	21487.06
226.316	21482.1
226.389	21481.37
226.461	21486.67
226.534	21479.01
226.607	21474.87
226.68	21495.4
226.753	21498.05
226.825	21469.32
226.898	21474.19
226.971	21463.97
227.044	21453.56
227.117	21455.15
227.189	21452.02
227.262	21451.63
227.335	21435.92
227.407	21418.33
227.48	21420.59
227.553	21412.93
227.626	21392.2
227.698	21383.72
227.771	21375.14
227.844	21345.02
227.916	21329.88
227.989	21304.05
228.062	21293.49
228.134	21301.98
228.207	21286.36
228.28	21260.38
228.352	21243.99
228.425	21229.87
228.498	21223.32
228.57	21192.95
228.643	21182.64
228.716	21169.53
228.788	21160.27
228.861	21138.92
228.934	21139.26
229.006	21124.13
229.079	21112.08
229.151	21092.65
229.224	21062.24
229.296	21054.48
229.369	21075.88
229.442	21076.8
229.514	21049.52
229.587	21047.4
229.659	21012.7
229.732	21000.6
229.804	20999.73
229.877	21006.38
229.949	21002.82
230.022	21012.84
230.094	21000.02
230.167	20984.12
230.239	20956.02
230.312	20941.71
230.384	20950.04
230.457	20947.06
230.529	20932.5
230.602	20920.98
230.674	20909.9
230.747	20906.96
230.819	20902.43
230.892	20834.14
230.964	20815
231.037	20805.56
231.109	20781.75
231.181	20770.47
231.254	20736.78
231.326	20714.28
231.399	20691.67
231.471	20659.82
231.544	20606.32
231.616	20602.51
231.688	20588.05
231.761	20556.15
231.833	20529.07
231.905	20470.61
231.978	20439.57
232.05	20409.88
232.122	20383.72
232.195	20345.74
232.267	20331.91
232.339	20301.4
232.412	20315.76
232.484	20282.99
232.556	20262.41
232.629	20257.26
232.701	20247.23
232.773	20232.68
232.846	20208.05
232.918	20182.51
232.99	20159.09
233.062	20155.04
233.135	20137.5
233.207	20096.59
233.279	20086.22
233.351	20058.56
233.424	20046.71
233.496	20015.19
233.568	20017.55
233.64	19975.48
233.713	19959.34
233.785	19937.36
233.857	19922.71
233.929	19872.31
234.001	19865.94
234.074	19847.15
234.146	19796.02
234.218	19757.37
234.29	19723.15
234.362	19684.55
234.434	19637.47
234.507	19596.27
234.579	19541.57
234.651	19500.56
234.723	19483.17
234.795	19453.48
234.867	19425.68
234.939	19415.99
235.012	19393.63
235.084	19364.43
235.156	19346.16
235.228	19314.65
235.3	19276.82
235.372	19243.66
235.444	19228.1
235.516	19174.08
235.588	19157.5
235.66	19138.03
235.732	19099.48
235.804	19133.5
235.876	19110.52
235.948	19112.54
236.02	19088.01
236.092	19068.69
236.164	19040.98
236.236	19002.43
236.308	18978.28
236.38	18958.72
236.452	18915.92
236.524	18889.04
236.596	18877.95
236.668	18847.78
236.74	18817.23
236.812	18793.38
236.884	18765.19
236.956	18741.33
237.028	18707.12
237.1	18657.72
237.172	18647.94
237.244	18638.16
237.316	18564.19
237.388	18527.27
237.46	18475.76
237.532	18452.87
237.604	18418.46
237.675	18412.24
237.747	18396.29
237.819	18352.58
237.891	18316.39
237.963	18271.14
238.035	18232.73
238.107	18156.59
238.178	18141.36
238.25	18115
238.322	18104.06
238.394	18058.48
238.466	18017.03
238.538	17995.44
238.609	17975.25
238.681	17914.87
238.753	17871.25
238.825	17840.6
238.897	17823.54
238.968	17813.52
239.04	17781.23
239.112	17775.26
239.184	17726.68
239.255	17690.05
239.327	17662.97
239.399	17629.28
239.471	17620.13
239.542	17595.16
239.614	17586.2
239.686	17533.72
239.758	17511.89
239.829	17472.42
239.901	17462.78
239.973	17446.1
240.044	17417.09
240.116	17389.96
240.188	17364.85
240.259	17334.97
240.331	17296.22
240.403	17270.05
240.474	17216.99
240.546	17179.5
240.618	17122.53
240.689	17078
240.761	17048.17
240.833	17043.01
240.904	17011.4
240.976	16978.43
241.048	16954.58
241.119	16934.38
241.191	16914.09
241.262	16896.12
241.334	16852.89
241.405	16811.63
241.477	16768.93
241.549	16728.11
241.62	16694.28
241.692	16673.79
241.763	16660.92
241.835	16627.09
241.906	16594.32
241.978	16553.88
242.049	16531.9
242.121	16518.7
242.192	16505.35
242.264	16461.24
242.335	16399.7
242.407	16377.48
242.478	16336.94
242.55	16304.8
242.621	16265.28
242.693	16220.4
242.764	16180.21
242.836	16152.01
242.907	16129.6
242.979	16097.93
243.05	16089.69
243.122	16069.64
243.193	16033.2
243.264	15981.97
243.336	15961.29
243.407	15934.88
243.479	15925.43
243.55	15900.08
243.622	15868.8
243.693	15842.67
243.764	15831.63
243.836	15795.72
243.907	15766.76
243.978	15735.43
244.05	15705.98
244.121	15656.81
244.192	15643.02
244.264	15601.04
244.335	15568.99
244.407	15528.69
244.478	15506.86
244.549	15464.25
244.62	15408.53
244.692	15376.57
244.763	15357.72
244.834	15313.28
244.906	15276.79
244.977	15247.68
245.048	15229.65
245.119	15199.96
245.191	15158.07
245.262	15107.07
245.333	15092.42
245.405	15062.53
245.476	15036.6
245.547	15013.12
245.618	14997.7
245.689	14972.92
245.761	14945.93
245.832	14916.86
245.903	14888.95
245.974	14862.1
246.045	14835.35
246.117	14832.75
246.188	14793.17
246.259	14743.38
246.33	14720.04
246.401	14688.81
246.473	14646
246.544	14609.85
246.615	14583.53
246.686	14552.78
246.757	14542.36
246.828	14509.34
246.899	14493.19
246.97	14453.42
247.042	14422.28
247.113	14397.51
247.184	14385.65
247.255	14348.63
247.326	14326.02
247.397	14300.52
247.468	14278.2
247.539	14245.9
247.61	14198.08
247.681	14185.35
247.752	14181.93
247.823	14145.82
247.894	14129.72
247.965	14095.79
248.037	14074.38
248.108	14040.88
248.179	14014.22
248.25	13985.64
248.321	13960.47
248.392	13922.58
248.463	13926.54
248.534	13891.54
248.605	13877.22
248.675	13845.6
248.746	13830.22
248.817	13803.37
248.888	13781.63
248.959	13739.11
249.03	13725.18
249.101	13708.31
249.172	13674.13
249.243	13622.26
249.314	13617.19
249.385	13582.05
249.456	13569.18
249.527	13536.26
249.598	13517.5
249.669	13494.8
249.739	13473.59
249.81	13466.16
249.881	13431.55
249.952	13397.95
250.023	13375.78
250.094	13334.37
250.165	13305.97
250.235	13284.04
250.306	13268.81
250.377	13240.12
250.448	13223.25
250.519	13181.5
250.59	13176.15
250.66	13157.83
250.731	13159.76
250.802	13132.24
250.873	13119.46
250.944	13098.73
251.014	13060.07
251.085	13061.18
251.156	13045.56
251.227	13033.08
251.297	13017.51
251.368	13005.12
251.439	12991.23
251.51	12978.46
251.58	12947.75
251.651	12914.3
251.722	12899.02
251.792	12857.27
251.863	12828.11
251.934	12823.62
252.005	12825.5
252.075	12798.36
252.146	12785.4
252.217	12770.4
252.287	12761.73
252.358	12737.82
252.429	12740.32
252.499	12723.6
252.57	12697.56
252.641	12684.16
252.711	12662.66
252.782	12619.23
252.852	12617.16
252.923	12597.49
252.994	12586.21
253.064	12579.51
253.135	12555.46
253.205	12530.58
253.276	12530.97
253.347	12528.75
253.417	12498.14
253.488	12477.46
253.558	12454.13
253.629	12427.62
253.699	12416.48
253.77	12400.05
253.841	12379.08
253.911	12356.57
253.982	12344.56
254.052	12334.15
254.123	12314.82
254.193	12295.68
254.264	12322.78
254.334	12288.31
254.405	12258.09
254.475	12229.7
254.546	12211.81
254.616	12207.14
254.687	12192.87
254.757	12177.01
254.827	12158.36
254.898	12140.67
254.968	12114.88
255.039	12092.27
255.109	12080.37
255.18	12045.9
255.25	12004.88
255.321	11990.04
255.391	11951.48
255.461	11953.93
255.532	11910.6
255.602	11888.38
255.673	11853
255.743	11818.2
255.813	11787.16
255.884	11786.92
255.954	11769.08
256.024	11766.1
256.095	11753.23
256.165	11722.57
256.235	11704.21
256.306	11680.59
256.376	11679.82
256.446	11676.25
256.517	11666.52
256.587	11662.47
256.657	11645.89
256.728	11640.44
256.798	11627.19
256.868	11608.25
256.938	11576.19
257.009	11574.12
257.079	11567.76
257.149	11580.87
257.219	11546.94
257.29	11536.38
257.36	11490.65
257.43	11484.53
257.5	11441.78
257.571	11411.89
257.641	11405.87
257.711	11380.66
257.781	11364.81
257.852	11345.72
257.922	11308.56
257.992	11287.21
258.062	11269.19
258.132	11264.42
258.202	11239.74
258.273	11223.79
258.343	11227.31
258.413	11202.44
258.483	11181.38
258.553	11144.61
258.623	11111.4
258.693	11095.45
258.764	11094.68
258.834	11098.34
258.904	11084.03
258.974	11063.69
259.044	11044.61
259.114	11035.65
259.184	11025.38
259.254	11010.49
259.324	10973.48
259.394	10968.18
259.464	10968.33
259.535	10951.36
259.605	10929.05
259.675	10902.4
259.745	10887.32
259.815	10860.58
259.885	10838.31
259.955	10847.18
260.025	10826.85
260.095	10807.77
260.165	10804.83
260.235	10799.82
260.305	10779.1
260.375	10752.74
260.445	10763.14
260.515	10768.83
260.585	10765.7
260.655	10748.88
260.725	10745.03
260.795	10740.45
260.865	10740.64
260.934	10715.06
261.004	10707.15
261.074	10694
261.144	10697.42
261.214	10690.96
261.284	10671.16
261.354	10667.59
261.424	10640.32
261.494	10641.71
261.564	10633.48
261.634	10622.59
261.703	10586.74
261.773	10574.02
261.843	10568.43
261.913	10550.36
261.983	10514.32
262.053	10499.67
262.123	10483.82
262.192	10452.02
262.262	10446.63
262.332	10414.3
262.402	10410.97
262.472	10389.43
262.541	10349.55
262.611	10343.38
262.681	10319.1
262.751	10311.53
262.821	10303.15
262.89	10274.48
262.96	10268.12
263.03	10276.22
263.1	10266.15
263.169	10263.4
263.239	10258.44
263.309	10260.32
263.379	10252.27
263.448	10242.98
263.518	10232.23
263.588	10217.2
263.657	10220.33
263.727	10210.84
263.797	10202.41
263.867	10179.34
263.936	10159.06
264.006	10166.04
264.076	10149.18
264.145	10137.18
264.215	10119.12
264.285	10106.74
264.354	10081.07
264.424	10062.38
264.494	10023.11
264.563	9999.56
264.633	9998.93
264.702	9986.55
264.772	9951.05
264.842	9935.58
264.911	9928.41
264.981	9891.8
265.05	9883.27
265.12	9867.18
265.19	9857.07
265.259	9854.42
265.329	9852.39
265.398	9835.1
265.468	9852.93
265.537	9834.96
265.607	9829.37
265.676	9831.4
265.746	9822.63
265.815	9818.2
265.885	9811.36
265.955	9793.3
266.024	9780.87
266.094	9743.21
266.163	9745.91
266.232	9750.39
266.302	9735.12
266.371	9732.52
266.441	9733
266.51	9730.88
266.58	9718.41
266.649	9697.84
266.719	9688.98
266.788	9682.52
266.858	9693.84
266.927	9648.37
266.996	9643.37
267.066	9633.88
267.135	9604.26
267.205	9606.43
267.274	9603.59
267.343	9601.28
267.413	9592.66
267.482	9592.8
267.552	9603.01
267.621	9569.73
267.69	9540.4
267.76	9529.95
267.829	9514.59
267.898	9499.9
267.968	9475.54
268.037	9473.46
268.106	9476.84
268.176	9459.84
268.245	9443.41
268.314	9426.22
268.384	9432.09
268.453	9414.52
268.522	9408.16
268.592	9415.14
268.661	9394.92
268.73	9385.96
268.799	9362.85
268.869	9371.95
268.938	9340.75
269.007	9318.31
269.076	9315.32
269.146	9316.57
269.215	9315.9
269.284	9322.79
269.353	9309.45
269.422	9298.95
269.492	9277.48
269.561	9233.09
269.63	9226.49
269.699	9216.14
269.768	9198.61
269.838	9186.04
269.907	9188.26
269.976	9158.17
270.045	9130.49
270.114	9124.08
270.183	9109.83
270.253	9106.65
270.322	9080.27
270.391	9069.15
270.46	9076.28
270.529	9074.93
270.598	9070.16
270.667	9050.66
270.736	9032.8
270.806	9031.59
270.875	9035.3
270.944	9027.45
271.013	9046.47
271.082	9038.33
271.151	9037.08
271.22	9018.98
271.289	9009.45
271.358	8994.09
271.427	8995.1
271.496	8987.31
271.565	8973.34
271.634	8964.58
271.703	8983.12
271.772	8983.94
271.841	8977.73
271.91	8946.68
271.979	8932.67
272.048	8912.12
272.117	8912.45
272.186	8894.11
272.255	8889.49
272.324	8880.78
272.393	8873.85
272.462	8862.87
272.531	8854.45
272.6	8831.92
272.669	8839.47
272.738	8836.59
272.807	8835.09
272.876	8815.17
272.945	8845.02
273.013	8847.18
273.082	8849.78
273.151	8806.94
273.22	8802.41
273.289	8797.79
273.358	8813.72
273.427	8804.91
273.496	8802.7
273.564	8801.02
273.633	8806.31
273.702	8792.06
273.771	8787.25
273.84	8787.83
273.909	8791
273.977	8783.78
274.046	8781.04
274.115	8784.26
274.184	8761.65
274.253	8760.3
274.322	8775.99
274.39	8740.08
274.459	8721.83
274.528	8696.04
274.597	8689.59
274.665	8685.6
274.734	8695.41
274.803	8684.01
274.872	8683.62
274.94	8674.81
275.009	8703.75
275.078	8686.62
275.147	8680.26
275.215	8678.24
275.284	8685.13
275.353	8670.64
275.421	8656.58
275.49	8675.12
275.559	8659.09
275.627	8657.93
275.696	8644.89
275.765	8640.13
275.833	8631.32
275.902	8632.19
275.971	8644.12
276.039	8663.85
276.108	8665.44
276.177	8662.12
276.245	8651.77
276.314	8642.44
276.383	8647.2
276.451	8605.17
276.52	8608.35
276.588	8618.12
276.657	8618.79
276.725	8602.86
276.794	8594.97
276.863	8600.31
276.931	8569.56
277	8579.18
277.068	8583.56
277.137	8603.68
277.205	8601.99
277.274	8624.42
277.342	8635.01
277.411	8618.7
277.48	8597.62
277.548	8586.4
277.617	8589.44
277.685	8582.32
277.754	8586.12
277.822	8578.99
277.89	8595.6
277.959	8586.55
278.027	8569.57
278.096	8559.75
278.164	8589.49
278.233	8584.59
278.301	8577.37
278.37	8587.14
278.438	8572.31
278.507	8577.42
278.575	8551.81
278.643	8543.39
278.712	8520.63
278.78	8508.16
278.849	8519.81
278.917	8535.45
278.985	8531.21
279.054	8532.99
279.122	8552.19
279.191	8551.13
279.259	8540.55
279.327	8514.75
279.396	8533.42
279.464	8531.88
279.532	8535.21
279.601	8531.4
279.669	8530.05
279.737	8535.78
279.806	8537.42
279.874	8551.52
279.942	8543.87
280.011	8545.5
280.079	8555.71
280.147	8570.43
280.215	8578.71
280.284	8575.53
280.352	8563.64
280.42	8573.22
280.488	8556.52
280.557	8547.14
280.625	8553.68
280.693	8559.31
280.761	8563.21
280.83	8548.72
280.898	8564.27
280.966	8545.07
281.034	8508.3
281.102	8497.47
281.171	8498.53
281.239	8505.27
281.307	8492.03
281.375	8480.34
281.443	8495.21
281.512	8492.57
281.58	8502.67
281.648	8480.63
281.716	8480.06
281.784	8480.25
281.852	8470.38
281.92	8467.4
281.989	8468.41
282.057	8452.87
282.125	8493.35
282.193	8485.89
282.261	8482.57
282.329	8474.24
282.397	8484.88
282.465	8486.18
282.533	8504.51
282.601	8492.19
282.67	8468.8
282.738	8466.97
282.806	8484.2
282.874	8472.07
282.942	8475.49
283.01	8466.29
283.078	8476.16
283.146	8473.9
283.214	8480.54
283.282	8489.49
283.35	8505.37
283.418	8507.25
283.486	8509.03
283.554	8469.56
283.622	8474.85
283.69	8474.95
283.758	8475.28
283.826	8478.12
283.894	8495.45
283.962	8505.99
284.03	8521.05
284.098	8528.07
284.165	8526.1
284.233	8524.66
284.301	8520.52
284.369	8512.77
284.437	8503.34
284.505	8500.35
284.573	8514.69
284.641	8502.47
284.709	8506.27
284.777	8489.14
284.845	8495.54
284.912	8499.68
284.98	8505.31
285.048	8501.12
285.116	8507.24
285.184	8517.15
285.252	8517.34
285.319	8499.3
285.387	8492.85
285.455	8477.74
285.523	8480.91
285.591	8469.75
285.659	8472.83
285.726	8479.52
285.794	8458.59
285.862	8458.93
285.93	8453.88
285.997	8448.87
286.065	8443.82
286.133	8433.71
286.201	8431.11
286.269	8415.81
286.336	8409.84
286.404	8400.7
286.472	8413.55
286.539	8388.68
286.607	8372.8
286.675	8369.52
286.743	8380.93
286.81	8379.2
286.878	8389.44
286.946	8381.26
287.013	8387.52
287.081	8384.1
287.149	8372.89
287.216	8399.83
287.284	8395.46
287.352	8402.43
287.419	8393.24
287.487	8417.01
287.555	8424.71
287.622	8427.75
287.69	8436.94
287.758	8446.99
287.825	8446.42
287.893	8433.62
287.96	8445.21
288.028	8449.2
288.096	8459.69
288.163	8458.2
288.231	8440.3
288.298	8436.45
288.366	8451.9
288.433	8449.3
288.501	8445.93
288.569	8453.2
288.636	8444.87
288.704	8458.83
288.771	8465.61
288.839	8459.5
288.906	8446.56
288.974	8454.11
289.041	8450.12
289.109	8440.5
289.176	8453.73
289.244	8455.32
289.311	8471.44
289.379	8485.35
289.446	8495.65
289.514	8489.34
289.581	8487.9
289.649	8496.75
289.716	8503.92
289.783	8496.37
289.851	8514.94
289.918	8511.76
289.986	8517.78
290.053	8525.29
290.121	8518.74
290.188	8520.38
290.255	8553.34
290.323	8548
290.39	8541.74
290.458	8548.24
290.525	8557.14
290.592	8548.09
290.66	8558.05
290.727	8545.01
290.794	8553.15
290.862	8547.03
290.929	8550.02
290.996	8550.84
291.064	8559.45
291.131	8574.32
291.198	8584.14
291.266	8584
291.333	8583.13
291.4	8586.5
291.468	8602.77
291.535	8601.23
291.602	8602.62
291.669	8597.57
291.737	8603.15
291.804	8599.11
291.871	8618.21
291.938	8629.19
292.006	8662.74
292.073	8667.41
292.14	8684.49
292.207	8680.16
292.275	8684.49
292.342	8694.02
292.409	8722.33
292.476	8750.34
292.543	8737.06
292.611	8736.09
292.678	8753.52
292.745	8782.39
292.812	8792.65
292.879	8781.86
292.946	8788.31
293.014	8801.45
293.081	8808.05
293.148	8820.27
293.215	8849.2
293.282	8840.59
293.349	8846.41
293.416	8819.31
293.484	8832.35
293.551	8843.85
293.618	8860.56
293.685	8883.61
293.752	8878.95
293.819	8869.46
293.886	8852.61
293.953	8861.71
294.02	8877.93
294.087	8881.73
294.154	8873.07
294.221	8898.25
294.288	8908.5
294.356	8926.6
294.423	8938.4
294.49	8925.74
294.557	8944.75
294.624	8929.88
294.691	8952.55
294.758	8950.91
294.825	8961.12
294.892	8958.71
294.959	8958.13
295.026	8964.87
295.093	8960.01
295.16	8966.22
295.226	8970.74
295.293	8996.07
295.36	9000.3
295.427	9010.22
295.494	9023.27
295.561	9035.59
295.628	9049.03
295.695	9056.39
295.762	9057.65
295.829	9072.14
295.896	9092.55
295.963	9094.23
296.03	9102.9
296.096	9105.93
296.163	9121.24
296.23	9138.58
296.297	9151.14
296.364	9151.77
296.431	9157.74
296.498	9156.24
296.564	9177.76
296.631	9182.48
296.698	9172.08
296.765	9190.14
296.832	9173.24
296.899	9157.69
296.965	9169.19
297.032	9143.04
297.099	9168.76
297.166	9181.42
297.233	9163.32
297.299	9150.61
297.366	9149.36
297.433	9149.45
297.5	9160.09
297.566	9164.04
297.633	9158.84
297.7	9163.51
297.767	9149.84
297.833	9148.44
297.9	9147.34
297.967	9128.13
298.033	9144.64
298.1	9170.55
298.167	9167.32
298.234	9179.7
298.3	9191.73
298.367	9192.5
298.434	9204.93
298.5	9188.12
298.567	9174.16
298.634	9176.32
298.7	9202.13
298.767	9214.31
298.834	9233.71
298.9	9224.57
298.967	9215.08
299.033	9225.39
299.1	9239.49
299.167	9266.36
299.233	9266.21
299.3	9287.49
299.366	9308.2
299.433	9322.79
299.5	9299.91
299.566	9300.64
299.633	9318.6
299.699	9328.18
299.766	9327.12
299.832	9328.13
299.899	9337.81
299.965	9355.14
300.032	9351.97
300.099	9352.35
300.165	9351.77
300.232	9340.07
300.298	9347.3
300.365	9358.27
300.431	9361.07
300.498	9352.54
300.564	9353.89
300.631	9367.71
300.697	9380.33
300.763	9378.79
300.83	9368.14
300.896	9379.51
300.963	9390.34
301.029	9393.67
301.096	9395.11
301.162	9405.66
301.229	9405.03
301.295	9391.79
301.361	9401.32
301.428	9402.29
301.494	9387.94
301.561	9395.59
301.627	9401.13
301.693	9402.09
301.76	9408.21
301.826	9399.45
301.892	9413.65
301.959	9425.11
302.025	9419.82
302.092	9409.12
302.158	9416.3
302.224	9424.34
302.291	9415.48
302.357	9410.38
302.423	9403.83
302.49	9393.67
302.556	9400.79
302.622	9396.8
302.688	9409.27
302.755	9418.18
302.821	9430.02
302.887	9441.58
302.954	9436.09
303.02	9449.72
303.086	9452.7
303.152	9450.25
303.219	9442.78
303.285	9444.23
303.351	9450.1
303.417	9450.97
303.483	9441.39
303.55	9431.13
303.616	9432.43
303.682	9432.67
303.748	9428.05
303.815	9450.59
303.881	9461.62
303.947	9451.31
304.013	9458.63
304.079	9453.77
304.145	9430.27
304.212	9428.73
304.278	9424.1
304.344	9421.65
304.41	9409.27
304.476	9405.61
304.542	9402.15
304.608	9414.42
304.674	9398.44
304.741	9385.67
304.807	9393.52
304.873	9403.4
304.939	9423.81
305.005	9403.15
305.071	9403.44
305.137	9401.56
305.203	9367.08
305.269	9370.6
305.335	9380.42
305.401	9379.36
305.467	9375.85
305.533	9385.14
305.599	9394.92
305.666	9403.92
305.732	9405.37
305.798	9415
305.864	9440.76
305.93	9442.06
305.996	9449.05
306.062	9449.33
306.128	9452.99
306.194	9435.27
306.259	9432.91
306.325	9427.71
306.391	9437.78
306.457	9448.66
306.523	9456.56
306.589	9484.87
306.655	9473.46
306.721	9451.02
306.787	9437.92
306.853	9452.61
306.919	9438.55
306.985	9427.33
307.051	9421.02
307.117	9414.09
307.183	9405.37
307.248	9371.47
307.314	9384.09
307.38	9378.36
307.446	9379.7
307.512	9365.07
307.578	9371.13
307.644	9364.73
307.709	9358.61
307.775	9358.47
307.841	9351.24
307.907	9348.36
307.973	9324.28
308.039	9327.45
308.104	9336.31
308.17	9335.78
308.236	9325.48
308.302	9325.05
308.368	9319.56
308.433	9315.66
308.499	9311.85
308.565	9302.46
308.631	9309.83
308.696	9278.72
308.762	9264.52
308.828	9263.12
308.894	9245.55
308.959	9222.97
309.025	9209.3
309.091	9203.09
309.156	9190.23
309.222	9192.64
309.288	9184.89
309.354	9169.19
309.419	9167.31
309.485	9155.23
309.551	9161.05
309.616	9147.81
309.682	9147.24
309.748	9139.97
309.813	9135.97
309.879	9125.81
309.945	9112.57
310.01	9107.37
310.076	9112.96
310.141	9108.48
310.207	9092.59
310.273	9095.86
310.338	9105.59
310.404	9096.1
310.469	9083.97
310.535	9069.91
310.601	9045.12
310.666	9043.15
310.732	9047.33
310.797	9031.3
310.863	9021.67
310.928	9009.73
310.994	9008.43
311.059	9005.69
311.125	9003.33
311.191	9010.26
311.256	9001.55
311.322	9008.39
311.387	8985.04
311.453	9248.98
311.518	9226.94
311.584	9225.54
311.649	9235.75
311.715	9222.51
311.78	9226.17
311.846	9214.42
311.911	9221.74
311.976	9222.8
312.042	9209.13
312.107	9196.47
312.173	9182.75
312.238	9180.68
312.304	9177.79
312.369	9168.55
312.434	9155.65
312.5	9144.91
312.565	9112.8
312.631	9112.47
312.696	9099.23
312.761	9103.08
312.827	8828.35
312.892	8858.63
312.958	8857.33
313.023	8852.32
313.088	8849.15
313.154	8833.12
313.219	8829.65
313.284	8824.26
313.35	8822.38
313.415	8813.33
313.48	8807.8
313.546	8816.75
313.611	8823.01
313.676	8810.4
313.741	8803.47
313.807	8815.45
313.872	8821.95
313.937	8833.65
314.003	8842.55
314.068	8849.73
314.133	8854.92
314.198	8842.07
314.264	8829.89
314.329	8818.63
314.394	8813.57
314.459	8812.85
314.525	8830.85
314.59	8825.56
314.655	8814.1
314.72	8815.74
314.785	8819.21
314.851	8814.97
314.916	8791.72
314.981	8770.59
315.046	8766.21
315.111	8751.58
315.176	8734.25
315.242	8737.67
315.307	8728.09
315.372	8711.68
315.437	8698.83
315.502	8684.2
315.567	8689.68
315.632	8672.88
315.698	8674.09
315.763	8670.57
315.828	8657.1
315.893	8649.25
315.958	8645.98
316.023	8629.23
316.088	8612.77
316.153	8587.61
316.218	8578.03
316.283	8566.15
316.348	8557.53
316.413	8556.04
316.479	8543.1
316.544	8513.12
316.609	8477.66
316.674	8447.82
316.739	8413.57
316.804	8384.32
316.869	8355.45
316.934	8322.49
316.999	8296.07
317.064	8243.88
317.129	8197.25
317.194	8170.26
317.259	8124.8
317.324	8074.06
317.389	8037.36
317.454	8001.18
317.518	7972.23
317.583	7949.72
317.648	7929.42
317.713	7890.85
317.778	7830.53
317.843	7802.64
317.908	7766.77
317.973	7736.66
318.038	7710.26
318.103	7671.99
318.168	7646.51
318.233	7616.41
318.297	7568.91
318.362	7527.42
318.427	7494.54
318.492	7472.38
318.557	7425.56
318.622	7399.41
318.687	7382.39
318.751	7341.69
318.816	7309
318.881	7277.33
318.946	7226.53
319.011	7183.22
319.075	7149.39
319.14	7118.88
319.205	7075.64
319.27	7039.61
319.335	6994.15
319.399	6953.65
319.464	6926.22
319.529	6873.19
319.594	6833.12
319.658	6807.66
319.723	6765.25
319.788	6741.38
319.853	6688.83
319.917	6657
319.982	6604.17
320.047	6563.26
320.112	6538.92
320.176	6489.22
320.241	6457.24
320.306	6426.37
320.37	6381.15
320.435	6345.72
320.5	6314.86
320.564	6280.15
320.629	6242.48
320.694	6207.69
320.758	6164.6
320.823	6127.55
320.888	6100.49
320.952	6053.95
321.017	6015.08
321.082	5980.16
321.146	5943.12
321.211	5911.17
321.275	5872.27
321.34	5829.84
321.405	5791.32
321.469	5747.39
321.534	5708.18
321.598	5653.99
321.663	5625.12
321.727	5596.97
321.792	5548.94
321.857	5507.61
321.921	5467.1
321.986	5423.98
322.05	5367.29
322.115	5334.66
322.179	5288.85
322.244	5233.75
322.308	5204.43
322.373	5158.38
322.437	5119.48
322.502	5096.33
322.566	5050.11
322.631	5012.47
322.695	4976.84
322.76	4930.49
322.824	4896.35
322.889	4857.04
322.953	4818.23
323.018	4754.11
323.082	4690.46
323.146	4644.29
323.211	4591.74
323.275	4548.05
323.34	4502.94
323.404	4470.28
323.468	4424.25
323.533	4383.5
323.597	4335.93
323.662	4284.46
323.726	4249.93
323.79	4199.24
323.855	4132.22
323.919	4082.31
323.983	4040.14
324.048	3973.69
324.112	4107.6
324.177	3982.7
324.241	3773.79
324.305	3570.18
324.37	3368.62
324.434	3178.83
324.498	3133.93
324.562	3084.79
324.627	3024.16
324.691	2971.99
324.755	2908.09
324.82	2832.25
324.884	2752.61
324.948	2683.86
325.012	2586.28
325.077	2458.99
