Data from 20250704_urea_0.5M_MAYP1162681_11-11-03-735.txt Node
Date: Fri Jul 04 11:11:03 BST 2025
User: adleo
Spectrometer: MAYP116268
Trigger mode: 0
Integration Time (sec): 1.000000E0
Scans to average: 1
Electric dark correction enabled: true
Nonlinearity correction enabled: true
Boxcar width: 10
XAxis mode: Wavelengths
Number of Pixels in Spectrum: 2068
>>>>>Begin Spectral Data<<<<<
179.565	1241.57
179.642	1297.22
179.718	1344.07
179.795	1389.15
179.871	1425.03
179.948	1443.01
180.024	1465.44
180.101	1488.16
180.177	1501.56
180.254	1522.74
180.33	1544.24
180.407	1601.41
180.483	1699.66
180.56	1791.83
180.636	1879.71
180.712	1867.02
180.789	1878.95
180.865	1894.25
180.942	1904.38
181.018	1916.02
181.095	1929.29
181.171	1934.28
181.248	1937.42
181.324	1950.93
181.4	1956.35
181.477	1963.91
181.553	1978.89
181.63	1999.81
181.706	2015.6
181.782	2025.53
181.859	2027.53
181.935	2033.86
182.011	2030.72
182.088	2047.84
182.164	2067.44
182.24	2078.38
182.317	2086.6
182.393	2083.23
182.469	2097.21
182.546	2110.62
182.622	2112.95
182.698	2107.82
182.775	2119.66
182.851	2131.36
182.927	2125.7
183.003	2121.04
183.08	2116.86
183.156	2126.75
183.232	2121.9
183.308	2110.24
183.385	2121.52
183.461	2140.07
183.537	2142.4
183.613	2154.77
183.69	2146.54
183.766	2135.97
183.842	2145.25
183.918	2153.58
183.995	2171.32
184.071	2176.17
184.147	2169.47
184.223	2159.29
184.299	2171.76
184.375	2163.19
184.452	2173.19
184.528	2225.92
184.604	2234.38
184.68	2247.23
184.756	2249.08
184.832	2254.41
184.908	2257.46
184.985	2254.03
185.061	2237.09
185.137	2245.47
185.213	2234.05
185.289	2232.2
185.365	2226.11
185.441	2223.44
185.517	2234.2
185.593	2227.82
185.669	2223.16
185.745	2236.29
185.822	2250.09
185.898	2241.76
185.974	2249.32
186.05	2239.52
186.126	2202.49
186.202	2198.83
186.278	2193.26
186.354	2186.08
186.43	2192.03
186.506	2194.21
186.582	2193.74
186.658	2197.78
186.734	2178.61
186.81	2181.94
186.886	2187.74
186.962	2199.97
187.038	2197.35
187.114	2187.5
187.19	2193.64
187.266	2185.36
187.341	2182.88
187.417	2179.93
187.493	2181.08
187.569	2185.22
187.645	2181.12
187.721	2167.04
187.797	2172.84
187.873	2178.31
187.949	2173.7
188.025	2167.42
188.101	2171.46
188.176	2175.32
188.252	2170.27
188.328	2175.98
188.404	2175.36
188.48	2165.52
188.556	2160.95
188.632	2162.76
188.707	2165.18
188.783	2162.47
188.859	2155.39
188.935	2142.63
189.011	2149.06
189.086	2141.69
189.162	2133.31
189.238	2130.36
189.314	2130.31
189.39	2123.65
189.465	2116.99
189.541	2133.98
189.617	2117.19
189.693	2109.01
189.768	2110.72
189.844	2138.23
189.92	2133.04
189.996	2142.23
190.071	2156.93
190.147	2153.74
190.223	2160.78
190.298	2150.74
190.374	2139.09
190.45	2151.88
190.526	2160.54
190.601	2155.59
190.677	2156.78
190.753	2181.67
190.828	2184.81
190.904	2197.99
190.98	2213.79
191.055	2223.07
191.131	2211.65
191.207	2234.29
191.282	2245.23
191.358	2240.86
191.433	2225.62
191.509	2236.89
191.585	2234.8
191.66	2236.85
191.736	2246.51
191.811	2237.28
191.887	2255.17
191.963	2277.11
192.038	2284.34
192.114	2288.24
192.189	2291.76
192.265	2291.81
192.34	2271.05
192.416	2271.39
192.491	2268.63
192.567	2270.82
192.642	2276.58
192.718	2278.43
192.793	2266.25
192.869	2262.11
192.944	2262.49
193.02	2270.11
193.095	2276.72
193.171	2279.29
193.246	2279.29
193.322	2274.82
193.397	2276.15
193.473	2262.06
193.548	2244.74
193.624	2249.4
193.699	2246.12
193.775	2261.21
193.85	2260.83
193.925	2272.77
194.001	2270.92
194.076	2259.5
194.152	2251.36
194.227	2240.17
194.302	2230.38
194.378	2232.99
194.453	2230.28
194.529	2242.23
194.604	2226.76
194.679	2216.34
194.755	2200.12
194.83	2210.88
194.905	2207.22
194.981	2215.74
195.056	2210.74
195.131	2215.4
195.207	2211.55
195.282	2205.22
195.357	2188.75
195.433	2206.4
195.508	2194.17
195.583	2199.59
195.659	2218.49
195.734	2222.53
195.809	2221.39
195.884	2234.23
195.96	2234.85
196.035	2249.6
196.11	2245.22
196.185	2261.12
196.261	2265.97
196.336	2295.57
196.411	2282.1
196.486	2286.62
196.561	2280.19
196.637	2286.85
196.712	2305.85
196.787	2311.75
196.862	2322.03
196.937	2330.02
197.013	2333.26
197.088	2343.02
197.163	2365.54
197.238	2381.45
197.313	2381.88
197.388	2399.39
197.464	2427.3
197.539	2438.58
197.614	2434.96
197.689	2449.44
197.764	2463.96
197.839	2487.24
197.914	2481.43
197.989	2504.91
198.065	2520.14
198.14	2572.22
198.215	2602.08
198.29	2612.28
198.365	2623.8
198.44	2638.95
198.515	2666.19
198.59	2680.53
198.665	2707.69
198.74	2717.46
198.815	2717.41
198.89	2744.13
198.965	2774.49
199.04	2769.4
199.115	2789.36
199.19	2829.71
199.265	2829.19
199.34	2838.67
199.415	2870.09
199.49	2892.72
199.565	2902.02
199.64	2924.6
199.715	2921.84
199.79	2927.37
199.865	2934.18
199.94	2933.37
200.015	2966.42
200.09	2972.18
200.165	2980.57
200.24	2985.82
200.315	3026.71
200.39	3043.83
200.464	3045.59
200.539	3046.26
200.614	3064.09
200.689	3083.98
200.764	3090.75
200.839	3113.05
200.914	3119.01
200.989	3108.76
201.063	3123.4
201.138	3106.43
201.213	3111.68
201.288	3092.75
201.363	3096.13
201.438	3096.61
201.512	3113.2
201.587	3091.73
201.662	3095.88
201.737	3109.09
201.812	3117.49
201.886	3084.7
201.961	3095.2
202.036	3087.62
202.111	3081.13
202.186	3052.01
202.26	3034.42
202.335	3014.15
202.41	3004.66
202.485	2987.88
202.559	2968.2
202.634	2941.93
202.709	2952.12
202.784	2932.29
202.858	2929.19
202.933	2911.65
203.008	2904.22
203.082	2881.68
203.157	2881.1
203.232	2839.04
203.306	2817.15
203.381	2782.83
203.456	2758.19
203.53	2736.68
203.605	2714.63
203.68	2693.8
203.754	2689.23
203.829	2673.36
203.904	2653.5
203.978	2644.16
204.053	2650.4
204.127	2639.35
204.202	2639.07
204.277	2620.2
204.351	2611.01
204.426	2605.96
204.5	2596.86
204.575	2562.11
204.65	2571.49
204.724	2564.63
204.799	2568.58
204.873	2562.86
204.948	2563.96
205.022	2552.86
205.097	2543.71
205.171	2558.9
205.246	2567.15
205.32	2563.19
205.395	2565.39
205.469	2555.2
205.544	2560.25
205.618	2540.2
205.693	2553.15
205.767	2536.77
205.842	2557.64
205.916	2550.16
205.991	2542.54
206.065	2550.73
206.14	2567.29
206.214	2569.49
206.289	2563.67
206.363	2583.15
206.438	2587.63
206.512	2593.73
206.586	2614.73
206.661	2623.21
206.735	2598.74
206.81	2602.32
206.884	2619.84
206.958	2607.98
207.033	2627.69
207.107	2635.65
207.181	2669.15
207.256	2663.86
207.33	2690.39
207.405	2706.75
207.479	2736.62
207.553	2747.1
207.628	2735.43
207.702	2753.1
207.776	2750.86
207.851	2760.77
207.925	2785.81
207.999	2792.48
208.073	2804.15
208.148	2819.27
208.222	2819.55
208.296	2869.48
208.371	2900.01
208.445	2934.1
208.519	2983.05
208.593	3018.1
208.668	3040.9
208.742	3071.64
208.816	3098.19
208.89	3138.99
208.965	3169.68
209.039	3210.3
209.113	3267.52
209.187	3330.94
209.261	3371.73
209.336	3435.59
209.41	3506.78
209.484	3556.08
209.558	3634.27
209.632	3705.28
209.707	3777.32
209.781	3867.67
209.855	3951.22
209.929	4034.88
210.003	4112.24
210.077	4188.41
210.151	4318.65
210.226	4436.09
210.3	4554.51
210.374	4673.19
210.448	4776.89
210.522	4889.86
210.596	5002.46
210.67	5113.44
210.744	5272.01
210.818	5419.51
210.892	5565.79
210.966	5683.71
211.041	5822.54
211.115	5945.74
211.189	6100.89
211.263	6253.05
211.337	6393.67
211.411	6555.05
211.485	6697.83
211.559	6857.59
211.633	7019.89
211.707	7142.36
211.781	7311.63
211.855	7432.82
211.929	7586.65
212.003	7732.92
212.077	7909.53
212.151	8091.44
212.225	8272.72
212.299	8440.07
212.373	8598.36
212.447	8765.86
212.52	8975.38
212.594	9161.1
212.668	9362.48
212.742	9532.93
212.816	9715.64
212.89	9903.31
212.964	10091.85
213.038	10287.33
213.112	10490.43
213.186	10693.83
213.26	10865.34
213.333	11009.85
213.407	11209.85
213.481	11407.8
213.555	11615.48
213.629	11802.82
213.703	11984.04
213.777	12182.71
213.85	12355.46
213.924	12592.51
213.998	12785.7
214.072	12970.56
214.146	13144.91
214.219	13326.45
214.293	13512.61
214.367	13701.24
214.441	13891.98
214.515	14065.71
214.588	14228.16
214.662	14379.86
214.736	14539.66
214.81	14729.77
214.883	14919.07
214.957	15083.01
215.031	15244.06
215.105	15390.74
215.178	15546.28
215.252	15715.47
215.326	15860.79
215.4	16005.58
215.473	16121.93
215.547	16272.98
215.621	16417.42
215.694	16583.94
215.768	16714.12
215.842	16859.43
215.915	17003.39
215.989	17124.84
216.063	17247.98
216.136	17388.22
216.21	17530.73
216.284	17678.49
216.357	17812.75
216.431	17945.62
216.504	18092.12
216.578	18252.02
216.652	18397.42
216.725	18523.72
216.799	18643.57
216.873	18762.94
216.946	18881.92
217.02	18987.99
217.093	19099.5
217.167	19190.78
217.24	19290.77
217.314	19396.21
217.387	19490.28
217.461	19575.24
217.535	19688.1
217.608	19791.23
217.682	19884
217.755	19990.6
217.829	20076.38
217.902	20173.15
217.976	20254.3
218.049	20330.64
218.123	20402.21
218.196	20492.76
218.27	20564.86
218.343	20635.03
218.417	20717.06
218.49	20805.64
218.563	20904.34
218.637	20979.05
218.71	21077.51
218.784	21154.92
218.857	21246.54
218.931	21332.57
219.004	21419.72
219.077	21494.33
219.151	21565.81
219.224	21646.64
219.298	21698.84
219.371	21777.41
219.444	21825.81
219.518	21896.37
219.591	21965.21
219.665	22046
219.738	22108.86
219.811	22169.79
219.885	22240.9
219.958	22312.58
220.031	22358.95
220.105	22412.76
220.178	22475.04
220.251	22511.25
220.325	22561.58
220.398	22607.33
220.471	22649.52
220.544	22692.13
220.618	22730.46
220.691	22774.09
220.764	22813
220.838	22869.51
220.911	22899.5
220.984	22946.89
221.057	22997.52
221.131	23030.59
221.204	23039.27
221.277	23073.89
221.35	23118.93
221.424	23131.37
221.497	23153.02
221.57	23177.37
221.643	23208.18
221.716	23233.83
221.79	23249.12
221.863	23264.12
221.936	23279.98
222.009	23299.84
222.082	23324.29
222.155	23334.71
222.229	23367.65
222.302	23372.61
222.375	23373.62
222.448	23390.12
222.521	23414.18
222.594	23408.25
222.667	23408.44
222.74	23418.91
222.814	23427.59
222.887	23439.3
222.96	23466.65
223.033	23478.46
223.106	23486.32
223.179	23495.48
223.252	23486.76
223.325	23504.94
223.398	23514.44
223.471	23520.46
223.544	23525.67
223.617	23527.65
223.69	23536.81
223.763	23509.76
223.837	23522.25
223.91	23535.32
223.983	23515.88
224.056	23492.2
224.129	23495.53
224.202	23497.75
224.275	23489.84
224.348	23472.29
224.42	23443.11
224.493	23411.14
224.566	23398.31
224.639	23401.06
224.712	23386.21
224.785	23374.11
224.858	23353.66
224.931	23333.02
225.004	23312.24
225.077	23292.85
225.15	23248.01
225.223	23227.66
225.296	23241.02
225.369	23207.46
225.442	23177.22
225.514	23162.81
225.587	23161.75
225.66	23149.74
225.733	23138.74
225.806	23120.37
225.879	23100.46
225.952	23079.44
226.025	23069.55
226.097	23052.82
226.17	23025.19
226.243	22980.79
226.316	22963.52
226.389	22950.17
226.461	22936.47
226.534	22929.68
226.607	22908.99
226.68	22909.23
226.753	22898.34
226.825	22857.21
226.898	22861.59
226.971	22834.84
227.044	22827.75
227.117	22793.52
227.189	22774.57
227.262	22757.02
227.335	22737.49
227.407	22714.59
227.48	22692.42
227.553	22672.5
227.626	22646.71
227.698	22624.34
227.771	22618.84
227.844	22590.93
227.916	22573
227.989	22536.6
228.062	22504.05
228.134	22499.43
228.207	22473.1
228.28	22439.5
228.352	22417.76
228.425	22388.21
228.498	22382.04
228.57	22344.92
228.643	22332.62
228.716	22294.78
228.788	22263.78
228.861	22234.13
228.934	22214.37
229.006	22197.02
229.079	22176.82
229.151	22154.74
229.224	22116.08
229.296	22079.83
229.369	22073.13
229.442	22061.65
229.514	22030.56
229.587	22015.48
229.659	21973.44
229.732	21958.31
229.804	21936.04
229.877	21928.27
229.949	21917.91
230.022	21907.45
230.094	21877.18
230.167	21852.11
230.239	21823.53
230.312	21798.37
230.384	21803.53
230.457	21781.64
230.529	21750.84
230.602	21727.03
230.674	21693.29
230.747	21686.54
230.819	21676.37
230.892	21623.01
230.964	21586.09
231.037	21570.81
231.109	21543.05
231.181	21532.59
231.254	21490.85
231.326	21476.97
231.399	21448.58
231.471	21404.28
231.544	21356.61
231.616	21347.31
231.688	21326.39
231.761	21294.39
231.833	21263.68
231.905	21210.23
231.978	21180.88
232.05	21163.82
232.122	21135.38
232.195	21104.49
232.267	21091.76
232.339	21060.92
232.412	21055.28
232.484	21028.77
232.556	20990.79
232.629	20986.74
232.701	20960.72
232.773	20929.44
232.846	20896.09
232.918	20863.27
232.99	20834.54
233.062	20809.43
233.135	20779.99
233.207	20733.91
233.279	20724.61
233.351	20702.15
233.424	20674.01
233.496	20634.35
233.568	20616.8
233.64	20575.55
233.713	20551.5
233.785	20510.92
233.857	20474.78
233.929	20423.11
234.001	20415.21
234.074	20403.26
234.146	20339.11
234.218	20304.99
234.29	20281.14
234.362	20231.89
234.434	20182.01
234.507	20130.88
234.579	20087.7
234.651	20051.6
234.723	20026.4
234.795	19986.45
234.867	19941.2
234.939	19915.8
235.012	19893.15
235.084	19857.63
235.156	19837.87
235.228	19794.65
235.3	19753.35
235.372	19722.99
235.444	19698.94
235.516	19627.04
235.588	19593.59
235.66	19565.16
235.732	19510.47
235.804	19531.62
235.876	19514.52
235.948	19496.11
236.02	19476.78
236.092	19450.42
236.164	19412.02
236.236	19371.05
236.308	19341.51
236.38	19312.41
236.452	19271.3
236.524	19236.51
236.596	19221.86
236.668	19192.37
236.74	19166.63
236.812	19137.48
236.884	19114.83
236.956	19081.72
237.028	19041.48
237.1	18995.7
237.172	18983.75
237.244	18978.31
237.316	18913.06
237.388	18869.01
237.46	18827.57
237.532	18800.68
237.604	18747.14
237.675	18731.19
237.747	18709.36
237.819	18658.76
237.891	18627.87
237.963	18589.12
238.035	18551.49
238.107	18481.52
238.178	18464.07
238.25	18427.45
238.322	18418.05
238.394	18362.29
238.466	18331.26
238.538	18310.78
238.609	18277.38
238.681	18211.02
238.753	18162.35
238.825	18114.59
238.897	18081.49
238.968	18067.9
239.04	18022.94
239.112	18028.04
239.184	17981.73
239.255	17943.08
239.327	17914.12
239.399	17881.11
239.471	17853.4
239.542	17821.93
239.614	17798.94
239.686	17732.05
239.758	17703.43
239.829	17651.67
239.901	17639.77
239.973	17595.67
240.044	17563.24
240.116	17534.51
240.188	17505.6
240.259	17462.22
240.331	17430.95
240.403	17392.34
240.474	17332.34
240.546	17292.63
240.618	17227.33
240.689	17182.22
240.761	17152.1
240.833	17136.87
240.904	17107.52
240.976	17070.46
241.048	17036.92
241.119	17007.08
241.191	16985.01
241.262	16966.75
241.334	16926.02
241.405	16880.04
241.477	16845.49
241.549	16800.67
241.62	16769
241.692	16743.12
241.763	16736.13
241.835	16696.85
241.906	16685.05
241.978	16645.67
242.049	16624.32
242.121	16611.5
242.192	16604.46
242.264	16560.8
242.335	16506.77
242.407	16479.25
242.478	16445.51
242.55	16423.87
242.621	16383.58
242.693	16336.39
242.764	16296.48
242.836	16262.65
242.907	16241.59
242.979	16221.39
243.05	16198.64
243.122	16171.65
243.193	16137.62
243.264	16075.06
243.336	16043.01
243.407	16018.57
243.479	16012.84
243.55	15992.64
243.622	15964.69
243.693	15927.43
243.764	15910.61
243.836	15877.74
243.907	15837.83
243.978	15805.58
244.05	15776.9
244.121	15734
244.192	15718.68
244.264	15675.1
244.335	15648.16
244.407	15602.56
244.478	15573.21
244.549	15546.74
244.62	15499.46
244.692	15466.39
244.763	15454.15
244.834	15417.03
244.906	15365.6
244.977	15328.92
245.048	15303.33
245.119	15254.02
245.191	15211.65
245.262	15154.19
245.333	15138.19
245.405	15111.19
245.476	15091.19
245.547	15057.01
245.618	15034.74
245.689	15004.13
245.761	14983.02
245.832	14951.64
245.903	14926.57
245.974	14891.24
246.045	14855.52
246.117	14848.15
246.188	14808.91
246.259	14762.68
246.33	14732.07
246.401	14698.62
246.473	14653.74
246.544	14616.77
246.615	14601.49
246.686	14566.78
246.757	14564.46
246.828	14516.79
246.899	14501.32
246.97	14446.6
247.042	14412.86
247.113	14394.2
247.184	14389.91
247.255	14350.92
247.326	14328.16
247.397	14295.58
247.468	14275.96
247.539	14247.47
247.61	14204.71
247.681	14183.21
247.752	14168.26
247.823	14134.42
247.894	14114.32
247.965	14078.46
248.037	14038.06
248.108	13991.69
248.179	13968.45
248.25	13930.99
248.321	13918.36
248.392	13875.07
248.463	13878.59
248.534	13843.45
248.605	13821.23
248.675	13780.49
248.746	13763.38
248.817	13739.62
248.888	13720.57
248.959	13679.79
249.03	13664.17
249.101	13644.26
249.172	13618.71
249.243	13571.13
249.314	13570.7
249.385	13548.57
249.456	13538.35
249.527	13521.82
249.598	13506.01
249.669	13478.58
249.739	13457.99
249.81	13437.94
249.881	13408.15
249.952	13383.8
250.023	13365.73
250.094	13325.14
250.165	13293.32
250.235	13262.23
250.306	13233.64
250.377	13201
250.448	13181.67
250.519	13134.04
250.59	13120.88
250.66	13094.66
250.731	13089.12
250.802	13057.78
250.873	13038.21
250.944	13016.18
251.014	12986.87
251.085	12987.16
251.156	12971.45
251.227	12963.59
251.297	12953.95
251.368	12937.36
251.439	12920.59
251.51	12911.04
251.58	12888.58
251.651	12862.26
251.722	12849.92
251.792	12817.52
251.863	12792.84
251.934	12790.48
252.005	12797.52
252.075	12768.35
252.146	12758.42
252.217	12755.19
252.287	12737.7
252.358	12715.81
252.429	12716.82
252.499	12684.96
252.57	12665.77
252.641	12651.36
252.711	12628.56
252.782	12589.56
252.852	12582.81
252.923	12559.34
252.994	12542.18
253.064	12534.22
253.135	12503.23
253.205	12477.87
253.276	12472.81
253.347	12473.53
253.417	12440.13
253.488	12420.17
253.558	12401.81
253.629	12384.6
253.699	12364.3
253.77	12355.14
253.841	12329.6
253.911	12306.8
253.982	12293.83
254.052	12282.36
254.123	12263.36
254.193	12239.55
254.264	12260.52
254.334	12233.38
254.405	12204.27
254.475	12171.15
254.546	12141.8
254.616	12138.62
254.687	12125.27
254.757	12113.46
254.827	12083.28
254.898	12067.28
254.968	12046.07
255.039	12024.57
255.109	12007.7
255.18	11973.91
255.25	11931.35
255.321	11922.87
255.391	11886.81
255.461	11896.12
255.532	11848.78
255.602	11829.89
255.673	11794.8
255.743	11763.81
255.813	11720.19
255.884	11713.05
255.954	11700.04
256.024	11705.44
256.095	11689.92
256.165	11657.63
256.235	11642.78
256.306	11622.44
256.376	11620.03
256.446	11610.97
256.517	11597.57
256.587	11589.52
256.657	11576.7
256.728	11557.33
256.798	11541.71
256.868	11523.2
256.938	11492.94
257.009	11487.92
257.079	11479.05
257.149	11488.12
257.219	11444.02
257.29	11438.04
257.36	11395.15
257.43	11393.7
257.5	11351.19
257.571	11335
257.641	11326.9
257.711	11297.17
257.781	11289.94
257.852	11273.79
257.922	11236.73
257.992	11222.56
258.062	11202.08
258.132	11201.64
258.202	11190.18
258.273	11169.6
258.343	11172.92
258.413	11146.13
258.483	11125.5
258.553	11098.08
258.623	11074.18
258.693	11061.94
258.764	11056.35
258.834	11061.31
258.904	11039.43
258.974	11015.92
259.044	10989.41
259.114	10974.38
259.184	10960.45
259.254	10937.37
259.324	10898.38
259.394	10882.62
259.464	10878
259.535	10860.65
259.605	10830.82
259.675	10802.92
259.745	10792.99
259.815	10761
259.885	10739.31
259.955	10755.84
260.025	10730.16
260.095	10714.5
260.165	10711.51
260.235	10714.94
260.305	10695.37
260.375	10665.16
260.445	10673.5
260.515	10667.47
260.585	10669.93
260.655	10653.55
260.725	10647.33
260.795	10642.66
260.865	10652.01
260.934	10628.97
261.004	10621.79
261.074	10613.12
261.144	10622.71
261.214	10619.53
261.284	10603.87
261.354	10604.83
261.424	10579.87
261.494	10584.78
261.564	10569.99
261.634	10560.26
261.703	10532.99
261.773	10523.64
261.843	10520.7
261.913	10503.65
261.983	10481.77
262.053	10471.46
262.123	10462.93
262.192	10439.13
262.262	10430.12
262.332	10397.17
262.402	10386.33
262.472	10372.45
262.541	10334.64
262.611	10334.83
262.681	10309.39
262.751	10307.61
262.821	10289.49
262.89	10256.34
262.96	10249.21
263.03	10255.04
263.1	10245.75
263.169	10232.11
263.239	10218.09
263.309	10223.3
263.379	10213.76
263.448	10200.32
263.518	10186.01
263.588	10169.58
263.657	10170.74
263.727	10168.18
263.797	10160.57
263.867	10146.89
263.936	10115.48
264.006	10118.86
264.076	10093.95
264.145	10076.51
264.215	10055.36
264.285	10045.3
264.354	10012.59
264.424	9984.56
264.494	9954.06
264.563	9935.47
264.633	9937.01
264.702	9932.48
264.772	9901.12
264.842	9886.28
264.911	9881.23
264.981	9856.47
265.05	9845.87
265.12	9831.76
265.19	9821.01
265.259	9811.19
265.329	9806.03
265.398	9798.33
265.468	9809.12
265.537	9787.93
265.607	9773.91
265.676	9771.02
265.746	9760.47
265.815	9764.86
265.885	9754.74
265.955	9732.3
266.024	9717.9
266.094	9679.08
266.163	9675.66
266.232	9678.45
266.302	9662.8
266.371	9655.39
266.441	9639.2
266.51	9630.92
266.58	9608.19
266.649	9583.63
266.719	9591.04
266.788	9574.14
266.858	9577.7
266.927	9538.98
266.996	9534.31
267.066	9537.63
267.135	9509.99
267.205	9511.63
267.274	9501.37
267.343	9503.15
267.413	9498.53
267.482	9493.19
267.552	9498.1
267.621	9474.69
267.69	9439.1
267.76	9436.46
267.829	9421.86
267.898	9414.02
267.968	9395.91
268.037	9394.22
268.106	9392.11
268.176	9362.78
268.245	9354.3
268.314	9336.97
268.384	9342.26
268.453	9330.37
268.522	9320.11
268.592	9322.9
268.661	9306.15
268.73	9301.19
268.799	9282.6
268.869	9285.25
268.938	9262.14
269.007	9247.84
269.076	9233.2
269.146	9235.94
269.215	9229.68
269.284	9235.56
269.353	9216.73
269.422	9200.22
269.492	9181.74
269.561	9144.81
269.63	9143.36
269.699	9131.42
269.768	9126.32
269.838	9118.42
269.907	9116.69
269.976	9087.47
270.045	9062.53
270.114	9058.87
270.183	9042.17
270.253	9035.23
270.322	9008.76
270.391	8995.18
270.46	9004.38
270.529	9013.09
270.598	9011.69
270.667	8993.98
270.736	8969.28
270.806	8970.87
270.875	8976.45
270.944	8973.52
271.013	8997.15
271.082	8982.85
271.151	8976.45
271.22	8949.59
271.289	8941.21
271.358	8930.24
271.427	8935.24
271.496	8926.24
271.565	8915.36
271.634	8909.3
271.703	8932.99
271.772	8931.11
271.841	8923.36
271.91	8898.47
271.979	8886.97
272.048	8863.72
272.117	8869.01
272.186	8857.99
272.255	8856.45
272.324	8859
272.393	8856.16
272.462	8842.44
272.531	8840.61
272.6	8832.33
272.669	8839.93
272.738	8823.14
272.807	8820.1
272.876	8797.1
272.945	8821.65
273.013	8814.33
273.082	8824.24
273.151	8779.47
273.22	8783.85
273.289	8776.97
273.358	8789.92
273.427	8781.79
273.496	8782.51
273.564	8773.8
273.633	8779.38
273.702	8758.59
273.771	8744.05
273.84	8740.39
273.909	8734.23
273.977	8722.97
274.046	8712.09
274.115	8712.33
274.184	8700.69
274.253	8695.82
274.322	8702.95
274.39	8672.82
274.459	8664.39
274.528	8636.43
274.597	8632.87
274.665	8628.3
274.734	8631.76
274.803	8614.43
274.872	8603.08
274.94	8591.48
275.009	8646.61
275.078	8628.81
275.147	8629.05
275.215	8618.7
275.284	8618.46
275.353	8610.9
275.421	8590.16
275.49	8605.47
275.559	8594.83
275.627	8586.08
275.696	8576.98
275.765	8577.36
275.833	8568.46
275.902	8568.8
275.971	8575.06
276.039	8591.56
276.108	8590.07
276.177	8595.03
276.245	8590.07
276.314	8585.64
276.383	8588.68
276.451	8530.7
276.52	8533.45
276.588	8541.77
276.657	8555.78
276.725	8549.95
276.794	8553.37
276.863	8568.53
276.931	8545.09
277	8551.54
277.068	8568.23
277.137	8588.54
277.205	8585.8
277.274	8605.82
277.342	8613.62
277.411	8596.49
277.48	8577.77
277.548	8569.1
277.617	8570.64
277.685	8561.36
277.754	8564.05
277.822	8555.34
277.89	8567.18
277.959	8564.01
278.027	8551.5
278.096	8536.34
278.164	8561.8
278.233	8550.15
278.301	8536.39
278.37	8542.93
278.438	8534.46
278.507	8533.31
278.575	8503.28
278.643	8501.21
278.712	8485.47
278.78	8468.34
278.849	8480.32
278.917	8489.99
278.985	8490.72
279.054	8487.92
279.122	8499.04
279.191	8496.1
279.259	8497.69
279.327	8475.36
279.396	8493.84
279.464	8486.38
279.532	8493.74
279.601	8484.69
279.669	8480.99
279.737	8498.22
279.806	8499.42
279.874	8505.19
279.942	8503.12
280.011	8498.75
280.079	8507.65
280.147	8523.53
280.215	8535.03
280.284	8529.69
280.352	8520.11
280.42	8521.94
280.488	8519.58
280.557	8513.42
280.625	8516.99
280.693	8515.21
280.761	8518.04
280.83	8500.14
280.898	8517.08
280.966	8506.59
281.034	8476.61
281.102	8460.2
281.171	8456.74
281.239	8464.01
281.307	8454.91
281.375	8440
281.443	8471.56
281.512	8465.55
281.58	8473.78
281.648	8453.47
281.716	8453.04
281.784	8455.93
281.852	8453.47
281.92	8446.49
281.989	8455.98
282.057	8439.18
282.125	8479.47
282.193	8474.27
282.261	8471.77
282.329	8465.22
282.397	8462.77
282.465	8472.39
282.533	8490.58
282.601	8474.7
282.67	8452.56
282.738	8447.08
282.806	8460.12
282.874	8438.99
282.942	8443.13
283.01	8433.07
283.078	8441.73
283.146	8445.05
283.214	8447.07
283.282	8449.91
283.35	8463.1
283.418	8457.18
283.486	8471.23
283.554	8434.26
283.622	8439.84
283.69	8441.24
283.758	8435.46
283.826	8441.91
283.894	8451.15
283.962	8470.93
284.03	8489.89
284.098	8494.36
284.165	8492.25
284.233	8494.27
284.301	8492.63
284.369	8482.19
284.437	8474.92
284.505	8467.9
284.573	8480.75
284.641	8470.74
284.709	8472.61
284.777	8457.99
284.845	8465.4
284.912	8465.11
284.98	8471.8
285.048	8465.16
285.116	8471.75
285.184	8486.42
285.252	8487.96
285.319	8470.02
285.387	8459.76
285.455	8439.41
285.523	8446.92
285.591	8443.31
285.659	8444.66
285.726	8453.13
285.794	8441.24
285.862	8439.37
285.93	8440.91
285.997	8434.12
286.065	8433.98
286.133	8425.94
286.201	8419.15
286.269	8402.65
286.336	8398.66
286.404	8392.93
286.472	8403.8
286.539	8385.28
286.607	8366.85
286.675	8362.23
286.743	8373.44
286.81	8369.79
286.878	8389.61
286.946	8382.68
287.013	8387.35
287.081	8382.63
287.149	8369.16
287.216	8392.21
287.284	8391.34
287.352	8392.49
287.419	8383.16
287.487	8400.24
287.555	8399.33
287.622	8407.46
287.69	8419.06
287.758	8431.86
287.825	8427.19
287.893	8408.71
287.96	8412.95
288.028	8425.6
288.096	8433.16
288.163	8433.73
288.231	8424.93
288.298	8420.88
288.366	8434.89
288.433	8430.17
288.501	8426.61
288.569	8433.97
288.636	8429.11
288.704	8440.33
288.771	8446.97
288.839	8448.27
288.906	8441.58
288.974	8458.47
289.041	8453.99
289.109	8446.63
289.176	8452.17
289.244	8449.81
289.311	8476.52
289.379	8492.78
289.446	8497.26
289.514	8496.1
289.581	8499.33
289.649	8502.07
289.716	8504.33
289.783	8499.04
289.851	8520.64
289.918	8522.47
289.986	8527.04
290.053	8531.18
290.121	8522.47
290.188	8524.35
290.255	8555.15
290.323	8550.77
290.39	8543.69
290.458	8552.98
290.525	8567.61
290.592	8560.92
290.66	8576.41
290.727	8560.2
290.794	8574.54
290.862	8573.24
290.929	8578.44
290.996	8575.69
291.064	8586.33
291.131	8596.44
291.198	8604.52
291.266	8599.85
291.333	8602.21
291.4	8613.09
291.468	8629.02
291.535	8627.48
291.602	8636.58
291.669	8629.02
291.737	8631.95
291.804	8629.35
291.871	8639.03
291.938	8645.57
292.006	8676.67
292.073	8682.16
292.14	8696.21
292.207	8685.53
292.275	8686.87
292.342	8692.55
292.409	8722.54
292.476	8745.69
292.543	8739.97
292.611	8741.99
292.678	8759.27
292.745	8785.69
292.812	8792.72
292.879	8785.21
292.946	8795.8
293.014	8809.37
293.081	8819.57
293.148	8832.33
293.215	8850.76
293.282	8850.57
293.349	8856.64
293.416	8834.11
293.484	8852.49
293.551	8862.7
293.618	8876.27
293.685	8905.4
293.752	8906.69
293.819	8903.37
293.886	8892.2
293.953	8902.89
294.02	8915.94
294.087	8925.47
294.154	8913.34
294.221	8925.18
294.288	8925.76
294.356	8943.86
294.423	8949.25
294.49	8941.06
294.557	8956.57
294.624	8951.75
294.691	8973.12
294.758	8973.27
294.825	8987.09
294.892	8973.17
294.959	8971.87
295.026	8983.28
295.093	8978.32
295.16	8977.51
295.226	8973.12
295.293	8996.04
295.36	9000.28
295.427	9011.78
295.494	9029.22
295.561	9042.69
295.628	9067.54
295.695	9088.29
295.762	9093.97
295.829	9101.15
295.896	9112.51
295.963	9124.78
296.03	9131.52
296.096	9131.48
296.163	9138.41
296.23	9146.64
296.297	9160.75
296.364	9164.89
296.431	9166.72
296.498	9163.01
296.564	9185.25
296.631	9191.32
296.698	9180.39
296.765	9198.2
296.832	9184.86
296.899	9163.73
296.965	9184.24
297.032	9168.63
297.099	9181.35
297.166	9188.76
297.233	9189.53
297.299	9190.21
297.366	9186.5
297.433	9186.59
297.5	9199.74
297.566	9208.79
297.633	9206.14
297.7	9213.61
297.767	9210.33
297.833	9222.61
297.9	9226.94
297.967	9213.66
298.033	9226.75
298.1	9255.79
298.167	9245.24
298.234	9251.65
298.3	9269.94
298.367	9259.54
298.434	9269.27
298.5	9263.64
298.567	9259.26
298.634	9253.86
298.7	9265.03
298.767	9268.11
298.834	9289.3
298.9	9284.58
298.967	9272.11
299.033	9290.6
299.1	9305.53
299.167	9323.1
299.233	9310.34
299.3	9319.68
299.366	9336.29
299.433	9352.19
299.5	9328.54
299.566	9332.15
299.633	9353.73
299.699	9356.57
299.766	9356.86
299.832	9353.87
299.899	9362.2
299.965	9375.54
300.032	9376.6
300.099	9381.99
300.165	9391.72
300.232	9385.07
300.298	9385.89
300.365	9406.45
300.431	9402.79
300.498	9397.64
300.564	9408.43
300.631	9419.93
300.697	9437.32
300.763	9435.54
300.83	9433.51
300.896	9444.64
300.963	9460.43
301.029	9459.61
301.096	9466.84
301.162	9477.33
301.229	9471.46
301.295	9460.14
301.361	9463.27
301.428	9462.07
301.494	9452.78
301.561	9450.32
301.627	9459.76
301.693	9464.62
301.76	9464.86
301.826	9456.96
301.892	9462.98
301.959	9461.93
302.025	9461.35
302.092	9454.32
302.158	9462.12
302.224	9464.91
302.291	9450.9
302.357	9446.52
302.423	9440.74
302.49	9433.95
302.556	9449.21
302.622	9454.03
302.688	9463.08
302.755	9476.23
302.821	9490.29
302.887	9502.86
302.954	9499.82
303.02	9509.89
303.086	9520.53
303.152	9525.3
303.219	9528.86
303.285	9540.76
303.351	9549.81
303.417	9548.27
303.483	9546.54
303.55	9541.1
303.616	9538.11
303.682	9545
303.748	9534.26
303.815	9554.1
303.881	9562.19
303.947	9549.09
304.013	9548.42
304.079	9545.1
304.145	9525.01
304.212	9523.91
304.278	9515.53
304.344	9515.91
304.41	9493.42
304.476	9474.64
304.542	9469.59
304.608	9470.4
304.674	9448.44
304.741	9440.35
304.807	9448.68
304.873	9454.8
304.939	9466.26
305.005	9448.68
305.071	9452.54
305.137	9460.29
305.203	9429.56
305.269	9425.66
305.335	9437.03
305.401	9435.44
305.467	9429.03
305.533	9441.07
305.599	9449.36
305.666	9455.23
305.732	9453.45
305.798	9469.87
305.864	9498.72
305.93	9501.17
305.996	9506.04
306.062	9506.13
306.128	9502.57
306.194	9493.28
306.259	9481.33
306.325	9474.74
306.391	9486.15
306.457	9490.82
306.523	9492.94
306.589	9523.52
306.655	9515.48
306.721	9495.93
306.787	9486.92
306.853	9510.04
306.919	9488.61
306.985	9479.22
307.051	9472.52
307.117	9467.23
307.183	9460.44
307.248	9431.83
307.314	9433.42
307.38	9426.39
307.446	9429.28
307.512	9419.17
307.578	9424.32
307.644	9424.46
307.709	9424.65
307.775	9418.44
307.841	9413.34
307.907	9411.7
307.973	9388.73
308.039	9394.51
308.104	9403.42
308.17	9398.75
308.236	9376.74
308.302	9385.4
308.368	9372.88
308.433	9371.78
308.499	9364.31
308.565	9351.46
308.631	9358.49
308.696	9334.75
308.762	9329.07
308.828	9329.93
308.894	9317.85
308.959	9291.85
309.025	9285.69
309.091	9281.69
309.156	9277.74
309.222	9277.45
309.288	9266.14
309.354	9244.52
309.419	9233.73
309.485	9211.78
309.551	9219.48
309.616	9207.01
309.682	9198.49
309.748	9193.77
309.813	9190.11
309.879	9182.84
309.945	9174.17
310.01	9162.81
310.076	9165.7
310.141	9160.88
310.207	9141.91
310.273	9145.19
310.338	9156.21
310.404	9133.1
310.469	9119.19
310.535	9104.41
310.601	9082.07
310.666	9088.28
310.732	9100.12
310.797	9088.9
310.863	9081.92
310.928	9073.21
310.994	9079.28
311.059	9075.95
311.125	9075.67
311.191	9085.58
311.256	9074.9
311.322	9081.01
311.387	9054.01
311.453	9435.46
311.518	9410.29
311.584	9416.07
311.649	9418.96
311.715	9399.46
311.78	9409.04
311.846	9404.66
311.911	9415.59
311.976	9419.58
312.042	9405.43
312.107	9388.96
312.173	9381.5
312.238	9380.2
312.304	9373.32
312.369	9367.73
312.434	9353.19
312.5	9346.6
312.565	9311.12
312.631	9319.73
312.696	9312.61
312.761	9323.87
312.827	8928.84
312.892	8965.04
312.958	8956.13
313.023	8948.43
313.088	8953.63
313.154	8935.05
313.219	8926.05
313.284	8909.1
313.35	8906.31
313.415	8892.98
313.48	8888.5
313.546	8891.2
313.611	8903.04
313.676	8894.23
313.741	8878.44
313.807	8885.03
313.872	8885.27
313.937	8888.26
314.003	8900.44
314.068	8898.8
314.133	8902.75
314.198	8896.3
314.264	8872.8
314.329	8861.11
314.394	8864.67
314.459	8861.73
314.525	8887
314.59	8877.09
314.655	8864.77
314.72	8867.08
314.785	8871.07
314.851	8868.09
314.916	8852.3
314.981	8835.84
315.046	8832.13
315.111	8821.02
315.176	8815.24
315.242	8817.84
315.307	8824.63
315.372	8799.16
315.437	8784.19
315.502	8774.23
315.567	8781.49
315.632	8770.42
315.698	8780.77
315.763	8773.31
315.828	8761.71
315.893	8752.66
315.958	8753.53
316.023	8750.16
316.088	8731.29
316.153	8707.04
316.218	8699.96
316.283	8680.81
316.348	8660.41
316.413	8658.19
316.479	8645.49
316.544	8611.42
316.609	8582.59
316.674	8550.97
316.739	8514.36
316.804	8490.35
316.869	8457.73
316.934	8422.74
316.999	8395.85
317.064	8337.72
317.129	8296.73
317.194	8260.93
317.259	8209.5
317.324	8157.79
317.389	8115.36
317.454	8078.17
317.518	8041.77
317.583	8018.14
317.648	7998.18
317.713	7964.17
317.778	7902.61
317.843	7876.39
317.908	7839.32
317.973	7799.98
318.038	7769.82
318.103	7738.38
318.168	7711.25
318.233	7677.55
318.297	7630.52
318.362	7586.58
318.427	7548.22
318.492	7520.04
318.557	7476.93
318.622	7453.71
318.687	7432.46
318.751	7395.36
318.816	7366.66
318.881	7337.54
318.946	7279.95
319.011	7235.54
319.075	7194.79
319.14	7161.63
319.205	7114.11
319.27	7085.09
319.335	7044.96
319.399	7001.38
319.464	6975.58
319.529	6919.18
319.594	6887.61
319.658	6856.68
319.723	6818.45
319.788	6797.27
319.853	6744.14
319.917	6713.6
319.982	6659.71
320.047	6623.79
320.112	6595.84
320.176	6541.53
320.241	6510.22
320.306	6484.82
320.37	6440.32
320.435	6412.71
320.5	6383.58
320.564	6348.15
320.629	6304.04
320.694	6267.18
320.758	6225.62
320.823	6181.56
320.888	6153.49
320.952	6101.43
321.017	6061.36
321.082	6022.94
321.146	5985.94
321.211	5951.64
321.275	5914.66
321.34	5869.01
321.405	5828.28
321.469	5781.71
321.534	5745.75
321.598	5695.3
321.663	5667
321.727	5637.56
321.792	5588.51
321.857	5548.33
321.921	5508.25
321.986	5468.81
322.05	5414.32
322.115	5379.52
322.179	5335.01
322.244	5278.67
322.308	5246.99
322.373	5203.92
322.437	5162.15
322.502	5134.21
322.566	5090.28
322.631	5050.33
322.695	5017.25
322.76	4973.57
322.824	4938.18
322.889	4893.04
322.953	4848.76
323.018	4776.74
323.082	4714.48
323.146	4662.98
323.211	4607.85
323.275	4564.49
323.34	4518.7
323.404	4480.53
323.468	4430.44
323.533	4389.64
323.597	4348.09
323.662	4298.01
323.726	4262.85
323.79	4217.71
323.855	4151.6
323.919	4106.71
323.983	4066.49
324.048	3998.32
324.112	4143.87
324.177	4017.4
324.241	3809.68
324.305	3606.22
324.37	3407.2
324.434	3216.3
324.498	3173.47
324.562	3125.34
324.627	3065.62
324.691	3009.85
324.755	2950.63
324.82	2879.76
324.884	2803.36
324.948	2732.18
325.012	2636.76
325.077	2512.5
