Data from 20250704_urea_0.1M_MAYP1162681_11-22-27-677.txt Node
Date: Fri Jul 04 11:22:27 BST 2025
User: adleo
Spectrometer: MAYP116268
Trigger mode: 0
Integration Time (sec): 1.000000E0
Scans to average: 1
Electric dark correction enabled: true
Nonlinearity correction enabled: true
Boxcar width: 10
XAxis mode: Wavelengths
Number of Pixels in Spectrum: 2068
>>>>>Begin Spectral Data<<<<<
179.565	1239.76
179.642	1302.13
179.718	1344.15
179.795	1386.16
179.871	1422.84
179.948	1441.33
180.024	1462.22
180.101	1486
180.177	1500.56
180.254	1526.14
180.33	1549.33
180.407	1605.88
180.483	1703.13
180.56	1796.25
180.636	1883.38
180.712	1870.06
180.789	1881.71
180.865	1893.21
180.942	1903.62
181.018	1913.22
181.095	1928.11
181.171	1933.67
181.248	1934.19
181.324	1951.31
181.4	1956.4
181.477	1965.48
181.553	1981.31
181.63	2004.33
181.706	2019.79
181.782	2028.77
181.859	2027.3
181.935	2032.24
182.011	2027.82
182.088	2047.8
182.164	2066.54
182.24	2079.66
182.317	2089.98
182.393	2087.37
182.469	2102.25
182.546	2118.28
182.622	2125.27
182.698	2119.9
182.775	2131.98
182.851	2145.21
182.927	2139.16
183.003	2135.5
183.08	2132.36
183.156	2140.93
183.232	2133.17
183.308	2121.33
183.385	2128.41
183.461	2146.21
183.537	2148.06
183.613	2161.9
183.69	2150.25
183.766	2142.54
183.842	2151.96
183.918	2160.38
183.995	2174.98
184.071	2177.7
184.147	2173.03
184.223	2161.15
184.299	2170.95
184.375	2162.57
184.452	2169.76
184.528	2220.49
184.604	2229.43
184.68	2238.28
184.756	2244.7
184.832	2254.79
184.908	2261.73
184.985	2264.21
185.061	2247.22
185.137	2255.5
185.213	2244.37
185.289	2247.13
185.365	2237.23
185.441	2234.43
185.517	2241.42
185.593	2239.47
185.669	2240.28
185.745	2247.18
185.822	2264.16
185.898	2258.07
185.974	2264.59
186.05	2257.26
186.126	2221.42
186.202	2218.38
186.278	2213.91
186.354	2204.82
186.43	2207.53
186.506	2202.54
186.582	2198.26
186.658	2202.63
186.734	2182.04
186.81	2184.56
186.886	2186.93
186.962	2199.49
187.038	2198.68
187.114	2191.97
187.19	2194.92
187.266	2183.46
187.341	2185.12
187.417	2177.04
187.493	2175.23
187.569	2179.23
187.645	2173.28
187.721	2160.33
187.797	2166.14
187.873	2173.13
187.949	2166.62
188.025	2162.38
188.101	2169.23
188.176	2175.94
188.252	2175.46
188.328	2184.12
188.404	2185.21
188.48	2180.5
188.556	2175.46
188.632	2173.03
188.707	2178.17
188.783	2177.41
188.859	2171.94
188.935	2160.09
189.011	2168.75
189.086	2167.04
189.162	2158.62
189.238	2152.39
189.314	2151.67
189.39	2145.82
189.465	2136.88
189.541	2151.34
189.617	2133.07
189.693	2129.03
189.768	2132.74
189.844	2157.64
189.92	2148.79
189.996	2156.98
190.071	2167.3
190.147	2167.87
190.223	2175.39
190.298	2165.73
190.374	2152.12
190.45	2166.01
190.526	2177.95
190.601	2172.43
190.677	2172.96
190.753	2197.76
190.828	2201.37
190.904	2213.51
190.98	2227.49
191.055	2238.44
191.131	2231.82
191.207	2255.23
191.282	2262.46
191.358	2254.23
191.433	2238.04
191.509	2252.07
191.585	2248.69
191.66	2250.07
191.736	2254.64
191.811	2246.41
191.887	2265.55
191.963	2291.53
192.038	2297.19
192.114	2294.67
192.189	2300.05
192.265	2295.72
192.34	2276.3
192.416	2277.68
192.491	2277.87
192.567	2283.63
192.642	2283.53
192.718	2282.82
192.793	2268.4
192.869	2265.78
192.944	2268.59
193.02	2278.06
193.095	2284.63
193.171	2289.86
193.246	2288.96
193.322	2288.82
193.397	2291.43
193.473	2274.39
193.548	2253.68
193.624	2257.21
193.699	2258.83
193.775	2274.92
193.85	2276.49
193.925	2289
194.001	2287.67
194.076	2279.63
194.152	2268.11
194.227	2259.83
194.302	2250.98
194.378	2255.36
194.453	2251.84
194.529	2261.6
194.604	2245.65
194.679	2236.8
194.755	2217.77
194.83	2230.72
194.905	2228.96
194.981	2236.86
195.056	2229.16
195.131	2235.1
195.207	2232.96
195.282	2220.02
195.357	2198.98
195.433	2214.78
195.508	2199.31
195.583	2207.25
195.659	2222.63
195.734	2229.05
195.809	2230.77
195.884	2240.42
195.96	2244.09
196.035	2261.22
196.11	2257.12
196.185	2267.88
196.261	2273.3
196.336	2304.52
196.411	2291.14
196.486	2296.66
196.561	2292.33
196.637	2301.18
196.712	2317.27
196.787	2321.79
196.862	2338.26
196.937	2348.73
197.013	2354.15
197.088	2362.96
197.163	2388.24
197.238	2403.01
197.313	2405.44
197.388	2420.2
197.464	2451.72
197.539	2459.96
197.614	2449.72
197.689	2464.43
197.764	2483.01
197.839	2501.38
197.914	2495.91
197.989	2518.34
198.065	2529.48
198.14	2576.56
198.215	2604.08
198.29	2618.42
198.365	2630.43
198.44	2642.09
198.515	2672.11
198.59	2687.59
198.665	2715.12
198.74	2720.17
198.815	2720.84
198.89	2744.04
198.965	2778.17
199.04	2773.74
199.115	2789.55
199.19	2833.33
199.265	2838.53
199.34	2848.01
199.415	2882.43
199.49	2906.64
199.565	2917.46
199.64	2942.57
199.715	2944.15
199.79	2954.35
199.865	2959.07
199.94	2959.74
200.015	2990.44
200.09	2994.3
200.165	3000.79
200.24	3009.22
200.315	3052.6
200.39	3067.91
200.464	3072.06
200.539	3071.05
200.614	3087.45
200.689	3114.59
200.764	3123.8
200.839	3140.95
200.914	3148.15
200.989	3135.32
201.063	3146.1
201.138	3124.85
201.213	3125.94
201.288	3105.06
201.363	3110.21
201.438	3109.49
201.512	3127.94
201.587	3108.96
201.662	3110.96
201.737	3126.61
201.812	3137.91
201.886	3101.3
201.961	3115.05
202.036	3103.37
202.111	3101.79
202.186	3072.49
202.26	3054.46
202.335	3033.99
202.41	3029.99
202.485	3014.26
202.559	2997.38
202.634	2976.45
202.709	2994.56
202.784	2980.35
202.858	2984.31
202.933	2968.19
203.008	2969.81
203.082	2954.94
203.157	2963.71
203.232	2933.35
203.306	2918.28
203.381	2893.68
203.456	2883.19
203.53	2871.21
203.605	2864.73
203.68	2854
203.754	2865.86
203.829	2869.2
203.904	2868.91
203.978	2879.31
204.053	2903.44
204.127	2915.69
204.202	2940.58
204.277	2949.54
204.351	2970.71
204.426	2993.8
204.5	3018.6
204.575	3021.79
204.65	3070.61
204.724	3106.74
204.799	3156.09
204.873	3199.38
204.948	3243.9
205.022	3282.82
205.097	3330.92
205.171	3405.13
205.246	3477.49
205.32	3541.11
205.395	3609.51
205.469	3669.24
205.544	3747.23
205.618	3807.73
205.693	3905.51
205.767	3977.35
205.842	4083.35
205.916	4171.32
205.991	4259.51
206.065	4368.73
206.14	4484.89
206.214	4583.71
206.289	4686.42
206.363	4808.68
206.438	4925.64
206.512	5058.57
206.586	5199.77
206.661	5329.68
206.735	5435.63
206.81	5570.54
206.884	5721.28
206.958	5851.97
207.033	6010.94
207.107	6165.71
207.181	6342.67
207.256	6482.33
207.33	6653.82
207.405	6824.23
207.479	6996.72
207.553	7162.99
207.628	7308.58
207.702	7486.74
207.776	7647.64
207.851	7810.48
207.925	8001.52
207.999	8176.74
208.073	8349.55
208.148	8534.37
208.222	8703.38
208.296	8917.46
208.371	9108.54
208.445	9310.17
208.519	9511.27
208.593	9709.56
208.668	9888.87
208.742	10082.95
208.816	10274.98
208.89	10473.31
208.965	10658.05
209.039	10853.37
209.113	11059.11
209.187	11263.35
209.261	11447.38
209.336	11662.41
209.41	11875.66
209.484	12067.01
209.558	12279.9
209.632	12480.26
209.707	12676.53
209.781	12886.06
209.855	13087.99
209.929	13291.74
210.003	13485.28
210.077	13676.12
210.151	13908.22
210.226	14132.37
210.3	14342.68
210.374	14537.81
210.448	14726.52
210.522	14917.41
210.596	15111.47
210.67	15301.29
210.744	15525.43
210.818	15740.83
210.892	15931.51
210.966	16109.66
211.041	16295.46
211.115	16455.82
211.189	16645.67
211.263	16840.38
211.337	17014.85
211.411	17195.2
211.485	17351.83
211.559	17514.63
211.633	17682.68
211.707	17817.81
211.781	17983.64
211.855	18105.42
211.929	18262.38
212.003	18398.42
212.077	18567.48
212.151	18733.69
212.225	18888.77
212.299	19034.84
212.373	19161.62
212.447	19297.28
212.52	19462.58
212.594	19596.89
212.668	19754.52
212.742	19878.81
212.816	19996.01
212.89	20124.39
212.964	20250.37
213.038	20394.32
213.112	20537.27
213.186	20679.29
213.26	20774.86
213.333	20852.26
213.407	20983.6
213.481	21119.03
213.555	21254.89
213.629	21344.88
213.703	21451.79
213.777	21571.23
213.85	21668.17
213.924	21808.05
213.998	21913.42
214.072	22011.33
214.146	22109.62
214.219	22210.08
214.293	22317.53
214.367	22423.93
214.441	22532.79
214.515	22625.54
214.588	22699.55
214.662	22761.45
214.736	22834.88
214.81	22942.34
214.883	23036.84
214.957	23113.36
215.031	23179.22
215.105	23245.08
215.178	23324.55
215.252	23396.45
215.326	23452.58
215.4	23504.27
215.473	23544.59
215.547	23607.86
215.621	23671.19
215.694	23754.96
215.768	23807.05
215.842	23855.85
215.915	23910.69
215.989	23949.86
216.063	24008.27
216.136	24061.13
216.21	24122.63
216.284	24195.22
216.357	24246.55
216.431	24300.57
216.504	24365.11
216.578	24455.18
216.652	24524.31
216.725	24580.95
216.799	24645.26
216.873	24688.63
216.946	24751.39
217.02	24792.06
217.093	24838.76
217.167	24862.98
217.24	24890.97
217.314	24936.08
217.387	24979.02
217.461	25008.26
217.535	25072.53
217.608	25099.64
217.682	25154.65
217.755	25213.72
217.829	25246.49
217.902	25298.99
217.976	25337.31
218.049	25362.3
218.123	25376.73
218.196	25412.3
218.27	25454.87
218.343	25463.46
218.417	25517.37
218.49	25544.25
218.563	25591.55
218.637	25631.32
218.71	25690.15
218.784	25737.36
218.857	25775.83
218.931	25811.3
219.004	25858.79
219.077	25892.97
219.151	25936.8
219.224	25967.31
219.298	25989.03
219.371	26026.64
219.444	26028.76
219.518	26066.99
219.591	26093.54
219.665	26151.24
219.738	26170.74
219.811	26176.39
219.885	26216.36
219.958	26243.31
220.031	26273.67
220.105	26317.08
220.178	26342.09
220.251	26357.73
220.325	26388.05
220.398	26408.91
220.471	26434.3
220.544	26468.97
220.618	26486.94
220.691	26500.17
220.764	26514.89
220.838	26538.51
220.911	26550.87
220.984	26595.33
221.057	26618.13
221.131	26645.99
221.204	26625.12
221.277	26664.19
221.35	26712.91
221.424	26719.43
221.497	26717.84
221.57	26729.71
221.643	26731.21
221.716	26745.22
221.79	26754.58
221.863	26756.32
221.936	26767.33
222.009	26763.52
222.082	26763.86
222.155	26759.03
222.229	26785.44
222.302	26796.45
222.375	26788.87
222.448	26793.07
222.521	26795.73
222.594	26782.06
222.667	26775.25
222.74	26783.56
222.814	26776.94
222.887	26764.82
222.96	26767.67
223.033	26787.71
223.106	26786.07
223.179	26784.52
223.252	26771.05
223.325	26762.5
223.398	26748.31
223.471	26734.5
223.544	26737.83
223.617	26732.66
223.69	26723.68
223.763	26702.38
223.837	26686.35
223.91	26694.36
223.983	26664.43
224.056	26636.32
224.129	26631.79
224.202	26627.49
224.275	26612.04
224.348	26582.34
224.42	26549.46
224.493	26518.84
224.566	26487.17
224.639	26482.48
224.712	26471.57
224.785	26464.23
224.858	26443.85
224.931	26427.68
225.004	26404.36
225.077	26388.62
225.15	26338.99
225.223	26321.32
225.296	26323.78
225.369	26282.6
225.442	26249.91
225.514	26234.56
225.587	26213.61
225.66	26198.84
225.733	26175.42
225.806	26147.23
225.879	26126.28
225.952	26094.9
226.025	26088.68
226.097	26079.94
226.17	26049.62
226.243	25997.77
226.316	25976.43
226.389	25950.66
226.461	25921.06
226.534	25902.14
226.607	25875.16
226.68	25880.76
226.753	25857.4
226.825	25801.25
226.898	25802.12
226.971	25770.51
227.044	25749.22
227.117	25728.23
227.189	25695.74
227.262	25671.85
227.335	25645.16
227.407	25607.23
227.48	25602.35
227.553	25570.16
227.626	25535.41
227.698	25504.95
227.771	25483.38
227.844	25431.31
227.916	25412.87
227.989	25374.32
228.062	25335.81
228.134	25315.35
228.207	25279.25
228.28	25239.82
228.352	25207.39
228.425	25165.65
228.498	25147.94
228.57	25115.03
228.643	25096.7
228.716	25053.46
228.788	25016.5
228.861	24985.33
228.934	24973.51
229.006	24928.73
229.079	24901.42
229.151	24867.21
229.224	24824.51
229.296	24797.45
229.369	24807.05
229.442	24782.39
229.514	24746.93
229.587	24731.4
229.659	24684.31
229.732	24645.04
229.804	24620.97
229.877	24621.11
229.949	24605.34
230.022	24595.78
230.094	24566.36
230.167	24539.73
230.239	24510.3
230.312	24481.07
230.384	24471.18
230.457	24440.4
230.529	24413.53
230.602	24379.38
230.674	24346.48
230.747	24323.91
230.819	24304.81
230.892	24234.91
230.964	24210.35
231.037	24184.94
231.109	24143.07
231.181	24123.83
231.254	24091.61
231.326	24063.49
231.399	24022.39
231.471	23975.03
231.544	23918.93
231.616	23879.67
231.688	23834.48
231.761	23787.12
231.833	23752.16
231.905	23702.43
231.978	23671.9
232.05	23626.81
232.122	23594.74
232.195	23555.82
232.267	23531.37
232.339	23488.88
232.412	23477.26
232.484	23428.36
232.556	23386.17
232.629	23378.45
232.701	23342.48
232.773	23294.7
232.846	23238.04
232.918	23196.13
232.99	23159.68
233.062	23125.88
233.135	23103.31
233.207	23060.11
233.279	23038.99
233.351	22996.9
233.424	22948.11
233.496	22895.55
233.568	22885.81
233.64	22838.61
233.713	22799.84
233.785	22758.48
233.857	22720
233.929	22670.68
234.001	22650.57
234.074	22633.79
234.146	22571.26
234.218	22538.38
234.29	22504.15
234.362	22470.31
234.434	22412.32
234.507	22370.14
234.579	22310.12
234.651	22265.86
234.723	22232.5
234.795	22195.38
234.867	22162.22
234.939	22143.66
235.012	22115.46
235.084	22080.89
235.156	22043.39
235.228	21994.75
235.3	21943.27
235.372	21903.55
235.444	21866.58
235.516	21804.49
235.588	21762.89
235.66	21721.39
235.732	21666.58
235.804	21685.77
235.876	21661.91
235.948	21642.63
236.02	21604.21
236.092	21561.61
236.164	21509.84
236.236	21465.79
236.308	21423.42
236.38	21383.51
236.452	21331.41
236.524	21283.07
236.596	21255.74
236.668	21222.24
236.74	21185.47
236.812	21145.95
236.884	21120.88
236.956	21074.66
237.028	21012.11
237.1	20954.27
237.172	20936.92
237.244	20920.68
237.316	20838.21
237.388	20777.68
237.46	20730.06
237.532	20700.37
237.604	20652.76
237.675	20627.65
237.747	20593.24
237.819	20543.26
237.891	20495.17
237.963	20443.6
238.035	20393.53
238.107	20308.51
238.178	20279.89
238.25	20239.46
238.322	20222.54
238.394	20146.15
238.466	20102.54
238.538	20077
238.609	20046.88
238.681	19975.89
238.753	19912.86
238.825	19876.57
238.897	19844.77
238.968	19812.28
239.04	19760.48
239.112	19753.3
239.184	19699.42
239.255	19649.06
239.327	19617.74
239.399	19584.78
239.471	19548.83
239.542	19517.79
239.614	19497.41
239.686	19428.01
239.758	19403.68
239.829	19353.46
239.901	19334.14
239.973	19287.73
240.044	19255.06
240.116	19214.82
240.188	19173.67
240.259	19134.73
240.331	19080.42
240.403	19042.64
240.474	18988.62
240.546	18934.6
240.618	18864.63
240.689	18822.07
240.761	18779.76
240.833	18754.66
240.904	18709.02
240.976	18671.67
241.048	18628.4
241.119	18590.67
241.191	18555.15
241.262	18519.54
241.334	18468.36
241.405	18418.82
241.477	18374.1
241.549	18324.9
241.62	18278.35
241.692	18246.06
241.763	18213
241.835	18168.66
241.906	18128.57
241.978	18074.69
242.049	18057.97
242.121	18033.25
242.192	18002.79
242.264	17957.59
242.335	17894.36
242.407	17859.61
242.478	17804.58
242.55	17764.1
242.621	17705.16
242.693	17659.04
242.764	17609.79
242.836	17569.36
242.907	17543.33
242.979	17507.67
243.05	17469.12
243.122	17435.81
243.193	17399.62
243.264	17343.91
243.336	17311.04
243.407	17273.5
243.479	17246.9
243.55	17207.19
243.622	17174.99
243.693	17133.35
243.764	17117.98
243.836	17071.09
243.907	17030.17
243.978	16994.12
244.05	16965.97
244.121	16915.32
244.192	16893.63
244.264	16839.85
244.335	16802.11
244.407	16738.69
244.478	16705.91
244.549	16673.96
244.62	16622.1
244.692	16578.34
244.763	16550.09
244.834	16509.22
244.906	16470.91
244.977	16438.81
245.048	16411.72
245.119	16365.65
245.191	16324.92
245.262	16252.86
245.333	16235.71
245.405	16201.58
245.476	16176.47
245.547	16145.48
245.618	16130.92
245.689	16093.23
245.761	16060.46
245.832	16027.88
245.903	16006.38
245.974	15983.58
246.045	15941.55
246.117	15932.15
246.188	15889.54
246.259	15838.79
246.33	15799.7
246.401	15760.75
246.473	15718.05
246.544	15671.49
246.615	15650.42
246.686	15612.97
246.757	15606.08
246.828	15552.14
246.899	15533.78
246.97	15478.68
247.042	15431.45
247.113	15399.68
247.184	15391.87
247.255	15357.6
247.326	15324.97
247.397	15287.76
247.468	15245.53
247.539	15212.95
247.61	15161.37
247.681	15133.32
247.752	15122.81
247.823	15085.11
247.894	15059.81
247.965	15011.6
248.037	14976.22
248.108	14926.52
248.179	14895.43
248.25	14855.52
248.321	14835.76
248.392	14788.13
248.463	14792.28
248.534	14760.13
248.605	14745.18
248.675	14704.26
248.746	14680.49
248.817	14644.34
248.888	14614.36
248.959	14572.37
249.03	14552.12
249.101	14520.07
249.172	14486.47
249.243	14433.44
249.314	14421.49
249.385	14384.47
249.456	14368.51
249.527	14338.29
249.598	14307.82
249.669	14281.74
249.739	14256.38
249.81	14236.38
249.881	14194.25
249.952	14153.13
250.023	14122.95
250.094	14069.59
250.165	14023.94
250.235	13990.67
250.306	13967.39
250.377	13933.36
250.448	13912.1
250.519	13863.41
250.59	13852.47
250.66	13822.48
250.731	13810.43
250.802	13771.29
250.873	13747.52
250.944	13716.62
251.014	13683.17
251.085	13687.6
251.156	13665.09
251.227	13650.39
251.297	13630.86
251.368	13613.99
251.439	13596.97
251.51	13578.51
251.58	13539.37
251.651	13510.3
251.722	13503.35
251.792	13467.54
251.863	13436.93
251.934	13419.96
252.005	13423.48
252.075	13395.52
252.146	13382.4
252.217	13367.51
252.287	13363.22
252.358	13342.1
252.429	13341.62
252.499	13312.46
252.57	13287.49
252.641	13270.04
252.711	13239.28
252.782	13210.79
252.852	13211.61
252.923	13185.58
252.994	13167.31
253.064	13160.17
253.135	13124.74
253.205	13088.01
253.276	13077.02
253.347	13067.81
253.417	13036.28
253.488	13004.71
253.558	12977.13
253.629	12953.22
253.699	12934.47
253.77	12908.3
253.841	12880.67
253.911	12855.03
253.982	12834.73
254.052	12817.77
254.123	12790.24
254.193	12766.09
254.264	12766.23
254.334	12732.78
254.405	12701.73
254.475	12667.85
254.546	12647.02
254.616	12649
254.687	12635.31
254.757	12618.87
254.827	12598.58
254.898	12585.85
254.968	12558.71
255.039	12528.1
255.109	12514.65
255.18	12479.46
255.25	12439.5
255.321	12424.46
255.391	12391.64
255.461	12396.12
255.532	12346.13
255.602	12324.92
255.673	12288.19
255.743	12260.62
255.813	12211.5
255.884	12198.63
255.954	12185.66
256.024	12177.56
256.095	12153.22
256.165	12119.91
256.235	12104.39
256.306	12075.33
256.376	12060.72
256.446	12053.73
256.517	12046.12
256.587	12034.45
256.657	12014.4
256.728	11997.77
256.798	11975.17
256.868	11950.63
256.938	11914.72
257.009	11900.02
257.079	11885.66
257.149	11896.84
257.219	11855.58
257.29	11847.05
257.36	11807.48
257.43	11798.7
257.5	11755.71
257.571	11732.24
257.641	11714.02
257.711	11682.83
257.781	11669.1
257.852	11655.17
257.922	11612.51
257.992	11584.17
258.062	11563.88
258.132	11561.81
258.202	11541.13
258.273	11520.36
258.343	11523.97
258.413	11499.39
258.483	11485.66
258.553	11458.28
258.623	11427.72
258.693	11418.61
258.764	11416.83
258.834	11416.06
258.904	11395.34
258.974	11367
259.044	11346.28
259.114	11331.87
259.184	11314.37
259.254	11295.34
259.324	11255.91
259.394	11250.13
259.464	11253.84
259.535	11232.15
259.605	11207.33
259.675	11180.35
259.745	11167.48
259.815	11135.43
259.885	11111.38
259.955	11121.94
260.025	11093.7
260.095	11069.46
260.165	11055.87
260.235	11047.29
260.305	11025.8
260.375	10994.14
260.445	11003.53
260.515	10999.44
260.585	11000.93
260.655	10985.22
260.725	10978.91
260.795	10974.09
260.865	10970.91
260.934	10945.56
261.004	10938.62
261.074	10924.07
261.144	10926.33
261.214	10919.87
261.284	10903.68
261.354	10909.75
261.424	10877.27
261.494	10882.19
261.564	10867.54
261.634	10857.8
261.703	10825.61
261.773	10813.28
261.843	10807.93
261.913	10791.26
261.983	10759.89
262.053	10746.01
262.123	10727.7
262.192	10700.91
262.262	10699.13
262.332	10670.07
262.402	10659.38
262.472	10636.73
262.541	10601.32
262.611	10591.2
262.681	10571.68
262.751	10554.53
262.821	10527.93
262.89	10498.54
262.96	10487.6
263.03	10489.24
263.1	10470.88
263.169	10453.88
263.239	10444.43
263.309	10443.76
263.379	10436.63
263.448	10422.17
263.518	10402.71
263.588	10389.89
263.657	10388.74
263.727	10373.56
263.797	10359.92
263.867	10341.76
263.936	10313.53
264.006	10310.49
264.076	10293.01
264.145	10277.11
264.215	10257.74
264.285	10250.8
264.354	10219.88
264.424	10198.54
264.494	10170.64
264.563	10148.91
264.633	10154.65
264.702	10143.71
264.772	10108.3
264.842	10093.95
264.911	10089.56
264.981	10066.92
265.05	10052.42
265.12	10033.58
265.19	10025.2
265.259	10020.1
265.329	10007.96
265.398	10002.22
265.468	10016.92
265.537	10000.3
265.607	9986.33
265.676	9989.36
265.746	9980.69
265.815	9983.29
265.885	9970.19
265.955	9951.22
266.024	9941.77
266.094	9905.84
266.163	9907.77
266.232	9911.77
266.302	9887.35
266.371	9876.46
266.441	9859.7
266.51	9855.7
266.58	9838.46
266.649	9814.81
266.719	9821.07
266.788	9820.49
266.858	9822.75
266.927	9781.86
266.996	9772.95
267.066	9770.45
267.135	9738.32
267.205	9732.88
267.274	9727.39
267.343	9721.13
267.413	9713.71
267.482	9711.93
267.552	9717.08
267.621	9684.47
267.69	9654.86
267.76	9652.88
267.829	9641.66
267.898	9640.26
267.968	9618.88
268.037	9614.26
268.106	9609.49
268.176	9574.47
268.245	9552.51
268.314	9533.34
268.384	9531.85
268.453	9521.5
268.522	9509.99
268.592	9516.53
268.661	9495.54
268.73	9477.77
268.799	9456.58
268.869	9457.11
268.938	9424.89
269.007	9403.61
269.076	9395.37
269.146	9395.52
269.215	9378.23
269.284	9389.17
269.353	9362.49
269.422	9349.92
269.492	9334.47
269.561	9294.31
269.63	9288.97
269.699	9278.18
269.768	9270.23
269.838	9263.59
269.907	9260.27
269.976	9233.64
270.045	9199.22
270.114	9196.42
270.183	9182.89
270.253	9181.98
270.322	9159.78
270.391	9150.35
270.46	9155.21
270.529	9151.84
270.598	9143.85
270.667	9140
270.736	9116.64
270.806	9114.62
270.875	9115.05
270.944	9099.12
271.013	9118.81
271.082	9109.27
271.151	9107.83
271.22	9080.77
271.289	9064.93
271.358	9048.71
271.427	9046.88
271.496	9044.96
271.565	9032.1
271.634	9028.59
271.703	9057.14
271.772	9053.15
271.841	9045.54
271.91	9020.27
271.979	9008.57
272.048	8994.22
272.117	8996.29
272.186	8976.79
272.255	8980.84
272.324	8980.55
272.393	8982.14
272.462	8968.61
272.531	8968.75
272.6	8955.85
272.669	8961.48
272.738	8954.36
272.807	8947.72
272.876	8926.01
272.945	8950.8
273.013	8950.94
273.082	8955.61
273.151	8904.96
273.22	8904.19
273.289	8893.89
273.358	8903.91
273.427	8895.77
273.496	8889.47
273.564	8881.43
273.633	8885.95
273.702	8862.99
273.771	8850.86
273.84	8845.9
273.909	8847.97
273.977	8841.28
274.046	8829.68
274.115	8832.62
274.184	8819.91
274.253	8816.06
274.322	8821.79
274.39	8790.59
274.459	8768.31
274.528	8740.54
274.597	8740.05
274.665	8732.64
274.734	8740.97
274.803	8730.38
274.872	8725.47
274.94	8718.68
275.009	8777.48
275.078	8762.47
275.147	8762.8
275.215	8753.51
275.284	8756.59
275.353	8742.78
275.421	8717.9
275.49	8733.01
275.559	8720.35
275.627	8710.1
275.696	8700.33
275.765	8708.85
275.833	8697.26
275.902	8702.98
275.971	8713.52
276.039	8722.57
276.108	8727.34
276.177	8723.92
276.245	8711.07
276.314	8706.45
276.383	8711.89
276.451	8643.55
276.52	8649.47
276.588	8660.35
276.657	8671.09
276.725	8657.9
276.794	8661.65
276.863	8671.42
276.931	8652.31
277	8657.41
277.068	8667.04
277.137	8684.65
277.205	8677.24
277.274	8697.36
277.342	8705.83
277.411	8685.33
277.48	8670.17
277.548	8656.88
277.617	8657.99
277.685	8654.67
277.754	8663.05
277.822	8650.05
277.89	8663.05
277.959	8647.94
278.027	8628.35
278.096	8615.69
278.164	8648.86
278.233	8640.29
278.301	8635.24
278.37	8636.87
278.438	8623.35
278.507	8630.18
278.575	8602.51
278.643	8598.47
278.712	8580.52
278.78	8564.1
278.849	8580.37
278.917	8587.88
278.985	8584.56
279.054	8589.61
279.122	8605.54
279.191	8598.13
279.259	8593.51
279.327	8570.16
279.396	8588.89
279.464	8589.9
279.532	8596.92
279.601	8587.34
279.669	8583.49
279.737	8592.54
279.806	8595.48
279.874	8611.21
279.942	8609.24
280.011	8608.42
280.079	8618.43
280.147	8635.18
280.215	8642.78
280.284	8632.77
280.352	8625.46
280.42	8627.87
280.488	8617.57
280.557	8604.81
280.625	8609.43
280.693	8616.12
280.761	8620.26
280.83	8604.71
280.898	8612.27
280.966	8591.58
281.034	8563.61
281.102	8549.95
281.171	8541.67
281.239	8545.09
281.307	8533.54
281.375	8521.41
281.443	8547.5
281.512	8540.85
281.58	8547.3
281.648	8527.33
281.716	8521.27
281.784	8523.92
281.852	8522.91
281.92	8525.17
281.989	8533.69
282.057	8518.1
282.125	8559.35
282.193	8557.66
282.261	8556.85
282.329	8549.58
282.397	8555.21
282.465	8559.3
282.533	8572
282.601	8564.16
282.67	8544.04
282.738	8535.91
282.806	8546.02
282.874	8532.01
282.942	8537.21
283.01	8526.67
283.078	8538.94
283.146	8541.39
283.214	8545.19
283.282	8550.39
283.35	8559.01
283.418	8554.48
283.486	8559.34
283.554	8519.29
283.622	8517.8
283.69	8521.07
283.758	8520.06
283.826	8523.91
283.894	8533.05
283.962	8553.32
284.03	8565.44
284.098	8568.33
284.165	8564.62
284.233	8560.34
284.301	8557.17
284.369	8547.3
284.437	8548.55
284.505	8544.27
284.573	8561.25
284.641	8544.51
284.709	8549.85
284.777	8533.1
284.845	8542.2
284.912	8543.35
284.98	8543.45
285.048	8533.01
285.116	8537.53
285.184	8550.43
285.252	8552.84
285.319	8536.62
285.387	8529.74
285.455	8518.14
285.523	8528.97
285.591	8528.2
285.659	8535.9
285.726	8549.56
285.794	8537.82
285.862	8530.89
285.93	8527.33
285.997	8522.52
286.065	8521.37
286.133	8514.77
286.201	8515.73
286.269	8501.06
286.336	8492.44
286.404	8488.16
286.472	8502.02
286.539	8480.85
286.607	8461.69
286.675	8458.47
286.743	8468.57
286.81	8457.26
286.878	8471.94
286.946	8462.85
287.013	8459.09
287.081	8456.35
287.149	8438.98
287.216	8457.46
287.284	8448.7
287.352	8457.55
287.419	8450.72
287.487	8471.99
287.555	8478.01
287.622	8479.98
287.69	8486.43
287.758	8503.22
287.825	8503.46
287.893	8487.53
287.96	8493.07
288.028	8505.77
288.096	8510.25
288.163	8512.7
288.231	8506.25
288.298	8502.55
288.366	8510.01
288.433	8506.45
288.501	8499.28
288.569	8500.48
288.636	8498.17
288.704	8515.68
288.771	8519.87
288.839	8517.9
288.906	8505.15
288.974	8506.06
289.041	8499.9
289.109	8488.45
289.176	8498.75
289.244	8496.44
289.311	8513.62
289.379	8528.68
289.446	8533.4
289.514	8534.07
289.581	8531.61
289.649	8534.84
289.716	8539.31
289.783	8533.2
289.851	8560.44
289.918	8562.65
289.986	8577.71
290.053	8578.97
290.121	8571.46
290.188	8571.65
290.255	8597.83
290.323	8597.74
290.39	8598.94
290.458	8610.92
290.525	8627.14
290.592	8621.46
290.66	8626.08
290.727	8622.04
290.794	8634.07
290.862	8631.71
290.929	8636.28
290.996	8639.99
291.064	8649.23
291.131	8659.43
291.198	8675.46
291.266	8674.06
291.333	8675.94
291.4	8676.71
291.468	8696.01
291.535	8699.72
291.602	8704.72
291.669	8702.22
291.737	8709.63
291.804	8706.31
291.871	8717.48
291.938	8722.96
292.006	8751.32
292.073	8766.19
292.14	8780.97
292.207	8769.75
292.275	8776.44
292.342	8789.05
292.409	8815.24
292.476	8840.27
292.543	8828.96
292.611	8832.57
292.678	8851.83
292.745	8877.82
292.812	8889.13
292.879	8883.98
292.946	8887.44
293.014	8902.66
293.081	8909.06
293.148	8922.25
293.215	8940.2
293.282	8937.89
293.349	8948.1
293.416	8927.01
293.484	8938.32
293.551	8952.28
293.618	8971.49
293.685	8995.13
293.752	8981.07
293.819	8981.36
293.886	8971.3
293.953	8978.71
294.02	8986.75
294.087	8994.12
294.154	8988.48
294.221	9008.42
294.288	9008.27
294.356	9035.57
294.423	9041.34
294.49	9034.85
294.557	9045.49
294.624	9040.62
294.691	9061.13
294.758	9065.32
294.825	9068.79
294.892	9071.53
294.959	9069.17
295.026	9075.67
295.093	9071.63
295.16	9082.5
295.226	9081.59
295.293	9107.4
295.36	9115.1
295.427	9128.29
295.494	9140.52
295.561	9143.7
295.628	9163.88
295.695	9180.92
295.762	9168.16
295.829	9173.89
295.896	9191.32
295.963	9202.83
296.03	9210.77
296.096	9218.86
296.163	9227.43
296.23	9247.13
296.297	9260.75
296.364	9264.8
296.431	9273.46
296.498	9266.72
296.564	9290.31
296.631	9288.34
296.698	9268.93
296.765	9290.02
296.832	9281.69
296.899	9262.43
296.965	9286.75
297.032	9265.61
297.099	9283.95
297.166	9303.31
297.233	9303.6
297.299	9297.34
297.366	9300.23
297.433	9300.47
297.5	9310.39
297.566	9313.62
297.633	9314.53
297.7	9308.03
297.767	9305.53
297.833	9307.74
297.9	9316.12
297.967	9298.79
298.033	9316.41
298.1	9349.64
298.167	9343.23
298.234	9353.1
298.3	9371.93
298.367	9364.42
298.434	9376.55
298.5	9366.15
298.567	9360.23
298.634	9361
298.7	9378.96
298.767	9381.75
298.834	9401.11
298.9	9394.32
298.967	9387.29
299.033	9399.38
299.1	9420.28
299.167	9427.88
299.233	9429.57
299.3	9440.36
299.366	9457.78
299.433	9476.23
299.5	9448.93
299.566	9454.13
299.633	9463.08
299.699	9463.56
299.766	9464.05
299.832	9466.02
299.899	9478.83
299.965	9489.28
300.032	9492.17
300.099	9506.81
300.165	9515.67
300.232	9514.32
300.298	9517.79
300.365	9536.23
300.431	9536.28
300.498	9524.15
300.564	9535.9
300.631	9550.15
300.697	9571.25
300.763	9576.21
300.83	9569.51
300.896	9584.15
300.963	9598.26
301.029	9606.45
301.096	9612.9
301.162	9620.94
301.229	9616.18
301.295	9605
301.361	9611.74
301.428	9611.5
301.494	9590.84
301.561	9593.11
301.627	9600.04
301.693	9596.72
301.76	9607.94
301.826	9597.78
301.892	9615.41
301.959	9631.11
302.025	9631.88
302.092	9622.58
302.158	9627.06
302.224	9632.99
302.291	9630.82
302.357	9619.5
302.423	9612.42
302.49	9600.62
302.556	9615.75
302.622	9609.97
302.688	9624.46
302.755	9645.27
302.821	9652.3
302.887	9667.66
302.954	9660.58
303.02	9667.38
303.086	9680.57
303.152	9666.99
303.219	9666.41
303.285	9669.4
303.351	9676.48
303.417	9676.62
303.483	9666.32
303.55	9661.84
303.616	9658.42
303.682	9651.48
303.748	9647.29
303.815	9663
303.881	9681.68
303.947	9668.77
304.013	9676.62
304.079	9661.26
304.145	9630.58
304.212	9628.41
304.278	9617.14
304.344	9618.16
304.41	9605.44
304.476	9590.41
304.542	9585.74
304.608	9592.77
304.674	9575.73
304.741	9566.19
304.807	9564.84
304.873	9571.92
304.939	9591.91
305.005	9578.32
305.071	9579.05
305.137	9587.47
305.203	9562.96
305.269	9558.29
305.335	9575.53
305.401	9574.13
305.467	9578.85
305.533	9591.13
305.599	9604.76
305.666	9608.66
305.732	9605.1
305.798	9618.68
305.864	9650.9
305.93	9655.24
305.996	9656.97
306.062	9656.83
306.128	9648.88
306.194	9639.01
306.259	9643.73
306.325	9624.8
306.391	9635.59
306.457	9651.29
306.523	9653.89
306.589	9680.57
306.655	9674.89
306.721	9649.6
306.787	9638.72
306.853	9653.99
306.919	9640.84
306.985	9632.94
307.051	9631.21
307.117	9628.46
307.183	9614.06
307.248	9584.78
307.314	9592.24
307.38	9595.13
307.446	9600.24
307.512	9588.1
307.578	9587.67
307.644	9570.04
307.709	9579.72
307.775	9571.82
307.841	9564.26
307.907	9559.59
307.973	9535.94
308.039	9537.63
308.104	9546.78
308.17	9550.34
308.236	9533.72
308.302	9532.62
308.368	9516.48
308.433	9522.26
308.499	9513.02
308.565	9514.32
308.631	9512.83
308.696	9486
308.762	9474.83
308.828	9477.91
308.894	9459.62
308.959	9440.84
309.025	9441.99
309.091	9436.7
309.156	9433.42
309.222	9439.54
309.288	9429.86
309.354	9408.96
309.419	9406.99
309.485	9393.79
309.551	9395.09
309.616	9377.52
309.682	9372.17
309.748	9366.3
309.813	9352.96
309.879	9347.61
309.945	9331.43
310.01	9325.46
310.076	9334.66
310.141	9327.34
310.207	9307.55
310.273	9319.05
310.338	9324.98
310.404	9303.65
310.469	9290.84
310.535	9280.97
310.601	9251.11
310.666	9253.76
310.732	9264.26
310.797	9248.22
310.863	9238.11
310.928	9227.66
310.994	9232.81
311.059	9237
311.125	9237.72
311.191	9252.65
311.256	9245.48
311.322	9249.81
311.387	9231.57
311.453	9522.42
311.518	9497.05
311.584	9504.47
311.649	9505.96
311.715	9501.29
311.78	9508.51
311.846	9494.55
311.911	9494.93
311.976	9497.24
312.042	9484.58
312.107	9472.45
312.173	9469.08
312.238	9467.39
312.304	9464.89
312.369	9458.97
312.434	9442.26
312.5	9430.99
312.565	9399.7
312.631	9401.81
312.696	9391.61
312.761	9395.55
312.827	9092.08
312.892	9137.39
312.958	9126.75
313.023	9123.81
313.088	9117.31
313.154	9104.36
313.219	9099.31
313.284	9092.42
313.35	9094.93
313.415	9081.3
313.48	9077.89
313.546	9076.44
313.611	9081.4
313.676	9073.75
313.741	9065.85
313.807	9077.6
313.872	9083.66
313.937	9081.74
314.003	9094.16
314.068	9095.51
314.133	9100.95
314.198	9091.51
314.264	9062.76
314.329	9052.41
314.394	9053.14
314.459	9049.09
314.525	9070.8
314.59	9064.64
314.655	9051.98
314.72	9053.96
314.785	9060.94
314.851	9055.5
314.916	9044.04
314.981	9030.8
315.046	9020.35
315.111	9006.3
315.176	8989.88
315.242	8992.96
315.307	8992.91
315.372	8972.74
315.437	8964.99
315.502	8958.63
315.567	8969.71
315.632	8956.66
315.698	8962.87
315.763	8949.25
315.828	8946.26
315.893	8939.95
315.958	8939.86
316.023	8933.55
316.088	8913.96
316.153	8894.42
316.218	8886.96
316.283	8873.29
316.348	8857.45
316.413	8856.49
316.479	8839.94
316.544	8806.06
316.609	8776.26
316.674	8741.9
316.739	8706.82
316.804	8675.59
316.869	8633.96
316.934	8595.45
316.999	8563.21
317.064	8508.55
317.129	8468.75
317.194	8425.88
317.259	8378.28
317.324	8328.53
317.389	8282.06
317.454	8240.29
317.518	8203.3
317.583	8177.46
317.648	8147.49
317.713	8107.75
317.778	8045.36
317.843	8018.27
317.908	7987.93
317.973	7951.32
318.038	7921.21
318.103	7882.74
318.168	7849.89
318.233	7820.65
318.297	7770.26
318.362	7734.62
318.427	7695.87
318.492	7666.39
318.557	7622.5
318.622	7589.23
318.687	7564.13
318.751	7525.39
318.816	7493.71
318.881	7457.13
318.946	7401.17
319.011	7356.6
319.075	7316.04
319.14	7286.15
319.205	7239.82
319.27	7202.09
319.335	7152.69
319.399	7114.77
319.464	7087.48
319.529	7036.65
319.594	7001.33
319.658	6969.81
319.723	6928.02
319.788	6900.11
319.853	6848.37
319.917	6821.42
319.982	6770.17
320.047	6734.62
320.112	6709.41
320.176	6657.97
320.241	6622.15
320.306	6597.03
320.37	6555.59
320.435	6525.29
320.5	6495.96
320.564	6463.79
320.629	6420.11
320.694	6390.68
320.758	6348.11
320.823	6306.68
320.888	6273.66
320.952	6224.33
321.017	6184.35
321.082	6145.39
321.146	6113.09
321.211	6081.76
321.275	6039.15
321.34	5996.65
321.405	5951.08
321.469	5903.44
321.534	5861.15
321.598	5819.47
321.663	5785.21
321.727	5747.85
321.792	5698.56
321.857	5654.48
321.921	5608.26
321.986	5569.67
322.05	5514.41
322.115	5475.96
322.179	5428.94
322.244	5373.56
322.308	5339.24
322.373	5293.67
322.437	5252.99
322.502	5225.18
322.566	5176.22
322.631	5137.94
322.695	5100.1
322.76	5051.97
322.824	5017.82
322.889	4978.46
322.953	4930.82
323.018	4866.88
323.082	4806.33
323.146	4756.79
323.211	4704.66
323.275	4662.4
323.34	4616.89
323.404	4577.04
323.468	4536.74
323.533	4495.26
323.597	4451.46
323.662	4398.69
323.726	4362.48
323.79	4311.64
323.855	4243.79
323.919	4197.55
323.983	4153.27
324.048	4083.64
324.112	4232.89
324.177	4098.78
324.241	3886.86
324.305	3678.55
324.37	3471.6
324.434	3276.02
324.498	3231.06
324.562	3178.03
324.627	3116.88
324.691	3059.47
324.755	2996.32
324.82	2913.44
324.884	2832.13
324.948	2761.38
325.012	2665.39
325.077	2542.18
