Data from 20250704_urea_0.5M_MAYP1162681_11-12-03-730.txt Node
Date: Fri Jul 04 11:12:03 BST 2025
User: adleo
Spectrometer: MAYP116268
Trigger mode: 0
Integration Time (sec): 1.000000E0
Scans to average: 1
Electric dark correction enabled: true
Nonlinearity correction enabled: true
Boxcar width: 10
XAxis mode: Wavelengths
Number of Pixels in Spectrum: 2068
>>>>>Begin Spectral Data<<<<<
179.565	1242.16
179.642	1298.88
179.718	1342.73
179.795	1381.52
179.871	1414.94
179.948	1433.27
180.024	1454.02
180.101	1475.63
180.177	1491.02
180.254	1514.76
180.33	1537.66
180.407	1593.83
180.483	1690.74
180.56	1784.15
180.636	1871.85
180.712	1856.77
180.789	1865
180.865	1878.4
180.942	1885.34
181.018	1896.89
181.095	1910.97
181.171	1916.72
181.248	1919.24
181.324	1935.12
181.4	1944.39
181.477	1955.14
181.553	1966.45
181.63	1987.71
181.706	2007.11
181.782	2016.95
181.859	2016.53
181.935	2023.18
182.011	2018.9
182.088	2038.64
182.164	2057.34
182.24	2067.61
182.317	2078.21
182.393	2077.4
182.469	2090.53
182.546	2106.46
182.622	2108.27
182.698	2102.28
182.775	2113.22
182.851	2125.49
182.927	2116.74
183.003	2110.41
183.08	2106.42
183.156	2119.78
183.232	2114.98
183.308	2100.57
183.385	2107.65
183.461	2126.06
183.537	2126.68
183.613	2141.9
183.69	2130.44
183.766	2119.83
183.842	2129.01
183.918	2134.86
183.995	2151.89
184.071	2158.31
184.147	2148.51
184.223	2139.81
184.299	2153.28
184.375	2142.53
184.452	2150.28
184.528	2207.54
184.604	2219.24
184.68	2229.75
184.756	2235.56
184.832	2243.03
184.908	2249.35
184.985	2248.45
185.061	2232.84
185.137	2242.84
185.213	2229.32
185.289	2230.37
185.365	2222.86
185.441	2223.28
185.517	2238.09
185.593	2230.9
185.669	2225.24
185.745	2240.46
185.822	2254.26
185.898	2247.4
185.974	2259.77
186.05	2249.78
186.126	2207.32
186.202	2202.75
186.278	2200.94
186.354	2190.14
186.43	2197.85
186.506	2196.81
186.582	2195.52
186.658	2200.14
186.734	2177.4
186.81	2182.49
186.886	2185.34
186.962	2198.71
187.038	2193.33
187.114	2186.48
187.19	2193.43
187.266	2183.82
187.341	2182.96
187.417	2178.35
187.493	2176.78
187.569	2177.2
187.645	2173.97
187.721	2165.69
187.797	2170.11
187.873	2171.06
187.949	2167.12
188.025	2159.07
188.101	2162.74
188.176	2169.73
188.252	2167.87
188.328	2177.53
188.404	2175.34
188.48	2171.29
188.556	2165.25
188.632	2166.39
188.707	2166.87
188.783	2164.63
188.859	2159.5
188.935	2150.27
189.011	2158.31
189.086	2153.6
189.162	2146.94
189.238	2142.13
189.314	2135.71
189.39	2129.81
189.465	2124.91
189.541	2139.71
189.617	2124.49
189.693	2119.07
189.768	2118.35
189.844	2142.96
189.92	2136.49
189.996	2144.06
190.071	2154.05
190.147	2152.48
190.223	2160.28
190.298	2151.76
190.374	2137.02
190.45	2149.9
190.526	2157.99
190.601	2150.67
190.677	2153.04
190.753	2179.08
190.828	2182.79
190.904	2202.11
190.98	2217.62
191.055	2227.81
191.131	2221.29
191.207	2241.89
191.282	2250.69
191.358	2246.83
191.433	2229.93
191.509	2239.16
191.585	2236.4
191.66	2239.35
191.736	2248.25
191.811	2237.83
191.887	2255.39
191.963	2280.66
192.038	2285.89
192.114	2286.42
192.189	2288.65
192.265	2284.13
192.34	2260.66
192.416	2260.14
192.491	2254.67
192.567	2256.67
192.642	2258.09
192.718	2257.62
192.793	2247.2
192.869	2243.67
192.944	2243.87
193.02	2252.86
193.095	2259
193.171	2264.66
193.246	2261.66
193.322	2261.04
193.397	2264.04
193.473	2246.95
193.548	2228.68
193.624	2235.44
193.699	2230.96
193.775	2250.86
193.85	2252.14
193.925	2262.71
194.001	2264.42
194.076	2258.28
194.152	2247
194.227	2239.96
194.302	2230.02
194.378	2232.25
194.453	2228.5
194.529	2239.54
194.604	2224.59
194.679	2217.5
194.755	2200.05
194.83	2214.85
194.905	2210.76
194.981	2220.61
195.056	2212.24
195.131	2218.9
195.207	2216.9
195.282	2209.53
195.357	2188.68
195.433	2207
195.508	2194.91
195.583	2199.1
195.659	2210.71
195.734	2221.56
195.809	2223.46
195.884	2235.69
195.96	2235.69
196.035	2252.96
196.11	2248.44
196.185	2259.86
196.261	2263.05
196.336	2295.84
196.411	2280.51
196.486	2284.84
196.561	2279.32
196.637	2288.69
196.712	2308.87
196.787	2311.02
196.862	2326.34
196.937	2335.76
197.013	2337.43
197.088	2350.51
197.163	2375.42
197.238	2394.33
197.313	2391.85
197.388	2403.8
197.464	2433.8
197.539	2444.23
197.614	2436.8
197.689	2452.7
197.764	2467.99
197.839	2491.89
197.914	2482.03
197.989	2504.74
198.065	2516.64
198.14	2564.05
198.215	2592.25
198.29	2599.68
198.365	2611.97
198.44	2622.01
198.515	2652.12
198.59	2669.74
198.665	2696.14
198.74	2704.86
198.815	2707.96
198.89	2732.25
198.965	2762.27
199.04	2754.27
199.115	2772.89
199.19	2815.58
199.265	2818.06
199.34	2828.02
199.415	2862.59
199.49	2887.74
199.565	2896.84
199.64	2923.01
199.715	2922.72
199.79	2930.4
199.865	2937.55
199.94	2938.17
200.015	2969.25
200.09	2974.21
200.165	2978.97
200.24	2985.55
200.315	3025.59
200.39	3038.37
200.464	3045.81
200.539	3050
200.614	3066.59
200.689	3089.72
200.764	3098.16
200.839	3115.51
200.914	3122.66
200.989	3110.45
201.063	3124.61
201.138	3111.17
201.213	3111.41
201.288	3090.62
201.363	3091.34
201.438	3092.53
201.512	3109.69
201.587	3092.86
201.662	3097.58
201.737	3113.22
201.812	3121.57
201.886	3083.73
201.961	3094.46
202.036	3082.54
202.111	3075.15
202.186	3045.18
202.26	3028.2
202.335	3002.4
202.41	2996.82
202.485	2981.33
202.559	2960.88
202.634	2933.04
202.709	2942.05
202.784	2922.07
202.858	2923.84
202.933	2910.92
203.008	2905.15
203.082	2884.28
203.157	2885.66
203.232	2843.73
203.306	2821.13
203.381	2786.48
203.456	2768.03
203.53	2745.47
203.605	2725.71
203.68	2704.31
203.754	2699.5
203.829	2684.11
203.904	2666.1
203.978	2653.71
204.053	2655.67
204.127	2642.05
204.202	2641.62
204.277	2624.04
204.351	2618.47
204.426	2607.13
204.5	2598.74
204.575	2562.41
204.65	2571.18
204.724	2561.12
204.799	2567.93
204.873	2563.07
204.948	2561.74
205.022	2547.27
205.097	2540.45
205.171	2554.31
205.246	2564.12
205.32	2562.65
205.395	2563.55
205.469	2554.94
205.544	2560.8
205.618	2546.46
205.693	2559.94
205.767	2544.61
205.842	2563.14
205.916	2558.76
205.991	2551.8
206.065	2557.61
206.14	2574.18
206.214	2571.27
206.289	2565.27
206.363	2578.98
206.438	2583.56
206.512	2592.89
206.586	2617.61
206.661	2623.28
206.735	2599.38
206.81	2598.57
206.884	2618.95
206.958	2607.57
207.033	2625.42
207.107	2632.86
207.181	2667.79
207.256	2665.22
207.33	2691.75
207.405	2712.59
207.479	2736.07
207.553	2748.17
207.628	2736.31
207.702	2752.22
207.776	2753.89
207.851	2767.09
207.925	2792.5
207.999	2797.98
208.073	2808.66
208.148	2821.1
208.222	2824.06
208.296	2874.7
208.371	2907.08
208.445	2939.27
208.519	2986.18
208.593	3024.08
208.668	3045.88
208.742	3072.32
208.816	3099.02
208.89	3141.16
208.965	3167.03
209.039	3206.36
209.113	3263.04
209.187	3322.89
209.261	3362.96
209.336	3430.98
209.41	3499.21
209.484	3545.74
209.558	3620.48
209.632	3693.6
209.707	3767.98
209.781	3854.02
209.855	3933.56
209.929	4024.69
210.003	4099.51
210.077	4182.34
210.151	4309.89
210.226	4428.33
210.3	4543.25
210.374	4660.88
210.448	4761.17
210.522	4872.08
210.596	4988.11
210.67	5106.91
210.744	5267.58
210.818	5412.86
210.892	5544.46
210.966	5660.89
211.041	5802.14
211.115	5930.28
211.189	6085.49
211.263	6239.29
211.337	6386.24
211.411	6548.09
211.485	6689.5
211.559	6854.93
211.633	7005.57
211.707	7127.07
211.781	7295.96
211.855	7419.54
211.929	7575.63
212.003	7720.64
212.077	7898.73
212.151	8076.2
212.225	8252.22
212.299	8423.17
212.373	8594.46
212.447	8771.28
212.52	8981.42
212.594	9176.34
212.668	9377.67
212.742	9543.89
212.816	9722.98
212.89	9900.59
212.964	10090.43
213.038	10276.42
213.112	10481.94
213.186	10686.39
213.26	10862.33
213.333	11011.13
213.407	11212.67
213.481	11412.59
213.555	11627.55
213.629	11812.38
213.703	11998.13
213.777	12193.09
213.85	12360.59
213.924	12578.31
213.998	12775.12
214.072	12962.01
214.146	13136.55
214.219	13322.86
214.293	13511.87
214.367	13701.74
214.441	13905.41
214.515	14080.82
214.588	14242.26
214.662	14389.48
214.736	14547.01
214.81	14737.61
214.883	14926.13
214.957	15093.54
215.031	15250.59
215.105	15401.22
215.178	15553.83
215.252	15722.48
215.326	15863.7
215.4	16011.58
215.473	16126.54
215.547	16270.65
215.621	16408.92
215.694	16568.4
215.768	16696.36
215.842	16833.92
215.915	16971.27
215.989	17088.82
216.063	17211.33
216.136	17358.61
216.21	17496.01
216.284	17654.51
216.357	17788.83
216.431	17923.14
216.504	18055.86
216.578	18207.85
216.652	18341.39
216.725	18476.62
216.799	18601.38
216.873	18720.27
216.946	18846.05
217.02	18970.81
217.093	19082.66
217.167	19175.48
217.24	19272.24
217.314	19377.68
217.387	19481.1
217.461	19581.19
217.535	19698.97
217.608	19794.53
217.682	19894.29
217.755	20004.69
217.829	20089.13
217.902	20180.5
217.976	20265.41
218.049	20353.89
218.123	20427.29
218.196	20517.89
218.27	20588.69
218.343	20658.43
218.417	20757.71
218.49	20834.29
218.563	20927.45
218.637	21004.95
218.71	21102.55
218.784	21182.08
218.857	21270.76
218.931	21348.74
219.004	21419.02
219.077	21493.77
219.151	21569.88
219.224	21638.95
219.298	21700.51
219.371	21779.56
219.444	21828.1
219.518	21892.4
219.591	21954.63
219.665	22039.57
219.738	22100.3
219.811	22150.19
219.885	22208.23
219.958	22259.19
220.031	22303.3
220.105	22354.3
220.178	22404.44
220.251	22447.54
220.325	22498.59
220.398	22549.6
220.471	22598.82
220.544	22653.2
220.618	22682.61
220.691	22730.73
220.764	22767.27
220.838	22807.63
220.911	22829.76
220.984	22894.41
221.057	22923.24
221.131	22956.85
221.204	22959.31
221.277	23009.26
221.35	23074.35
221.424	23102.61
221.497	23122.52
221.57	23153.91
221.643	23180.62
221.716	23204.2
221.79	23229.32
221.863	23244.08
221.936	23254.83
222.009	23265.01
222.082	23277.45
222.155	23297.36
222.229	23320.61
222.302	23342.55
222.375	23358.12
222.448	23377.84
222.521	23380.4
222.594	23392.12
222.667	23382.76
222.74	23400.94
222.814	23405.43
222.887	23407.16
222.96	23422.98
223.033	23443.43
223.106	23450.66
223.179	23462.96
223.252	23478.77
223.325	23481.33
223.398	23497
223.471	23495.36
223.544	23498.21
223.617	23510.17
223.69	23509.45
223.763	23494.59
223.837	23497.53
223.91	23494.5
223.983	23470.58
224.056	23447.48
224.129	23454.91
224.202	23478.78
224.275	23468.26
224.348	23449.12
224.42	23422.02
224.493	23400.08
224.566	23380.93
224.639	23385.13
224.712	23367.81
224.785	23355.23
224.858	23339.36
224.931	23313.61
225.004	23296.2
225.077	23285.6
225.15	23241.67
225.223	23223.15
225.296	23234.82
225.369	23190.08
225.442	23168.23
225.514	23167.12
225.587	23166.3
225.66	23155.21
225.733	23134.33
225.806	23124.01
225.879	23098.46
225.952	23073.44
226.025	23070.88
226.097	23075.75
226.17	23051.4
226.243	23004.83
226.316	22976.76
226.389	22959.21
226.461	22941.76
226.534	22932.74
226.607	22900.92
226.68	22895.23
226.753	22881.73
226.825	22829.46
226.898	22827.34
226.971	22807.58
227.044	22789.3
227.117	22763.65
227.189	22736.8
227.262	22715.68
227.335	22709.85
227.407	22687.96
227.48	22680.97
227.553	22654.98
227.626	22626.87
227.698	22605.75
227.771	22604.21
227.844	22572.97
227.916	22562.17
227.989	22527.27
228.062	22493.33
228.134	22503.84
228.207	22478.48
228.28	22447.96
228.352	22433.93
228.425	22422.56
228.498	22409.35
228.57	22374.64
228.643	22377.68
228.716	22354.25
228.788	22319.68
228.861	22279.23
228.934	22260.53
229.006	22225
229.079	22192.22
229.151	22155.15
229.224	22114.08
229.296	22083.28
229.369	22084.58
229.442	22060.96
229.514	22030.4
229.587	22022.49
229.659	21977.42
229.732	21957.17
229.804	21942.18
229.877	21943.92
229.949	21918.66
230.022	21914.32
230.094	21896.44
230.167	21858.36
230.239	21821.91
230.312	21812.8
230.384	21814.78
230.457	21798.58
230.529	21780.75
230.602	21765.42
230.674	21745.23
230.747	21731.44
230.819	21723.2
230.892	21666.32
230.964	21644.24
231.037	21623.33
231.109	21595.23
231.181	21580.14
231.254	21550.21
231.326	21519.84
231.399	21476.65
231.471	21442.48
231.544	21388.64
231.616	21367.53
231.688	21337.26
231.761	21304.39
231.833	21267.47
231.905	21216.96
231.978	21185.34
232.05	21159.55
232.122	21126.15
232.195	21086.53
232.267	21077.76
232.339	21032.07
232.412	21024.79
232.484	20982.43
232.556	20954.43
232.629	20948.07
232.701	20930.76
232.773	20897.9
232.846	20865.22
232.918	20835.63
232.99	20811.67
233.062	20785.17
233.135	20751.62
233.207	20706.13
233.279	20678.9
233.351	20652.83
233.424	20616.1
233.496	20568.92
233.568	20550.08
233.64	20508.73
233.713	20482.61
233.785	20437.45
233.857	20419.28
233.929	20368.39
234.001	20357.89
234.074	20340.83
234.146	20284.68
234.218	20249.6
234.29	20218.95
234.362	20183.43
234.434	20134.71
234.507	20085.36
234.579	20042.37
234.651	20009.02
234.723	20002.37
234.795	19980.45
234.867	19948.88
234.939	19927
235.012	19913.07
235.084	19884.4
235.156	19858.14
235.228	19817.08
235.3	19785.75
235.372	19755.92
235.444	19742
235.516	19690.29
235.588	19657.9
235.66	19624.51
235.732	19577.81
235.804	19599.16
235.876	19573.81
235.948	19566.63
236.02	19529.14
236.092	19484.04
236.164	19446.3
236.236	19403.7
236.308	19365.2
236.38	19346.26
236.452	19301.11
236.524	19263.08
236.596	19249.98
236.668	19226.99
236.74	19194.32
236.812	19161.02
236.884	19128.63
236.956	19089.94
237.028	19045.07
237.1	19005.46
237.172	18990.62
237.244	18972.89
237.316	18898.43
237.388	18856.6
237.46	18807.55
237.532	18800.61
237.604	18770.87
237.675	18756.75
237.747	18721.82
237.819	18688.85
237.891	18640.18
237.963	18597.29
238.035	18560.09
238.107	18484.62
238.178	18462.75
238.25	18425.4
238.322	18409.88
238.394	18367.38
238.466	18322.9
238.538	18292.68
238.609	18258.66
238.681	18198.33
238.753	18149.12
238.825	18123.49
238.897	18098.19
238.968	18083.49
239.04	18037.85
239.112	18022
239.184	17981.18
239.255	17936.02
239.327	17894.14
239.399	17861.04
239.471	17835.78
239.542	17807.06
239.614	17786.73
239.686	17721.76
239.758	17712.32
239.829	17671.45
239.901	17635.93
239.973	17612.08
240.044	17590.39
240.116	17556.66
240.188	17519.79
240.259	17493.09
240.331	17452.56
240.403	17422.92
240.474	17367.69
240.546	17325
240.618	17273.52
240.689	17232.95
240.761	17214.73
240.833	17209.09
240.904	17174.97
240.976	17136.8
241.048	17097.42
241.119	17069.28
241.191	17046.63
241.262	17019.25
241.334	16978.05
241.405	16947.49
241.477	16906.91
241.549	16864.02
241.62	16837.66
241.692	16819.97
241.763	16798.38
241.835	16759.72
241.906	16723.19
241.978	16680.59
242.049	16663
242.121	16651.24
242.192	16630.42
242.264	16575.62
242.335	16512.19
242.407	16484.91
242.478	16448.33
242.55	16418.35
242.621	16373.77
242.693	16334.58
242.764	16292.22
242.836	16252.17
242.907	16223.78
242.979	16192.93
243.05	16162.61
243.122	16132.39
243.193	16089.55
243.264	16019.08
243.336	15988.71
243.407	15967.46
243.479	15953.91
243.55	15912.32
243.622	15869.18
243.693	15832.55
243.764	15823.68
243.836	15786.28
243.907	15747.48
243.978	15717.16
244.05	15701.06
244.121	15653.53
244.192	15635.12
244.264	15589.52
244.335	15569.86
244.407	15522.47
244.478	15496.54
244.549	15466.71
244.62	15420.87
244.692	15395.46
244.763	15386.4
244.834	15344.76
244.906	15303.64
244.977	15282.53
245.048	15276.31
245.119	15250.18
245.191	15205.74
245.262	15147.85
245.333	15134.88
245.405	15107.6
245.476	15090.3
245.547	15053.9
245.618	15034.48
245.689	15011.63
245.761	14988.25
245.832	14953.74
245.903	14933.73
245.974	14909.73
246.045	14876.8
246.117	14864.17
246.188	14822.86
246.259	14784.78
246.33	14759.67
246.401	14718.79
246.473	14668.61
246.544	14627.3
246.615	14612.79
246.686	14581.26
246.757	14566.85
246.828	14526.36
246.899	14507.75
246.97	14458.58
247.042	14422.48
247.113	14408.45
247.184	14389.36
247.255	14346.75
247.326	14324.28
247.397	14293.86
247.468	14267.93
247.539	14241.56
247.61	14203.86
247.681	14185.93
247.752	14166.89
247.823	14126.98
247.894	14111.21
247.965	14066.53
248.037	14039.14
248.108	13985.59
248.179	13963.22
248.25	13939.98
248.321	13921.23
248.392	13882.67
248.463	13880.64
248.534	13852.59
248.605	13834.75
248.675	13803.03
248.746	13797.87
248.817	13770.64
248.888	13751.88
248.959	13710.91
249.03	13692.45
249.101	13667.43
249.172	13637.97
249.243	13594.2
249.314	13597.33
249.385	13575.79
249.456	13568.31
249.527	13541.41
249.598	13528.83
249.669	13505.79
249.739	13484.29
249.81	13462.84
249.881	13428.61
249.952	13404.84
250.023	13382.86
250.094	13337.89
250.165	13306.02
250.235	13268.08
250.306	13244.7
250.377	13207.73
250.448	13187.43
250.519	13141.49
250.59	13126.4
250.66	13095.79
250.731	13088.76
250.802	13052.46
250.873	13028.83
250.944	13015.34
251.014	12979.23
251.085	12974.65
251.156	12948.91
251.227	12939.17
251.297	12933.63
251.368	12928.52
251.439	12919.65
251.51	12909.33
251.58	12877.76
251.651	12852.45
251.722	12847.34
251.792	12813.55
251.863	12798.22
251.934	12789.59
252.005	12795.42
252.075	12780.48
252.146	12771.99
252.217	12763.51
252.287	12753.48
252.358	12729.09
252.429	12719.11
252.499	12697.61
252.57	12680.36
252.641	12674.67
252.711	12649.02
252.782	12617.06
252.852	12615.86
252.923	12586.02
252.994	12562.98
253.064	12559.12
253.135	12528.46
253.205	12500.65
253.276	12496.94
253.347	12490.14
253.417	12462.08
253.488	12441.55
253.558	12408.14
253.629	12380.48
253.699	12358.5
253.77	12347.6
253.841	12328.27
253.911	12311.59
253.982	12293.37
254.052	12277.56
254.123	12258.95
254.193	12243.19
254.264	12256.5
254.334	12220.3
254.405	12190.8
254.475	12164.57
254.546	12142.3
254.616	12139.51
254.687	12130.88
254.757	12114.78
254.827	12086.92
254.898	12067.21
254.968	12046.53
255.039	12019.87
255.109	12013.75
255.18	11987.58
255.25	11938.9
255.321	11923.09
255.391	11883.66
255.461	11887.42
255.532	11845.1
255.602	11816.18
255.673	11776.08
255.743	11745.27
255.813	11702.23
255.884	11696.59
255.954	11685.32
256.024	11684.35
256.095	11664.88
256.165	11624.97
256.235	11609.02
256.306	11584.48
256.376	11580.39
256.446	11569.49
256.517	11568.53
256.587	11567.86
256.657	11560.82
256.728	11555.13
256.798	11543.03
256.868	11526.89
256.938	11500.48
257.009	11496.77
257.079	11493.54
257.149	11497.87
257.219	11457.05
257.29	11446.64
257.36	11409.1
257.43	11397.58
257.5	11353.24
257.571	11325.67
257.641	11322.83
257.711	11292.23
257.781	11290.68
257.852	11279.31
257.922	11243.69
257.992	11217.72
258.062	11190.83
258.132	11173.33
258.202	11154.63
258.273	11138.3
258.343	11134.54
258.413	11112.51
258.483	11091.4
258.553	11061.67
258.623	11037.43
258.693	11024.8
258.764	11023.12
258.834	11026.06
258.904	11005.43
258.974	10985.87
259.044	10968.57
259.114	10949.1
259.184	10936.18
259.254	10915.75
259.324	10876.86
259.394	10870.45
259.464	10874.74
259.535	10856.67
259.605	10841.44
259.675	10815.14
259.745	10799.62
259.815	10778.22
259.885	10756.49
259.955	10772.35
260.025	10748.06
260.095	10734.38
260.165	10728.26
260.235	10732.64
260.305	10706
260.375	10681.47
260.445	10688.99
260.515	10694.43
260.585	10691.88
260.655	10681.04
260.725	10674.44
260.795	10675.79
260.865	10674.77
260.934	10649.62
261.004	10641.33
261.074	10625.48
261.144	10630.49
261.214	10631.41
261.284	10608.04
261.354	10606.01
261.424	10576.28
261.494	10578.16
261.564	10563.8
261.634	10557.88
261.703	10523.76
261.773	10511.38
261.843	10510.66
261.913	10494.56
261.983	10457.13
262.053	10447.54
262.123	10432.99
262.192	10397.97
262.262	10386.69
262.332	10357.3
262.402	10350.03
262.472	10333.79
262.541	10290.97
262.611	10282.34
262.681	10254.06
262.751	10254.3
262.821	10239.27
262.89	10210.27
262.96	10206.32
263.03	10210.75
263.1	10201.35
263.169	10180.78
263.239	10177.12
263.309	10181.51
263.379	10172.35
263.448	10163.25
263.518	10154.72
263.588	10136.27
263.657	10151.11
263.727	10149.28
263.797	10135.21
263.867	10116.33
263.936	10090.89
264.006	10097.06
264.076	10078.99
264.145	10061.99
264.215	10032.17
264.285	10022.44
264.354	9995.9
264.424	9972.35
264.494	9945.13
264.563	9921.38
264.633	9936.07
264.702	9924.66
264.772	9890.94
264.842	9874.41
264.911	9870.75
264.981	9845.37
265.05	9833.08
265.12	9815.45
265.19	9799.56
265.259	9804.18
265.329	9803.27
265.398	9799.94
265.468	9814.97
265.537	9795.51
265.607	9790.17
265.676	9797.54
265.746	9790.02
265.815	9784.63
265.885	9767.1
265.955	9750.1
266.024	9735.7
266.094	9694.56
266.163	9698.32
266.232	9697.74
266.302	9680.21
266.371	9666.73
266.441	9653.05
266.51	9647.03
266.58	9624.59
266.649	9597.76
266.719	9590.92
266.788	9581.19
266.858	9584.47
266.927	9544.64
266.996	9540.11
267.066	9532.74
267.135	9508.23
267.205	9501.73
267.274	9496.53
267.343	9499.9
267.413	9485.02
267.482	9487.14
267.552	9499.66
267.621	9464.31
267.69	9429.88
267.76	9420.21
267.829	9413.61
267.898	9400.13
267.968	9380.72
268.037	9379.04
268.106	9377.54
268.176	9353.99
268.245	9338.63
268.314	9317.63
268.384	9322.4
268.453	9314.07
268.522	9305.74
268.592	9304.68
268.661	9282.72
268.73	9273.82
268.799	9262.45
268.869	9269.43
268.938	9244.83
269.007	9220.85
269.076	9220.17
269.146	9227.49
269.215	9225.71
269.284	9229.47
269.353	9217
269.422	9213.29
269.492	9191.82
269.561	9157.11
269.63	9150.22
269.699	9134.04
269.768	9124.61
269.838	9115.89
269.907	9114.21
269.976	9088.35
270.045	9058.27
270.114	9061.54
270.183	9045.99
270.253	9032.9
270.322	9002.09
270.391	8984.95
270.46	8990.1
270.529	8986.01
270.598	8978.79
270.667	8968.44
270.736	8951.2
270.806	8944.32
270.875	8941.67
270.944	8936.71
271.013	8959.58
271.082	8952.84
271.151	8953.27
271.22	8925.06
271.289	8909.27
271.358	8891.61
271.427	8889.06
271.496	8888.58
271.565	8869.37
271.634	8866.05
271.703	8895.37
271.772	8899.89
271.841	8890.27
271.91	8868.03
271.979	8861.29
272.048	8847.23
272.117	8842.61
272.186	8827.98
272.255	8832.69
272.324	8831.11
272.393	8826.82
272.462	8813.25
272.531	8805.21
272.6	8789.32
272.669	8795.96
272.738	8792.93
272.807	8791.87
272.876	8771.9
272.945	8799
273.013	8800.45
273.082	8805.69
273.151	8757.69
273.22	8754.04
273.289	8748.21
273.358	8755.48
273.427	8741.76
273.496	8743.45
273.564	8747.54
273.633	8751.73
273.702	8734.64
273.771	8723.43
273.84	8721.65
273.909	8717.65
273.977	8715.77
274.046	8709.32
274.115	8716.54
274.184	8698.98
274.253	8693.92
274.322	8706.15
274.39	8669.95
274.459	8659.12
274.528	8627.26
274.597	8625.34
274.665	8623.56
274.734	8630.83
274.803	8621.49
274.872	8620.72
274.94	8603.25
275.009	8658.72
275.078	8644.67
275.147	8640.05
275.215	8635.29
275.284	8634.76
275.353	8627.2
275.421	8600.06
275.49	8616.62
275.559	8607.86
275.627	8603
275.696	8590.87
275.765	8586.59
275.833	8585.91
275.902	8588.03
275.971	8603.43
276.039	8613.54
276.108	8617.39
276.177	8624.36
276.245	8615.36
276.314	8608
276.383	8613.63
276.451	8546.08
276.52	8544.2
276.588	8556.76
276.657	8566.24
276.725	8561.67
276.794	8558.78
276.863	8573.12
276.931	8547.13
277	8558.63
277.068	8568.64
277.137	8590.06
277.205	8588.66
277.274	8603.15
277.342	8608.11
277.411	8586.69
277.48	8574.57
277.548	8563.88
277.617	8560.61
277.685	8547.81
277.754	8550.46
277.822	8540.88
277.89	8556.67
277.959	8558.74
278.027	8540.89
278.096	8524.62
278.164	8544.21
278.233	8544.3
278.301	8531.79
278.37	8536.22
278.438	8514.13
278.507	8518.56
278.575	8490.21
278.643	8486.12
278.712	8469.28
278.78	8455.52
278.849	8467.06
278.917	8475.24
278.985	8467.3
279.054	8469.57
279.122	8489.92
279.191	8493.96
279.259	8495.17
279.327	8471.58
279.396	8485.78
279.464	8485.44
279.532	8495.02
279.601	8495.12
279.669	8484.53
279.737	8504.6
279.806	8511.57
279.874	8523.6
279.942	8520.24
280.011	8519.66
280.079	8534.05
280.147	8553.87
280.215	8561.04
280.284	8562.58
280.352	8547.23
280.42	8555.46
280.488	8542.28
280.557	8532.31
280.625	8527.98
280.693	8531.74
280.761	8533.42
280.83	8512.87
280.898	8520.67
280.966	8504.83
281.034	8475.57
281.102	8465.18
281.171	8457.48
281.239	8465.13
281.307	8456.95
281.375	8445.79
281.443	8466.39
281.512	8461.48
281.58	8461.28
281.648	8443.87
281.716	8438.77
281.784	8441.94
281.852	8437.13
281.92	8440.45
281.989	8455.32
282.057	8445.41
282.125	8485.79
282.193	8485.46
282.261	8488.97
282.329	8484.4
282.397	8485.89
282.465	8490.22
282.533	8503.55
282.601	8496.04
282.67	8472.32
282.738	8469.62
282.806	8478.95
282.874	8468.56
282.942	8473.52
283.01	8466.3
283.078	8476.06
283.146	8477.8
283.214	8482.56
283.282	8486.55
283.35	8498.88
283.418	8488.96
283.486	8490.79
283.554	8446.46
283.622	8446.6
283.69	8442.85
283.758	8440.39
283.826	8442.46
283.894	8448.96
283.962	8471.58
284.03	8483.51
284.098	8488.61
284.165	8483.42
284.233	8486.45
284.301	8482.17
284.369	8466.86
284.437	8462.82
284.505	8461.91
284.573	8480.67
284.641	8475.24
284.709	8483.32
284.777	8464.89
284.845	8471.72
284.912	8472.3
284.98	8476.1
285.048	8468.55
285.116	8480.29
285.184	8494.58
285.252	8493.04
285.319	8481.93
285.387	8468.79
285.455	8451.08
285.523	8453.05
285.591	8447.81
285.659	8447.09
285.726	8457.14
285.794	8448.92
285.862	8444.59
285.93	8443.34
285.997	8429.57
286.065	8425.82
286.133	8415.66
286.201	8416.29
286.269	8407.19
286.336	8406.38
286.404	8403.63
286.472	8410.9
286.539	8384.77
286.607	8366.63
286.675	8369.28
286.743	8373.95
286.81	8372.07
286.878	8385.78
286.946	8377.89
287.013	8378.9
287.081	8381.6
287.149	8370.48
287.216	8385.83
287.284	8387.13
287.352	8383.33
287.419	8385.3
287.487	8400.99
287.555	8407.24
287.622	8405.13
287.69	8409.65
287.758	8420.24
287.825	8417.54
287.893	8411.72
287.96	8420.04
288.028	8430.48
288.096	8432.26
288.163	8438.47
288.231	8428.13
288.298	8428.7
288.366	8445.54
288.433	8440.01
288.501	8430.05
288.569	8432.55
288.636	8429.23
288.704	8442.8
288.771	8457.1
288.839	8443.87
288.906	8438.33
288.974	8447.62
289.041	8444.06
289.109	8434.05
289.176	8443.77
289.244	8445.89
289.311	8455.37
289.379	8466.92
289.446	8473.22
289.514	8475.63
289.581	8477.26
289.649	8475.1
289.716	8477.5
289.783	8468.89
289.851	8491.65
289.918	8489.1
289.986	8498.29
290.053	8499.3
290.121	8496.27
290.188	8497.04
290.255	8532.31
290.323	8526.78
290.39	8518.84
290.458	8527.64
290.525	8539.48
290.592	8527.98
290.66	8534.28
290.727	8530.91
290.794	8547.37
290.862	8547.71
290.929	8551.9
290.996	8547.13
291.064	8560.41
291.131	8566.96
291.198	8581.69
291.266	8580.82
291.333	8588.08
291.4	8590.15
291.468	8613.3
291.535	8606.33
291.602	8611.28
291.669	8600.12
291.737	8607.91
291.804	8606.66
291.871	8620.86
291.938	8627.5
292.006	8661.2
292.073	8675.44
292.14	8687.23
292.207	8674.86
292.275	8676.6
292.342	8686.32
292.409	8716.35
292.476	8741.62
292.543	8736.23
292.611	8737.24
292.678	8752.74
292.745	8777.96
292.812	8792.4
292.879	8785.52
292.946	8790.72
293.014	8802.99
293.081	8814.93
293.148	8827.83
293.215	8848.14
293.282	8844.77
293.349	8855.6
293.416	8833.36
293.484	8843.61
293.551	8852.28
293.618	8869.41
293.685	8898.44
293.752	8896.61
293.819	8890.35
293.886	8879.18
293.953	8887.75
294.02	8899.02
294.087	8909.56
294.154	8904.84
294.221	8922.08
294.288	8924.05
294.356	8942.87
294.423	8949.56
294.49	8936.76
294.557	8950.57
294.624	8944.51
294.691	8964.92
294.758	8963.72
294.825	8972.52
294.892	8960.49
294.959	8967.57
295.026	8972.96
295.093	8963.28
295.16	8958.52
295.226	8963.19
295.293	8992.8
295.36	8999.82
295.427	9014.12
295.494	9028.76
295.561	9036.7
295.628	9056.74
295.695	9071.32
295.762	9070.7
295.829	9076.28
295.896	9100.06
295.963	9109.45
296.03	9118.5
296.096	9124.04
296.163	9137.52
296.23	9157.02
296.297	9172.95
296.364	9165.15
296.431	9170.26
296.498	9167.9
296.564	9195.48
296.631	9197.7
296.698	9177.96
296.765	9200.34
296.832	9184.36
296.899	9168.61
296.965	9186.48
297.032	9165.48
297.099	9185.71
297.166	9197.4
297.233	9198.08
297.299	9189.08
297.366	9192.16
297.433	9192.88
297.5	9203.52
297.566	9206.41
297.633	9202.41
297.7	9206.46
297.767	9208.43
297.833	9218.01
297.9	9218.25
297.967	9205.06
298.033	9215.7
298.1	9251.77
298.167	9239.73
298.234	9247.63
298.3	9255.19
298.367	9247.24
298.434	9259.86
298.5	9243.54
298.567	9237.61
298.634	9232.08
298.7	9244.02
298.767	9241.66
298.834	9259.47
298.9	9252.59
298.967	9247.05
299.033	9257.79
299.1	9272.52
299.167	9291.2
299.233	9284.7
299.3	9295.54
299.366	9316.38
299.433	9330.64
299.5	9295.92
299.566	9303.81
299.633	9318.93
299.699	9331.93
299.766	9330.39
299.832	9327.65
299.899	9344.41
299.965	9363.04
300.032	9358.28
300.099	9372.48
300.165	9378.64
300.232	9373.01
300.298	9375.18
300.365	9385.05
300.431	9385.82
300.498	9386.11
300.564	9384.57
300.631	9398.77
300.697	9422.08
300.763	9415.53
300.83	9415.48
300.896	9435.47
300.963	9443.17
301.029	9449.29
301.096	9459.64
301.162	9472.02
301.229	9470.52
301.295	9452.47
301.361	9455.45
301.428	9468.93
301.494	9454.39
301.561	9456.75
301.627	9464.5
301.693	9465.37
301.76	9473.94
301.826	9465.51
301.892	9474.18
301.959	9489.88
302.025	9492.29
302.092	9486.56
302.158	9492.48
302.224	9496.57
302.291	9480.4
302.357	9483.14
302.423	9476.45
302.49	9464.12
302.556	9477.17
302.622	9473.85
302.688	9489.01
302.755	9497.39
302.821	9505.44
302.887	9523.3
302.954	9519.79
303.02	9524.65
303.086	9527.92
303.152	9525.37
303.219	9531.1
303.285	9528.55
303.351	9531.63
303.417	9528.41
303.483	9514.1
303.55	9512.71
303.616	9509.48
303.682	9509.82
303.748	9503.17
303.815	9521.86
303.881	9530.48
303.947	9519.93
304.013	9523.16
304.079	9515.69
304.145	9494.65
304.212	9485.16
304.278	9471.92
304.344	9472.3
304.41	9456.22
304.476	9455.21
304.542	9449.14
304.608	9454.49
304.674	9440.43
304.741	9433.06
304.807	9437.05
304.873	9448.85
304.939	9462
305.005	9445.82
305.071	9446.83
305.137	9444.23
305.203	9414.18
305.269	9410.61
305.335	9420.44
305.401	9419.52
305.467	9413.75
305.533	9428.77
305.599	9441
305.666	9451.93
305.732	9450.87
305.798	9467.25
305.864	9489.98
305.93	9493.54
305.996	9489.55
306.062	9490.12
306.128	9489.21
306.194	9478.9
306.259	9469.8
306.325	9462.38
306.391	9471.34
306.457	9488.97
306.523	9491.28
306.589	9519.5
306.655	9512.18
306.721	9496.38
306.787	9484.3
306.853	9508.37
306.919	9483.62
306.985	9478.47
307.051	9464.99
307.117	9462.29
307.183	9451.94
307.248	9425.26
307.314	9435.42
307.38	9438.74
307.446	9450.15
307.512	9439.32
307.578	9441.44
307.644	9441.34
307.709	9446.98
307.775	9442.45
307.841	9430.89
307.907	9434.21
307.973	9411
308.039	9413.94
308.104	9420.06
308.17	9428.87
308.236	9407
308.302	9416.73
308.368	9401.9
308.433	9408.06
308.499	9403.3
308.565	9393.57
308.631	9397.95
308.696	9371.27
308.762	9356.54
308.828	9351.63
308.894	9335.59
308.959	9312.92
309.025	9305.31
309.091	9298.18
309.156	9293.08
309.222	9298.13
309.288	9281.57
309.354	9256.58
309.419	9248.78
309.485	9230.87
309.551	9228.61
309.616	9216.96
309.682	9211.9
309.748	9208.29
309.813	9202.56
309.879	9186.67
309.945	9175.07
310.01	9166.59
310.076	9166.64
310.141	9166.31
310.207	9149.31
310.273	9148.97
310.338	9159.95
310.404	9146.37
310.469	9132.89
310.535	9118.97
310.601	9096.25
310.666	9103.61
310.732	9122.97
310.797	9114.93
310.863	9103.95
310.928	9094.27
310.994	9100.29
311.059	9100.29
311.125	9096.34
311.191	9101.83
311.256	9099.76
311.322	9106.12
311.387	9086.62
311.453	9364.69
311.518	9334.75
311.584	9332.29
311.649	9347.22
311.715	9329.02
311.78	9331.67
311.846	9323.29
311.911	9328.35
311.976	9328.49
312.042	9311.69
312.107	9295.75
312.173	9285.74
312.238	9283.04
312.304	9285.07
312.369	9273.27
312.434	9260.37
312.5	9253.44
312.565	9220.8
312.631	9220.07
312.696	9211.22
312.761	9211.41
312.827	8921.3
312.892	8961.02
312.958	8959.05
313.023	8949.8
313.088	8954.62
313.154	8938.97
313.219	8926.41
313.284	8913.17
313.35	8901.81
313.415	8893.82
313.48	8883.62
313.546	8884.19
313.611	8894.06
313.676	8879.96
313.741	8876.97
313.807	8883.28
313.872	8886.79
313.937	8891.41
314.003	8903.79
314.068	8904.7
314.133	8912.79
314.198	8908.7
314.264	8887.85
314.329	8880.87
314.394	8876.82
314.459	8871.05
314.525	8888.52
314.59	8885.82
314.655	8877.79
314.72	8893.82
314.785	8894.39
314.851	8889.2
314.916	8873.79
314.981	8854.35
315.046	8843.61
315.111	8827.92
315.176	8813.67
315.242	8815.26
315.307	8817.24
315.372	8793.89
315.437	8783.69
315.502	8774.01
315.567	8779.83
315.632	8761.74
315.698	8762.94
315.763	8756.25
315.828	8746.19
315.893	8746.09
315.958	8745.42
316.023	8739.26
316.088	8716.2
316.153	8698.11
316.218	8695.65
316.283	8681.22
316.348	8663.22
316.413	8666.4
316.479	8649.75
316.544	8616.55
316.609	8587.38
316.674	8549.22
316.739	8521.12
316.804	8494.56
316.869	8460.06
316.934	8423.15
316.999	8393.13
317.064	8340.4
317.129	8297.47
317.194	8266.83
317.259	8212.02
317.324	8163.15
317.389	8119.03
317.454	8081.99
317.518	8044.19
317.583	8021.57
317.648	7995.26
317.713	7967.8
317.778	7901.28
317.843	7876.12
317.908	7843.95
317.973	7804.23
318.038	7776.29
318.103	7738.16
318.168	7706.9
318.233	7679.97
318.297	7630.59
318.362	7593.86
318.427	7556.7
318.492	7530.6
318.557	7483.1
318.622	7453.49
318.687	7427.34
318.751	7388.8
318.816	7357.55
318.881	7329.19
318.946	7272.04
319.011	7227.15
319.075	7182.46
319.14	7155.41
319.205	7109.61
319.27	7074.87
319.335	7031.29
319.399	6997.56
319.464	6973.78
319.529	6919.98
319.594	6879.76
319.658	6856.94
319.723	6815.54
319.788	6787.78
319.853	6735.8
319.917	6702.67
319.982	6651.52
320.047	6615.89
320.112	6591.16
320.176	6535.51
320.241	6505.83
320.306	6476.64
320.37	6438.86
320.435	6407.84
320.5	6378.61
320.564	6345.25
320.629	6302.92
320.694	6271.48
320.758	6226.08
320.823	6183.17
320.888	6154.67
320.952	6104.57
321.017	6059.66
321.082	6023.48
321.146	5986.97
321.211	5956.8
321.275	5921.35
321.34	5878.62
321.405	5834.3
321.469	5787.64
321.534	5750.96
321.598	5694.61
321.663	5666.6
321.727	5635.43
321.792	5589.73
321.857	5545.77
321.921	5505.54
321.986	5467.3
322.05	5413.19
322.115	5373.99
322.179	5326.74
322.244	5272.8
322.308	5241.6
322.373	5194.99
322.437	5155.65
322.502	5131.26
322.566	5086.08
322.631	5047.14
322.695	5011.04
322.76	4965.64
322.824	4932.02
322.889	4892.67
322.953	4848.92
323.018	4782.99
323.082	4717.13
323.146	4665.78
323.211	4616.05
323.275	4569.1
323.34	4521.12
323.404	4486.1
323.468	4444.62
323.533	4401.72
323.597	4359.02
323.662	4306.79
323.726	4275.74
323.79	4231.08
323.855	4165.73
323.919	4115.52
323.983	4075.36
324.048	4006.81
324.112	4154.74
324.177	4026.69
324.241	3817.06
324.305	3614.22
324.37	3412.38
324.434	3222.44
324.498	3180.34
324.562	3128.85
324.627	3070.74
324.691	3018.44
324.755	2954.39
324.82	2878.52
324.884	2803.21
324.948	2731.82
325.012	2638.59
325.077	2512.54
