Data from 20250704_urea_2M_MAYP1162681_12-10-29-460.txt Node
Date: Fri Jul 04 12:10:29 BST 2025
User: adleo
Spectrometer: MAYP116268
Trigger mode: 0
Integration Time (sec): 1.000000E0
Scans to average: 1
Electric dark correction enabled: true
Nonlinearity correction enabled: true
Boxcar width: 10
XAxis mode: Wavelengths
Number of Pixels in Spectrum: 2068
>>>>>Begin Spectral Data<<<<<
179.565	1262.73
179.642	1325.75
179.718	1374.62
179.795	1419.01
179.871	1455.41
179.948	1477.15
180.024	1500.04
180.101	1526.1
180.177	1542.63
180.254	1567.85
180.33	1591.47
180.407	1651.16
180.483	1752.12
180.56	1848.14
180.636	1937.26
180.712	1924.75
180.789	1935.74
180.865	1949.85
180.942	1956.94
181.018	1968.58
181.095	1987.13
181.171	1992.55
181.248	1993.08
181.324	2006.63
181.4	2012.72
181.477	2021.28
181.553	2033.45
181.63	2053.48
181.706	2069.56
181.782	2078.49
181.859	2075.83
181.935	2081.87
182.011	2079.16
182.088	2096.05
182.164	2117.65
182.24	2132.44
182.317	2143.71
182.393	2140.81
182.469	2157.65
182.546	2171.78
182.622	2176.01
182.698	2167.69
182.775	2178.39
182.851	2192
182.927	2185.34
183.003	2182.24
183.08	2175.73
183.156	2185.72
183.232	2182.86
183.308	2169.92
183.385	2180.53
183.461	2200.94
183.537	2199.33
183.613	2212.89
183.69	2206.7
183.766	2194.37
183.842	2201.03
183.918	2206.74
183.995	2220.87
184.071	2222.35
184.147	2216.59
184.223	2205.08
184.299	2220.17
184.375	2210.89
184.452	2218.13
184.528	2270.53
184.604	2283.37
184.68	2296.98
184.756	2304.17
184.832	2307.97
184.908	2313.87
184.985	2309.16
185.061	2290.32
185.137	2302.88
185.213	2288.75
185.289	2287.09
185.365	2282.38
185.441	2282.71
185.517	2294.13
185.593	2289.66
185.669	2288.76
185.745	2299.41
185.822	2320.73
185.898	2312.59
185.974	2323.96
186.05	2315.44
186.126	2280.79
186.202	2270.65
186.278	2266.94
186.354	2256.9
186.43	2264.85
186.506	2264.04
186.582	2267.23
186.658	2277.17
186.734	2255.09
186.81	2259.99
186.886	2264.04
186.962	2275.13
187.038	2269.27
187.114	2264.18
187.19	2276.13
187.266	2264.14
187.341	2266.37
187.417	2258.66
187.493	2256.62
187.569	2256.66
187.645	2252.24
187.721	2241.29
187.797	2247.1
187.873	2253.38
187.949	2247.76
188.025	2240.77
188.101	2242.67
188.176	2245.76
188.252	2240.77
188.328	2249.18
188.404	2248.14
188.48	2242.76
188.556	2236.24
188.632	2236.38
188.707	2235
188.783	2226.29
188.859	2222.16
188.935	2211.69
189.011	2216.4
189.086	2213.21
189.162	2206.02
189.238	2200.03
189.314	2194.08
189.39	2190.9
189.465	2183.09
189.541	2200.6
189.617	2182.43
189.693	2176.91
189.768	2179.01
189.844	2202.86
189.92	2195.2
189.996	2203.67
190.071	2213.8
190.147	2209.43
190.223	2219.56
190.298	2214.52
190.374	2204.48
190.45	2215.99
190.526	2223.65
190.601	2217.32
190.677	2217.42
190.753	2245.13
190.828	2250.69
190.904	2266.4
190.98	2281.82
191.055	2290.91
191.131	2281.25
191.207	2307.84
191.282	2319.98
191.358	2310.84
191.433	2294.75
191.509	2308.88
191.585	2305.45
191.66	2308.16
191.736	2318.92
191.811	2311.02
191.887	2327.87
191.963	2350.86
192.038	2357.62
192.114	2356.43
192.189	2360.61
192.265	2360.85
192.34	2339.33
192.416	2337.23
192.491	2332.66
192.567	2334.05
192.642	2339.38
192.718	2340.42
192.793	2326.1
192.869	2320.48
192.944	2322.67
193.02	2333.71
193.095	2337.38
193.171	2341.33
193.246	2339.62
193.322	2334.52
193.397	2331.29
193.473	2314.62
193.548	2299.53
193.624	2304.06
193.699	2306.39
193.775	2325.24
193.85	2324.86
193.925	2335.43
194.001	2336.05
194.076	2329.43
194.152	2321.39
194.227	2311.91
194.302	2304.44
194.378	2308.82
194.453	2306.87
194.529	2318.63
194.604	2301.16
194.679	2293.02
194.755	2276.09
194.83	2289.94
194.905	2288.61
194.981	2301.03
195.056	2295.32
195.131	2299.27
195.207	2298.32
195.282	2288.8
195.357	2265.24
195.433	2276.09
195.508	2262.57
195.583	2269.52
195.659	2285.89
195.734	2293.56
195.809	2291.8
195.884	2298.08
195.96	2295.36
196.035	2310.45
196.11	2308.69
196.185	2320.97
196.261	2328.11
196.336	2358.37
196.411	2342.04
196.486	2345.9
196.561	2338.61
196.637	2347.13
196.712	2363.8
196.787	2365.23
196.862	2380.41
196.937	2390.26
197.013	2399.74
197.088	2410.87
197.163	2433.06
197.238	2448.64
197.313	2446.5
197.388	2465.55
197.464	2497.93
197.539	2512.93
197.614	2505.65
197.689	2515.64
197.764	2532.08
197.839	2551.93
197.914	2547.41
197.989	2572.27
198.065	2589.7
198.14	2641.93
198.215	2669.18
198.29	2681.28
198.365	2698.29
198.44	2708.53
198.515	2740.93
198.59	2755.41
198.665	2783.86
198.74	2795.96
198.815	2797.54
198.89	2822.03
198.965	2850.01
199.04	2845.58
199.115	2860.16
199.19	2903.38
199.265	2906.71
199.34	2919.29
199.415	2954.59
199.49	2978.22
199.565	2986.75
199.64	3009.11
199.715	3006.15
199.79	3013.5
199.865	3020.5
199.94	3016.41
200.015	3048.21
200.09	3056.51
200.165	3063.57
200.24	3068.91
200.315	3104.65
200.39	3121.82
200.464	3126.3
200.539	3127.69
200.614	3144.66
200.689	3172.61
200.764	3180.58
200.839	3202.18
200.914	3203.65
200.989	3191.25
201.063	3204.36
201.138	3188.06
201.213	3194.31
201.288	3177
201.363	3182.82
201.438	3186.11
201.512	3202.32
201.587	3186.15
201.662	3190.49
201.737	3206.85
201.812	3215.48
201.886	3182.17
201.961	3193.05
202.036	3180.37
202.111	3176.74
202.186	3143.95
202.26	3125.44
202.335	3102.88
202.41	3094.11
202.485	3078.57
202.559	3059.26
202.634	3032.94
202.709	3043.37
202.784	3018.96
202.858	3016.48
202.933	2996.31
203.008	2987.92
203.082	2970.09
203.157	2967.42
203.232	2923
203.306	2898.3
203.381	2861.4
203.456	2839.19
203.53	2814.67
203.605	2795.81
203.68	2772.45
203.754	2766.07
203.829	2747.67
203.904	2729.94
203.978	2719.27
204.053	2725.75
204.127	2713.12
204.202	2710.31
204.277	2690.92
204.351	2683.73
204.426	2677.01
204.5	2671.1
204.575	2633.15
204.65	2641.63
204.724	2633.57
204.799	2637.67
204.873	2633.33
204.948	2634.28
205.022	2622.19
205.097	2610.18
205.171	2622.99
205.246	2629.52
205.32	2631.56
205.395	2631.56
205.469	2619.19
205.544	2625.05
205.618	2605.75
205.693	2615.52
205.767	2602.42
205.842	2625.67
205.916	2618.86
205.991	2606.33
206.065	2611.43
206.14	2628.95
206.214	2622.66
206.289	2615.94
206.363	2628.23
206.438	2632.85
206.512	2642.24
206.586	2664.34
206.661	2672.06
206.735	2650.73
206.81	2653.49
206.884	2668.68
206.958	2656.3
207.033	2674.54
207.107	2683.79
207.181	2716
207.256	2710.14
207.33	2732.82
207.405	2746.07
207.479	2766.61
207.553	2773.66
207.628	2756.65
207.702	2766.56
207.776	2764.18
207.851	2769.37
207.925	2785.53
207.999	2780.91
208.073	2776.86
208.148	2779.19
208.222	2769.66
208.296	2806.15
208.371	2824.27
208.445	2837.52
208.519	2867.59
208.593	2877.5
208.668	2870.2
208.742	2872.83
208.816	2874.26
208.89	2886.32
208.965	2880.88
209.039	2889.7
209.113	2911.58
209.187	2930.73
209.261	2926.63
209.336	2947.32
209.41	2963.34
209.484	2965.82
209.558	2991.09
209.632	3004.38
209.707	3012.97
209.781	3039.24
209.855	3052.93
209.929	3069.01
210.003	3072.25
210.077	3074.26
210.151	3128.19
210.226	3166.74
210.3	3196.44
210.374	3224.09
210.448	3227.28
210.522	3240.83
210.596	3254.38
210.67	3265.4
210.744	3319.04
210.818	3353.51
210.892	3376.37
210.966	3372.03
211.041	3390.5
211.115	3387.78
211.189	3417.12
211.263	3440.07
211.337	3444.32
211.411	3459.07
211.485	3457.69
211.559	3475.58
211.633	3478.01
211.707	3449.16
211.781	3461.34
211.855	3429.89
211.929	3428.55
212.003	3418.06
212.077	3437.25
212.151	3455.49
212.225	3472.25
212.299	3468.71
212.373	3469.24
212.447	3476.88
212.52	3524.48
212.594	3541.86
212.668	3569.22
212.742	3572.65
212.816	3587.75
212.89	3605.65
212.964	3630.21
213.038	3659.93
213.112	3700.64
213.186	3751.16
213.26	3759.71
213.333	3743.85
213.407	3787.87
213.481	3827.41
213.555	3883.61
213.629	3911.24
213.703	3943.32
213.777	3994.62
213.85	4026.08
213.924	4112.26
213.998	4166.59
214.072	4221.72
214.146	4270.08
214.219	4336.82
214.293	4400.38
214.367	4470.63
214.441	4557.53
214.515	4621.54
214.588	4672.23
214.662	4723.99
214.736	4786.27
214.81	4881.45
214.883	4982.86
214.957	5065.23
215.031	5151.71
215.105	5226.94
215.178	5318.32
215.252	5414.66
215.326	5494.15
215.4	5588
215.473	5658.71
215.547	5755.32
215.621	5855.28
215.694	5979.81
215.768	6073.19
215.842	6184.91
215.915	6297.15
215.989	6391.88
216.063	6511.51
216.136	6646.16
216.21	6774.38
216.284	6918.79
216.357	7055.9
216.431	7192.03
216.504	7340.44
216.578	7503.45
216.652	7654.26
216.725	7798.91
216.799	7947.33
216.873	8091.61
216.946	8247.83
217.02	8385.5
217.093	8527.48
217.167	8652.65
217.24	8783.43
217.314	8924.96
217.387	9065.93
217.461	9210.41
217.535	9378.92
217.608	9519.86
217.682	9671.61
217.755	9824.61
217.829	9966.27
217.902	10119.68
217.976	10264.48
218.049	10403.37
218.123	10534.28
218.196	10689.61
218.27	10833.97
218.343	10969.96
218.417	11120.59
218.49	11269.31
218.563	11432.53
218.637	11588.78
218.71	11764.06
218.784	11922.88
218.857	12086.07
218.931	12244.84
219.004	12392.47
219.077	12545.04
219.151	12689.79
219.224	12827.31
219.298	12969.42
219.371	13118.08
219.444	13243.51
219.518	13380.65
219.591	13517.02
219.665	13678.99
219.738	13808.23
219.811	13928.26
219.885	14072.11
219.958	14209.78
220.031	14327.21
220.105	14462.42
220.178	14589.97
220.251	14692.07
220.325	14817.3
220.398	14939.3
220.471	15053.16
220.544	15182.78
220.618	15282.75
220.691	15400.79
220.764	15507.27
220.838	15619.34
220.911	15719.55
220.984	15842.17
221.057	15961.27
221.131	16071.84
221.204	16147.32
221.277	16268.97
221.35	16395.92
221.424	16483.79
221.497	16578.59
221.57	16671.71
221.643	16764.48
221.716	16857.84
221.79	16949.6
221.863	17028.06
221.936	17104.98
222.009	17185.85
222.082	17268.79
222.155	17333.86
222.229	17427.64
222.302	17511.93
222.375	17585.52
222.448	17662.82
222.521	17742.72
222.594	17800.99
222.667	17852.5
222.74	17924.17
222.814	17979.1
222.887	18035.15
222.96	18114.23
223.033	18188.73
223.106	18251
223.179	18320.63
223.252	18377.11
223.325	18431.57
223.398	18492.14
223.471	18550.98
223.544	18606.74
223.617	18650.69
223.69	18709.96
223.763	18733.24
223.837	18780.85
223.91	18839.83
223.983	18872.75
224.056	18893.32
224.129	18941.99
224.202	18995.15
224.275	19030.47
224.348	19068.88
224.42	19090.13
224.493	19089.12
224.566	19108.92
224.639	19150.8
224.712	19165.07
224.785	19187.96
224.858	19220.72
224.931	19245.3
225.004	19258.26
225.077	19280
225.15	19275.95
225.223	19299.71
225.296	19357.25
225.369	19367.27
225.442	19372.72
225.514	19389.1
225.587	19417.24
225.66	19436.04
225.733	19469.1
225.806	19491.6
225.879	19498.93
225.952	19510.59
226.025	19555.69
226.097	19583.84
226.17	19595.69
226.243	19585.62
226.316	19602.1
226.389	19617.62
226.461	19636.7
226.534	19654.05
226.607	19666.15
226.68	19710.14
226.753	19727.35
226.825	19710.48
226.898	19735.06
226.971	19744.5
227.044	19759.25
227.117	19767.44
227.189	19779.01
227.262	19789.27
227.335	19796.36
227.407	19802.48
227.48	19819.25
227.553	19824.55
227.626	19821.9
227.698	19812.02
227.771	19823.34
227.844	19828.35
227.916	19831
227.989	19805.17
228.062	19806.19
228.134	19835.05
228.207	19827.78
228.28	19826.96
228.352	19828.69
228.425	19829.61
228.498	19841.41
228.57	19832.74
228.643	19852.45
228.716	19850.14
228.788	19835.49
228.861	19835.25
228.934	19844.26
229.006	19842.96
229.079	19836.74
229.151	19824.5
229.224	19815.97
229.296	19820.88
229.369	19838.86
229.442	19849.37
229.514	19848.74
229.587	19865.7
229.659	19840.45
229.732	19849.32
229.804	19844.45
229.877	19872.26
229.949	19874.38
230.022	19893.03
230.094	19893.03
230.167	19880.64
230.239	19867.73
230.312	19865.27
230.384	19882.96
230.457	19887.39
230.529	19879.82
230.602	19878.38
230.674	19871.63
230.747	19875.87
230.819	19886.71
230.892	19846.67
230.964	19835.58
231.037	19834.19
231.109	19815.05
231.181	19817.37
231.254	19786.04
231.326	19771.39
231.399	19751.44
231.471	19736.02
231.544	19699.54
231.616	19698.63
231.688	19693.47
231.761	19677.81
231.833	19652.89
231.905	19607.79
231.978	19587.31
232.05	19566.15
232.122	19553.57
232.195	19536.8
232.267	19548.22
232.339	19522.35
232.412	19521.29
232.484	19509.43
232.556	19489.38
232.629	19500.52
232.701	19493.19
232.773	19487.12
232.846	19474.2
232.918	19449.67
232.99	19440.95
233.062	19422.74
233.135	19405.44
233.207	19367.94
233.279	19361.73
233.351	19351.27
233.424	19338.98
233.496	19317.63
233.568	19320.86
233.64	19296.43
233.713	19279.37
233.785	19247.42
233.857	19235.18
233.929	19204.68
234.001	19204.39
234.074	19211.28
234.146	19167.81
234.218	19144.2
234.29	19123.29
234.362	19098.27
234.434	19061.22
234.507	19018.57
234.579	19000.79
234.651	18982.67
234.723	18980.5
234.795	18966.23
234.867	18947.83
234.939	18944.45
235.012	18918.19
235.084	18916.94
235.156	18897.81
235.228	18875.35
235.3	18856.94
235.372	18838
235.444	18830.15
235.516	18780.08
235.588	18754.3
235.66	18733.38
235.732	18704.61
235.804	18742.2
235.876	18741.82
235.948	18746.59
236.02	18734.25
236.092	18697.77
236.164	18673.92
236.236	18641.92
236.308	18616.86
236.38	18600.76
236.452	18566.4
236.524	18545.83
236.596	18526.89
236.668	18512.09
236.74	18488.96
236.812	18464.05
236.884	18445.25
236.956	18417.25
237.028	18390.03
237.1	18355.72
237.172	18356.68
237.244	18349.35
237.316	18278.03
237.388	18242.28
237.46	18206.42
237.532	18204.21
237.604	18180.78
237.675	18177.46
237.747	18158.76
237.819	18120.84
237.891	18096.16
237.963	18064.93
238.035	18036.89
238.107	17971.44
238.178	17960.21
238.25	17938.24
238.322	17930.24
238.394	17889.18
238.466	17861.61
238.538	17839.45
238.609	17819.25
238.681	17767.01
238.753	17726.49
238.825	17700.85
238.897	17675.26
238.968	17671.5
239.04	17629.19
239.112	17627.07
239.184	17582.63
239.255	17551.55
239.327	17530.25
239.399	17508.03
239.471	17487.45
239.542	17469.77
239.614	17464.51
239.686	17413.72
239.758	17398.39
239.829	17374.92
239.901	17359.74
239.973	17333.48
240.044	17309.48
240.116	17280.8
240.188	17250.34
240.259	17226.2
240.331	17185.14
240.403	17157.76
240.474	17101.23
240.546	17063.45
240.618	17019.88
240.689	16984.7
240.761	16959.25
240.833	16954.87
240.904	16916.84
240.976	16890.67
241.048	16862.09
241.119	16838.38
241.191	16809.46
241.262	16793.46
241.334	16754.33
241.405	16723.43
241.477	16688.88
241.549	16654.37
241.62	16626.18
241.692	16611.48
241.763	16598.8
241.835	16577.88
241.906	16554.94
241.978	16516.96
242.049	16508.09
242.121	16498.65
242.192	16485.15
242.264	16442.16
242.335	16387.46
242.407	16375.36
242.478	16337.57
242.55	16313.52
242.621	16279.16
242.693	16246.33
242.764	16207.34
242.836	16174.66
242.907	16151.29
242.979	16132.2
243.05	16107.86
243.122	16089.5
243.193	16049.2
243.264	15989.87
243.336	15960.23
243.407	15935.6
243.479	15927.21
243.55	15894.53
243.622	15861.37
243.693	15839.49
243.764	15837.56
243.836	15803.73
243.907	15769.26
243.978	15744.78
244.05	15723.23
244.121	15674.02
244.192	15655.22
244.264	15620.76
244.335	15598.3
244.407	15548.94
244.478	15522.52
244.549	15499.53
244.62	15451.47
244.692	15426.31
244.763	15412.29
244.834	15380.14
244.906	15349.05
244.977	15317.33
245.048	15308.89
245.119	15270.91
245.191	15229.89
245.262	15175.95
245.333	15162.65
245.405	15131.61
245.476	15107.17
245.547	15076.03
245.618	15064.22
245.689	15042.34
245.761	15019.63
245.832	14983.82
245.903	14977.74
245.974	14953.4
246.045	14925.3
246.117	14920.77
246.188	14885.82
246.259	14841.37
246.33	14819.78
246.401	14781.7
246.473	14744.72
246.544	14700.96
246.615	14678.78
246.686	14638.1
246.757	14630.53
246.828	14595.39
246.899	14578.76
246.97	14535.61
247.042	14500.62
247.113	14478.49
247.184	14470.01
247.255	14430.62
247.326	14418.76
247.397	14380.54
247.468	14357.88
247.539	14329.97
247.61	14283.16
247.681	14261.33
247.752	14251.11
247.823	14213.75
247.894	14201.17
247.965	14168.92
248.037	14147.13
248.108	14114.83
248.179	14098.97
248.25	14062.28
248.321	14047.68
248.392	14016.97
248.463	14019.57
248.534	13994.55
248.605	13972.86
248.675	13935.16
248.746	13914
248.817	13884.55
248.888	13865.51
248.959	13813.3
249.03	13794.35
249.101	13771.75
249.172	13742.82
249.243	13695.58
249.314	13687.96
249.385	13664.2
249.456	13650.02
249.527	13619.56
249.598	13593.86
249.669	13570.1
249.739	13553.18
249.81	13527.92
249.881	13484.58
249.952	13459.75
250.023	13432.9
250.094	13401.23
250.165	13375.39
250.235	13350.13
250.306	13322.89
250.377	13292.14
250.448	13278.59
250.519	13229.04
250.59	13226.67
250.66	13201.61
250.731	13202.33
250.802	13171.62
250.873	13149.06
250.944	13128.24
251.014	13093.86
251.085	13099.79
251.156	13077.81
251.227	13071.79
251.297	13069.81
251.368	13054.87
251.439	13043.15
251.51	13037.27
251.58	12996.97
251.651	12967.57
251.722	12961.2
251.792	12927.99
251.863	12906.68
251.934	12907.69
252.005	12921.38
252.075	12899.79
252.146	12891.69
252.217	12877.47
252.287	12868.6
252.358	12843
252.429	12838.37
252.499	12817.4
252.57	12800.19
252.641	12791.9
252.711	12770.07
252.782	12728.46
252.852	12741.62
252.923	12713.95
252.994	12693.71
253.064	12695.88
253.135	12673.75
253.205	12651.58
253.276	12646.71
253.347	12642.56
253.417	12608.48
253.488	12576.62
253.558	12545.62
253.629	12522.97
253.699	12507.25
253.77	12502.14
253.841	12481.42
253.911	12463.87
253.982	12445.65
254.052	12431.04
254.123	12415.71
254.193	12391.71
254.264	12412.72
254.334	12376.04
254.405	12340.23
254.475	12304.03
254.546	12277.71
254.616	12268.26
254.687	12255.68
254.757	12244.83
254.827	12219.53
254.898	12200.05
254.968	12189.3
255.039	12165.15
255.109	12151.56
255.18	12119.03
255.25	12071.35
255.321	12063.64
255.391	12030.14
255.461	12035.78
255.532	11989.84
255.602	11962.56
255.673	11920.53
255.743	11883.12
255.813	11836.32
255.884	11827.79
255.954	11822.97
256.024	11832.76
256.095	11816.37
256.165	11786.68
256.235	11769.66
256.306	11740.74
256.376	11740.6
256.446	11731.68
256.517	11726.19
256.587	11727.54
256.657	11717.95
256.728	11701.32
256.798	11675.15
256.868	11656.2
256.938	11624.01
257.009	11612.92
257.079	11605.74
257.149	11616.54
257.219	11583.91
257.29	11573.26
257.36	11536.73
257.43	11525.83
257.5	11477.15
257.571	11453.59
257.641	11439.46
257.711	11409.58
257.781	11405.34
257.852	11389.19
257.922	11346.83
257.992	11325.24
258.062	11300.08
258.132	11292.27
258.202	11277.04
258.273	11261.38
258.343	11261.48
258.413	11241.67
258.483	11226.05
258.553	11192.66
258.623	11166.1
258.693	11149.04
258.764	11157.38
258.834	11163.16
258.904	11147.74
258.974	11123.89
259.044	11103.45
259.114	11088.9
259.184	11077.86
259.254	11061.14
259.324	11024.56
259.394	11016.03
259.464	11013.96
259.535	10993.48
259.605	10965.82
259.675	10941.97
259.745	10933.15
259.815	10905.58
259.885	10882.98
259.955	10892.96
260.025	10869.93
260.095	10854.12
260.165	10855.62
260.235	10855.62
260.305	10831.09
260.375	10807.86
260.445	10820.05
260.515	10823.14
260.585	10826.94
260.655	10811.96
260.725	10802.99
260.795	10797.36
260.865	10807
260.934	10785.12
261.004	10783.86
261.074	10764.25
261.144	10768.45
261.214	10760.11
261.284	10739.92
261.354	10733.95
261.424	10703.3
261.494	10710.28
261.564	10702.67
261.634	10686.29
261.703	10646.49
261.773	10636.32
261.843	10628.51
261.913	10611.46
261.983	10576.67
262.053	10562.12
262.123	10541.88
262.192	10516.73
262.262	10511.77
262.332	10474.91
262.402	10467.97
262.472	10446.19
262.541	10417
262.611	10405.34
262.681	10381.15
262.751	10373.15
262.821	10358.89
262.89	10337.84
262.96	10331.43
263.03	10326.61
263.1	10319.62
263.169	10305.94
263.239	10301.8
263.309	10307.92
263.379	10292.79
263.448	10283.25
263.518	10268.37
263.588	10253.24
263.657	10258.3
263.727	10255.7
263.797	10244.76
263.867	10225.3
263.936	10198.46
264.006	10201.88
264.076	10181.89
264.145	10168.45
264.215	10158.24
264.285	10152.17
264.354	10119.46
264.424	10092.24
264.494	10067.05
264.563	10039.44
264.633	10046.67
264.702	10034.1
264.772	10000.61
264.842	9989.39
264.911	9984.14
264.981	9956.06
265.05	9944.3
265.12	9923.49
265.19	9909.52
265.259	9901.24
265.329	9899.55
265.398	9884.62
265.468	9893.1
265.537	9882.6
265.607	9878.74
265.676	9876.29
265.746	9872
265.815	9872.53
265.885	9868.48
265.955	9848.74
266.024	9840.36
266.094	9808.04
266.163	9810.59
266.232	9810.93
266.302	9793.88
266.371	9787.71
266.441	9779.91
266.51	9778.99
266.58	9765.89
266.649	9745.18
266.719	9750.38
266.788	9738.58
266.858	9749.61
266.927	9719.61
266.996	9707.57
267.066	9690.56
267.135	9658.39
267.205	9654.3
267.274	9646.93
267.343	9642.65
267.413	9631.28
267.482	9625.6
267.552	9630.99
267.621	9599.54
267.69	9568
267.76	9561.88
267.829	9549.99
267.898	9537.13
267.968	9518.06
268.037	9509.77
268.106	9506.79
268.176	9475.82
268.245	9463.68
268.314	9445.14
268.384	9441.72
268.453	9432.96
268.522	9435.51
268.592	9443.99
268.661	9419.48
268.73	9409.46
268.799	9385.05
268.869	9388.56
268.938	9364.48
269.007	9343.2
269.076	9338.34
269.146	9337.81
269.215	9326.49
269.284	9331.6
269.353	9318.4
269.422	9302.37
269.492	9290.24
269.561	9248.45
269.63	9242.96
269.699	9224.08
269.768	9215.7
269.838	9208.96
269.907	9211.66
269.976	9184.79
270.045	9151.52
270.114	9147.14
270.183	9134.1
270.253	9131.11
270.322	9110.6
270.391	9101.12
270.46	9104.29
270.529	9099.91
270.598	9095.63
270.667	9086.05
270.736	9062.16
270.806	9056.19
270.875	9062.89
270.944	9048.15
271.013	9073.72
271.082	9067.22
271.151	9066.5
271.22	9038.82
271.289	9031.02
271.358	9015.27
271.427	9013.83
271.496	9012.29
271.565	8999.53
271.634	8990.63
271.703	9018.22
271.772	9016.39
271.841	9002.62
271.91	8978.26
271.979	8972.05
272.048	8953.18
272.117	8952.32
272.186	8939.27
272.255	8947.36
272.324	8941.15
272.393	8933.74
272.462	8914.19
272.531	8907.26
272.6	8895.85
272.669	8906.24
272.738	8889.06
272.807	8879.67
272.876	8857.48
272.945	8880.01
273.013	8885.45
273.082	8894.41
273.151	8848.72
273.22	8843.71
273.289	8845.97
273.358	8858.73
273.427	8848.19
273.496	8849.87
273.564	8852.33
273.633	8856.23
273.702	8836.1
273.771	8828.11
273.84	8826.72
273.909	8824.45
273.977	8823.35
274.046	8813.24
274.115	8815.36
274.184	8803.47
274.253	8803.28
274.322	8817.86
274.39	8788.02
274.459	8773.38
274.528	8745.66
274.597	8734.74
274.665	8735.31
274.734	8739.31
274.803	8729.1
274.872	8725.97
274.94	8711.44
275.009	8767.06
275.078	8749.64
275.147	8743.67
275.215	8735.3
275.284	8741.65
275.353	8731.78
275.421	8709.6
275.49	8723.56
275.559	8711.62
275.627	8709.36
275.696	8697.13
275.765	8694.05
275.833	8684.43
275.902	8685.59
275.971	8702.33
276.039	8722.69
276.108	8723.27
276.177	8717.49
276.245	8703.78
276.314	8692.42
276.383	8697.33
276.451	8627.74
276.52	8632.46
276.588	8642.86
276.657	8653.06
276.725	8641.12
276.794	8640.26
276.863	8653.97
276.931	8635.78
277	8644.15
277.068	8651.18
277.137	8673.08
277.205	8672.94
277.274	8688.86
277.342	8691.22
277.411	8664.9
277.48	8651.76
277.548	8638
277.617	8643.58
277.685	8643.53
277.754	8652.24
277.822	8642.28
277.89	8653.88
277.959	8645.55
278.027	8628.18
278.096	8611.05
278.164	8641.04
278.233	8638.92
278.301	8627.94
278.37	8630.4
278.438	8617.79
278.507	8623.37
278.575	8593
278.643	8588.29
278.712	8578.28
278.78	8564.03
278.849	8577.31
278.917	8586.46
278.985	8588.14
279.054	8588.38
279.122	8599.16
279.191	8593.77
279.259	8592.81
279.327	8566.91
279.396	8587.37
279.464	8586.65
279.532	8599.93
279.601	8595.31
279.669	8584.58
279.737	8594.44
279.806	8592.71
279.874	8597.09
279.942	8597.14
280.011	8598.82
280.079	8607.97
280.147	8622.36
280.215	8629.58
280.284	8621.68
280.352	8609.41
280.42	8612.97
280.488	8602.14
280.557	8595.94
280.625	8594.11
280.693	8591.41
280.761	8605.75
280.83	8587.7
280.898	8604.02
280.966	8582.94
281.034	8551.8
281.102	8549.4
281.171	8542.85
281.239	8553.15
281.307	8545.59
281.375	8530.82
281.443	8555.61
281.512	8548.1
281.58	8555.56
281.648	8544.44
281.716	8549.26
281.784	8547.28
281.852	8540.83
281.92	8541.17
281.989	8549.59
282.057	8537.61
282.125	8583.72
282.193	8570.97
282.261	8569.48
282.329	8557.88
282.397	8563.37
282.465	8571.59
282.533	8582.32
282.601	8576.31
282.67	8550.47
282.738	8545.61
282.806	8560.14
282.874	8541.99
282.942	8542.19
283.01	8532.9
283.078	8535.4
283.146	8527.56
283.214	8542.57
283.282	8547.53
283.35	8561.49
283.418	8552.58
283.486	8560.86
283.554	8521.43
283.622	8525.91
283.69	8523.12
283.758	8519.08
283.826	8526.49
283.894	8535.39
283.962	8554.74
284.03	8565.62
284.098	8572.83
284.165	8574.47
284.233	8575.43
284.301	8569.46
284.369	8564.65
284.437	8552.62
284.505	8546.85
284.573	8566.82
284.641	8548.77
284.709	8553
284.777	8534.52
284.845	8546.51
284.912	8550.21
284.98	8552.23
285.048	8548.43
285.116	8557
285.184	8567.59
285.252	8566
285.319	8548.77
285.387	8534.86
285.455	8519.6
285.523	8530.53
285.591	8522.06
285.659	8517.1
285.726	8530.38
285.794	8513.59
285.862	8513.5
285.93	8514.03
285.997	8504.59
286.065	8502.23
286.133	8491.41
286.201	8494.78
286.269	8473.94
286.336	8473.07
286.404	8467.92
286.472	8477.07
286.539	8453.15
286.607	8441.84
286.675	8440.16
286.743	8446.41
286.81	8444.68
286.878	8456.37
286.946	8449.25
287.013	8452.24
287.081	8455.22
287.149	8442.08
287.216	8466.09
287.284	8463.88
287.352	8467.39
287.419	8464.99
287.487	8480.14
287.555	8489.1
287.622	8484.33
287.69	8496.6
287.758	8498.86
287.825	8495.69
287.893	8482.41
287.96	8493.38
288.028	8502.81
288.096	8511.04
288.163	8515.47
288.231	8505.7
288.298	8503.96
288.366	8516.38
288.433	8516.81
288.501	8510.8
288.569	8516.48
288.636	8508.73
288.704	8525.62
288.771	8531.2
288.839	8525.24
288.906	8520.23
288.974	8525.72
289.041	8519.56
289.109	8508.11
289.176	8522.88
289.244	8528.8
289.311	8546.13
289.379	8557.82
289.446	8555.84
289.514	8549.64
289.581	8543.77
289.649	8543.57
289.716	8551.27
289.783	8538.09
289.851	8557.09
289.918	8551.13
289.986	8558.06
290.053	8561.57
290.121	8554.01
290.188	8555.41
290.255	8585.06
290.323	8577.36
290.39	8569.32
290.458	8579.04
290.525	8591.26
290.592	8578.84
290.66	8578.94
290.727	8576.49
290.794	8587.56
290.862	8592.99
290.929	8598.14
290.996	8604.59
291.064	8622.88
291.131	8631.26
291.198	8646.42
291.266	8643.58
291.333	8648.15
291.4	8654.4
291.468	8672.17
291.535	8667.16
291.602	8676.59
291.669	8670.29
291.737	8681.69
291.804	8685.64
291.871	8704.65
291.938	8715.87
292.006	8750.57
292.073	8765.44
292.14	8770.88
292.207	8764.67
292.275	8766.36
292.342	8782.58
292.409	8810.98
292.476	8832.36
292.543	8827.45
292.611	8822.59
292.678	8839.58
292.745	8864.32
292.812	8879.96
292.879	8877.7
292.946	8884.48
293.014	8894.06
293.081	8901.57
293.148	8910.14
293.215	8924.82
293.282	8918.52
293.349	8922.27
293.416	8899.16
293.484	8914.47
293.551	8928.14
293.618	8945.47
293.685	8974.36
293.752	8959.67
293.819	8953.51
293.886	8932.62
293.953	8939.36
294.02	8959.14
294.087	8962.95
294.154	8962.17
294.221	8970.5
294.288	8971.32
294.356	8991.44
294.423	8998.04
294.49	8987.45
294.557	9002.18
294.624	8997.03
294.691	9016.67
294.758	9022.69
294.825	9035.35
294.892	9027.26
294.959	9024.76
295.026	9030.87
295.093	9018.16
295.16	9019.75
295.226	9022.06
295.293	9058.03
295.36	9063.47
295.427	9073.48
295.494	9092.11
295.561	9096.35
295.628	9114.7
295.695	9126.3
295.762	9127.89
295.829	9137.52
295.896	9158.27
295.963	9170.26
296.03	9178.68
296.096	9180.99
296.163	9196.83
296.23	9209.45
296.297	9218.69
296.364	9216.29
296.431	9218.45
296.498	9212.48
296.564	9244.84
296.631	9243.97
296.698	9227.36
296.765	9245.7
296.832	9236.36
296.899	9223.94
296.965	9237.71
297.032	9222.68
297.099	9241.75
297.166	9250.03
297.233	9244.59
297.299	9234.48
297.366	9233.13
297.433	9235.25
297.5	9250.66
297.566	9243.82
297.633	9240.07
297.7	9249.84
297.767	9254.27
297.833	9274.35
297.9	9285.9
297.967	9264.77
298.033	9283.4
298.1	9311.62
298.167	9302.42
298.234	9307.86
298.3	9316.92
298.367	9321.44
298.434	9330.02
298.5	9319.18
298.567	9316.97
298.634	9321.35
298.7	9344.22
298.767	9344.8
298.834	9368.53
298.9	9362.18
298.967	9353.51
299.033	9362.23
299.1	9370.17
299.167	9380.28
299.233	9359.72
299.3	9366.94
299.366	9387.74
299.433	9396.46
299.5	9377.1
299.566	9386.49
299.633	9401.8
299.699	9411.34
299.766	9404.21
299.832	9409.7
299.899	9424.05
299.965	9435.56
300.032	9432.09
300.099	9436.53
300.165	9447.31
300.232	9435.42
300.298	9430.99
300.365	9449.24
300.431	9456.46
300.498	9458.19
300.564	9469.41
300.631	9493.83
300.697	9514.73
300.763	9511.7
300.83	9512.18
300.896	9514.92
300.963	9528.7
301.029	9535.34
301.096	9542.23
301.162	9558.46
301.229	9551.48
301.295	9536.35
301.361	9545.07
301.428	9552.15
301.494	9538.86
301.561	9538.42
301.627	9549.74
301.693	9556.24
301.76	9564.19
301.826	9558.22
301.892	9569.82
301.959	9575.84
302.025	9565.83
302.092	9556.92
302.158	9563.95
302.224	9564.48
302.291	9561.68
302.357	9551.18
302.423	9543.33
302.49	9531.63
302.556	9543.67
302.622	9544.64
302.688	9556.92
302.755	9567.17
302.821	9575.26
302.887	9593.95
302.954	9590.19
303.02	9591.93
303.086	9599.39
303.152	9589.61
303.219	9588.22
303.285	9589.81
303.351	9598.72
303.417	9601.32
303.483	9591.98
303.55	9590.63
303.616	9595.16
303.682	9596.7
303.748	9588.22
303.815	9601.13
303.881	9607.39
303.947	9593.08
304.013	9597.03
304.079	9588.7
304.145	9567.46
304.212	9566.74
304.278	9555.04
304.344	9554.08
304.41	9540.93
304.476	9530.24
304.542	9536.06
304.608	9535.39
304.674	9519.64
304.741	9513.57
304.807	9520.65
304.873	9530.91
304.939	9542.28
305.005	9518.82
305.071	9513.53
305.137	9517.76
305.203	9494.31
305.269	9495.18
305.335	9505.39
305.401	9506.01
305.467	9509.19
305.533	9516.56
305.599	9526.19
305.666	9535.68
305.732	9539.34
305.798	9553.93
305.864	9579.26
305.93	9575.99
305.996	9577.19
306.062	9577.29
306.128	9575.65
306.194	9563.9
306.259	9559.47
306.325	9554.65
306.391	9565.54
306.457	9577.86
306.523	9583.5
306.589	9607.87
306.655	9602.86
306.721	9583.79
306.787	9568.04
306.853	9583.36
306.919	9566.5
306.985	9555.95
307.051	9546.23
307.117	9537.08
307.183	9529.9
307.248	9501.87
307.314	9512.47
307.38	9517.67
307.446	9524.41
307.512	9507.12
307.578	9503.8
307.644	9501.15
307.709	9503.85
307.775	9503.46
307.841	9497.73
307.907	9498.21
307.973	9478.61
308.039	9479.91
308.104	9487.91
308.17	9492.19
308.236	9475.19
308.302	9482.46
308.368	9468.55
308.433	9467.29
308.499	9459.16
308.565	9449.04
308.631	9452.99
308.696	9423.38
308.762	9412.11
308.828	9408.21
308.894	9394.44
308.959	9376.91
309.025	9369.11
309.091	9358.71
309.156	9343.83
309.222	9348.64
309.288	9329.96
309.354	9303.29
309.419	9299.05
309.485	9280.08
309.551	9277.09
309.616	9258.17
309.682	9258.65
309.748	9255.33
309.813	9252.34
309.879	9244.74
309.945	9231.83
310.01	9223.84
310.076	9235.2
310.141	9228.99
310.207	9213.87
310.273	9213.2
310.338	9217.24
310.404	9195.82
310.469	9179.35
310.535	9172.32
310.601	9146.66
310.666	9159.56
310.732	9176.51
310.797	9156.96
310.863	9154.7
310.928	9154.65
310.994	9166.93
311.059	9158.31
311.125	9155.08
311.191	9166.35
311.256	9152.82
311.322	9163.13
311.387	9142.38
311.453	9478.73
311.518	9453.22
311.584	9453.8
311.649	9467.23
311.715	9459.48
311.78	9459.29
311.846	9456.11
311.911	9462.42
311.976	9468.87
312.042	9445.47
312.107	9435.74
312.173	9430.26
312.238	9419.04
312.304	9410.56
312.369	9391.21
312.434	9376.62
312.5	9366.42
312.565	9330.5
312.631	9339.16
312.696	9326.17
312.761	9327.27
312.827	8973.92
312.892	9015.32
312.958	9003.67
313.023	8994.19
313.088	8996.07
313.154	8988.32
313.219	8976.67
313.284	8969.73
313.35	8963.48
313.415	8958.18
313.48	8950.67
313.546	8955.77
313.611	8969.35
313.676	8961.79
313.741	8955.92
313.807	8966.46
313.872	8976.67
313.937	8983.21
314.003	8995.92
314.068	9000.11
314.133	9006.32
314.198	8993.81
314.264	8974.79
314.329	8970.21
314.394	8966.65
314.459	8963.14
314.525	8985.47
314.59	8986.34
314.655	8975.27
314.72	8981.81
314.785	8983.16
314.851	8976.62
314.916	8957.12
314.981	8934.83
315.046	8921.79
315.111	8911.63
315.176	8896.95
315.242	8893.15
315.307	8891.51
315.372	8869.27
315.437	8857.48
315.502	8850.98
315.567	8868.84
315.632	8847.8
315.698	8850.16
315.763	8842.99
315.828	8830.47
315.893	8823.68
315.958	8818.87
316.023	8811.31
316.088	8786.86
316.153	8767.18
316.218	8754.42
316.283	8736.81
316.348	8724.25
316.413	8730.65
316.479	8716.22
316.544	8687.54
316.609	8662.84
316.674	8625.6
316.739	8588.98
316.804	8558.14
316.869	8525.37
316.934	8484.55
316.999	8457.12
317.064	8403.09
317.129	8363.63
317.194	8332.41
317.259	8285.25
317.324	8236.42
317.389	8193.17
317.454	8157.28
317.518	8124.47
317.583	8105.51
317.648	8090.6
317.713	8062.51
317.778	7996.36
317.843	7971.06
317.908	7932.49
317.973	7891.08
318.038	7866.89
318.103	7836.88
318.168	7809.95
318.233	7783.45
318.297	7734.45
318.362	7702.04
318.427	7662.48
318.492	7636.47
318.557	7588.49
318.622	7562.28
318.687	7539.98
318.751	7497.01
318.816	7463.21
318.881	7428.12
318.946	7367.65
319.011	7318.57
319.075	7274.79
319.14	7242.21
319.205	7202.22
319.27	7171.03
319.335	7124.66
319.399	7081.75
319.464	7055.66
319.529	7001.41
319.594	6963.16
319.658	6936.16
319.723	6889.66
319.788	6869.77
319.853	6814.62
319.917	6783.22
319.982	6723.9
320.047	6686.62
320.112	6664.24
320.176	6615.45
320.241	6583.81
320.306	6564.41
320.37	6526.33
320.435	6497.91
320.5	6470.78
320.564	6428.24
320.629	6387.25
320.694	6358.59
320.758	6318.66
320.823	6272.87
320.888	6242.2
320.952	6189.03
321.017	6145.41
321.082	6104.05
321.146	6064.32
321.211	6034.33
321.275	5997.06
321.34	5958.83
321.405	5917.14
321.469	5867.16
321.534	5830.57
321.598	5781.6
321.663	5748.07
321.727	5713.54
321.792	5657.29
321.857	5611.97
321.921	5575.87
321.986	5533.93
322.05	5480.15
322.115	5440.94
322.179	5394.93
322.244	5341.51
322.308	5309.4
322.373	5264.7
322.437	5227.66
322.502	5206.14
322.566	5160.76
322.631	5121.72
322.695	5083.22
322.76	5037.52
322.824	5001.46
322.889	4957.7
322.953	4912.03
323.018	4843.5
323.082	4780.7
323.146	4735.81
323.211	4684.4
323.275	4638.73
323.34	4590.17
323.404	4554.95
323.468	4510.45
323.533	4466.54
323.597	4419.87
323.662	4372.84
323.726	4335.39
323.79	4287.37
323.855	4218.42
323.919	4170.7
323.983	4127.09
324.048	4061.43
324.112	4216.42
324.177	4093.52
324.241	3881.4
324.305	3675.21
324.37	3473.61
324.434	3278.32
324.498	3233.63
324.562	3183.76
324.627	3122.38
324.691	3070.91
324.755	3002.27
324.82	2928.43
324.884	2854.59
324.948	2788.44
325.012	2688.28
325.077	2568.35
