Data from 20250704_urea_1.5M_MAYP1162681_11-51-34-569.txt Node
Date: Fri Jul 04 11:51:34 BST 2025
User: adleo
Spectrometer: MAYP116268
Trigger mode: 0
Integration Time (sec): 1.000000E0
Scans to average: 1
Electric dark correction enabled: true
Nonlinearity correction enabled: true
Boxcar width: 10
XAxis mode: Wavelengths
Number of Pixels in Spectrum: 2068
>>>>>Begin Spectral Data<<<<<
179.565	1255.13
179.642	1316.6
179.718	1359.39
179.795	1400.49
179.871	1435.57
179.948	1453.48
180.024	1477.57
180.101	1502.36
180.177	1519.13
180.254	1545.4
180.33	1569.22
180.407	1626.72
180.483	1727.97
180.56	1823.47
180.636	1911.11
180.712	1899.03
180.789	1911.06
180.865	1924.28
180.942	1933.69
181.018	1945.86
181.095	1957.94
181.171	1966.59
181.248	1967.31
181.324	1987.28
181.4	1993.94
181.477	2006.02
181.553	2020.9
181.63	2043.92
181.706	2059.67
181.782	2069.84
181.859	2066.8
181.935	2073.26
182.011	2070.46
182.088	2086.49
182.164	2106.86
182.24	2121.88
182.317	2134.01
182.393	2133.11
182.469	2147.99
182.546	2162.98
182.622	2169.16
182.698	2163.55
182.775	2176.58
182.851	2191.57
182.927	2181.44
183.003	2178.49
183.08	2169.97
183.156	2180.49
183.232	2174.59
183.308	2161.03
183.385	2165.79
183.461	2185.05
183.537	2185.67
183.613	2199.56
183.69	2188.76
183.766	2178.96
183.842	2186
183.918	2190.57
183.995	2201.61
184.071	2205.41
184.147	2200.85
184.223	2188.96
184.299	2204.23
184.375	2191.24
184.452	2198.62
184.528	2254.4
184.604	2263.97
184.68	2279.62
184.756	2287.23
184.832	2291.42
184.908	2298.6
184.985	2302.69
185.061	2286.04
185.137	2296.23
185.213	2283.71
185.289	2288.61
185.365	2279.72
185.441	2280.19
185.517	2292.9
185.593	2289.9
185.669	2287.24
185.745	2296.8
185.822	2315.26
185.898	2305.17
185.974	2314.35
186.05	2305.12
186.126	2266.85
186.202	2260.95
186.278	2255.81
186.354	2246.19
186.43	2253.9
186.506	2252.91
186.582	2250.62
186.658	2259.66
186.734	2237.3
186.81	2240.34
186.886	2242.49
186.962	2256.14
187.038	2253.1
187.114	2245.95
187.19	2253.38
187.266	2241.72
187.341	2242.48
187.417	2234.54
187.493	2234.16
187.569	2238.44
187.645	2233.63
187.721	2223.07
187.797	2233.77
187.873	2238.39
187.949	2231.82
188.025	2223.59
188.101	2228.44
188.176	2232.3
188.252	2224.68
188.328	2232.96
188.404	2235.38
188.48	2228.06
188.556	2218.21
188.632	2217.3
188.707	2216.88
188.783	2215.54
188.859	2211.93
188.935	2201.65
189.011	2208.03
189.086	2202.13
189.162	2191.71
189.238	2188.38
189.314	2183
189.39	2172.44
189.465	2165.16
189.541	2181.72
189.617	2167.64
189.693	2159.64
189.768	2160.79
189.844	2188.25
189.92	2179.22
189.996	2186.35
190.071	2199.58
190.147	2203.72
190.223	2211.67
190.298	2202.39
190.374	2186.64
190.45	2198.39
190.526	2204.57
190.601	2197.82
190.677	2198.63
190.753	2229.24
190.828	2231.43
190.904	2246.61
190.98	2264.88
191.055	2273.54
191.131	2265.59
191.207	2289.62
191.282	2300.95
191.358	2294.33
191.433	2277.86
191.509	2294.17
191.585	2290.22
191.66	2291.94
191.736	2295.79
191.811	2287.61
191.887	2303.12
191.963	2329.01
192.038	2334.96
192.114	2334.87
192.189	2343.29
192.265	2341.77
192.34	2316.39
192.416	2316.91
192.491	2315.15
192.567	2315.58
192.642	2318.62
192.718	2318.67
192.793	2303.35
192.869	2296.92
192.944	2299.25
193.02	2306.68
193.095	2307.15
193.171	2312.96
193.246	2310.11
193.322	2307.87
193.397	2307.58
193.473	2296.25
193.548	2275.79
193.624	2281.26
193.699	2281.97
193.775	2296.73
193.85	2298.26
193.925	2308.78
194.001	2308.59
194.076	2299.45
194.152	2291.83
194.227	2286.17
194.302	2275.7
194.378	2277.56
194.453	2276.46
194.529	2288.65
194.604	2274.99
194.679	2270.94
194.755	2251.2
194.83	2265.91
194.905	2264.44
194.981	2270.15
195.056	2264.34
195.131	2269.77
195.207	2268.15
195.282	2257.97
195.357	2236.21
195.433	2251.49
195.508	2241.25
195.583	2246.06
195.659	2262.19
195.734	2267.86
195.809	2267.86
195.884	2276.28
195.96	2277.42
196.035	2293.79
196.11	2289.75
196.185	2300.07
196.261	2305.5
196.336	2338.76
196.411	2324.62
196.486	2328.1
196.561	2323.81
196.637	2331.24
196.712	2350.33
196.787	2350.8
196.862	2368.51
196.937	2377.64
197.013	2383.93
197.088	2391.35
197.163	2416.69
197.238	2432.7
197.313	2431.94
197.388	2446.6
197.464	2478.36
197.539	2492.6
197.614	2485.98
197.689	2499.03
197.764	2516.94
197.839	2534.6
197.914	2527.08
197.989	2547.27
198.065	2564.08
198.14	2617.16
198.215	2646.03
198.29	2659.94
198.365	2674.04
198.44	2683.56
198.515	2714.67
198.59	2732.02
198.665	2760.74
198.74	2769.99
198.815	2770.33
198.89	2797.39
198.965	2827.66
199.04	2825.89
199.115	2842.47
199.19	2883.21
199.265	2888.07
199.34	2902.56
199.415	2936.61
199.49	2958.48
199.565	2970.82
199.64	2993.27
199.715	2991.84
199.79	2999.38
199.865	3002.81
199.94	3004.76
200.015	3040.38
200.09	3047.63
200.165	3054.78
200.24	3060.27
200.315	3102.6
200.39	3120.2
200.464	3125.49
200.539	3127.16
200.614	3144
200.689	3169.23
200.764	3178.44
200.839	3197.31
200.914	3197.08
200.989	3186.39
201.063	3200.7
201.138	3181.97
201.213	3181.82
201.288	3161.6
201.363	3164.56
201.438	3165.42
201.512	3182.06
201.587	3162.45
201.662	3164.55
201.737	3174.8
201.812	3185.11
201.886	3146.49
201.961	3155.27
202.036	3141.01
202.111	3137.2
202.186	3104.12
202.26	3082.85
202.335	3058.71
202.41	3051.56
202.485	3035.16
202.559	3018.91
202.634	2993.92
202.709	3004.31
202.784	2987.34
202.858	2987.24
202.933	2968.94
203.008	2963.31
203.082	2941.62
203.157	2941.81
203.232	2900.36
203.306	2879.23
203.381	2845.1
203.456	2822.93
203.53	2801.75
203.605	2782.51
203.68	2759.72
203.754	2753.11
203.829	2741.19
203.904	2721.56
203.978	2708.79
204.053	2710.36
204.127	2693.26
204.202	2689.16
204.277	2671.4
204.351	2661.58
204.426	2653.72
204.5	2645.43
204.575	2610.24
204.65	2620.62
204.724	2607.18
204.799	2612.56
204.873	2607.65
204.948	2610.94
205.022	2599.13
205.097	2591.17
205.171	2606.6
205.246	2611.75
205.32	2610.84
205.395	2609.51
205.469	2602.99
205.544	2606.99
205.618	2592.7
205.693	2609.28
205.767	2598.09
205.842	2619.58
205.916	2613.67
205.991	2602.43
206.065	2606.57
206.14	2625.52
206.214	2618.94
206.289	2614.89
206.363	2628.9
206.438	2630.37
206.512	2635.04
206.586	2655.9
206.661	2661.19
206.735	2635.91
206.81	2636.72
206.884	2652.48
206.958	2637.34
207.033	2654.24
207.107	2661.82
207.181	2692.41
207.256	2684.98
207.33	2702.46
207.405	2715.72
207.479	2734.68
207.553	2743.77
207.628	2729.3
207.702	2736.11
207.776	2731.58
207.851	2732.3
207.925	2746.31
207.999	2745.69
208.073	2742.45
208.148	2742.6
208.222	2728.87
208.296	2765.26
208.371	2780.99
208.445	2794.15
208.519	2824.97
208.593	2838.03
208.668	2832.79
208.742	2837.13
208.816	2837.75
208.89	2852.86
208.965	2849.95
209.039	2858.19
209.113	2876.07
209.187	2898.88
209.261	2896.64
209.336	2915.18
209.41	2940.16
209.484	2944.79
209.558	2965.29
209.632	2980.21
209.707	2994.37
209.781	3019.01
209.855	3037.56
209.929	3059.23
210.003	3062.95
210.077	3064.09
210.151	3115.55
210.226	3155.01
210.3	3186.66
210.374	3214.22
210.448	3221.51
210.522	3233.44
210.596	3250.9
210.67	3265.02
210.744	3318.52
210.818	3352.95
210.892	3380.43
210.966	3377.14
211.041	3393.6
211.115	3397.18
211.189	3429.58
211.263	3455.16
211.337	3470.72
211.411	3490.72
211.485	3490.01
211.559	3516.97
211.633	3529.42
211.707	3507.73
211.781	3524.55
211.855	3501.96
211.929	3506.26
212.003	3504.92
212.077	3538.69
212.151	3571.69
212.225	3602.93
212.299	3611.39
212.373	3631.64
212.447	3654.76
212.52	3715.38
212.594	3753.65
212.668	3801.46
212.742	3820
212.816	3851.78
212.89	3886.56
212.964	3926.06
213.038	3977.98
213.112	4037.12
213.186	4105.71
213.26	4132.7
213.333	4142.55
213.407	4203.54
213.481	4266.81
213.555	4341.94
213.629	4385.48
213.703	4432.67
213.777	4498.72
213.85	4550.79
213.924	4653.83
213.998	4731.21
214.072	4801.63
214.146	4864.41
214.219	4942.43
214.293	5024.03
214.367	5112.57
214.441	5209.15
214.515	5289.92
214.588	5355.14
214.662	5412.23
214.736	5482.98
214.81	5590.16
214.883	5705.23
214.957	5800.6
215.031	5895.44
215.105	5975.03
215.178	6072.71
215.252	6178.47
215.326	6266.69
215.4	6364.16
215.473	6428.7
215.547	6523.31
215.621	6625.68
215.694	6750.87
215.768	6846.8
215.842	6955.12
215.915	7060.37
215.989	7162.36
216.063	7274.6
216.136	7401.39
216.21	7535.5
216.284	7678.06
216.357	7806.87
216.431	7926.77
216.504	8061.01
216.578	8211.39
216.652	8356.78
216.725	8492.56
216.799	8630.78
216.873	8763.27
216.946	8894.21
217.02	9022.42
217.093	9155.39
217.167	9259.95
217.24	9378.85
217.314	9509.52
217.387	9639.62
217.461	9763.83
217.535	9909.48
217.608	10029.6
217.682	10160.1
217.755	10293.34
217.829	10412.63
217.902	10541.8
217.976	10669.28
218.049	10792.2
218.123	10901.2
218.196	11037.18
218.27	11152.31
218.343	11266
218.417	11394.96
218.49	11522.53
218.563	11663.78
218.637	11789.1
218.71	11949.21
218.784	12083.74
218.857	12209.15
218.931	12335.25
219.004	12456.86
219.077	12579.92
219.151	12701.92
219.224	12820.65
219.298	12941.69
219.371	13069.34
219.444	13172.06
219.518	13291.95
219.591	13402.29
219.665	13550.57
219.738	13663.62
219.811	13769.81
219.885	13886.42
219.958	13999.27
220.031	14109.81
220.105	14218.17
220.178	14322.25
220.251	14414.46
220.325	14517.14
220.398	14632.73
220.471	14736.13
220.544	14849.12
220.618	14941.04
220.691	15042.27
220.764	15138.82
220.838	15241.64
220.911	15328.31
220.984	15446.4
221.057	15547.58
221.131	15648.99
221.204	15703.02
221.277	15802.6
221.35	15919.44
221.424	16000.46
221.497	16078.5
221.57	16161.59
221.643	16248.64
221.716	16342.53
221.79	16413.23
221.863	16484.23
221.936	16553.53
222.009	16630.41
222.082	16702.41
222.155	16761.94
222.229	16858.81
222.302	16929.99
222.375	16984.07
222.448	17054.48
222.521	17115.59
222.594	17157.62
222.667	17213.09
222.74	17294.82
222.814	17353.28
222.887	17407.59
222.96	17479.11
223.033	17544.8
223.106	17603.5
223.179	17658.39
223.252	17703.88
223.325	17764.89
223.398	17820.31
223.471	17874.48
223.544	17922.38
223.617	17976.41
223.69	18032.84
223.763	18057.7
223.837	18113.27
223.91	18171.34
223.983	18195.67
224.056	18225.89
224.129	18287.48
224.202	18332.06
224.275	18358.56
224.348	18377.64
224.42	18399.91
224.493	18414.61
224.566	18457.25
224.639	18496.38
224.712	18523.37
224.785	18560.91
224.858	18589.68
224.931	18610.26
225.004	18623.41
225.077	18654.06
225.15	18655.03
225.223	18685.53
225.296	18741.14
225.369	18745.28
225.442	18755.36
225.514	18782.58
225.587	18808.8
225.66	18822.39
225.733	18845.81
225.806	18867.3
225.879	18887.44
225.952	18894.82
226.025	18926.29
226.097	18951.92
226.17	18961.46
226.243	18959.25
226.316	18967.2
226.389	18975.63
226.461	18996.88
226.534	19021.8
226.607	19024.69
226.68	19061.46
226.753	19071.53
226.825	19053.07
226.898	19078.52
226.971	19094.03
227.044	19113.41
227.117	19121.98
227.189	19151.81
227.262	19172.29
227.335	19181.45
227.407	19186.94
227.48	19197.59
227.553	19197.93
227.626	19192.44
227.698	19205.26
227.771	19216.97
227.844	19199.52
227.916	19209.21
227.989	19195.71
228.062	19189.93
228.134	19217.35
228.207	19219.71
228.28	19207.67
228.352	19204.68
228.425	19208.68
228.498	19215.09
228.57	19188.77
228.643	19208.1
228.716	19194.94
228.788	19177.93
228.861	19170.66
228.934	19182.8
229.006	19182.94
229.079	19188.53
229.151	19187.18
229.224	19161.98
229.296	19164.39
229.369	19198.12
229.442	19190.9
229.514	19179.04
229.587	19191.96
229.659	19161.69
229.732	19149.16
229.804	19159.96
229.877	19186.32
229.949	19185.59
230.022	19193.79
230.094	19215.66
230.167	19205.21
230.239	19186.8
230.312	19185.26
230.384	19207.04
230.457	19200.15
230.529	19201.64
230.602	19193.93
230.674	19183.18
230.747	19193.02
230.819	19200.97
230.892	19168.15
230.964	19174.8
231.037	19187.47
231.109	19170.75
231.181	19174.32
231.254	19165.11
231.326	19156.01
231.399	19124.54
231.471	19111.38
231.544	19072.97
231.616	19066.66
231.688	19056.74
231.761	19038.81
231.833	19027.24
231.905	18992.74
231.978	18980.45
232.05	18963.83
232.122	18953.56
232.195	18934.09
232.267	18940.55
232.339	18922.53
232.412	18927.39
232.484	18910
232.556	18876.79
232.629	18894.29
232.701	18888.26
232.773	18868.89
232.846	18846.53
232.918	18846.1
232.99	18833.95
233.062	18836.22
233.135	18820.17
233.207	18796.51
233.279	18801.43
233.351	18784.27
233.424	18765.33
233.496	18744.51
233.568	18754.06
233.64	18722.49
233.713	18712.47
233.785	18689.34
233.857	18674.06
233.929	18645.29
234.001	18649.77
234.074	18661.1
234.146	18619.65
234.218	18606.4
234.29	18591.9
234.362	18573.44
234.434	18545.25
234.507	18518.79
234.579	18484.77
234.651	18468.05
234.723	18463.9
234.795	18447.18
234.867	18436
234.939	18430.89
235.012	18416.53
235.084	18402.8
235.156	18402.17
235.228	18376.53
235.3	18352.25
235.372	18337.26
235.444	18330.8
235.516	18284.4
235.588	18270.56
235.66	18251.82
235.732	18227.77
235.804	18262.9
235.876	18255.67
235.948	18249.02
236.02	18232.01
236.092	18219.67
236.164	18202.57
236.236	18171.77
236.308	18149.36
236.38	18131.39
236.452	18102.47
236.524	18081.03
236.596	18071.92
236.668	18058.81
236.74	18033.95
236.812	18021.27
236.884	18009.18
236.956	17981.27
237.028	17948.55
237.1	17914.87
237.172	17914.91
237.244	17910.34
237.316	17851.74
237.388	17815.4
237.46	17779.93
237.532	17760.46
237.604	17722.63
237.675	17718.73
237.747	17703.16
237.819	17669.18
237.891	17632.27
237.963	17601.91
238.035	17584.17
238.107	17524.08
238.178	17509.28
238.25	17491.07
238.322	17491.45
238.394	17442.34
238.466	17405.28
238.538	17393.76
238.609	17380.7
238.681	17335.6
238.753	17294.92
238.825	17273.81
238.897	17254.05
238.968	17247.69
239.04	17215.5
239.112	17218.54
239.184	17162.39
239.255	17140.94
239.327	17120.32
239.399	17106.44
239.471	17098.48
239.542	17082.92
239.614	17078.34
239.686	17021.23
239.758	17006.87
239.829	16959.16
239.901	16953.23
239.973	16941.13
240.044	16917.76
240.116	16890.14
240.188	16861.71
240.259	16833.9
240.331	16800.69
240.403	16788.83
240.474	16745.41
240.546	16724.83
240.618	16683.96
240.689	16661.07
240.761	16631.24
240.833	16634.99
240.904	16606.99
240.976	16577.5
241.048	16547.28
241.119	16527.47
241.191	16507.71
241.262	16493.68
241.334	16472.53
241.405	16443.03
241.477	16422.26
241.549	16393.92
241.62	16367.41
241.692	16348.32
241.763	16342.25
241.835	16324.66
241.906	16293.04
241.978	16256.5
242.049	16245.56
242.121	16227.49
242.192	16213.17
242.264	16171.48
242.335	16112.44
242.407	16092.73
242.478	16056.38
242.55	16034.31
242.621	15993.63
242.693	15965.77
242.764	15932.42
242.836	15895.69
242.907	15873.42
242.979	15842.82
243.05	15830.91
243.122	15809.32
243.193	15774.42
243.264	15722.8
243.336	15692.24
243.407	15675.32
243.479	15666.79
243.55	15637.97
243.622	15616.57
243.693	15590.78
243.764	15583.93
243.836	15552.22
243.907	15518.19
243.978	15492.16
244.05	15465.31
244.121	15418.65
244.192	15408.09
244.264	15369.87
244.335	15339.17
244.407	15291.64
244.478	15263.87
244.549	15226.32
244.62	15182.89
244.692	15157.68
244.763	15141.25
244.834	15102.39
244.906	15067.54
244.977	15043.11
245.048	15027.83
245.119	14996.01
245.191	14963.72
245.262	14918.26
245.333	14911.7
245.405	14889.34
245.476	14871.45
245.547	14850.15
245.618	14840.36
245.689	14811.3
245.761	14779.92
245.832	14756.49
245.903	14745.88
245.974	14725.11
246.045	14696.62
246.117	14685.48
246.188	14647.45
246.259	14608.26
246.33	14580.97
246.401	14546.03
246.473	14505.15
246.544	14473.04
246.615	14458.73
246.686	14428.94
246.757	14413.22
246.828	14371.14
246.899	14353.59
246.97	14306.45
247.042	14260.07
247.113	14234.38
247.184	14230.52
247.255	14202.66
247.326	14180.34
247.397	14152.33
247.468	14120.61
247.539	14098.73
247.61	14060.65
247.681	14050.71
247.752	14031.09
247.823	14000.63
247.894	13982.94
247.965	13952.81
248.037	13915.3
248.108	13865.02
248.179	13837.26
248.25	13805.83
248.321	13793.05
248.392	13762.92
248.463	13772.08
248.534	13747.3
248.605	13734.05
248.675	13698.33
248.746	13681.36
248.817	13661.3
248.888	13637.15
248.959	13603.31
249.03	13583.02
249.101	13564.36
249.172	13533.75
249.243	13498.08
249.314	13487.18
249.385	13464.52
249.456	13442.45
249.527	13416.51
249.598	13409.38
249.669	13385.66
249.739	13373.22
249.81	13355.63
249.881	13314.02
249.952	13285.73
250.023	13270.44
250.094	13224.5
250.165	13189.31
250.235	13165.79
250.306	13141.88
250.377	13114.21
250.448	13097.82
250.519	13054.77
250.59	13051.88
250.66	13031.39
250.731	13024.01
250.802	12994.37
250.873	12970.41
250.944	12954.65
251.014	12919.89
251.085	12918.78
251.156	12909.67
251.227	12900.61
251.297	12887.98
251.368	12881.61
251.439	12863.3
251.51	12858.09
251.58	12832.73
251.651	12813.26
251.722	12808.24
251.792	12769.54
251.863	12738.2
251.934	12737.19
252.005	12742.98
252.075	12714.29
252.146	12696.7
252.217	12683.2
252.287	12674.48
252.358	12650.61
252.429	12652.01
252.499	12630.56
252.57	12606.65
252.641	12581.59
252.711	12552.18
252.782	12518.39
252.852	12516.17
252.923	12499.25
252.994	12477.61
253.064	12476.59
253.135	12443.62
253.205	12411.95
253.276	12414.7
253.347	12413.06
253.417	12380.38
253.488	12350.97
253.558	12325.91
253.629	12304.65
253.699	12291.2
253.77	12281.9
253.841	12272.31
253.911	12250.66
253.982	12241.5
254.052	12233.45
254.123	12224.87
254.193	12208.82
254.264	12229.26
254.334	12199.04
254.405	12166.98
254.475	12129.14
254.546	12104.22
254.616	12104.61
254.687	12092.85
254.757	12077.09
254.827	12063.25
254.898	12052.22
254.968	12029.71
255.039	12000.45
255.109	11994.91
255.18	11960.25
255.25	11923.86
255.321	11912.63
255.391	11879.56
255.461	11884.04
255.532	11834.97
255.602	11810.54
255.673	11771.35
255.743	11736.21
255.813	11698.76
255.884	11692.69
255.954	11684.64
256.024	11687.34
256.095	11666.57
256.165	11634.71
256.235	11621.6
256.306	11589.5
256.376	11581.35
256.446	11582.03
256.517	11570.89
256.587	11562.17
256.657	11552.92
256.728	11536.14
256.798	11512
256.868	11495.27
256.938	11467.27
257.009	11459.99
257.079	11451.22
257.149	11471.32
257.219	11432.38
257.29	11419.6
257.36	11375.56
257.43	11372.91
257.5	11331.6
257.571	11310.69
257.641	11296.57
257.711	11265.14
257.781	11258.4
257.852	11242.54
257.922	11208.18
257.992	11192.22
258.062	11172.22
258.132	11164.18
258.202	11145.43
258.273	11127.6
258.343	11127.45
258.413	11099.45
258.483	11077.09
258.553	11043.12
258.623	11007.07
258.693	10999.79
258.764	11000.18
258.834	10999.7
258.904	10980.32
258.974	10954.21
259.044	10935.99
259.114	10932.09
259.184	10920.23
259.254	10905.15
259.324	10867.85
259.394	10856.29
259.464	10861.97
259.535	10839.13
259.605	10816.53
259.675	10789.07
259.745	10778.23
259.815	10745.89
259.885	10728.06
259.955	10748.16
260.025	10730.24
260.095	10716.6
260.165	10705.95
260.235	10712.6
260.305	10697.95
260.375	10670.82
260.445	10684.12
260.515	10680.22
260.585	10674.48
260.655	10657.28
260.725	10652.56
260.795	10651.31
260.865	10655.31
260.934	10626.2
261.004	10622.15
261.074	10608.76
261.144	10611.94
261.214	10605.77
261.284	10596.38
261.354	10589.05
261.424	10562.12
261.494	10565.44
261.564	10554.6
261.634	10540.14
261.703	10498.18
261.773	10481.36
261.843	10476.11
261.913	10455.15
261.983	10430.68
262.053	10423.35
262.123	10408.23
262.192	10378.74
262.262	10368.14
262.332	10337.69
262.402	10330.18
262.472	10317.79
262.541	10283.49
262.611	10282.96
262.681	10262.1
262.751	10256.23
262.821	10240.62
262.89	10213.2
262.96	10207.28
263.03	10209.59
263.1	10204.48
263.169	10191.86
263.239	10188.3
263.309	10191.91
263.379	10192.2
263.448	10175.29
263.518	10155.49
263.588	10142.39
263.657	10149.66
263.727	10145.08
263.797	10133.76
263.867	10112.62
263.936	10079.57
264.006	10084.97
264.076	10067.14
264.145	10053.27
264.215	10028.65
264.285	10026.82
264.354	9998.02
264.424	9969.65
264.494	9933.09
264.563	9906.25
264.633	9915.99
264.702	9905.05
264.772	9869.64
264.842	9845.37
264.911	9835.88
264.981	9809.58
265.05	9794.7
265.12	9770.03
265.19	9760.54
265.259	9753.95
265.329	9750.86
265.398	9742.68
265.468	9758.43
265.537	9736.51
265.607	9728.23
265.676	9727.36
265.746	9718.93
265.815	9717.63
265.885	9702.32
265.955	9685.85
266.024	9678.05
266.094	9642.69
266.163	9651.36
266.232	9653.82
266.302	9641.16
266.371	9637.74
266.441	9635.18
266.51	9632.68
266.58	9611.88
266.649	9589.09
266.719	9590.35
266.788	9586.25
266.858	9597.33
266.927	9553.17
266.996	9551.09
267.066	9544.21
267.135	9515.12
267.205	9510.98
267.274	9502.22
267.343	9513.58
267.413	9501.35
267.482	9507.71
267.552	9512.23
267.621	9476.84
267.69	9448.28
267.76	9437.74
267.829	9429.79
267.898	9421.55
267.968	9405.18
268.037	9408.22
268.106	9411.49
268.176	9382.5
268.245	9364.2
268.314	9344.99
268.384	9347.49
268.453	9333.62
268.522	9322.16
268.592	9332.9
268.661	9311.47
268.73	9304.97
268.799	9281.81
268.869	9301.6
268.938	9264.19
269.007	9247.43
269.076	9236.36
269.146	9238.96
269.215	9235.01
269.284	9243.48
269.353	9224.13
269.422	9206.8
269.492	9185.28
269.561	9139.83
269.63	9141.18
269.699	9123.84
269.768	9112.77
269.838	9104.83
269.907	9105.89
269.976	9085.14
270.045	9045.81
270.114	9047.11
270.183	9031.84
270.253	9027.99
270.322	8983.7
270.391	8978.7
270.46	8976.63
270.529	8975.81
270.598	8967.29
270.667	8953.71
270.736	8926.65
270.806	8924.1
270.875	8934.59
270.944	8930.45
271.013	8951.97
271.082	8948.12
271.151	8951.63
271.22	8916.84
271.289	8906.73
271.358	8892.62
271.427	8889.44
271.496	8895.51
271.565	8879.04
271.634	8872.88
271.703	8901.39
271.772	8912.65
271.841	8904.71
271.91	8886.46
271.979	8879.97
272.048	8865.76
272.117	8870.53
272.186	8858.02
272.255	8852.86
272.324	8848.05
272.393	8844.34
272.462	8829.28
272.531	8811.32
272.6	8793.8
272.669	8809.87
272.738	8801.5
272.807	8799
272.876	8780.52
272.945	8803.38
273.013	8805.55
273.082	8813.06
273.151	8764.53
273.22	8759.91
273.289	8758.27
273.358	8765.06
273.427	8751.92
273.496	8747.97
273.564	8741.62
273.633	8740.08
273.702	8720.01
273.771	8705.47
273.84	8701.48
273.909	8706.44
273.977	8706.63
274.046	8696.43
274.115	8699.89
274.184	8681.36
274.253	8676.89
274.322	8687.19
274.39	8652.19
274.459	8641.46
274.528	8611.72
274.597	8604.36
274.665	8599.21
274.734	8601.8
274.803	8592.03
274.872	8591.79
274.94	8582.55
275.009	8610.19
275.078	8598.4
275.147	8599.46
275.215	8597.05
275.284	8604.99
275.353	8591.51
275.421	8575.1
275.49	8600.18
275.559	8587.52
275.627	8581.46
275.696	8568.9
275.765	8568.61
275.833	8564.14
275.902	8563.27
275.971	8575.78
276.039	8594.5
276.108	8603.12
276.177	8599.75
276.245	8590.46
276.314	8584.93
276.383	8586.23
276.451	8546.37
276.52	8553.01
276.588	8564.56
276.657	8566.87
276.725	8557.1
276.794	8554.11
276.863	8558.64
276.931	8530.58
277	8534.33
277.068	8550.93
277.137	8570.28
277.205	8565.56
277.274	8581.49
277.342	8590.2
277.411	8570.23
277.48	8555.8
277.548	8537.56
277.617	8530.14
277.685	8521.92
277.754	8527.26
277.822	8517.01
277.89	8536.36
277.959	8526.4
278.027	8504.94
278.096	8498.44
278.164	8519.28
278.233	8514.61
278.301	8504.65
278.37	8514.42
278.438	8505.23
278.507	8507.2
278.575	8475.11
278.643	8471.21
278.712	8449.22
278.78	8431.41
278.849	8444.26
278.917	8451.91
278.985	8457.78
279.054	8473.9
279.122	8493.97
279.191	8489.4
279.259	8493.82
279.327	8466.05
279.396	8482.99
279.464	8488.38
279.532	8493.58
279.601	8490.83
279.669	8484.77
279.737	8498.39
279.806	8499.64
279.874	8507.24
279.942	8500.65
280.011	8502.19
280.079	8511.62
280.147	8535.2
280.215	8536.36
280.284	8527.02
280.352	8515.71
280.42	8516.1
280.488	8504.26
280.557	8494.73
280.625	8504.59
280.693	8501.8
280.761	8510.56
280.83	8493.48
280.898	8502.33
280.966	8487.42
281.034	8456.9
281.102	8443.05
281.171	8437.8
281.239	8441.17
281.307	8438.96
281.375	8428.61
281.443	8459.03
281.512	8454.17
281.58	8455.32
281.648	8439.59
281.716	8446.08
281.784	8440.12
281.852	8436.89
281.92	8437.04
281.989	8450.61
282.057	8428.67
282.125	8473.14
282.193	8461.06
282.261	8464.96
282.329	8461.64
282.397	8470.35
282.465	8474.1
282.533	8493.49
282.601	8489.02
282.67	8470.3
282.738	8459.28
282.806	8471.55
282.874	8453.16
282.942	8453.31
283.01	8449.7
283.078	8465.91
283.146	8466.83
283.214	8481.31
283.282	8486.12
283.35	8493.77
283.418	8481.65
283.486	8481.36
283.554	8437.17
283.622	8447.52
283.69	8444.77
283.758	8438.62
283.826	8435.34
283.894	8452.67
283.962	8473.41
284.03	8490.25
284.098	8495.11
284.165	8491.41
284.233	8489.82
284.301	8486.26
284.369	8487.94
284.437	8479.86
284.505	8471.58
284.573	8481.69
284.641	8471.92
284.709	8476.35
284.777	8463.93
284.845	8473.8
284.912	8486.74
284.98	8502.19
285.048	8498.43
285.116	8504.26
285.184	8517.78
285.252	8515.57
285.319	8499.11
285.387	8490.01
285.455	8464.94
285.523	8468.5
285.591	8471.63
285.659	8476.73
285.726	8489.43
285.794	8468.98
285.862	8461.62
285.93	8462.2
285.997	8456.23
286.065	8446.66
286.133	8440.88
286.201	8432.17
286.269	8414.32
286.336	8403.93
286.404	8392.86
286.472	8397.67
286.539	8377.61
286.607	8363.94
286.675	8362.16
286.743	8365.39
286.81	8360.43
286.878	8384.58
286.946	8376.31
287.013	8370.05
287.081	8371.35
287.149	8358.55
287.216	8380.64
287.284	8383.28
287.352	8380.45
287.419	8381.5
287.487	8403.25
287.555	8405.56
287.622	8406.14
287.69	8414.61
287.758	8423.42
287.825	8413.07
287.893	8402.53
287.96	8411.1
288.028	8416.87
288.096	8431.31
288.163	8432.94
288.231	8424.14
288.298	8416.87
288.366	8429.33
288.433	8435.2
288.501	8422.3
288.569	8423.99
288.636	8413.5
288.704	8426.54
288.771	8441.07
288.839	8430.49
288.906	8423.8
288.974	8439.1
289.041	8441.65
289.109	8431.69
289.176	8448.01
289.244	8461.67
289.311	8475.82
289.379	8482.46
289.446	8489.92
289.514	8486.4
289.581	8481.11
289.649	8480.34
289.716	8477.84
289.783	8471.63
289.851	8487.22
289.918	8484.77
289.986	8493.86
290.053	8502.19
290.121	8500.31
290.188	8501.51
290.255	8532.55
290.323	8523.46
290.39	8511.43
290.458	8515.18
290.525	8526.05
290.592	8519.08
290.66	8515.47
290.727	8507.57
290.794	8524.32
290.862	8525.57
290.929	8523.17
290.996	8527.74
291.064	8537.27
291.131	8556.81
291.198	8568.02
291.266	8566.72
291.333	8574.03
291.4	8580.05
291.468	8596.85
291.535	8592.32
291.602	8598.2
291.669	8589.19
291.737	8600.94
291.804	8602.91
291.871	8618.16
291.938	8631.06
292.006	8656.86
292.073	8667.11
292.14	8682.47
292.207	8670.34
292.275	8672.99
292.342	8688.44
292.409	8719.96
292.476	8743.55
292.543	8731.8
292.611	8737.39
292.678	8756.83
292.745	8782.97
292.812	8790.14
292.879	8785.28
292.946	8789.95
293.014	8803.95
293.081	8806.41
293.148	8817.67
293.215	8831.05
293.282	8826.82
293.349	8830.38
293.416	8812.33
293.484	8834.08
293.551	8845.3
293.618	8872.06
293.685	8896.61
293.752	8890.26
293.819	8887.61
293.886	8875.24
293.953	8881.25
294.02	8892.09
294.087	8895.21
294.154	8885.44
294.221	8904.6
294.288	8903.3
294.356	8924.68
294.423	8926.36
294.49	8928.33
294.557	8946.92
294.624	8935.75
294.691	8957.94
294.758	8960.83
294.825	8973.92
294.892	8965.55
294.959	8961.02
295.026	8968.15
295.093	8956.11
295.16	8960.1
295.226	8961.02
295.293	8991.45
295.36	9001.99
295.427	9014.7
295.494	9031.17
295.561	9041.08
295.628	9062.99
295.695	9083.65
295.762	9086.01
295.829	9098.24
295.896	9110.75
295.963	9118.12
296.03	9128.76
296.096	9131.26
296.163	9145.03
296.23	9157.93
296.297	9166.98
296.364	9170.74
296.431	9168.62
296.498	9169.68
296.564	9192.02
296.631	9192.35
296.698	9173.04
296.765	9189.37
296.832	9179.88
296.899	9167.07
296.965	9189.8
297.032	9168.13
297.099	9182.29
297.166	9186.81
297.233	9181.27
297.299	9177.9
297.366	9170.87
297.433	9178.67
297.5	9189.36
297.566	9191.67
297.633	9184.93
297.7	9188.5
297.767	9186.52
297.833	9200.29
297.9	9197.26
297.967	9185.18
298.033	9203.81
298.1	9233.23
298.167	9221.77
298.234	9222.06
298.3	9233.62
298.367	9223.17
298.434	9226.3
298.5	9218.11
298.567	9211.61
298.634	9211.32
298.7	9224.95
298.767	9231.98
298.834	9248.2
298.9	9244.4
298.967	9237.23
299.033	9257.16
299.1	9277.48
299.167	9294.38
299.233	9284.61
299.3	9303.29
299.366	9314.07
299.433	9328.57
299.5	9305.84
299.566	9316.34
299.633	9340.03
299.699	9344.75
299.766	9344.7
299.832	9352.31
299.899	9364.2
299.965	9380.81
300.032	9375.8
300.099	9389
300.165	9394.97
300.232	9390.54
300.298	9389.14
300.365	9403.88
300.431	9395.59
300.498	9384.57
300.564	9396.17
300.631	9410.81
300.697	9432.58
300.763	9442.35
300.83	9440.09
300.896	9451.89
300.963	9462.48
301.029	9464.31
301.096	9472.21
301.162	9483.77
301.229	9477.79
301.295	9461.04
301.361	9470.09
301.428	9478.66
301.494	9460.17
301.561	9462.38
301.627	9464.41
301.693	9471.39
301.76	9476.11
301.826	9470.86
301.892	9485.69
301.959	9484.87
302.025	9482.27
302.092	9470.33
302.158	9473.89
302.224	9473.41
302.291	9471.82
302.357	9461.37
302.423	9455.98
302.49	9448.13
302.556	9460.26
302.622	9467.92
302.688	9477.17
302.755	9491.04
302.821	9502.02
302.887	9513.77
302.954	9508.95
303.02	9520.17
303.086	9522.53
303.152	9517.81
303.219	9519.5
303.285	9525.23
303.351	9538.57
303.417	9535.01
303.483	9525.18
303.55	9517.53
303.616	9512.66
303.682	9508.13
303.748	9502.84
303.815	9515.65
303.881	9520.99
303.947	9509.24
304.013	9503.99
304.079	9502.6
304.145	9478.66
304.212	9474.66
304.278	9471.2
304.344	9468.98
304.41	9456.46
304.476	9457.23
304.542	9453.43
304.608	9460.07
304.674	9439.65
304.741	9429.97
304.807	9441.05
304.873	9455.06
304.939	9471.1
305.005	9452.08
305.071	9447.26
305.137	9452.9
305.203	9427.9
305.269	9426.41
305.335	9437.44
305.401	9444.42
305.467	9441.87
305.533	9449.48
305.599	9453.04
305.666	9451.5
305.732	9452.66
305.798	9459.3
305.864	9478.86
305.93	9487.23
305.996	9481.22
306.062	9483.29
306.128	9481.26
306.194	9463.69
306.259	9456.08
306.325	9448.23
306.391	9466.91
306.457	9477.31
306.523	9481.65
306.589	9513.43
306.655	9502.55
306.721	9489.11
306.787	9471.34
306.853	9491.23
306.919	9473.18
306.985	9466.53
307.051	9467.11
307.117	9462
307.183	9461.33
307.248	9435.42
307.314	9438.65
307.38	9444.81
307.446	9449.34
307.512	9437.44
307.578	9443.46
307.644	9436.38
307.709	9436.48
307.775	9429.93
307.841	9424.1
307.907	9424.97
307.973	9396.94
308.039	9396.55
308.104	9399.44
308.17	9400.21
308.236	9380.76
308.302	9389.67
308.368	9376.57
308.433	9379.7
308.499	9379.94
308.565	9364.63
308.631	9367.23
308.696	9339.93
308.762	9328.61
308.828	9331.02
308.894	9313.11
308.959	9293.66
309.025	9291.44
309.091	9286
309.156	9276.27
309.222	9275.21
309.288	9261.97
309.354	9249.12
309.419	9251.86
309.485	9239.63
309.551	9245.41
309.616	9229.18
309.682	9225.81
309.748	9224.66
309.813	9210.31
309.879	9198.27
309.945	9188.69
310.01	9183.92
310.076	9191.58
310.141	9184.6
310.207	9160.09
310.273	9165.14
310.338	9170.78
310.404	9153.11
310.469	9142.76
310.535	9137.65
310.601	9123.3
310.666	9128.12
310.732	9135.2
310.797	9119.4
310.863	9108.86
310.928	9099.81
310.994	9102.41
311.059	9094.32
311.125	9091.53
311.191	9107.9
311.256	9092.69
311.322	9099.86
311.387	9075.79
311.453	9436.38
311.518	9411.88
311.584	9415.68
311.649	9420.5
311.715	9409.71
311.78	9408.56
311.846	9396.19
311.911	9393.49
311.976	9392.14
312.042	9377.84
312.107	9360.95
312.173	9358.88
312.238	9348.67
312.304	9344.39
312.369	9336.92
312.434	9327.25
312.5	9319.02
312.565	9284.93
312.631	9295.18
312.696	9287
312.761	9289.5
312.827	8921.83
312.892	8960.54
312.958	8950.33
313.023	8949.8
313.088	8944.46
313.154	8928
313.219	8921.26
313.284	8911.78
313.35	8908.74
313.415	8894.93
313.48	8891.46
313.546	8900.51
313.611	8917.7
313.676	8913.51
313.741	8907.01
313.807	8917.22
313.872	8922.9
313.937	8936.38
314.003	8944.85
314.068	8949.86
314.133	8964.11
314.198	8949.38
314.264	8926.7
314.329	8922.03
314.394	8911.53
314.459	8910.72
314.525	8939.98
314.59	8939.45
314.655	8930.74
314.72	8933.39
314.785	8943.16
314.851	8937
314.916	8915.34
314.981	8890.88
315.046	8877.6
315.111	8867.49
315.176	8853.48
315.242	8856.51
315.307	8847.7
315.372	8824.5
315.437	8806.11
315.502	8791.62
315.567	8803.85
315.632	8791
315.698	8793.02
315.763	8785.85
315.828	8781.32
315.893	8777.42
315.958	8764.77
316.023	8754.9
316.088	8740.7
316.153	8712.79
316.218	8703.6
316.283	8680.98
316.348	8665.78
316.413	8664.76
316.479	8649.41
316.544	8612.84
316.609	8586.37
316.674	8553.36
316.739	8526.22
316.804	8497.11
316.869	8461.84
316.934	8422.86
316.999	8390.72
317.064	8341.16
317.129	8304.5
317.194	8263.84
317.259	8213.27
317.324	8168.58
317.389	8133.37
317.454	8093.25
317.518	8068.91
317.583	8046.58
317.648	8026.19
317.713	7992.47
317.778	7930.81
317.843	7905.36
317.908	7873.05
317.973	7829.38
318.038	7806.68
318.103	7770.37
318.168	7741.23
318.233	7714.3
318.297	7665.5
318.362	7634.82
318.427	7596.37
318.492	7567.08
318.557	7521.66
318.622	7487.24
318.687	7469.55
318.751	7424.9
318.816	7392.79
318.881	7360.58
318.946	7306.65
319.011	7260.02
319.075	7228.83
319.14	7197.89
319.205	7153.72
319.27	7123.55
319.335	7082.85
319.399	7038.69
319.464	7009.86
319.529	6957.26
319.594	6917.52
319.658	6893.45
319.723	6850.22
319.788	6822.46
319.853	6770.39
319.917	6746.71
319.982	6700.32
320.047	6663.14
320.112	6640.76
320.176	6590.01
320.241	6552.07
320.306	6521.91
320.37	6488.02
320.435	6453.73
320.5	6429.3
320.564	6391.13
320.629	6348.65
320.694	6314.14
320.758	6271.28
320.823	6228.33
320.888	6204
320.952	6156.4
321.017	6111.62
321.082	6072.85
321.146	6043.58
321.211	6015.85
321.275	5972.35
321.34	5930.09
321.405	5883.71
321.469	5837.85
321.534	5798.24
321.598	5748.7
321.663	5718.15
321.727	5684.72
321.792	5634.9
321.857	5591.16
321.921	5551.56
321.986	5510.53
322.05	5455.04
322.115	5421.39
322.179	5382
322.244	5325.27
322.308	5291.82
322.373	5245.87
322.437	5206.2
322.502	5177.92
322.566	5127.99
322.631	5092.84
322.695	5056.49
322.76	5012.53
322.824	4975.17
322.889	4934.29
322.953	4891.3
323.018	4828.09
323.082	4765.91
323.146	4716.13
323.211	4661.28
323.275	4617.48
323.34	4571.79
323.404	4536.11
323.468	4488.06
323.533	4441.13
323.597	4400.92
323.662	4348.63
323.726	4314.48
323.79	4265.41
323.855	4198.67
323.919	4155.11
323.983	4116.75
324.048	4048.66
324.112	4206.37
324.177	4080.18
324.241	3871.55
324.305	3664.59
324.37	3461.51
324.434	3265.84
324.498	3222
324.562	3172.96
324.627	3114.01
324.691	3059.94
324.755	2999.74
324.82	2926.09
324.884	2851.24
324.948	2778.38
325.012	2685.52
325.077	2563
