Data from 20250704_urea_0.5M_MAYP1162681_11-07-33-757.txt Node
Date: Fri Jul 04 11:07:33 BST 2025
User: adleo
Spectrometer: MAYP116268
Trigger mode: 0
Integration Time (sec): 1.000000E0
Scans to average: 1
Electric dark correction enabled: true
Nonlinearity correction enabled: true
Boxcar width: 10
XAxis mode: Wavelengths
Number of Pixels in Spectrum: 2068
>>>>>Begin Spectral Data<<<<<
179.565	1233.5
179.642	1291.98
179.718	1339.77
179.795	1381.1
179.871	1418.11
179.948	1437.33
180.024	1457.17
180.101	1482.62
180.177	1498.88
180.254	1522.84
180.33	1545.57
180.407	1599.79
180.483	1696.81
180.56	1790.88
180.636	1877.95
180.712	1866.11
180.789	1877.81
180.865	1890.31
180.942	1901.95
181.018	1911.74
181.095	1923.35
181.171	1931.1
181.248	1930.86
181.324	1944.61
181.4	1948.36
181.477	1958.11
181.553	1972.04
181.63	1993.63
181.706	2006.9
181.782	2013.12
181.859	2013.79
181.935	2019.35
182.011	2018.16
182.088	2035.33
182.164	2054.08
182.24	2065.97
182.317	2075.81
182.393	2071.48
182.469	2088.27
182.546	2100.26
182.622	2106.2
182.698	2099.88
182.775	2111.86
182.851	2126.56
182.927	2120.42
183.003	2119.04
183.08	2113.86
183.156	2120.19
183.232	2117.43
183.308	2107.72
183.385	2117.52
183.461	2134.98
183.537	2134.55
183.613	2147.68
183.69	2139.69
183.766	2128.36
183.842	2139.78
183.918	2142.21
183.995	2157.57
184.071	2163.85
184.147	2158.9
184.223	2144.54
184.299	2156.34
184.375	2145.69
184.452	2153.44
184.528	2203.46
184.604	2215.16
184.68	2225.38
184.756	2235.19
184.832	2238.95
184.908	2243.32
184.985	2242.46
185.061	2224.53
185.137	2233.52
185.213	2220.39
185.289	2218.92
185.365	2211.21
185.441	2206.5
185.517	2222.63
185.593	2219.21
185.669	2212.55
185.745	2223.87
185.822	2242.66
185.898	2238.04
185.974	2245.32
186.05	2238.42
186.126	2202.63
186.202	2196.35
186.278	2193.5
186.354	2183.65
186.43	2193.45
186.506	2193.64
186.582	2193.31
186.658	2199.26
186.734	2181.66
186.81	2187.27
186.886	2193.12
186.962	2207.49
187.038	2205.82
187.114	2197.92
187.19	2205.63
187.266	2195.26
187.341	2192.55
187.417	2184.84
187.493	2183.46
187.569	2188.88
187.645	2183.13
187.721	2171.85
187.797	2178.56
187.873	2181.7
187.949	2177.42
188.025	2167.94
188.101	2170.75
188.176	2175.13
188.252	2170.75
188.328	2177.84
188.404	2176.22
188.48	2171.13
188.556	2163.52
188.632	2162.52
188.707	2164.56
188.783	2161.47
188.859	2157.29
188.935	2150.01
189.011	2158.71
189.086	2152.24
189.162	2142.3
189.238	2137.02
189.314	2132.98
189.39	2127.51
189.465	2119.66
189.541	2135.5
189.617	2119.95
189.693	2113.24
189.768	2116.33
189.844	2141.46
189.92	2134.23
189.996	2143.65
190.071	2153.07
190.147	2151.84
190.223	2161.69
190.298	2154.74
190.374	2139.61
190.45	2152.02
190.526	2158.69
190.601	2153.31
190.677	2156.83
190.753	2184.82
190.828	2187.29
190.904	2201.8
190.98	2218.03
191.055	2232.11
191.131	2223.4
191.207	2244.91
191.282	2255.18
191.358	2248.9
191.433	2235.24
191.509	2247.79
191.585	2245.08
191.66	2249.08
191.736	2256.41
191.811	2246.22
191.887	2258.79
191.963	2285.39
192.038	2291.53
192.114	2290.72
192.189	2291.29
192.265	2287.96
192.34	2264.4
192.416	2265.11
192.491	2262.97
192.567	2263.35
192.642	2263.97
192.718	2261.02
192.793	2250.21
192.869	2244.32
192.944	2243.98
193.02	2252.45
193.095	2256.98
193.171	2262.02
193.246	2262.4
193.322	2263.73
193.397	2265.97
193.473	2252.59
193.548	2231.51
193.624	2236.37
193.699	2237.65
193.775	2259.55
193.85	2261.02
193.925	2273.06
194.001	2273.59
194.076	2268.21
194.152	2257.5
194.227	2248.84
194.302	2241.32
194.378	2243.61
194.453	2242.94
194.529	2254.93
194.604	2237.75
194.679	2228.76
194.755	2208.12
194.83	2219.5
194.905	2215.12
194.981	2221.31
195.056	2215.36
195.131	2221.59
195.207	2220.21
195.282	2207.22
195.357	2185.99
195.433	2200.74
195.508	2186.28
195.583	2193.27
195.659	2206.45
195.734	2214.21
195.809	2214.54
195.884	2223.49
195.96	2224.48
196.035	2241.28
196.11	2237.19
196.185	2250.61
196.261	2256.84
196.336	2290.86
196.411	2276.68
196.486	2280.53
196.561	2276.1
196.637	2284.29
196.712	2301.19
196.787	2304.57
196.862	2323.46
196.937	2331.78
197.013	2337.4
197.088	2349.49
197.163	2372.01
197.238	2389.73
197.313	2388.11
197.388	2401.49
197.464	2433.54
197.539	2448.34
197.614	2437.54
197.689	2450.96
197.764	2470.25
197.839	2492.29
197.914	2485.53
197.989	2505.62
198.065	2520.81
198.14	2572.7
198.215	2596.75
198.29	2610.42
198.365	2623.14
198.44	2633.28
198.515	2663.01
198.59	2677.44
198.665	2705.26
198.74	2710.7
198.815	2707.65
198.89	2735.04
198.965	2767.44
199.04	2762.92
199.115	2778.54
199.19	2826.09
199.265	2829.24
199.34	2834.81
199.415	2868.86
199.49	2890.34
199.565	2899.92
199.64	2924.18
199.715	2922.18
199.79	2933.57
199.865	2938.81
199.94	2937.15
200.015	2971.52
200.09	2977.58
200.165	2984.97
200.24	2992.36
200.315	3037.88
200.39	3056.23
200.464	3059.43
200.539	3058.33
200.614	3070.49
200.689	3093.33
200.764	3102.59
200.839	3120.03
200.914	3129.14
200.989	3116.25
201.063	3130.85
201.138	3116.55
201.213	3115.5
201.288	3092.47
201.363	3095.86
201.438	3098.91
201.512	3114.97
201.587	3094.08
201.662	3098.04
201.737	3110.25
201.812	3116.59
201.886	3079.12
201.961	3088.76
202.036	3076.32
202.111	3072.51
202.186	3046.68
202.26	3027.84
202.335	3003.95
202.41	2998.27
202.485	2979.64
202.559	2959.85
202.634	2933.35
202.709	2940.02
202.784	2923.19
202.858	2926.05
202.933	2905.27
203.008	2901.12
203.082	2883.44
203.157	2881.2
203.232	2839.32
203.306	2816.67
203.381	2784.21
203.456	2763.34
203.53	2741.3
203.605	2725.11
203.68	2702.85
203.754	2700.9
203.829	2684.03
203.904	2662.02
203.978	2653.11
204.053	2658.5
204.127	2644.68
204.202	2641.21
204.277	2624.87
204.351	2616.34
204.426	2608.24
204.5	2602.77
204.575	2565.34
204.65	2570.96
204.724	2565.81
204.799	2571.47
204.873	2572.48
204.948	2573.09
205.022	2560.57
205.097	2551.57
205.171	2562.09
205.246	2569.81
205.32	2564.29
205.395	2565.52
205.469	2557.43
205.544	2561.96
205.618	2547.48
205.693	2559.24
205.767	2548.29
205.842	2573.06
205.916	2565.54
205.991	2554.92
206.065	2559.3
206.14	2577.39
206.214	2575.77
206.289	2570.14
206.363	2585.72
206.438	2585.1
206.512	2593.05
206.586	2613.29
206.661	2623.78
206.735	2601.64
206.81	2601.93
206.884	2620.45
206.958	2610.4
207.033	2628.59
207.107	2638.89
207.181	2671.49
207.256	2669.91
207.33	2696.73
207.405	2710.7
207.479	2738.34
207.553	2751.01
207.628	2746.1
207.702	2762.59
207.776	2766.49
207.851	2776.98
207.925	2801.77
207.999	2814.16
208.073	2824.98
208.148	2841.43
208.222	2843.57
208.296	2895.93
208.371	2932.56
208.445	2963.51
208.519	3011.18
208.593	3045.22
208.668	3063.63
208.742	3093.9
208.816	3125.75
208.89	3168.51
208.965	3202.31
209.039	3247.75
209.113	3303.77
209.187	3365.15
209.261	3404.18
209.336	3469.06
209.41	3539.25
209.484	3590.51
209.558	3667.75
209.632	3739.3
209.707	3813.64
209.781	3902.27
209.855	3988.18
209.929	4081.05
210.003	4162.9
210.077	4243.62
210.151	4373.71
210.226	4497.09
210.3	4613.61
210.374	4730.83
210.448	4830.7
210.522	4942.3
210.596	5056.4
210.67	5177.26
210.744	5336.37
210.818	5480.91
210.892	5624.26
210.966	5738.11
211.041	5887.04
211.115	6011.8
211.189	6168.44
211.263	6322.39
211.337	6468.4
211.411	6627.69
211.485	6764.93
211.559	6930.91
211.633	7088.13
211.707	7217.82
211.781	7382.92
211.855	7511.14
211.929	7671.29
212.003	7818.81
212.077	7996.92
212.151	8179.81
212.225	8362.67
212.299	8530.64
212.373	8705.41
212.447	8878.5
212.52	9094.32
212.594	9276.7
212.668	9482.09
212.742	9655.11
212.816	9837.39
212.89	10015.72
212.964	10201.04
213.038	10402.22
213.112	10606.74
213.186	10807.87
213.26	10978.52
213.333	11128.14
213.407	11328.01
213.481	11525.91
213.555	11738.13
213.629	11917.95
213.703	12095.18
213.777	12282.86
213.85	12454.89
213.924	12681.49
213.998	12872.61
214.072	13057.42
214.146	13234.23
214.219	13413.75
214.293	13595.96
214.367	13783.96
214.441	13987.91
214.515	14155.8
214.588	14318.11
214.662	14462.96
214.736	14628.78
214.81	14814.42
214.883	15002.31
214.957	15169.58
215.031	15335.35
215.105	15482.61
215.178	15644.61
215.252	15807.48
215.326	15951.93
215.4	16094.8
215.473	16204.3
215.547	16350.77
215.621	16496.28
215.694	16654.6
215.768	16785.6
215.842	16933.03
215.915	17071.06
215.989	17197.71
216.063	17344.36
216.136	17474.15
216.21	17610.54
216.284	17764.13
216.357	17894.63
216.431	18019.98
216.504	18150.92
216.578	18296.84
216.652	18423.87
216.725	18541.02
216.799	18666.13
216.873	18789.4
216.946	18916.24
217.02	19021.73
217.093	19123.89
217.167	19213.38
217.24	19312.17
217.314	19410.14
217.387	19503.87
217.461	19597.26
217.535	19707.19
217.608	19791.62
217.682	19889.16
217.755	19998.41
217.829	20075.37
217.902	20182.07
217.976	20276.62
218.049	20357.24
218.123	20422.79
218.196	20528.33
218.27	20608.48
218.343	20681.64
218.417	20763.71
218.49	20837.01
218.563	20930.71
218.637	21015.53
218.71	21114.91
218.784	21196.32
218.857	21293.73
218.931	21379.28
219.004	21447.86
219.077	21516.45
219.151	21577.57
219.224	21649
219.298	21705.78
219.371	21778.47
219.444	21821.08
219.518	21877.14
219.591	21946.36
219.665	22034.24
219.738	22090.35
219.811	22136.19
219.885	22206.28
219.958	22274.35
220.031	22324.53
220.105	22380.36
220.178	22427.46
220.251	22464.05
220.325	22509.51
220.398	22555.75
220.471	22593.59
220.544	22648.7
220.618	22692.38
220.691	22744.88
220.764	22777.57
220.838	22813.05
220.911	22839.33
220.984	22899.59
221.057	22942.65
221.131	22970.37
221.204	22971.82
221.277	23007.6
221.35	23072.98
221.424	23089.13
221.497	23107.65
221.57	23141.49
221.643	23180.99
221.716	23220.29
221.79	23239.38
221.863	23258.09
221.936	23268.07
222.009	23284.71
222.082	23298.3
222.155	23296.18
222.229	23333.8
222.302	23353.23
222.375	23370.78
222.448	23392.29
222.521	23397.25
222.594	23408.25
222.667	23408.59
222.74	23428.4
222.814	23433.95
222.887	23430.43
222.96	23446.97
223.033	23461.05
223.106	23460.76
223.179	23466.65
223.252	23460.96
223.325	23458.54
223.398	23459.41
223.471	23465.92
223.544	23467.42
223.617	23466.31
223.69	23471.37
223.763	23446.63
223.837	23453.53
223.91	23469.01
223.983	23452.9
224.056	23428.65
224.129	23418.62
224.202	23422.52
224.275	23405.93
224.348	23394.12
224.42	23378.11
224.493	23346.62
224.566	23335.67
224.639	23341.51
224.712	23320.29
224.785	23303.94
224.858	23292.9
224.931	23279.5
225.004	23248.83
225.077	23241.06
225.15	23213
225.223	23196.27
225.296	23206.69
225.369	23176.5
225.442	23141.2
225.514	23127.94
225.587	23127.12
225.66	23120.28
225.733	23103.93
225.806	23089.51
225.879	23070.66
225.952	23037.39
226.025	23034.98
226.097	23017.67
226.17	22993.76
226.243	22947.95
226.316	22921.38
226.389	22910.58
226.461	22897.66
226.534	22878.81
226.607	22850.7
226.68	22850.17
226.753	22830.12
226.825	22788.07
226.898	22775.87
226.971	22757.31
227.044	22746.37
227.117	22722.69
227.189	22704.66
227.262	22699.6
227.335	22688.99
227.407	22653.99
227.48	22639.24
227.553	22615.71
227.626	22590.5
227.698	22561.09
227.771	22552.31
227.844	22536.36
227.916	22511.04
227.989	22464.96
228.062	22445.19
228.134	22442.88
228.207	22417.76
228.28	22388.74
228.352	22357.26
228.425	22345.59
228.498	22333.35
228.57	22294.88
228.643	22288.61
228.716	22254.87
228.788	22215.43
228.861	22188.82
228.934	22185.01
229.006	22154.74
229.079	22136.37
229.151	22108.27
229.224	22066.86
229.296	22044.45
229.369	22041.56
229.442	22032.73
229.514	22000.01
229.587	21991.38
229.659	21956.86
229.732	21926.11
229.804	21912.9
229.877	21915.79
229.949	21892.8
230.022	21883.74
230.094	21869.42
230.167	21830.81
230.239	21797.4
230.312	21779.67
230.384	21773.83
230.457	21755.08
230.529	21738.36
230.602	21701
230.674	21675.99
230.747	21673.09
230.819	21673.77
230.892	21613.47
230.964	21584.98
231.037	21577.08
231.109	21541.89
231.181	21505.94
231.254	21468.73
231.326	21442.51
231.399	21405.34
231.471	21358.98
231.544	21302.97
231.616	21288.46
231.688	21262.14
231.761	21232.94
231.833	21194.67
231.905	21136.49
231.978	21101.4
232.05	21068.58
232.122	21049.5
232.195	21022.41
232.267	20999.18
232.339	20949.1
232.412	20940.43
232.484	20897.05
232.556	20858.5
232.629	20854.4
232.701	20847.12
232.773	20825.05
232.846	20789.1
232.918	20764.71
232.99	20742.25
233.062	20719.31
233.135	20682.59
233.207	20639.02
233.279	20622.63
233.351	20597.72
233.424	20562.97
233.496	20518.25
233.568	20513.52
233.64	20472.22
233.713	20442.49
233.785	20416.08
233.857	20386.68
233.929	20328.13
234.001	20325.52
234.074	20309.52
234.146	20255.74
234.218	20221.91
234.29	20187.12
234.362	20148.61
234.434	20093.43
234.507	20044.95
234.579	19999.02
234.651	19960.91
234.723	19942.98
234.795	19910.4
234.867	19881.44
234.939	19869.44
235.012	19841.73
235.084	19807.51
235.156	19786.45
235.228	19741.4
235.3	19691.18
235.372	19659.86
235.444	19661.45
235.516	19595.28
235.588	19570.08
235.66	19533.31
235.732	19482.03
235.804	19513.89
235.876	19490.56
235.948	19479.19
236.02	19451.87
236.092	19418.67
236.164	19390.04
236.236	19355.01
236.308	19304.21
236.38	19268.8
236.452	19219.3
236.524	19198.2
236.596	19185.14
236.668	19147.5
236.74	19112.27
236.812	19085.87
236.884	19055.65
236.956	19014.74
237.028	18976.19
237.1	18927.42
237.172	18913.49
237.244	18903.47
237.316	18826.85
237.388	18782.85
237.46	18739.91
237.532	18728.1
237.604	18684.64
237.675	18652.83
237.747	18619.73
237.819	18592.4
237.891	18554.19
237.963	18516.36
238.035	18471.2
238.107	18391.4
238.178	18380.12
238.25	18347.74
238.322	18342.25
238.394	18293.28
238.466	18251.17
238.538	18228.08
238.609	18200.42
238.681	18149.53
238.753	18105.78
238.825	18074.89
238.897	18049.39
238.968	18034.16
239.04	17984.09
239.112	17983.76
239.184	17941.93
239.255	17909.83
239.327	17882.75
239.399	17854.51
239.471	17834.89
239.542	17807.28
239.614	17793.16
239.686	17729.88
239.758	17708.87
239.829	17657.26
239.901	17639.14
239.973	17608.25
240.044	17579.19
240.116	17542.18
240.188	17509.5
240.259	17470.71
240.331	17437.5
240.403	17416.01
240.474	17366.27
240.546	17319.48
240.618	17256.78
240.689	17219.47
240.761	17182.37
240.833	17164.49
240.904	17125.83
240.976	17084.58
241.048	17045.35
241.119	17016.72
241.191	16990.31
241.262	16968.53
241.334	16927.52
241.405	16893.44
241.477	16850.07
241.549	16813.82
241.62	16787.07
241.692	16756.18
241.763	16730.45
241.835	16678.54
241.906	16639.98
241.978	16590.1
242.049	16583.11
242.121	16566.15
242.192	16545.37
242.264	16497.42
242.335	16439.63
242.407	16422.57
242.478	16396.83
242.55	16372.78
242.621	16337.5
242.693	16299.18
242.764	16251.03
242.836	16215.51
242.907	16186.4
242.979	16163.55
243.05	16133.67
243.122	16104.08
243.193	16068.99
243.264	16024.5
243.336	16011.01
243.407	15978.57
243.479	15970.57
243.55	15940.54
243.622	15914.22
243.693	15885.06
243.764	15872.77
243.836	15841.15
243.907	15799.51
243.978	15755.98
244.05	15727.3
244.121	15676.36
244.192	15656.02
244.264	15619.33
244.335	15592.1
244.407	15539.56
244.478	15509.05
244.549	15474.3
244.62	15433.04
244.692	15411.39
244.763	15386.62
244.834	15334.37
244.906	15295.32
244.977	15260.33
245.048	15243.51
245.119	15210.88
245.191	15172.6
245.262	15121.6
245.333	15108.01
245.405	15081.45
245.476	15064.05
245.547	15039.66
245.618	15021.01
245.689	14991.02
245.761	14964.08
245.832	14939.35
245.903	14927.73
245.974	14902.09
246.045	14864.63
246.117	14851.14
246.188	14803.46
246.259	14765.67
246.33	14738.43
246.401	14710.52
246.473	14669.45
246.544	14626.89
246.615	14611.51
246.686	14576.76
246.757	14569.19
246.828	14523.92
246.899	14509.85
246.97	14455.28
247.042	14411.03
247.113	14389.48
247.184	14380.37
247.255	14351.69
247.326	14319.53
247.397	14287.48
247.468	14263.66
247.539	14243.56
247.61	14198.63
247.681	14178.29
247.752	14160.6
247.823	14124.11
247.894	14103.76
247.965	14070.26
248.037	14036.04
248.108	13985.23
248.179	13959.24
248.25	13928.82
248.321	13909.49
248.392	13871.75
248.463	13877.34
248.534	13852.66
248.605	13835.5
248.675	13805.32
248.746	13780.59
248.817	13764.2
248.888	13745.45
248.959	13704.91
249.03	13678.06
249.101	13654.48
249.172	13623.92
249.243	13575.13
249.314	13569.35
249.385	13548.28
249.456	13531.94
249.527	13514.39
249.598	13503.45
249.669	13475.97
249.739	13449.6
249.81	13435.24
249.881	13393.4
249.952	13365.87
250.023	13341.53
250.094	13299.25
250.165	13262.18
250.235	13238.6
250.306	13216.96
250.377	13178.44
250.448	13154.97
250.519	13123.73
250.59	13121.7
250.66	13099.14
250.731	13100.16
250.802	13073.88
250.873	13053.01
250.944	13036.33
251.014	12994.68
251.085	12987.26
251.156	12969.76
251.227	12958.86
251.297	12946.47
251.368	12936.4
251.439	12920.3
251.51	12913.45
251.58	12884.39
251.651	12855.51
251.722	12851.27
251.792	12804.03
251.863	12778.14
251.934	12774.04
252.005	12777.32
252.075	12749.99
252.146	12738.13
252.217	12725.79
252.287	12713.4
252.358	12693.68
252.429	12688.82
252.499	12675.8
252.57	12658.11
252.641	12647.65
252.711	12630.73
252.782	12590.62
252.852	12586.81
252.923	12572.45
252.994	12549.7
253.064	12542.42
253.135	12515.23
253.205	12486.74
253.276	12481.63
253.347	12483.61
253.417	12456.52
253.488	12432.32
253.558	12407.59
253.629	12387.39
253.699	12373.08
253.77	12363.39
253.841	12328.73
253.911	12306.41
253.982	12282.02
254.052	12271.95
254.123	12253
254.193	12231.41
254.264	12256.95
254.334	12226.44
254.405	12187.4
254.475	12158.09
254.546	12137.56
254.616	12135.63
254.687	12121.36
254.757	12112.4
254.827	12091.04
254.898	12075.71
254.968	12052.14
255.039	12023.27
255.109	12013.54
255.18	11981.19
255.25	11942.53
255.321	11936.27
255.391	11906.14
255.461	11909.32
255.532	11858.23
255.602	11836.59
255.673	11792.2
255.743	11755.8
255.813	11713.25
255.884	11718.21
255.954	11714.89
256.024	11712.91
256.095	11690.79
256.165	11653.48
256.235	11641.38
256.306	11610.2
256.376	11608.85
256.446	11601.96
256.517	11596.75
256.587	11586.73
256.657	11569.91
256.728	11557.66
256.798	11540.99
256.868	11521.56
256.938	11496.98
257.009	11491.01
257.079	11476.02
257.149	11494.86
257.219	11457.94
257.29	11449.46
257.36	11402.33
257.43	11386.18
257.5	11347.38
257.571	11325.7
257.641	11313.75
257.711	11290.32
257.781	11286.52
257.852	11262.85
257.922	11223.77
257.992	11203.04
258.062	11183.04
258.132	11184.01
258.202	11160.73
258.273	11144.92
258.343	11141.69
258.413	11116.83
258.483	11098.18
258.553	11071.29
258.623	11047.04
258.693	11035.24
258.764	11032.39
258.834	11033.16
258.904	11018.51
258.974	10991.05
259.044	10978.28
259.114	10967.77
259.184	10952.55
259.254	10927.68
259.324	10893.56
259.394	10882.96
259.464	10884.41
259.535	10862.77
259.605	10833.37
259.675	10808.7
259.745	10799.6
259.815	10770.54
259.885	10749.96
259.955	10761.96
260.025	10742.79
260.095	10722.02
260.165	10709.35
260.235	10712.91
260.305	10686.17
260.375	10656.15
260.445	10671.67
260.515	10671.13
260.585	10673.5
260.655	10654.99
260.725	10656.68
260.795	10650.22
260.865	10658.46
260.934	10635.67
261.004	10629.07
261.074	10617.55
261.144	10621.41
261.214	10620.49
261.284	10608.49
261.354	10601.89
261.424	10577.03
261.494	10582.23
261.564	10565.42
261.634	10562.48
261.703	10525.76
261.773	10521.47
261.843	10515.21
261.913	10490.93
261.983	10451.61
262.053	10436.53
262.123	10415.29
262.192	10382.67
262.262	10379.3
262.332	10347.11
262.402	10331.84
262.472	10323.99
262.541	10288.72
262.611	10283.95
262.681	10256.78
262.751	10252.01
262.821	10236.84
262.89	10211.35
262.96	10203.54
263.03	10209.37
263.1	10190.68
263.169	10174.25
263.239	10163.75
263.309	10172.13
263.379	10171.36
263.448	10168.09
263.518	10160.33
263.588	10150.5
263.657	10157.3
263.727	10153.35
263.797	10141.88
263.867	10131.48
263.936	10095.83
264.006	10095.01
264.076	10076.9
264.145	10060.76
264.215	10038.36
264.285	10036.67
264.354	10002.91
264.424	9984.7
264.494	9954.83
264.563	9938.31
264.633	9954.88
264.702	9943.66
264.772	9901.22
264.842	9876.94
264.911	9872.66
264.981	9840.33
265.05	9828.1
265.12	9809.7
265.19	9795.44
265.259	9791.88
265.329	9785.76
265.398	9780.36
265.468	9796.89
265.537	9774.06
265.607	9765.77
265.676	9760.04
265.746	9750.94
265.815	9747.81
265.885	9731.91
265.955	9706.92
266.024	9687.85
266.094	9643.49
266.163	9646.19
266.232	9650.62
266.302	9643.83
266.371	9630.73
266.441	9622.25
266.51	9616.33
266.58	9601.25
266.649	9584.11
266.719	9580.98
266.788	9572.93
266.858	9580.83
266.927	9549.09
266.996	9547.55
267.066	9532.96
267.135	9511.58
267.205	9506.47
267.274	9499.68
267.343	9495.93
267.413	9491.5
267.482	9498.09
267.552	9508.69
267.621	9483.5
267.69	9460.63
267.76	9450.95
267.829	9439.49
267.898	9432.99
267.968	9412.09
268.037	9410.4
268.106	9411.08
268.176	9386.95
268.245	9367.93
268.314	9346.6
268.384	9340.63
268.453	9331.28
268.522	9327.14
268.592	9326.9
268.661	9308.75
268.73	9303.88
268.799	9286.26
268.869	9291.17
268.938	9259.39
269.007	9234.74
269.076	9225.69
269.146	9227.33
269.215	9214.71
269.284	9221.12
269.353	9200.03
269.422	9189.34
269.492	9170.42
269.561	9129.01
269.63	9125.5
269.699	9105.04
269.768	9097.67
269.838	9090.64
269.907	9087.95
269.976	9065.46
270.045	9037.54
270.114	9032.73
270.183	9020.45
270.253	9014.67
270.322	8991.18
270.391	8983.05
270.46	8993.49
270.529	8994.22
270.598	8984.49
270.667	8979.39
270.736	8962.78
270.806	8962.54
270.875	8967.69
270.944	8957.48
271.013	8972.64
271.082	8964.27
271.151	8967.78
271.22	8939.77
271.289	8921.19
271.358	8907.13
271.427	8904.82
271.496	8898.42
271.565	8879.35
271.634	8874.93
271.703	8902.03
271.772	8903.29
271.841	8898.18
271.91	8869.83
271.979	8862.8
272.048	8846.44
272.117	8842.97
272.186	8821.17
272.255	8819.67
272.324	8817.12
272.393	8810.34
272.462	8795.12
272.531	8793.29
272.6	8780.35
272.669	8787.52
272.738	8784.29
272.807	8782.7
272.876	8763.6
272.945	8793.63
273.013	8800.08
273.082	8800.85
273.151	8753.92
273.22	8749.97
273.289	8740.92
273.358	8755.46
273.427	8740.1
273.496	8739.33
273.564	8736.69
273.633	8747.37
273.702	8728.07
273.771	8723.31
273.84	8720.66
273.909	8720.95
273.977	8710.6
274.046	8705.93
274.115	8710.89
274.184	8692.22
274.253	8678.07
274.322	8687.98
274.39	8655.59
274.459	8644.8
274.528	8616.51
274.597	8612.9
274.665	8609
274.734	8613.38
274.803	8602.21
274.872	8600.67
274.94	8587.68
275.009	8620.51
275.078	8601.22
275.147	8598.18
275.215	8588.17
275.284	8599.53
275.353	8597.27
275.421	8574.65
275.49	8585.68
275.559	8573.6
275.627	8574.32
275.696	8570.37
275.765	8571.24
275.833	8557.09
275.902	8552.62
275.971	8564.07
276.039	8578.07
276.108	8578.79
276.177	8579.08
276.245	8570.37
276.314	8563.06
276.383	8570.08
276.451	8523.24
276.52	8528.78
276.588	8544.51
276.657	8550.72
276.725	8536.24
276.794	8529.11
276.863	8542.54
276.931	8526.22
277	8532.14
277.068	8536.42
277.137	8554.95
277.205	8549.9
277.274	8572.37
277.342	8580.02
277.411	8560.82
277.48	8543.16
277.548	8540.76
277.617	8547.74
277.685	8540.08
277.754	8544.03
277.822	8534.31
277.89	8557.46
277.959	8548.42
278.027	8528.93
278.096	8519.54
278.164	8551.65
278.233	8544.77
278.301	8540.48
278.37	8538.37
278.438	8524.6
278.507	8529.8
278.575	8504.1
278.643	8498.81
278.712	8487.11
278.78	8478.74
278.849	8490
278.917	8508.24
278.985	8500.54
279.054	8498.85
279.122	8507.47
279.191	8505.3
279.259	8503.13
279.327	8476.23
279.396	8492.4
279.464	8489.37
279.532	8489.13
279.601	8484.94
279.669	8480.9
279.737	8490.86
279.806	8497.84
279.874	8511.79
279.942	8512.66
280.011	8510.59
280.079	8521.18
280.147	8533.11
280.215	8536.38
280.284	8533.74
280.352	8515.54
280.42	8522.47
280.488	8512.85
280.557	8514.1
280.625	8515.26
280.693	8517.13
280.761	8521.56
280.83	8507.27
280.898	8519.3
280.966	8506.26
281.034	8469.53
281.102	8459.24
281.171	8452.74
281.239	8462.46
281.307	8452.36
281.375	8444.42
281.443	8464.97
281.512	8462.8
281.58	8471.37
281.648	8451.4
281.716	8450.15
281.784	8449.81
281.852	8440.62
281.92	8440.72
281.989	8447.45
282.057	8430.9
282.125	8474.99
282.193	8472.87
282.261	8478.74
282.329	8478.26
282.397	8483.22
282.465	8488.08
282.533	8501.65
282.601	8490.19
282.67	8462.33
282.738	8452.23
282.806	8459.25
282.874	8450.35
282.942	8448.42
283.01	8436.34
283.078	8450.78
283.146	8450.39
283.214	8464.11
283.282	8465.07
283.35	8475.18
283.418	8468.78
283.486	8478.5
283.554	8436.19
283.622	8432.53
283.69	8426.32
283.758	8415.59
283.826	8416.51
283.894	8424.64
283.962	8442.83
284.03	8461.11
284.098	8465.16
284.165	8463.38
284.233	8459.96
284.301	8457.22
284.369	8451.44
284.437	8450
284.505	8443.26
284.573	8458.9
284.641	8442.06
284.709	8455.34
284.777	8440.08
284.845	8447.54
284.912	8452.12
284.98	8456.83
285.048	8453.85
285.116	8464.96
285.184	8481.32
285.252	8486.91
285.319	8469.01
285.387	8461.31
285.455	8441.63
285.523	8451.97
285.591	8450.38
285.659	8454.81
285.726	8462.56
285.794	8451.54
285.862	8446.97
285.93	8446.01
285.997	8438.4
286.065	8438.55
286.133	8427.82
286.201	8422.81
286.269	8410.73
286.336	8399.19
286.404	8390.72
286.472	8403.57
286.539	8373.83
286.607	8362.43
286.675	8355.93
286.743	8370.75
286.81	8367.77
286.878	8380.13
286.946	8367.33
287.013	8365.89
287.081	8366.13
287.149	8353.14
287.216	8373.49
287.284	8370.08
287.352	8371.09
287.419	8373.83
287.487	8381.29
287.555	8387.06
287.622	8386.82
287.69	8390.29
287.758	8403.13
287.825	8403.66
287.893	8395
287.96	8407.17
288.028	8414.53
288.096	8423.05
288.163	8425.07
288.231	8409.34
288.298	8415.11
288.366	8435.32
288.433	8436.67
288.501	8428.82
288.569	8433.54
288.636	8425.84
288.704	8435.03
288.771	8442.88
288.839	8434.07
288.906	8434.55
288.974	8438.3
289.041	8439.27
289.109	8434.94
289.176	8444.08
289.244	8448.41
289.311	8458.37
289.379	8467.47
289.446	8467.71
289.514	8463.38
289.581	8460.58
289.649	8467.46
289.716	8460.44
289.783	8448.12
289.851	8463.08
289.918	8462.02
289.986	8469.63
290.053	8478.63
290.121	8481.71
290.188	8478.72
290.255	8507.21
290.323	8500.62
290.39	8495.33
290.458	8504.47
290.525	8515.68
290.592	8511.21
290.66	8516.6
290.727	8507.74
290.794	8525.31
290.862	8531.03
290.929	8540.32
290.996	8539.55
291.064	8545.9
291.131	8564.1
291.198	8575.84
291.266	8578.63
291.333	8580.26
291.4	8589.65
291.468	8606.69
291.535	8599.66
291.602	8608.85
291.669	8598.41
291.737	8605.05
291.804	8605.1
291.871	8617.42
291.938	8623.63
292.006	8652.51
292.073	8660.6
292.14	8677.25
292.207	8666.56
292.275	8665.26
292.342	8671.71
292.409	8699.34
292.476	8732.12
292.543	8725.29
292.611	8729.76
292.678	8746.99
292.745	8772.4
292.812	8783.81
292.879	8775
292.946	8787.13
293.014	8801.62
293.081	8810.52
293.148	8825.25
293.215	8842.77
293.282	8834.54
293.349	8847.83
293.416	8823.61
293.484	8835.74
293.551	8847.87
293.618	8866.93
293.685	8894.81
293.752	8893.89
293.819	8890.14
293.886	8867.13
293.953	8870.78
294.02	8881.52
294.087	8890.57
294.154	8883.59
294.221	8895.53
294.288	8896.4
294.356	8914.01
294.423	8922.63
294.49	8920.66
294.557	8937.03
294.624	8935.44
294.691	8961.38
294.758	8960.52
294.825	8975.97
294.892	8968.75
294.959	8963.98
295.026	8978.42
295.093	8969.61
295.16	8966.73
295.226	8967.78
295.293	9001.77
295.36	9008.32
295.427	9020.07
295.494	9034.46
295.561	9046.35
295.628	9070.91
295.695	9090.36
295.762	9083.38
295.829	9085.69
295.896	9099.32
295.963	9102.54
296.03	9108.18
296.096	9109.19
296.163	9116.79
296.23	9127.58
296.297	9141.3
296.364	9139.47
296.431	9134.27
296.498	9130.99
296.564	9155.83
296.631	9165.56
296.698	9145.96
296.765	9161.71
296.832	9150.39
296.899	9128.82
296.965	9147.55
297.032	9123.57
297.099	9133.87
297.166	9147.88
297.233	9150.53
297.299	9140.9
297.366	9144.8
297.433	9148.66
297.5	9161.13
297.566	9165.8
297.633	9167.43
297.7	9168.83
297.767	9169.55
297.833	9174.94
297.9	9181.73
297.967	9164.4
298.033	9173.55
298.1	9206.1
298.167	9201.58
298.234	9207.59
298.3	9221.8
298.367	9211.06
298.434	9214.28
298.5	9202.44
298.567	9193.72
298.634	9191.94
298.7	9210.53
298.767	9204.85
298.834	9220.83
298.9	9215.15
298.967	9207.3
299.033	9217.56
299.1	9236.87
299.167	9254.68
299.233	9251.12
299.3	9264.79
299.366	9284.34
299.433	9295.8
299.5	9267.68
299.566	9276.78
299.633	9301.72
299.699	9320.07
299.766	9317.47
299.832	9329.51
299.899	9345.88
299.965	9365.43
300.032	9362.68
300.099	9368.75
300.165	9375.15
300.232	9373.13
300.298	9380.88
300.365	9394.99
300.431	9391.19
300.498	9386.13
300.564	9394.7
300.631	9412.66
300.697	9426.34
300.763	9430.53
300.83	9428.84
300.896	9446.76
300.963	9452.78
301.029	9455.76
301.096	9447.38
301.162	9465.01
301.229	9457.54
301.295	9445.21
301.361	9443.62
301.428	9452.15
301.494	9445.98
301.561	9459.85
301.627	9458.12
301.693	9452.34
301.76	9459.71
301.826	9461.59
301.892	9475.79
301.959	9485.96
302.025	9482.15
302.092	9472.37
302.158	9478.68
302.224	9482.1
302.291	9473.87
302.357	9474.93
302.423	9462.69
302.49	9455.86
302.556	9459.81
302.622	9458.65
302.688	9473.67
302.755	9492.79
302.821	9502.18
302.887	9508.78
302.954	9502.33
303.02	9512.06
303.086	9522.12
303.152	9517.26
303.219	9508.83
303.285	9509.12
303.351	9507.67
303.417	9503.82
303.483	9491.98
303.55	9483.74
303.616	9484.08
303.682	9479.12
303.748	9468.48
303.815	9484.37
303.881	9500.31
303.947	9487.55
304.013	9491.74
304.079	9479.27
304.145	9453.93
304.212	9440.5
304.278	9431.74
304.344	9429.42
304.41	9416.81
304.476	9404.38
304.542	9391.77
304.608	9397.35
304.674	9378.24
304.741	9374.24
304.807	9379.97
304.873	9388.64
304.939	9407.32
305.005	9388.49
305.071	9390.85
305.137	9399.47
305.203	9375.54
305.269	9372.12
305.335	9389.02
305.401	9390.32
305.467	9390.85
305.533	9404.86
305.599	9420.22
305.666	9425.14
305.732	9426.82
305.798	9441.17
305.864	9466.84
305.93	9476.08
305.996	9476.37
306.062	9482.58
306.128	9484.37
306.194	9469.39
306.259	9466.6
306.325	9455.04
306.391	9465.3
306.457	9473.77
306.523	9472.23
306.589	9495.15
306.655	9482.63
306.721	9460.1
306.787	9440.79
306.853	9457.93
306.919	9437.85
306.985	9424.51
307.051	9430.1
307.117	9423.21
307.183	9413.58
307.248	9390.99
307.314	9399.42
307.38	9401.59
307.446	9404.09
307.512	9382.91
307.578	9388.49
307.644	9382.42
307.709	9378.96
307.775	9373.03
307.841	9367.26
307.907	9369.28
307.973	9349.77
308.039	9355.02
308.104	9364.56
308.17	9371.06
308.236	9353.38
308.302	9358.2
308.368	9353.19
308.433	9342.93
308.499	9339.27
308.565	9330.7
308.631	9330.99
308.696	9302.05
308.762	9290.79
308.828	9286.5
308.894	9277.35
308.959	9259.39
309.025	9253.86
309.091	9253.62
309.156	9251.79
309.222	9254.72
309.288	9234.36
309.354	9212.11
309.419	9205.66
309.485	9194.54
309.551	9196.47
309.616	9181.64
309.682	9171.96
309.748	9165.27
309.813	9160.11
309.879	9153.47
309.945	9146.25
310.01	9139.75
310.076	9146.68
310.141	9141.91
310.207	9126.6
310.273	9126.51
310.338	9134.21
310.404	9118.76
310.469	9096.75
310.535	9083.71
310.601	9060.36
310.666	9069.12
310.732	9079.95
310.797	9066.85
310.863	9053.18
310.928	9044.13
310.994	9049.33
311.059	9057.08
311.125	9050.24
311.191	9059.78
311.256	9043.75
311.322	9043.89
311.387	9018.48
311.453	9364.08
311.518	9336.73
311.584	9332.74
311.649	9336.35
311.715	9323.98
311.78	9325.85
311.846	9321.57
311.911	9321.57
311.976	9321.38
312.042	9302.65
312.107	9288.79
312.173	9278.29
312.238	9275.84
312.304	9274.83
312.369	9261.44
312.434	9243.73
312.5	9238.58
312.565	9206.76
312.631	9213.25
312.696	9210.46
312.761	9216.96
312.827	8860.53
312.892	8899.33
312.958	8896.34
313.023	8894.66
313.088	8887.05
313.154	8877.52
313.219	8869.63
313.284	8862.46
313.35	8861.98
313.415	8856.63
313.48	8851.44
313.546	8863.47
313.611	8871.99
313.676	8855.24
313.741	8849.94
313.807	8859.33
313.872	8865.2
313.937	8876.23
314.003	8884.12
314.068	8877.43
314.133	8887.78
314.198	8873.77
314.264	8851.05
314.329	8847.39
314.394	8843.06
314.459	8841.32
314.525	8856.82
314.59	8850.23
314.655	8835.98
314.72	8837.91
314.785	8840.17
314.851	8841.09
314.916	8814.42
314.981	8798.25
315.046	8791.12
315.111	8776.93
315.176	8761.86
315.242	8756.9
315.307	8749.58
315.372	8731
315.437	8721.04
315.502	8706.89
315.567	8723.88
315.632	8711.8
315.698	8711.8
315.763	8703.66
315.828	8695.39
315.893	8691.49
315.958	8693.85
316.023	8685.38
316.088	8667.9
316.153	8645.82
316.218	8632.58
316.283	8623.54
316.348	8605.06
316.413	8605.68
316.479	8593.51
316.544	8565.22
316.609	8536.39
316.674	8504.92
316.739	8471.39
316.804	8444.35
316.869	8409.56
316.934	8374.38
316.999	8347.34
317.064	8294.94
317.129	8254.67
317.194	8221.57
317.259	8172.35
317.324	8124.54
317.389	8083.7
317.454	8050.07
317.518	8020.69
317.583	7997.59
317.648	7973.59
317.713	7939.35
317.778	7884.61
317.843	7860.03
317.908	7820.7
317.973	7788.96
318.038	7761.31
318.103	7724.24
318.168	7692.02
318.233	7660.19
318.297	7605.19
318.362	7570.18
318.427	7530.14
318.492	7505.67
318.557	7460.78
318.622	7431.16
318.687	7407.23
318.751	7374.21
318.816	7337.92
318.881	7305.86
318.946	7252.02
319.011	7206.51
319.075	7167.44
319.14	7131.16
319.205	7090.36
319.27	7057.83
319.335	7007.39
319.399	6967.07
319.464	6941.61
319.529	6887.72
319.594	6856.54
319.658	6829.5
319.723	6781.99
319.788	6755.68
319.853	6702.45
319.917	6667.79
319.982	6618.61
320.047	6580.43
320.112	6548.79
320.176	6496.41
320.241	6459.39
320.306	6429.57
320.37	6386.51
320.435	6355.88
320.5	6327.22
320.564	6287.09
320.629	6242.89
320.694	6216.93
320.758	6174.7
320.823	6131.65
320.888	6107.18
320.952	6058.24
321.017	6019.9
321.082	5983.68
321.146	5950.43
321.211	5922.22
321.275	5884.53
321.34	5843.34
321.405	5802.57
321.469	5758.26
321.534	5720.77
321.598	5672.67
321.663	5642.45
321.727	5618.19
321.792	5569.05
321.857	5525.61
321.921	5482.7
321.986	5442.69
322.05	5385.48
322.115	5348.72
322.179	5305.35
322.244	5247.77
322.308	5214.52
322.373	5168.14
322.437	5129.67
322.502	5102.4
322.566	5052.43
322.631	5022.21
322.695	4985.96
322.76	4942.39
322.824	4910.3
322.889	4867.51
322.953	4823.28
323.018	4755.73
323.082	4689.67
323.146	4644.98
323.211	4594.44
323.275	4554.14
323.34	4508.7
323.404	4477.32
323.468	4433.54
323.533	4389.68
323.597	4348.95
323.662	4297.15
323.726	4259.18
323.79	4210.78
323.855	4145.87
323.919	4097.11
323.983	4050.2
324.048	3983.13
324.112	4125.88
324.177	3998.31
324.241	3793.37
324.305	3590.05
324.37	3392.56
324.434	3200.18
324.498	3154.19
324.562	3103.56
324.627	3041.29
324.691	2989.82
324.755	2922.63
324.82	2846.35
324.884	2770.78
324.948	2699.49
325.012	2604.53
325.077	2486.28
