Data from 20250625_urea_1M_1_MAYP1162681_11-45-05-907.txt Node
Date: Thu Jun 26 11:45:05 BST 2025
User: adleo
Spectrometer: MAYP116268
Trigger mode: 0
Integration Time (sec): 1.000000E0
Scans to average: 1
Electric dark correction enabled: true
Nonlinearity correction enabled: true
Boxcar width: 10
XAxis mode: Wavelengths
Number of Pixels in Spectrum: 2068
>>>>>Begin Spectral Data<<<<<
179.565	1131.14
179.642	1182.37
179.718	1226.88
179.795	1263.67
179.871	1291.96
179.948	1311.42
180.024	1332.99
180.101	1354.99
180.177	1368.11
180.254	1391.04
180.33	1413.69
180.407	1462.78
180.483	1553.76
180.56	1638.61
180.636	1718.08
180.712	1706.24
180.789	1712.09
180.865	1723.72
180.942	1731.37
181.018	1742.06
181.095	1756.85
181.171	1762.31
181.248	1765.12
181.324	1777.05
181.4	1781.23
181.477	1794.4
181.553	1804.56
181.63	1822.72
181.706	1836.55
181.782	1846.77
181.859	1845.72
181.935	1847.39
182.011	1845.01
182.088	1858.94
182.164	1876.58
182.24	1887.08
182.317	1897.25
182.393	1896.45
182.469	1908.85
182.546	1923.78
182.622	1928.25
182.698	1922.69
182.775	1936.28
182.851	1947.41
182.927	1943.51
183.003	1943.13
183.08	1936.81
183.156	1945.08
183.232	1942.41
183.308	1930.15
183.385	1933.14
183.461	1948.31
183.537	1948.55
183.613	1960.34
183.69	1954.64
183.766	1943.51
183.842	1952.64
183.918	1960.29
183.995	1971.7
184.071	1975.22
184.147	1970.89
184.223	1960.1
184.299	1970.19
184.375	1959.06
184.452	1967.1
184.528	2018.09
184.604	2028.5
184.68	2042.01
184.756	2049.43
184.832	2054.23
184.908	2060.46
184.985	2062.69
185.061	2047.29
185.137	2057.89
185.213	2047.81
185.289	2048.19
185.365	2043.06
185.441	2041.01
185.517	2048.34
185.593	2047.34
185.669	2047.81
185.745	2058.47
185.822	2072.87
185.898	2067.59
185.974	2073.49
186.05	2065.21
186.126	2027.15
186.202	2018.59
186.278	2012.98
186.354	2003.99
186.43	2008.61
186.506	2006.71
186.582	2006.23
186.658	2014.27
186.734	1995.39
186.81	1997.44
186.886	1998.91
186.962	2010.23
187.038	2005.38
187.114	2000.66
187.19	2004.95
187.266	1995.53
187.341	1996.15
187.417	1990.21
187.493	1987.16
187.569	1991.73
187.645	1986.26
187.721	1972.56
187.797	1981.12
187.873	1984.16
187.949	1976.27
188.025	1970.85
188.101	1974.65
188.176	1977.27
188.252	1972.94
188.328	1984.16
188.404	1983.45
188.48	1979.12
188.556	1970.18
188.632	1973.32
188.707	1970.51
188.783	1972.22
188.859	1966.85
188.935	1953.54
189.011	1960.57
189.086	1955.91
189.162	1948.88
189.238	1946.22
189.314	1947.88
189.39	1940.37
189.465	1935.09
189.541	1951.83
189.617	1938.56
189.693	1932.71
189.768	1935.66
189.844	1956.02
189.92	1943.9
189.996	1950.27
190.071	1962.35
190.147	1963.82
190.223	1970.29
190.298	1963.16
190.374	1948.94
190.45	1959.54
190.526	1968.53
190.601	1963.01
190.677	1965.91
190.753	1992.27
190.828	1996.26
190.904	2007.58
190.98	2023.42
191.055	2031.84
191.131	2025.37
191.207	2045.63
191.282	2056.99
191.358	2049.43
191.433	2038.2
191.509	2052.37
191.585	2049.32
191.66	2050.13
191.736	2062.78
191.811	2055.41
191.887	2069.92
191.963	2094.03
192.038	2097.27
192.114	2097.46
192.189	2102.21
192.265	2097.17
192.34	2076.66
192.416	2076.24
192.491	2073.29
192.567	2076.29
192.642	2078.24
192.718	2078.47
192.793	2066.82
192.869	2058.31
192.944	2060.31
193.02	2064.44
193.095	2065.78
193.171	2074.05
193.246	2074.24
193.322	2068.82
193.397	2067.96
193.473	2057.64
193.548	2039.13
193.624	2047.37
193.699	2043.85
193.775	2059.59
193.85	2062.83
193.925	2069.58
194.001	2066.39
194.076	2058.17
194.152	2046.89
194.227	2039.04
194.302	2031.01
194.378	2033.82
194.453	2035.72
194.529	2049.22
194.604	2036.91
194.679	2035.48
194.755	2014.28
194.83	2024.22
194.905	2018.18
194.981	2026.08
195.056	2019.61
195.131	2025.03
195.207	2020.32
195.282	2012.81
195.357	1993.88
195.433	2009.14
195.508	1997.92
195.583	2008.19
195.659	2023.46
195.734	2028.83
195.809	2030.88
195.884	2037.91
195.96	2037.29
196.035	2051.23
196.11	2045.57
196.185	2055.17
196.261	2056.65
196.336	2087.94
196.411	2072.57
196.486	2080.04
196.561	2075.57
196.637	2081.84
196.712	2097.45
196.787	2101.78
196.862	2116.71
196.937	2126.18
197.013	2131.7
197.088	2139.35
197.163	2159.3
197.238	2174.91
197.313	2175.67
197.388	2191.61
197.464	2219.5
197.539	2229.77
197.614	2222.5
197.689	2236.58
197.764	2256.24
197.839	2274.6
197.914	2267.94
197.989	2292.26
198.065	2306.3
198.14	2353.34
198.215	2379.66
198.29	2393.04
198.365	2407.7
198.44	2417.08
198.515	2444.64
198.59	2459.17
198.665	2487.92
198.74	2494.06
198.815	2494.87
198.89	2516.58
198.965	2542.21
199.04	2541.11
199.115	2558.82
199.19	2600.01
199.265	2601.68
199.34	2610.58
199.415	2646.09
199.49	2668.32
199.565	2676.13
199.64	2700.9
199.715	2699.9
199.79	2710.15
199.865	2711.67
199.94	2709.1
200.015	2741.12
200.09	2746.12
200.165	2750.93
200.24	2757.03
200.315	2795.32
200.39	2811.52
200.464	2822.24
200.539	2821.96
200.614	2837.01
200.689	2856.69
200.764	2863.99
200.839	2881.52
200.914	2885.09
200.989	2870.74
201.063	2883.75
201.138	2866.7
201.213	2863.27
201.288	2844.54
201.363	2846.11
201.438	2847.97
201.512	2861.17
201.587	2841.29
201.662	2844.15
201.737	2854.78
201.812	2862.41
201.886	2834.65
201.961	2844.09
202.036	2829.89
202.111	2829.32
202.186	2799.94
202.26	2784.54
202.335	2763.95
202.41	2760.85
202.485	2749.56
202.559	2733.22
202.634	2709.88
202.709	2722.3
202.784	2702.96
202.858	2703.39
202.933	2684.77
203.008	2680.29
203.082	2662.57
203.157	2663.62
203.232	2621.96
203.306	2603.38
203.381	2570.75
203.456	2543.36
203.53	2515.43
203.605	2496.96
203.68	2473.76
203.754	2469.2
203.829	2454.53
203.904	2434.91
203.978	2421.1
204.053	2421.91
204.127	2406.78
204.202	2404.16
204.277	2385.64
204.351	2383.54
204.426	2376.02
204.5	2369.55
204.575	2337.8
204.65	2347.99
204.724	2339.61
204.799	2347.69
204.873	2342.6
204.948	2341.84
205.022	2333.75
205.097	2329.99
205.171	2343.22
205.246	2349.79
205.32	2348.27
205.395	2347.27
205.469	2338.99
205.544	2343.04
205.618	2324.95
205.693	2336.99
205.767	2326.19
205.842	2343.37
205.916	2335.71
205.991	2326.43
206.065	2331.38
206.14	2342.75
206.214	2336.17
206.289	2332.13
206.363	2343.55
206.438	2346.07
206.512	2354.64
206.586	2372.35
206.661	2380.11
206.735	2356.27
206.81	2357.7
206.884	2373.36
206.958	2364.17
207.033	2380.07
207.107	2386.3
207.181	2414.87
207.256	2411.83
207.33	2429.44
207.405	2444.07
207.479	2461.3
207.553	2468.11
207.628	2454.35
207.702	2468.11
207.776	2461.54
207.851	2464.68
207.925	2482.45
207.999	2480.26
208.073	2476.4
208.148	2477.26
208.222	2463.55
208.296	2497.48
208.371	2513.58
208.445	2523.73
208.519	2548.91
208.593	2560.34
208.668	2557.91
208.742	2562.49
208.816	2563.39
208.89	2576.4
208.965	2576.83
209.039	2586.83
209.113	2603.69
209.187	2625.49
209.261	2621.68
209.336	2643.4
209.41	2661.88
209.484	2662.5
209.558	2687.23
209.632	2700.61
209.707	2714.28
209.781	2740.39
209.855	2757.26
209.929	2776.29
210.003	2784.63
210.077	2788.2
210.151	2837.95
210.226	2878.38
210.3	2910.15
210.374	2937.88
210.448	2946.7
210.522	2959.95
210.596	2976.83
210.67	2996.09
210.744	3052.66
210.818	3093.17
210.892	3122.65
210.966	3129.89
211.041	3155.4
211.115	3163.27
211.189	3203.95
211.263	3236.86
211.337	3259.52
211.411	3291.97
211.485	3303.14
211.559	3335.67
211.633	3364.33
211.707	3359.17
211.781	3387.59
211.855	3379.1
211.929	3400.09
212.003	3413.11
212.077	3455.37
212.151	3496.58
212.225	3536.97
212.299	3559.14
212.373	3584.5
212.447	3619.18
212.52	3689.53
212.594	3736.88
212.668	3793.52
212.742	3827.16
212.816	3875.57
212.89	3925.65
212.964	3971.55
213.038	4029.54
213.112	4095.86
213.186	4159.15
213.26	4193.31
213.333	4206.84
213.407	4274.05
213.481	4339.88
213.555	4411.67
213.629	4465.6
213.703	4517.66
213.777	4585.34
213.85	4635.08
213.924	4738.35
213.998	4812.19
214.072	4880.41
214.146	4943.29
214.219	5015.33
214.293	5089.13
214.367	5163.4
214.441	5247.45
214.515	5319.34
214.588	5379.49
214.662	5430.97
214.736	5496.15
214.81	5592.99
214.883	5690.07
214.957	5765.24
215.031	5838.45
215.105	5906.14
215.178	5977.04
215.252	6062.34
215.326	6126.35
215.4	6195.28
215.473	6239.45
215.547	6313.62
215.621	6388.35
215.694	6488.34
215.768	6560.94
215.842	6639.4
215.915	6716.06
215.989	6779.47
216.063	6866.44
216.136	6960.03
216.21	7056.74
216.284	7159.96
216.357	7251.85
216.431	7346.68
216.504	7446.41
216.578	7567.86
216.652	7675.67
216.725	7773.66
216.799	7877.45
216.873	7975.36
216.946	8080.81
217.02	8175.08
217.093	8263.74
217.167	8339.37
217.24	8408.13
217.314	8491.84
217.387	8577.34
217.461	8662.32
217.535	8769.79
217.608	8849.69
217.682	8939.47
217.755	9033.96
217.829	9116.63
217.902	9207.38
217.976	9289.47
218.049	9376.68
218.123	9447.37
218.196	9539.78
218.27	9625.6
218.343	9695.01
218.417	9790.62
218.49	9874.37
218.563	9972.2
218.637	10070.42
218.71	10180.41
218.784	10278.97
218.857	10383.17
218.931	10484.34
219.004	10574.77
219.077	10671.96
219.151	10758.88
219.224	10839.83
219.298	10920.4
219.371	11019.62
219.444	11084.91
219.518	11175.12
219.591	11256.62
219.665	11362.74
219.738	11451.13
219.811	11524.43
219.885	11613.5
219.958	11698.71
220.031	11782.14
220.105	11868.42
220.178	11944.48
220.251	12011.96
220.325	12088.02
220.398	12167.6
220.471	12243.71
220.544	12336.45
220.618	12397.96
220.691	12482.85
220.764	12555.83
220.838	12637.39
220.911	12699.38
220.984	12807.26
221.057	12880.24
221.131	12952.26
221.204	12989.14
221.277	13071.86
221.35	13169.72
221.424	13232.19
221.497	13293.32
221.57	13362.83
221.643	13434.08
221.716	13508.9
221.79	13568.96
221.863	13638.57
221.936	13697.39
222.009	13755.81
222.082	13817.76
222.155	13876.71
222.229	13950.95
222.302	14021.04
222.375	14087.61
222.448	14159.49
222.521	14209.33
222.594	14266.6
222.667	14312.93
222.74	14387.74
222.814	14437.44
222.887	14484.06
222.96	14546.77
223.033	14611.03
223.106	14663.52
223.179	14713.61
223.252	14760.46
223.325	14813.25
223.398	14863.67
223.471	14918.43
223.544	14973.91
223.617	15024.38
223.69	15076.68
223.763	15111.43
223.837	15170.82
223.91	15214.59
223.983	15239.89
224.056	15271.9
224.129	15319.57
224.202	15383
224.275	15417.52
224.348	15447.02
224.42	15482.44
224.493	15505.92
224.566	15538.74
224.639	15582.8
224.712	15618.52
224.785	15647
224.858	15693.28
224.931	15728.37
225.004	15762.88
225.077	15794.64
225.15	15806.21
225.223	15841.83
225.296	15899.47
225.369	15907.86
225.442	15936.25
225.514	15973.8
225.587	16011.25
225.66	16049.08
225.733	16079.79
225.806	16123.12
225.879	16155.46
225.952	16176.57
226.025	16234.21
226.097	16280.1
226.17	16313.06
226.243	16328.15
226.316	16363.19
226.389	16391.53
226.461	16416.11
226.534	16444.45
226.607	16471.01
226.68	16518.77
226.753	16543.69
226.825	16548.41
226.898	16596.37
226.971	16617.67
227.044	16653.48
227.117	16685.29
227.189	16714.35
227.262	16753.53
227.335	16785.29
227.407	16818.11
227.48	16854.12
227.553	16875.32
227.626	16897.73
227.698	16920.48
227.771	16953.88
227.844	16975.08
227.916	16998.6
227.989	17020.39
228.062	17038.61
228.134	17082.46
228.207	17095.81
228.28	17108.63
228.352	17129.5
228.425	17146.61
228.498	17180.05
228.57	17194.85
228.643	17224.73
228.716	17244.73
228.788	17257.94
228.861	17256.2
228.934	17285.69
229.006	17301.98
229.079	17327.24
229.151	17335.24
229.224	17342.32
229.296	17358.08
229.369	17402.8
229.442	17436.15
229.514	17446.9
229.587	17470.66
229.659	17472.59
229.732	17496.06
229.804	17534.42
229.877	17574.13
229.949	17593.84
230.022	17619.38
230.094	17635.28
230.167	17650.66
230.239	17654.66
230.312	17656.83
230.384	17703.81
230.457	17713.93
230.529	17727.67
230.602	17732.97
230.674	17755.18
230.747	17773.69
230.819	17796.29
230.892	17778.17
230.964	17788.82
231.037	17808.87
231.109	17826.75
231.181	17848.05
231.254	17855.04
231.326	17858.07
231.399	17858.65
231.471	17869.5
231.544	17863.86
231.616	17879.71
231.688	17885.01
231.761	17888.48
231.833	17898.12
231.905	17883.95
231.978	17892.97
232.05	17897.83
232.122	17905.64
232.195	17903.9
232.267	17918.94
232.339	17926.84
232.412	17954.46
232.484	17951.61
232.556	17955.95
232.629	17977.73
232.701	17984.19
232.773	17986.02
232.846	17982.22
232.918	17974.84
232.99	17978.99
233.062	17987.52
233.135	17987.66
233.207	17976.53
233.279	17991.03
233.351	17999.08
233.424	17987.47
233.496	17973.64
233.568	17989.93
233.64	17976.43
233.713	17971.13
233.785	17975.32
233.857	17971.03
233.929	17941.69
234.001	17947.85
234.074	17948.38
234.146	17914.94
234.218	17905.11
234.29	17893.06
234.362	17883.28
234.434	17869.93
234.507	17849.11
234.579	17822.61
234.651	17807.04
234.723	17809.88
234.795	17802.94
234.867	17788.2
234.939	17800.92
235.012	17799.47
235.084	17792.58
235.156	17791.38
235.228	17773.93
235.3	17758.41
235.372	17747.19
235.444	17750.9
235.516	17717.26
235.588	17715.19
235.66	17709.98
235.732	17692.3
235.804	17738.9
235.876	17742.9
235.948	17752.25
236.02	17731.52
236.092	17721.55
236.164	17709.21
236.236	17691.47
236.308	17666.41
236.38	17657.55
236.452	17625.55
236.524	17610.66
236.596	17610.32
236.668	17605.79
236.74	17597.5
236.812	17587.33
236.884	17572.49
236.956	17554.9
237.028	17541.4
237.1	17504.92
237.172	17508.97
237.244	17507.62
237.316	17456.2
237.388	17427.91
237.46	17401.79
237.532	17413.17
237.604	17397.89
237.675	17406.85
237.747	17398.85
237.819	17382.08
237.891	17363.81
237.963	17346.27
238.035	17320.34
238.107	17260.34
238.178	17249.84
238.25	17234.99
238.322	17236.49
238.394	17206.51
238.466	17177.59
238.538	17161.45
238.609	17159.67
238.681	17120.58
238.753	17086.99
238.825	17067.38
238.897	17050.89
238.968	17047.71
239.04	17013.88
239.112	17018.36
239.184	16979.86
239.255	16960.87
239.327	16945.64
239.399	16929.73
239.471	16927.13
239.542	16914.65
239.614	16920.38
239.686	16879.61
239.758	16862.79
239.829	16819.13
239.901	16812.62
239.973	16799.8
240.044	16784.96
240.116	16758.06
240.188	16731.84
240.259	16713.72
240.331	16682.11
240.403	16666.49
240.474	16624.71
240.546	16594.92
240.618	16541.57
240.689	16510.05
240.761	16490.82
240.833	16487.3
240.904	16457.03
240.976	16423.39
241.048	16401.17
241.119	16383.29
241.191	16364.4
241.262	16357.74
241.334	16340.44
241.405	16312.39
241.477	16284.44
241.549	16252.05
241.62	16231.51
241.692	16223.42
241.763	16216.81
241.835	16193.58
241.906	16164.42
241.978	16124.95
242.049	16117.91
242.121	16110.25
242.192	16106.34
242.264	16055.01
242.335	16003.92
242.407	15989.56
242.478	15963.43
242.55	15941.89
242.621	15905.93
242.693	15872
242.764	15839.18
242.836	15803.46
242.907	15787.65
242.979	15773.87
243.05	15757.72
243.122	15734.97
243.193	15698.87
243.264	15651.39
243.336	15618.66
243.407	15604.83
243.479	15598.47
243.55	15573.69
243.622	15558.07
243.693	15524.43
243.764	15524.67
243.836	15500.67
243.907	15468.95
243.978	15442.44
244.05	15418
244.121	15375.29
244.192	15362.86
244.264	15329.12
244.335	15309.88
244.407	15261.44
244.478	15240.28
244.549	15210.73
244.62	15173.18
244.692	15145.8
244.763	15130.81
244.834	15110.95
244.906	15079.62
244.977	15060.1
245.048	15044
245.119	15005.48
245.191	14970.49
245.262	14921.37
245.333	14905.85
245.405	14874.76
245.476	14846.7
245.547	14825.64
245.618	14807.61
245.689	14781.77
245.761	14750.2
245.832	14717.71
245.903	14708.6
245.974	14682.52
246.045	14657.36
246.117	14658.08
246.188	14620.19
246.259	14578.73
246.33	14549.33
246.401	14515.87
246.473	14477.5
246.544	14442.02
246.615	14424.96
246.686	14400.52
246.757	14385.91
246.828	14353.42
246.899	14349.71
246.97	14318.14
247.042	14283.52
247.113	14275.09
247.184	14274.75
247.255	14251.37
247.326	14232.86
247.397	14205.19
247.468	14180.89
247.539	14159.44
247.61	14111.86
247.681	14104.15
247.752	14092.63
247.823	14069.59
247.894	14049.77
247.965	14014.49
248.037	13985.95
248.108	13942.66
248.179	13914.31
248.25	13892.33
248.321	13877.34
248.392	13840.51
248.463	13839.6
248.534	13813.56
248.605	13787.34
248.675	13756.78
248.746	13736
248.817	13721.1
248.888	13701.77
248.959	13660.32
249.03	13642
249.101	13620.16
249.172	13591.91
249.243	13550.74
249.314	13539.17
249.385	13522.01
249.456	13510.83
249.527	13482.82
249.598	13475.06
249.669	13456.35
249.739	13440.4
249.81	13413.74
249.881	13382.93
249.952	13357.1
250.023	13330.34
250.094	13298.33
250.165	13262.71
250.235	13243.28
250.306	13219.37
250.377	13184.81
250.448	13166.49
250.519	13124.64
250.59	13118.09
250.66	13092.49
250.731	13092.78
250.802	13059.66
250.873	13036.48
250.944	13013.87
251.014	12992.51
251.085	12992.13
251.156	12980.85
251.227	12971.16
251.297	12965.27
251.368	12954.43
251.439	12938.38
251.51	12941.32
251.58	12912.97
251.651	12888
251.722	12872.43
251.792	12836.71
251.863	12813.47
251.934	12811.5
252.005	12825.57
252.075	12806.2
252.146	12798.43
252.217	12786.34
252.287	12779.54
252.358	12754.33
252.429	12754.71
252.499	12729.79
252.57	12705.88
252.641	12692.19
252.711	12669.53
252.782	12632.75
252.852	12633.33
252.923	12619.74
252.994	12595.68
253.064	12588.65
253.135	12561.36
253.205	12533.93
253.276	12529.45
253.347	12531.96
253.417	12501.06
253.488	12466.3
253.558	12446.01
253.629	12420.22
253.699	12399.68
253.77	12380.74
253.841	12367.44
253.911	12346.71
253.982	12332.83
254.052	12321.79
254.123	12304.58
254.193	12282.07
254.264	12300
254.334	12263.94
254.405	12225.86
254.475	12193.9
254.546	12174.43
254.616	12169.71
254.687	12161.95
254.757	12146.14
254.827	12122.56
254.898	12109.6
254.968	12089.26
255.039	12058.79
255.109	12052.62
255.18	12025.68
255.25	11996.37
255.321	11984.42
255.391	11946.34
255.461	11946.73
255.532	11898.33
255.602	11874.62
255.673	11838.71
255.743	11807.91
255.813	11766.12
255.884	11761.35
255.954	11752.19
256.024	11745.73
256.095	11722.16
256.165	11693.77
256.235	11681.1
256.306	11655.46
256.376	11652.9
256.446	11644.76
256.517	11627.69
256.587	11620.95
256.657	11604.8
256.728	11584.32
256.798	11562.29
256.868	11545.81
256.938	11522.86
257.009	11521.66
257.079	11511.83
257.149	11523.49
257.219	11487.87
257.29	11490.38
257.36	11457.03
257.43	11451.15
257.5	11413.65
257.571	11396.3
257.641	11383.48
257.711	11356.35
257.781	11346.95
257.852	11330.18
257.922	11295.48
257.992	11279.19
258.062	11259.28
258.132	11253.74
258.202	11242.17
258.273	11231.96
258.343	11237.4
258.413	11209.45
258.483	11192.44
258.553	11164.2
258.623	11130.51
258.693	11118.41
258.764	11110.46
258.834	11111.72
258.904	11091.23
258.974	11068.3
259.044	11053.31
259.114	11039.53
259.184	11022.95
259.254	11002.23
259.324	10963.1
259.394	10955.1
259.464	10957.65
259.535	10936.4
259.605	10915.97
259.675	10889.03
259.745	10878.82
259.815	10849.71
259.885	10827.25
259.955	10838.19
260.025	10815.26
260.095	10803.84
260.165	10796.76
260.235	10801.19
260.305	10774.64
260.375	10751.8
260.445	10765.82
260.515	10768.08
260.585	10762.49
260.655	10753.96
260.725	10758.06
260.795	10753.87
260.865	10754.54
260.934	10733.87
261.004	10724.43
261.074	10705.49
261.144	10705.1
261.214	10693.44
261.284	10678.51
261.354	10678.31
261.424	10650.75
261.494	10656.29
261.564	10637.64
261.634	10624.25
261.703	10578.33
261.773	10569.27
261.843	10557.9
261.913	10534.1
261.983	10496.81
262.053	10489.63
262.123	10464.77
262.192	10428.25
262.262	10416.63
262.332	10389.8
262.402	10374.72
262.472	10362.72
262.541	10329.48
262.611	10326.3
262.681	10297.73
262.751	10290.55
262.821	10274.46
262.89	10246.8
262.96	10231.82
263.03	10242.76
263.1	10233.6
263.169	10222.48
263.239	10217.95
263.309	10225.22
263.379	10223.83
263.448	10215.97
263.518	10204.8
263.588	10195.26
263.657	10201.33
263.727	10197.91
263.797	10181.62
263.867	10161.83
263.936	10131.19
264.006	10131.57
264.076	10115.48
264.145	10101.75
264.215	10079.89
264.285	10073.67
264.354	10048.48
264.424	10033.55
264.494	10003.58
264.563	9983.35
264.633	9994.38
264.702	9981.81
264.772	9943.51
264.842	9917.16
264.911	9906.8
264.981	9875.44
265.05	9865.04
265.12	9848.61
265.19	9841.82
265.259	9844.71
265.329	9844.09
265.398	9834.93
265.468	9845.39
265.537	9831.56
265.607	9825.98
265.676	9825.88
265.746	9814.56
265.815	9806.71
265.885	9791.4
265.955	9763.85
266.024	9749.01
266.094	9711.35
266.163	9711.45
266.232	9711.16
266.302	9703.88
266.371	9688.62
266.441	9683.95
266.51	9678.65
266.58	9660.4
266.649	9633.66
266.719	9624.9
266.788	9613.63
266.858	9618.3
266.927	9579.24
266.996	9570.14
267.066	9567.59
267.135	9541.53
267.205	9544.71
267.274	9542.5
267.343	9538.79
267.413	9534.65
267.482	9533.97
267.552	9540.52
267.621	9509.94
267.69	9485
267.76	9473.44
267.829	9467.9
267.898	9452.44
267.968	9430.2
268.037	9422.15
268.106	9416.14
268.176	9392.06
268.245	9382.62
268.314	9360.27
268.384	9367.11
268.453	9350.69
268.522	9335.67
268.592	9339.42
268.661	9313.47
268.73	9301.28
268.799	9280.96
268.869	9291.27
268.938	9264.11
269.007	9243.94
269.076	9235.37
269.146	9238.98
269.215	9234.55
269.284	9245.96
269.353	9231.76
269.422	9220.15
269.492	9205.76
269.561	9175.57
269.63	9169.6
269.699	9155.83
269.768	9158.67
269.838	9151.55
269.907	9154.58
269.976	9132.58
270.045	9101.14
270.114	9094.4
270.183	9085.88
270.253	9082.22
270.322	9045.63
270.391	9042.55
270.46	9046.21
270.529	9042.31
270.598	9038.99
270.667	9020.65
270.736	8995.22
270.806	8981.65
270.875	8979.77
270.944	8974.04
271.013	8995.42
271.082	8987.47
271.151	8979.58
271.22	8944.44
271.289	8927.16
271.358	8912.91
271.427	8911.17
271.496	8903.18
271.565	8887.97
271.634	8881.57
271.703	8877.86
271.772	8885.42
271.841	8866.5
271.91	8842.92
271.979	8834.59
272.048	8809.65
272.117	8811.19
272.186	8798.82
272.255	8803.06
272.324	8804.7
272.393	8797.09
272.462	8777.21
272.531	8768.01
272.6	8755.21
272.669	8763.25
272.738	8756.51
272.807	8749.58
272.876	8729.94
272.945	8758.39
273.013	8766.77
273.082	8768.93
273.151	8752.37
273.22	8745.83
273.289	8744.53
273.358	8750.55
273.427	8737.26
273.496	8738.99
273.564	8737.98
273.633	8735.77
273.702	8720.42
273.771	8711.03
273.84	8708.05
273.909	8710.98
273.977	8708.62
274.046	8694.43
274.115	8702.56
274.184	8686.06
274.253	8675.95
274.322	8683.65
274.39	8648.27
274.459	8625.36
274.528	8597.93
274.597	8595.43
274.665	8595.09
274.734	8600.48
274.803	8590.47
274.872	8589.12
274.94	8573.96
275.009	8600.49
275.078	8584.95
275.147	8581.53
275.215	8575.61
275.284	8580.23
275.353	8570.32
275.421	8549.77
275.49	8568.35
275.559	8553.57
275.627	8548.57
275.696	8543.66
275.765	8542.26
275.833	8532.59
275.902	8542.99
275.971	8550.83
276.039	8557.52
276.108	8559.11
276.177	8551.12
276.245	8546.55
276.314	8537.6
276.383	8543.85
276.451	8509.14
276.52	8516.41
276.588	8527.04
276.657	8532.53
276.725	8523.05
276.794	8517.61
276.863	8528.2
276.931	8509.48
277	8510.39
277.068	8516.21
277.137	8535.75
277.205	8532.14
277.274	8553.7
277.342	8558.75
277.411	8540.37
277.48	8531.42
277.548	8518.33
277.617	8526.75
277.685	8520.21
277.754	8529.4
277.822	8522.71
277.89	8535.52
277.959	8530.27
278.027	8517.71
278.096	8505.68
278.164	8525.61
278.233	8516.13
278.301	8506.94
278.37	8506.55
278.438	8500.73
278.507	8504.34
278.575	8473.44
278.643	8470.22
278.712	8448.37
278.78	8430.85
278.849	8443.99
278.917	8454.24
278.985	8451.78
279.054	8447.16
279.122	8452.65
279.191	8447.16
279.259	8443.36
279.327	8416.03
279.396	8426.42
279.464	8418.92
279.532	8425.32
279.601	8419.54
279.669	8418.72
279.737	8428.87
279.806	8433.78
279.874	8442.64
279.942	8443.26
280.011	8438.02
280.079	8445.19
280.147	8463.95
280.215	8469.97
280.284	8462.46
280.352	8449.42
280.42	8455.58
280.488	8445.62
280.557	8442.45
280.625	8447.4
280.693	8444.51
280.761	8450.19
280.83	8435.28
280.898	8452.02
280.966	8433.69
281.034	8407.56
281.102	8398.27
281.171	8392.83
281.239	8404.82
281.307	8400.44
281.375	8389.57
281.443	8415.64
281.512	8414.15
281.58	8424.74
281.648	8407.76
281.716	8407.18
281.784	8407.32
281.852	8401.98
281.92	8405.01
281.989	8412.62
282.057	8393.32
282.125	8429.08
282.193	8430.14
282.261	8432.16
282.329	8425.09
282.397	8431.34
282.465	8434.71
282.533	8448.13
282.601	8437.35
282.67	8413.58
282.738	8403.14
282.806	8411.75
282.874	8397.99
282.942	8393.75
283.01	8384.13
283.078	8393.7
283.146	8394.71
283.214	8403.18
283.282	8401.06
283.35	8410.35
283.418	8404.43
283.486	8412.8
283.554	8382.53
283.622	8384.6
283.69	8384.36
283.758	8379.12
283.826	8382.82
283.894	8393.79
283.962	8409.96
284.03	8423.1
284.098	8426.61
284.165	8415.16
284.233	8411.36
284.301	8408.28
284.369	8404
284.437	8392.98
284.505	8379.41
284.573	8392.16
284.641	8378.88
284.709	8388.7
284.777	8371.42
284.845	8385.81
284.912	8392.07
284.98	8393.17
285.048	8379.75
285.116	8381.48
285.184	8391.01
285.252	8389.56
285.319	8371.76
285.387	8363.53
285.455	8349.29
285.523	8356.89
285.591	8359.59
285.659	8369.98
285.726	8379.12
285.794	8366.47
285.862	8368.78
285.93	8373.64
285.997	8367.82
286.065	8365.36
286.133	8355.79
286.201	8358
286.269	8334.28
286.336	8324.46
286.404	8315.46
286.472	8322.68
286.539	8307.43
286.607	8285.15
286.675	8280.82
286.743	8285.97
286.81	8275.91
286.878	8289.29
286.946	8279.76
287.013	8276.3
287.081	8271.73
287.149	8261.04
287.216	8279.13
287.284	8271.82
287.352	8274.56
287.419	8275.04
287.487	8289.48
287.555	8294.53
287.622	8289.14
287.69	8294.48
287.758	8305.31
287.825	8304.25
287.893	8294
287.96	8299.44
288.028	8316.9
288.096	8326.24
288.163	8336.3
288.231	8334.27
288.298	8328.07
288.366	8341.06
288.433	8340
288.501	8328.93
288.569	8331.48
288.636	8322.39
288.704	8333.02
288.771	8338.56
288.839	8325.9
288.906	8317.82
288.974	8323.64
289.041	8325.04
289.109	8314.55
289.176	8320.18
289.244	8324.94
289.311	8338.17
289.379	8348.28
289.446	8352.03
289.514	8345.97
289.581	8337.79
289.649	8332.74
289.716	8338.61
289.783	8331
289.851	8346.16
289.918	8347.6
289.986	8353.76
290.053	8357.18
290.121	8359.58
290.188	8364.73
290.255	8396.97
290.323	8391.82
290.39	8384.8
290.458	8384.94
290.525	8398.03
290.592	8390.28
290.66	8393.36
290.727	8389.66
290.794	8396.2
290.862	8395.96
290.929	8403.51
290.996	8406.3
291.064	8419.49
291.131	8434.41
291.198	8443.65
291.266	8444.95
291.333	8445.43
291.4	8449.66
291.468	8467.61
291.535	8462.9
291.602	8466.55
291.669	8453.56
291.737	8457.65
291.804	8460.44
291.871	8476.61
291.938	8487.77
292.006	8518.14
292.073	8530.22
292.14	8543.36
292.207	8540.61
292.275	8538.26
292.342	8545.96
292.409	8571.03
292.476	8589.37
292.543	8573.44
292.611	8575.22
292.678	8597.21
292.745	8622.09
292.812	8629.41
292.879	8623.82
292.946	8625.22
293.014	8633.45
293.081	8647.12
293.148	8660.83
293.215	8674.69
293.282	8671.47
293.349	8671.52
293.416	8649.91
293.484	8664.68
293.551	8668.68
293.618	8687.54
293.685	8716.71
293.752	8713.25
293.819	8709.73
293.886	8699.67
293.953	8710.5
294.02	8715.99
294.087	8718.92
294.154	8708.62
294.221	8720.13
294.288	8718.2
294.356	8738.37
294.423	8745.01
294.49	8729.95
294.557	8741.79
294.624	8727.44
294.691	8747.76
294.758	8757.04
294.825	8765.95
294.892	8755.26
294.959	8758.1
295.026	8752.9
295.093	8740.73
295.16	8738.7
295.226	8737.6
295.293	8761.18
295.36	8763.78
295.427	8779.43
295.494	8785.78
295.561	8792.71
295.628	8817.99
295.695	8838.16
295.762	8836.62
295.829	8840.81
295.896	8860.68
295.963	8868.24
296.03	8889.23
296.096	8894.81
296.163	8907.23
296.23	8916.04
296.297	8927.06
296.364	8924.17
296.431	8933.66
296.498	8931.2
296.564	8953.44
296.631	8952.96
296.698	8935.1
296.765	8951.18
296.832	8934.76
296.899	8920.8
296.965	8943.52
297.032	8919.45
297.099	8934.76
297.166	8944
297.233	8946.36
297.299	8937.17
297.366	8930.47
297.433	8926.09
297.5	8932.64
297.566	8926.58
297.633	8929.08
297.7	8936.68
297.767	8932.55
297.833	8933.51
297.9	8932.98
297.967	8918.39
298.033	8933.08
298.1	8963.7
298.167	8957.92
298.234	8970.24
298.3	8978.91
298.367	8972.84
298.434	8980.01
298.5	8966.29
298.567	8957.68
298.634	8951.8
298.7	8970.29
298.767	8976.35
298.834	8991.47
298.9	8987.33
298.967	8981.22
299.033	8987.28
299.1	8996.38
299.167	9014.48
299.233	9019.39
299.3	9033.06
299.366	9045.53
299.433	9061.13
299.5	9033.49
299.566	9042.01
299.633	9052.99
299.699	9066.38
299.766	9064.93
299.832	9073.89
299.899	9084.53
299.965	9098.44
300.032	9099.07
300.099	9098.73
300.165	9100.8
300.232	9097.33
300.298	9093.96
300.365	9112.26
300.431	9119.67
300.498	9111.49
300.564	9113.32
300.631	9115.92
300.697	9133.25
300.763	9134.26
300.83	9130.26
300.896	9144.32
300.963	9152.02
301.029	9155.97
301.096	9158.62
301.162	9161.65
301.229	9156.12
301.295	9144.22
301.361	9149.66
301.428	9146.87
301.494	9134.74
301.561	9134.36
301.627	9133.49
301.693	9136.96
301.76	9139.84
301.826	9130.22
301.892	9139.75
301.959	9155.3
302.025	9155.25
302.092	9141.29
302.158	9145.77
302.224	9144.27
302.291	9133.1
302.357	9126.75
302.423	9115.15
302.49	9102.92
302.556	9116.11
302.622	9115.39
302.688	9129.16
302.755	9134.84
302.821	9149.23
302.887	9158.52
302.954	9158.81
303.02	9163.58
303.086	9171.62
303.152	9162.37
303.219	9157.9
303.285	9159.68
303.351	9158.43
303.417	9155.92
303.483	9147.45
303.55	9139.46
303.616	9137.97
303.682	9139.84
303.748	9134.4
303.815	9147.07
303.881	9155.15
303.947	9141.38
304.013	9139.41
304.079	9127.37
304.145	9105.03
304.212	9097.38
304.278	9091.55
304.344	9092.04
304.41	9077.64
304.476	9061.75
304.542	9057.57
304.608	9061.32
304.674	9039.99
304.741	9029.64
304.807	9031.42
304.873	9038.74
304.939	9053.76
305.005	9032
305.071	9025.98
305.137	9020.3
305.203	8994.06
305.269	8988.62
305.335	8997.63
305.401	8989.06
305.467	8985.74
305.533	8999.51
305.599	9006.25
305.666	9002.39
305.732	8997.15
305.798	9009.37
305.864	9030.8
305.93	9033.4
305.996	9034.02
306.062	9037.15
306.128	9033.35
306.194	9022.52
306.259	9017.22
306.325	9007.21
306.391	9018.33
306.457	9028.77
306.523	9028.58
306.589	9052.7
306.655	9050.82
306.721	9034.98
306.787	9028.1
306.853	9042.69
306.919	9017.95
306.985	9009.91
307.051	9013.32
307.117	9004.95
307.183	8995.51
307.248	8967.93
307.314	8974.52
307.38	8972.88
307.446	8982.61
307.512	8969.52
307.578	8973.32
307.644	8969.23
307.709	8967.88
307.775	8962.29
307.841	8956.61
307.907	8957.72
307.973	8938.95
308.039	8937.31
308.104	8938.94
308.17	8938.85
308.236	8916.37
308.302	8924.98
308.368	8908.71
308.433	8904.24
308.499	8901.78
308.565	8890.09
308.631	8891.87
308.696	8862.84
308.762	8850.08
308.828	8841.27
308.894	8819.28
308.959	8798.68
309.025	8786.26
309.091	8782.65
309.156	8771.39
309.222	8767.34
309.288	8751.12
309.354	8730.43
309.419	8722.29
309.485	8704.97
309.551	8706.36
309.616	8694.04
309.682	8684.32
309.748	8679.27
309.813	8667.86
309.879	8654.14
309.945	8640.62
310.01	8638.26
310.076	8642.98
310.141	8634.99
310.207	8619.1
310.273	8627.24
310.338	8626.71
310.404	8612.03
310.469	8594.8
310.535	8592.2
310.601	8564.58
310.666	8572.47
310.732	8577.86
310.797	8564.86
310.863	8560
310.928	8548.31
310.994	8549.8
311.059	8550.14
311.125	8548.31
311.191	8558.46
311.256	8552.69
311.322	8563.13
311.387	8540.27
311.453	8844.78
311.518	8817.69
311.584	8810.38
311.649	8812.78
311.715	8802.73
311.78	8803.5
311.846	8788.87
311.911	8789.83
311.976	8796.95
312.042	8783.57
312.107	8772.07
312.173	8764.66
312.238	8755.04
312.304	8747.92
312.369	8740.46
312.434	8722.36
312.5	8713.66
312.565	8685.17
312.631	8684.73
312.696	8674.05
312.761	8672.13
312.827	8357.18
312.892	8395.48
312.958	8396.88
313.023	8391.34
313.088	8384.9
313.154	8370.46
313.219	8370.46
313.284	8358.19
313.35	8355.21
313.415	8341.01
313.48	8332.74
313.546	8335.72
313.611	8340.58
313.676	8331.2
313.741	8322.54
313.807	8332.89
313.872	8337.17
313.937	8343.47
314.003	8355.55
314.068	8353.14
314.133	8361.32
314.198	8350.35
314.264	8322.92
314.329	8310.51
314.394	8305.94
314.459	8308.2
314.525	8325.47
314.59	8319.74
314.655	8308.24
314.72	8314.5
314.785	8316.18
314.851	8314.02
314.916	8294.34
314.981	8275.14
315.046	8265.81
315.111	8253.98
315.176	8233.24
315.242	8235.26
315.307	8228.62
315.372	8205.63
315.437	8194.56
315.502	8183.93
315.567	8193.89
315.632	8185.85
315.698	8186.53
315.763	8182.24
315.828	8176.76
315.893	8168.96
315.958	8162.76
316.023	8147.66
316.088	8124.37
316.153	8103.59
316.218	8099.84
316.283	8080.46
316.348	8071.03
316.413	8068.19
316.479	8056.89
316.544	8033.57
316.609	8003.26
316.674	7974.46
316.739	7945.55
316.804	7918.81
316.869	7885.82
316.934	7849.99
316.999	7820.89
317.064	7777.37
317.129	7736.21
317.194	7695.34
317.259	7650.95
317.324	7605.18
317.389	7567.98
317.454	7536.34
317.518	7506.01
317.583	7480.76
317.648	7462.06
317.713	7427.07
317.778	7376.45
317.843	7352.94
317.908	7319.73
317.973	7277.34
318.038	7250.42
318.103	7216.16
318.168	7187.85
318.233	7160.37
318.297	7110.82
318.362	7077.38
318.427	7039.09
318.492	7020.11
318.557	6979.04
318.622	6953.24
318.687	6933.3
318.751	6897.33
318.816	6863.32
318.881	6837.91
318.946	6783
319.011	6740.06
319.075	6703.94
319.14	6672.35
319.205	6625.95
319.27	6593.25
319.335	6557.29
319.399	6514.61
319.464	6490.5
319.529	6441.15
319.594	6400.77
319.658	6375.76
319.723	6332.9
319.788	6311.39
319.853	6258.97
319.917	6231.04
319.982	6182.43
320.047	6145.76
320.112	6123.01
320.176	6078.15
320.241	6039.61
320.306	6010.73
320.37	5975.47
320.435	5946.11
320.5	5924.13
320.564	5888.73
320.629	5850.8
320.694	5823.32
320.758	5792.48
320.823	5749.07
320.888	5723.95
320.952	5683.43
321.017	5644.73
321.082	5606.86
321.146	5571.28
321.211	5537.82
321.275	5497.95
321.34	5459.23
321.405	5422.03
321.469	5382.82
321.534	5340.47
321.598	5294.71
321.663	5265.86
321.727	5238.11
321.792	5192.98
321.857	5146.74
321.921	5112.39
321.986	5074.75
322.05	5018.86
322.115	4983.56
322.179	4939.89
322.244	4887.61
322.308	4855.67
322.373	4809.52
322.437	4773.76
322.502	4745.89
322.566	4704.19
322.631	4678.87
322.695	4646.81
322.76	4601.88
322.824	4565.55
322.889	4527.96
322.953	4482.86
323.018	4420.33
323.082	4355.38
323.146	4306.8
323.211	4258.59
323.275	4216.69
323.34	4175.34
323.404	4145.18
323.468	4097.74
323.533	4057.64
323.597	4016.89
323.662	3971.38
323.726	3939.6
323.79	3895.11
323.855	3834.84
323.919	3786.97
323.983	3737.85
324.048	3672.2
324.112	3850.68
324.177	3732.78
324.241	3542.51
324.305	3358.49
324.37	3177.16
324.434	3002.12
324.498	2967.33
324.562	2922.28
324.627	2867.65
324.691	2817.46
324.755	2759.42
324.82	2694.37
324.884	2630
324.948	2567.36
325.012	2482.34
325.077	2374.02
