Data from 20250625_urea_1M_1_MAYP1162681_10-05-05-479.txt Node
Date: Thu Jun 26 10:05:05 BST 2025
User: adleo
Spectrometer: MAYP116268
Trigger mode: 0
Integration Time (sec): 1.000000E0
Scans to average: 1
Electric dark correction enabled: true
Nonlinearity correction enabled: true
Boxcar width: 10
XAxis mode: Wavelengths
Number of Pixels in Spectrum: 2068
>>>>>Begin Spectral Data<<<<<
179.565	1120.08
179.642	1172.48
179.718	1213.28
179.795	1249.46
179.871	1282.22
179.948	1300.65
180.024	1319.21
180.101	1341.24
180.177	1355.18
180.254	1374.51
180.33	1395.23
180.407	1443.18
180.483	1532.25
180.56	1617.44
180.636	1697.67
180.712	1685.26
180.789	1695.86
180.865	1710.87
180.942	1716.62
181.018	1728.02
181.095	1744.04
181.171	1750.69
181.248	1753.5
181.324	1768.57
181.4	1774.6
181.477	1782.97
181.553	1794.75
181.63	1814.14
181.706	1828.83
181.782	1836.95
181.859	1837.38
181.935	1842.28
182.011	1839.38
182.088	1854.26
182.164	1871.52
182.24	1882.69
182.317	1892.48
182.393	1887.67
182.469	1899.75
182.546	1913.68
182.622	1914.53
182.698	1909.73
182.775	1921.43
182.851	1933.74
182.927	1928.56
183.003	1925.33
183.08	1920.48
183.156	1929.27
183.232	1927.99
183.308	1918.81
183.385	1925.04
183.461	1940.63
183.537	1941.63
183.613	1952.76
183.69	1943.96
183.766	1933.83
183.842	1942.06
183.918	1948.52
183.995	1964.88
184.071	1970.16
184.147	1963.5
184.223	1954.19
184.299	1964.12
184.375	1953.86
184.452	1958.75
184.528	2012.51
184.604	2020.21
184.68	2034.38
184.756	2040.47
184.832	2043.75
184.908	2047.41
184.985	2047.65
185.061	2033.67
185.137	2040.61
185.213	2030.44
185.289	2033.43
185.365	2027.58
185.441	2025.06
185.517	2040.14
185.593	2037.1
185.669	2030.16
185.745	2042.04
185.822	2054.59
185.898	2047.17
185.974	2055.11
186.05	2047.22
186.126	2003.97
186.202	1999.41
186.278	1991.75
186.354	1981.53
186.43	1988.8
186.506	1985.95
186.582	1987.05
186.658	1996.46
186.734	1981.44
186.81	1984.48
186.886	1986.33
186.962	1996.08
187.038	1990.8
187.114	1980.57
187.19	1981.95
187.266	1971.82
187.341	1972.97
187.417	1968.54
187.493	1969.02
187.569	1970.97
187.645	1966.31
187.721	1957.94
187.797	1967.31
187.873	1972.35
187.949	1967.93
188.025	1960.74
188.101	1964.88
188.176	1966.83
188.252	1961.88
188.328	1967.44
188.404	1964.26
188.48	1959.7
188.556	1953.66
188.632	1957.32
188.707	1956.41
188.783	1955.13
188.859	1954.7
188.935	1943.29
189.011	1951.71
189.086	1946.95
189.162	1939.06
189.238	1936.59
189.314	1934.16
189.39	1929.64
189.465	1922.04
189.541	1939.96
189.617	1925.08
189.693	1919.67
189.768	1922.85
189.844	1943.92
189.92	1935.32
189.996	1948.97
190.071	1960.38
190.147	1958.72
190.223	1966.99
190.298	1961.71
190.374	1950.16
190.45	1961.28
190.526	1968.8
190.601	1963.47
190.677	1963.28
190.753	1993.73
190.828	1996.35
190.904	2007.52
190.98	2021.74
191.055	2029.87
191.131	2020.08
191.207	2038
191.282	2047.37
191.358	2038.71
191.433	2024.96
191.509	2039.22
191.585	2031.71
191.66	2030.9
191.736	2043.5
191.811	2033.23
191.887	2047.31
191.963	2071.37
192.038	2075.89
192.114	2075.23
192.189	2078.89
192.265	2075.18
192.34	2050.72
192.416	2049.91
192.491	2049.25
192.567	2049.67
192.642	2055.53
192.718	2055.38
192.793	2043.4
192.869	2040.5
192.944	2043.07
193.02	2050.82
193.095	2051.25
193.171	2060.33
193.246	2061.47
193.322	2055.72
193.397	2058.24
193.473	2047.01
193.548	2028.98
193.624	2033.12
193.699	2032.93
193.775	2048.63
193.85	2052.62
193.925	2059.57
194.001	2060.09
194.076	2051.67
194.152	2039.69
194.227	2030.55
194.302	2021.66
194.378	2028.7
194.453	2024.8
194.529	2038.21
194.604	2024.52
194.679	2021.24
194.755	1999.08
194.83	2010.12
194.905	2005.56
194.981	2012.21
195.056	2003.18
195.131	2009.03
195.207	2004.37
195.282	1995.19
195.357	1975.83
195.433	1990.43
195.508	1979.82
195.583	1987.81
195.659	2003.6
195.734	2011.55
195.809	2013.97
195.884	2018.58
195.96	2017.44
196.035	2034.52
196.11	2033.23
196.185	2045.03
196.261	2047.36
196.336	2080.65
196.411	2067.09
196.486	2073.08
196.561	2066.13
196.637	2076.69
196.712	2092.06
196.787	2095.53
196.862	2112.13
196.937	2120.02
197.013	2125.21
197.088	2134.29
197.163	2155.28
197.238	2169.23
197.313	2167.8
197.388	2179.41
197.464	2210.72
197.539	2223.42
197.614	2215.05
197.689	2221.18
197.764	2237.22
197.839	2258.54
197.914	2252.78
197.989	2276.19
198.065	2291.66
198.14	2339.8
198.215	2363.22
198.29	2373.07
198.365	2388.11
198.44	2397.01
198.515	2424.67
198.59	2435.33
198.665	2460.94
198.74	2464.23
198.815	2462.56
198.89	2487.17
198.965	2512.56
199.04	2513.94
199.115	2526.46
199.19	2564.83
199.265	2571.83
199.34	2578.07
199.415	2606.94
199.49	2628.32
199.565	2635.32
199.64	2659.14
199.715	2656.9
199.79	2663.05
199.865	2670.62
199.94	2668.95
200.015	2700.25
200.09	2705.64
200.165	2714.69
200.24	2721.07
200.315	2760.6
200.39	2780.75
200.464	2783.37
200.539	2784.09
200.614	2796
200.689	2819.83
200.764	2829.46
200.839	2845.94
200.914	2851.51
200.989	2843.41
201.063	2855.89
201.138	2839.37
201.213	2838.7
201.288	2822.26
201.363	2828.5
201.438	2829.08
201.512	2846.42
201.587	2828.83
201.662	2834.07
201.737	2845.8
201.812	2857.04
201.886	2825.05
201.961	2834.68
202.036	2824.34
202.111	2825.01
202.186	2794.39
202.26	2777.23
202.335	2758.26
202.41	2750.02
202.485	2736.26
202.559	2718.53
202.634	2692.85
202.709	2702.42
202.784	2684.37
202.858	2681.56
202.933	2664.84
203.008	2657.79
203.082	2636.69
203.157	2637.4
203.232	2596.83
203.306	2577.2
203.381	2542.71
203.456	2523.09
203.53	2495.97
203.605	2476.98
203.68	2453.93
203.754	2450.08
203.829	2434.17
203.904	2411.84
203.978	2399.89
204.053	2404.65
204.127	2390.99
204.202	2386.14
204.277	2370.53
204.351	2362.67
204.426	2356.96
204.5	2348.67
204.575	2315.98
204.65	2326.36
204.724	2317.26
204.799	2321.97
204.873	2316.31
204.948	2316.78
205.022	2308.17
205.097	2301.5
205.171	2316.59
205.246	2325.11
205.32	2324.87
205.395	2327.59
205.469	2319.36
205.544	2325.02
205.618	2309.65
205.693	2322.02
205.767	2312.55
205.842	2332.26
205.916	2326.36
205.991	2317.08
206.065	2324.74
206.14	2343.01
206.214	2337.49
206.289	2331.68
206.363	2346.24
206.438	2348.48
206.512	2354.05
206.586	2369.51
206.661	2378.66
206.735	2355.63
206.81	2357.54
206.884	2373.29
206.958	2360.11
207.033	2374.67
207.107	2382.76
207.181	2409.71
207.256	2406.14
207.33	2423.71
207.405	2436.19
207.479	2455.42
207.553	2464.13
207.628	2445.34
207.702	2453.67
207.776	2449.33
207.851	2456.9
207.925	2469.96
207.999	2469.43
208.073	2468.76
208.148	2472.38
208.222	2458.77
208.296	2494.55
208.371	2509.28
208.445	2519.66
208.519	2550.56
208.593	2564.37
208.668	2561.56
208.742	2563.03
208.816	2564.27
208.89	2580.71
208.965	2580.14
209.039	2587.19
209.113	2601.38
209.187	2625.6
209.261	2623.46
209.336	2642.23
209.41	2660.43
209.484	2662.48
209.558	2683.87
209.632	2698.49
209.707	2710.87
209.781	2736.55
209.855	2754.66
209.929	2776.84
210.003	2785.99
210.077	2788.65
210.151	2840.46
210.226	2878.41
210.3	2912.13
210.374	2939.67
210.448	2951.25
210.522	2969.42
210.596	2986.63
210.67	3008.94
210.744	3062.6
210.818	3102.59
210.892	3133.92
210.966	3143.46
211.041	3171.69
211.115	3188.71
211.189	3227.25
211.263	3261.64
211.337	3286.2
211.411	3315.89
211.485	3329.97
211.559	3367.28
211.633	3393.13
211.707	3387.54
211.781	3424.8
211.855	3417.97
211.929	3440.97
212.003	3456.48
212.077	3497.6
212.151	3551.42
212.225	3595.78
212.299	3622.35
212.373	3654.63
212.447	3695.72
212.52	3764.61
212.594	3819.95
212.668	3873.45
212.742	3909.96
212.816	3957.61
212.89	4009.51
212.964	4064.41
213.038	4128.26
213.112	4197.47
213.186	4272.33
213.26	4314.63
213.333	4334.43
213.407	4414.09
213.481	4493.05
213.555	4572.43
213.629	4639.45
213.703	4692.98
213.777	4768.39
213.85	4835.48
213.924	4950.93
213.998	5033.71
214.072	5108.66
214.146	5175.11
214.219	5263.76
214.293	5353.98
214.367	5444.14
214.441	5541.73
214.515	5626.27
214.588	5689.04
214.662	5748.93
214.736	5825.23
214.81	5928.39
214.883	6030.86
214.957	6111.2
215.031	6186.85
215.105	6265.37
215.178	6349.38
215.252	6448.46
215.326	6526.24
215.4	6600.36
215.473	6650.61
215.547	6728.52
215.621	6820.01
215.694	6926.57
215.768	7004.02
215.842	7088.73
215.915	7175.87
215.989	7248.25
216.063	7337.48
216.136	7446.06
216.21	7549.36
216.284	7663.66
216.357	7768.92
216.431	7870.62
216.504	7977.58
216.578	8101.72
216.652	8212.04
216.725	8312.98
216.799	8423.66
216.873	8524.03
216.946	8634.16
217.02	8731.26
217.093	8835.61
217.167	8910.89
217.24	8996.1
217.314	9094.11
217.387	9182.24
217.461	9275.75
217.535	9393.42
217.608	9480.63
217.682	9582.19
217.755	9694.17
217.829	9776.96
217.902	9870.74
217.976	9960.66
218.049	10049.05
218.123	10126.61
218.196	10225.22
218.27	10307.21
218.343	10382.13
218.417	10482.35
218.49	10569.31
218.563	10674.25
218.637	10767.59
218.71	10888.29
218.784	10982.55
218.857	11085.77
218.931	11187.54
219.004	11281.42
219.077	11370.19
219.151	11463.88
219.224	11544.56
219.298	11627.66
219.371	11728.29
219.444	11814.86
219.518	11904.12
219.591	11994.01
219.665	12108.63
219.738	12199.3
219.811	12281.24
219.885	12369.21
219.958	12456.75
220.031	12547.46
220.105	12638.76
220.178	12721.82
220.251	12788.3
220.325	12876.17
220.398	12954.22
220.471	13035.93
220.544	13120.14
220.618	13188.16
220.691	13270.64
220.764	13342.66
220.838	13418.15
220.911	13479.86
220.984	13557.03
221.057	13641.68
221.131	13709.37
221.204	13756.94
221.277	13842.17
221.35	13946.39
221.424	14011.86
221.497	14076.02
221.57	14141.39
221.643	14208.44
221.716	14282.05
221.79	14345.68
221.863	14412.2
221.936	14468.89
222.009	14533.34
222.082	14599.72
222.155	14655.16
222.229	14733.39
222.302	14804.06
222.375	14859.78
222.448	14920.96
222.521	14983.67
222.594	15038.96
222.667	15091.26
222.74	15156.67
222.814	15206.37
222.887	15253.55
222.96	15315.93
223.033	15381.43
223.106	15436.29
223.179	15490.27
223.252	15536.35
223.325	15582.58
223.398	15624.9
223.471	15676.81
223.544	15721.16
223.617	15767.04
223.69	15821.56
223.763	15843.73
223.837	15890.72
223.91	15946.83
223.983	15984.81
224.056	16013.39
224.129	16054.6
224.202	16107.09
224.275	16135.34
224.348	16168.16
224.42	16185.8
224.493	16210.09
224.566	16232.98
224.639	16265.61
224.712	16292.46
224.785	16325.91
224.858	16362.15
224.931	16394.98
225.004	16422.59
225.077	16464.62
225.15	16471.18
225.223	16501.15
225.296	16554.8
225.369	16566.84
225.442	16583.62
225.514	16623.76
225.587	16672.73
225.66	16702.95
225.733	16734.18
225.806	16774.76
225.879	16796.11
225.952	16823.34
226.025	16863.06
226.097	16907.83
226.17	16945.08
226.243	16959.11
226.316	16994.05
226.389	17027.93
226.461	17065.86
226.534	17093.18
226.607	17111.02
226.68	17162.2
226.753	17199.64
226.825	17211.98
226.898	17252.66
226.971	17277.48
227.044	17298.78
227.117	17312.95
227.189	17343.07
227.262	17378.92
227.335	17397.09
227.407	17419.45
227.48	17449.77
227.553	17477.77
227.626	17489.91
227.698	17510.2
227.771	17538.25
227.844	17541.86
227.916	17560.9
227.989	17560.66
228.062	17580.66
228.134	17627.21
228.207	17639.84
228.28	17644.08
228.352	17654.01
228.425	17673.52
228.498	17697.24
228.57	17707.6
228.643	17734.2
228.716	17744.7
228.788	17749.57
228.861	17769.62
228.934	17795.88
229.006	17812.9
229.079	17828.75
229.151	17840.65
229.224	17845.42
229.296	17864.46
229.369	17910.05
229.442	17938.34
229.514	17948.26
229.587	17977.9
229.659	17968.84
229.732	17994.53
229.804	18020.98
229.877	18066.24
229.949	18089.08
230.022	18119.2
230.094	18132.5
230.167	18151.05
230.239	18152.35
230.312	18164.69
230.384	18197.7
230.457	18204.59
230.529	18218.57
230.602	18223.39
230.674	18236.83
230.747	18255.62
230.819	18274.18
230.892	18247.05
230.964	18256.93
231.037	18269.65
231.109	18270.37
231.181	18285.7
231.254	18278.03
231.326	18272.35
231.399	18271.53
231.471	18268.78
231.544	18249.26
231.616	18271.14
231.688	18262.08
231.761	18267.05
231.833	18271.24
231.905	18247.87
231.978	18253.46
232.05	18248.16
232.122	18251.82
232.195	18248.64
232.267	18262.71
232.339	18265.84
232.412	18279.77
232.484	18270.71
232.556	18268.44
232.629	18293.45
232.701	18304.73
232.773	18308.73
232.846	18311.43
232.918	18299.43
232.99	18303.62
233.062	18317.07
233.135	18313.41
233.207	18309.16
233.279	18321.45
233.351	18324.68
233.424	18313.45
233.496	18302.42
233.568	18325.21
233.64	18305.69
233.713	18306.03
233.785	18301.98
233.857	18295.09
233.929	18271.05
234.001	18281.31
234.074	18292.88
234.146	18268.54
234.218	18244.93
234.29	18230.18
234.362	18230.23
234.434	18206.18
234.507	18186.13
234.579	18153.94
234.651	18135.58
234.723	18131.53
234.795	18117.51
234.867	18098.96
234.939	18109.08
235.012	18101.37
235.084	18080.64
235.156	18082.72
235.228	18056.31
235.3	18036.02
235.372	18029.85
235.444	18040.98
235.516	17996.84
235.588	17986.58
235.66	17969.52
235.732	17954.24
235.804	17995.01
235.876	17981.08
235.948	17982.48
236.02	17962.67
236.092	17961.32
236.164	17951.64
236.236	17938.91
236.308	17917.81
236.38	17903.11
236.452	17873.81
236.524	17864.22
236.596	17871.74
236.668	17862
236.74	17852.12
236.812	17835.78
236.884	17820.94
236.956	17802.1
237.028	17788.65
237.1	17758.63
237.172	17756.41
237.244	17754.63
237.316	17697.14
237.388	17671.36
237.46	17649.14
237.532	17643.16
237.604	17620.71
237.675	17612.08
237.747	17586.44
237.819	17562.34
237.891	17552.85
237.963	17528.03
238.035	17503.84
238.107	17435.94
238.178	17432.27
238.25	17409.72
238.322	17408.22
238.394	17361.33
238.466	17338.1
238.538	17324.08
238.609	17305.04
238.681	17262.25
238.753	17226.58
238.825	17213.96
238.897	17193.43
238.968	17194.25
239.04	17175.21
239.112	17175.02
239.184	17131.88
239.255	17114.05
239.327	17093.86
239.399	17064.12
239.471	17055.78
239.542	17040.6
239.614	17042.1
239.686	16988.6
239.758	16972.22
239.829	16941.42
239.901	16936.79
239.973	16908.94
240.044	16894.38
240.116	16876.36
240.188	16848.84
240.259	16827.34
240.331	16788.26
240.403	16771.34
240.474	16727.34
240.546	16685.12
240.618	16636.49
240.689	16619.72
240.761	16598.51
240.833	16600.29
240.904	16574.17
240.976	16540.58
241.048	16504.96
241.119	16485.1
241.191	16472.96
241.262	16465.2
241.334	16433.2
241.405	16406.45
241.477	16381.96
241.549	16352.56
241.62	16323.11
241.692	16312.99
241.763	16293.95
241.835	16272.41
241.906	16253.66
241.978	16218.09
242.049	16209.42
242.121	16193.51
242.192	16175.24
242.264	16139.19
242.335	16083.81
242.407	16070.17
242.478	16053.11
242.55	16034.6
242.621	15995.85
242.693	15960.08
242.764	15925.48
242.836	15895.45
242.907	15872.07
242.979	15850.87
243.05	15824.4
243.122	15808.26
243.193	15780.64
243.264	15740.83
243.336	15709.88
243.407	15682.31
243.479	15679.47
243.55	15660.14
243.622	15642.55
243.693	15619.75
243.764	15606.15
243.836	15572.46
243.907	15540.21
243.978	15502.57
244.05	15481.99
244.121	15439.18
244.192	15427.95
244.264	15388.96
244.335	15365.19
244.407	15322.63
244.478	15296.17
244.549	15265.27
244.62	15220.11
244.692	15184.63
244.763	15169.93
244.834	15149.15
244.906	15118.49
244.977	15090.97
245.048	15077.14
245.119	15039.68
245.191	15007.29
245.262	14955.14
245.333	14948.58
245.405	14925.2
245.476	14914.74
245.547	14894.45
245.618	14888.13
245.689	14861.86
245.761	14846.73
245.832	14819.64
245.903	14805.08
245.974	14792.83
246.045	14772.15
246.117	14764.3
246.188	14731.85
246.259	14688.33
246.33	14653.33
246.401	14624.07
246.473	14582.13
246.544	14546.12
246.615	14532.77
246.686	14505.87
246.757	14505.29
246.828	14469.62
246.899	14458
246.97	14413.12
247.042	14379.96
247.113	14358.41
247.184	14349.11
247.255	14317.92
247.326	14293.72
247.397	14271.98
247.468	14243.59
247.539	14216.54
247.61	14186.56
247.681	14178.51
247.752	14177.01
247.823	14144.62
247.894	14124.47
247.965	14091.64
248.037	14060.07
248.108	14019.24
248.179	13992.87
248.25	13960.57
248.321	13948.08
248.392	13910.34
248.463	13906.43
248.534	13874.18
248.605	13859
248.675	13833.02
248.746	13814.99
248.817	13795.94
248.888	13772.42
248.959	13732.46
249.03	13713.75
249.101	13690.76
249.172	13659.09
249.243	13614.83
249.314	13607.41
249.385	13583.79
249.456	13560.79
249.527	13532.16
249.598	13513.98
249.669	13486.65
249.739	13475.32
249.81	13454.98
249.881	13418.63
249.952	13395.78
250.023	13377.61
250.094	13338.99
250.165	13304.67
250.235	13274.64
250.306	13255.74
250.377	13222.62
250.448	13202.76
250.519	13166.22
250.59	13153.54
250.66	13125.83
250.731	13116.57
250.802	13089.72
250.873	13073.67
250.944	13061.18
251.014	13036.79
251.085	13045.03
251.156	13030.86
251.227	13017.46
251.297	13007.53
251.368	13002.42
251.439	12985.83
251.51	12976.96
251.58	12941.68
251.651	12906.01
251.722	12899.79
251.792	12859.63
251.863	12836.06
251.934	12825.36
252.005	12826.32
252.075	12805.21
252.146	12801.93
252.217	12797.88
252.287	12797.69
252.358	12770.98
252.429	12771.51
252.499	12745.1
252.57	12718.29
252.641	12705.81
252.711	12677.9
252.782	12642.8
252.852	12639.96
252.923	12621.02
252.994	12600.87
253.064	12601.88
253.135	12583.7
253.205	12557.43
253.276	12558.4
253.347	12553.77
253.417	12530.58
253.488	12504.17
253.558	12479.78
253.629	12459.1
253.699	12436.87
253.77	12418.32
253.841	12396.38
253.911	12374.64
253.982	12359.46
254.052	12349.19
254.123	12333.33
254.193	12312.75
254.264	12329.77
254.334	12296.36
254.405	12260.74
254.475	12233.65
254.546	12210.37
254.616	12204.49
254.687	12186.6
254.757	12164.28
254.827	12149.05
254.898	12135.17
254.968	12116.47
255.039	12091.45
255.109	12076.75
255.18	12045.66
255.25	12001.99
255.321	11998.18
255.391	11965.94
255.461	11972.54
255.532	11921.83
255.602	11896.77
255.673	11868.23
255.743	11842.73
255.813	11804.37
255.884	11800.56
255.954	11789.23
256.024	11795.11
256.095	11774.92
256.165	11748.94
256.235	11743.88
256.306	11715.92
256.376	11704.59
256.446	11699.29
256.517	11689.75
256.587	11685.07
256.657	11671.19
256.728	11657.89
256.798	11633.6
256.868	11612.2
256.938	11586.61
257.009	11586.56
257.079	11578.32
257.149	11587.18
257.219	11547.03
257.29	11538.22
257.36	11501.64
257.43	11491.95
257.5	11447.32
257.571	11427.03
257.641	11419.27
257.711	11387.07
257.781	11377.58
257.852	11370.25
257.922	11335.02
257.992	11320.85
258.062	11293.86
258.132	11288.13
258.202	11276.27
258.273	11260.99
258.343	11264.9
258.413	11233.14
258.483	11213.67
258.553	11186.2
258.623	11157.62
258.693	11143.98
258.764	11142.39
258.834	11146.39
258.904	11127.45
258.974	11103.36
259.044	11097.43
259.114	11084.66
259.184	11075.02
259.254	11057.29
259.324	11015.41
259.394	11004.71
259.464	11002.73
259.535	10989.43
259.605	10968.08
259.675	10941.77
259.745	10931.08
259.815	10905.05
259.885	10892.24
259.955	10902.26
260.025	10873.83
260.095	10852.44
260.165	10839.57
260.235	10834.9
260.305	10804.2
260.375	10780.73
260.445	10786.81
260.515	10779.53
260.585	10769.89
260.655	10752.54
260.725	10746.42
260.795	10746.62
260.865	10745.12
260.934	10716.02
261.004	10706.67
261.074	10686.91
261.144	10692.26
261.214	10682.62
261.284	10662
261.354	10649.57
261.424	10624.27
261.494	10635.79
261.564	10624.32
261.634	10614.1
261.703	10579.89
261.773	10576.23
261.843	10571.65
261.913	10550.12
261.983	10515.47
262.053	10503.72
262.123	10484.35
262.192	10454.96
262.262	10437.13
262.332	10407.21
262.402	10402.3
262.472	10381.34
262.541	10360
262.611	10352.58
262.681	10334.8
262.751	10329.98
262.821	10312.21
262.89	10281.23
262.96	10271.78
263.03	10276.46
263.1	10273.13
263.169	10260.51
263.239	10257.28
263.309	10257.57
263.379	10254.49
263.448	10241.63
263.518	10237.53
263.588	10227.56
263.657	10235.12
263.727	10242.35
263.797	10236.04
263.867	10218.55
263.936	10195.33
264.006	10187.82
264.076	10164.12
264.145	10148.03
264.215	10129.62
264.285	10134.54
264.354	10102.84
264.424	10079.38
264.494	10049.56
264.563	10022.83
264.633	10029.81
264.702	10015.07
264.772	9983.13
264.842	9966.56
264.911	9961.41
264.981	9930.43
265.05	9917.47
265.12	9894.64
265.19	9871.28
265.259	9861.93
265.329	9852.97
265.398	9837.37
265.468	9844.01
265.537	9830.87
265.607	9816.9
265.676	9812.9
265.746	9800.95
265.815	9808.85
265.885	9796.62
265.955	9774.8
266.024	9760.21
266.094	9725.34
266.163	9721.63
266.232	9722.16
266.302	9705.45
266.371	9692.1
266.441	9683.34
266.51	9678.62
266.58	9661.81
266.649	9648.28
266.719	9646.98
266.788	9641.39
266.858	9653.53
266.927	9624.34
266.996	9614.56
267.066	9609.51
267.135	9581.34
267.205	9574.21
267.274	9565.39
267.343	9557.93
267.413	9547.29
267.482	9548.88
267.552	9554.32
267.621	9527.59
267.69	9497.06
267.76	9488.15
267.829	9483.72
267.898	9479.53
267.968	9462.15
268.037	9459.3
268.106	9453.33
268.176	9430.27
268.245	9415.63
268.314	9395.11
268.384	9396.7
268.453	9386.59
268.522	9375.8
268.592	9376.81
268.661	9357.45
268.73	9346.18
268.799	9329.81
268.869	9336.8
268.938	9309.59
269.007	9287.73
269.076	9278.39
269.146	9270.73
269.215	9267.89
269.284	9271.55
269.353	9248.59
269.422	9233.18
269.492	9214.93
269.561	9178.1
269.63	9176.99
269.699	9161.3
269.768	9149.89
269.838	9137.94
269.907	9135.63
269.976	9114.5
270.045	9084.7
270.114	9079.88
270.183	9067.51
270.253	9062.36
270.322	9036.65
270.391	9027.41
270.46	9032.99
270.529	9034.1
270.598	9039.88
270.667	9026.25
270.736	9003
270.806	8998.91
270.875	9001.75
270.944	8995.92
271.013	9014.98
271.082	9001.12
271.151	8998.33
271.22	8976.62
271.289	8967.23
271.358	8957.94
271.427	8952.69
271.496	8953.65
271.565	8938.54
271.634	8928.62
271.703	8948.46
271.772	8942.25
271.841	8931.95
271.91	8908.75
271.979	8896.57
272.048	8877.65
272.117	8871.63
272.186	8857.77
272.255	8856.9
272.324	8851.75
272.393	8846.17
272.462	8831.1
272.531	8828.93
272.6	8815.26
272.669	8822.53
272.738	8804.96
272.807	8796.97
272.876	8783.88
272.945	8802.36
273.013	8801.83
273.082	8807.23
273.151	8768.66
273.22	8775.07
273.289	8768.18
273.358	8778.53
273.427	8767.41
273.496	8763.13
273.564	8757.35
273.633	8758.51
273.702	8741.71
273.771	8733.19
273.84	8736.18
273.909	8739.31
273.977	8737.91
274.046	8728.28
274.115	8723.61
274.184	8714.09
274.253	8702.15
274.322	8709.37
274.39	8680.88
274.459	8668.07
274.528	8639.2
274.597	8634.05
274.665	8624.66
274.734	8631.16
274.803	8618.31
274.872	8610.85
274.94	8598.1
275.009	8631.36
275.078	8618.51
275.147	8613.75
275.215	8609.66
275.284	8606.58
275.353	8594.35
275.421	8569.81
275.49	8587.23
275.559	8584.25
275.627	8574.63
275.696	8569.62
275.765	8564.62
275.833	8554.9
275.902	8552.11
275.971	8561.59
276.039	8568.23
276.108	8576.31
276.177	8577.08
276.245	8565.87
276.314	8563.7
276.383	8568.52
276.451	8534.29
276.52	8536.36
276.588	8548.24
276.657	8547.42
276.725	8539.2
276.794	8539.1
276.863	8546.51
276.931	8519.08
277	8523.26
277.068	8530.53
277.137	8544.63
277.205	8541.93
277.274	8562.24
277.342	8575.38
277.411	8556.71
277.48	8551.76
277.548	8535.49
277.617	8534.19
277.685	8535.1
277.754	8539.53
277.822	8534.81
277.89	8543.62
277.959	8535.54
278.027	8519.75
278.096	8509.6
278.164	8533.67
278.233	8523.32
278.301	8519.61
278.37	8530.54
278.438	8516.29
278.507	8522.89
278.575	8501.76
278.643	8498.29
278.712	8481.6
278.78	8467.16
278.849	8477.41
278.917	8483.81
278.985	8485.97
279.054	8487.9
279.122	8489.58
279.191	8489.34
279.259	8486.41
279.327	8464.99
279.396	8481.21
279.464	8479.09
279.532	8485.01
279.601	8479.47
279.669	8478.46
279.737	8485.01
279.806	8481.35
279.874	8489.1
279.942	8486.31
280.011	8479.76
280.079	8483.08
280.147	8497.37
280.215	8504.21
280.284	8500.89
280.352	8487.94
280.42	8490.59
280.488	8476.06
280.557	8474.81
280.625	8475.96
280.693	8473.7
280.761	8474.04
280.83	8458.35
280.898	8474.66
280.966	8459.6
281.034	8429.19
281.102	8411.34
281.171	8401.62
281.239	8408.93
281.307	8404.41
281.375	8388.87
281.443	8415.19
281.512	8411.05
281.58	8419.52
281.648	8403.16
281.716	8404.94
281.784	8403.35
281.852	8398.11
281.92	8400.42
281.989	8407.78
282.057	8388.87
282.125	8415.97
282.193	8420.88
282.261	8419.62
282.329	8401.48
282.397	8400.18
282.465	8396.67
282.533	8407.83
282.601	8403.12
282.67	8390.89
282.738	8378.96
282.806	8400.27
282.874	8390.12
282.942	8397.19
283.01	8385.07
283.078	8392.96
283.146	8395.8
283.214	8403.74
283.282	8404.51
283.35	8418.12
283.418	8413.22
283.486	8420.67
283.554	8394.3
283.622	8386.6
283.69	8383.42
283.758	8385.59
283.826	8395.16
283.894	8412.05
283.962	8435.73
284.03	8447.9
284.098	8447.71
284.165	8446.12
284.233	8436.55
284.301	8427.16
284.369	8418.07
284.437	8411.62
284.505	8400.32
284.573	8409.17
284.641	8398.39
284.709	8409.31
284.777	8391.89
284.845	8395.26
284.912	8397.38
284.98	8401.42
285.048	8397.86
285.116	8399.5
285.184	8411.43
285.252	8412.01
285.319	8392.91
285.387	8387.28
285.455	8371.11
285.523	8372.7
285.591	8366.92
285.659	8369.14
285.726	8382.47
285.794	8362.89
285.862	8359.66
285.93	8355.53
285.997	8348.64
286.065	8342.82
286.133	8329.54
286.201	8328.72
286.269	8317.85
286.336	8316.16
286.404	8308.71
286.472	8314.24
286.539	8297.07
286.607	8283.11
286.675	8283.98
286.743	8291.24
286.81	8280.46
286.878	8288.35
286.946	8277.62
287.013	8282.34
287.081	8283.97
287.149	8267.04
287.216	8293.98
287.284	8289.22
287.352	8294.7
287.419	8292.25
287.487	8308.85
287.555	8311.73
287.622	8302.11
287.69	8305.24
287.758	8312.94
287.825	8310.19
287.893	8296.39
287.96	8305.86
288.028	8309.09
288.096	8305.62
288.163	8312.41
288.231	8305.72
288.298	8305.62
288.366	8324.87
288.433	8319.43
288.501	8311.4
288.569	8315.68
288.636	8306.44
288.704	8315.44
288.771	8321.89
288.839	8313.61
288.906	8307.84
288.974	8317.89
289.041	8319.72
289.109	8312.22
289.176	8318.18
289.244	8325.64
289.311	8341.47
289.379	8349.26
289.446	8357.3
289.514	8354.85
289.581	8348.01
289.649	8345.75
289.716	8347.15
289.783	8338.82
289.851	8352.58
289.918	8353.54
289.986	8358.02
290.053	8363.46
290.121	8365.62
290.188	8369.86
290.255	8400.22
290.323	8396.47
290.39	8389.49
290.458	8396.08
290.525	8407.96
290.592	8400.79
290.66	8398.82
290.727	8392.81
290.794	8402.91
290.862	8396.17
290.929	8408.01
290.996	8416.19
291.064	8426.15
291.131	8440.01
291.198	8446.07
291.266	8448.53
291.333	8448.67
291.4	8458.73
291.468	8472.21
291.535	8461.52
291.602	8469.32
291.669	8457.05
291.737	8457.14
291.804	8456.08
291.871	8472.25
291.938	8475.67
292.006	8504.69
292.073	8517.73
292.14	8530.77
292.207	8526.44
292.275	8531.98
292.342	8543.82
292.409	8566.63
292.476	8587.18
292.543	8575.68
292.611	8580.2
292.678	8601.04
292.745	8627.17
292.812	8633.28
292.879	8628.33
292.946	8639.06
293.014	8645.36
293.081	8647.67
293.148	8660.71
293.215	8673.03
293.282	8671.59
293.349	8683.38
293.416	8658.93
293.484	8665.09
293.551	8671.15
293.618	8689.35
293.685	8716.11
293.752	8703.59
293.819	8696.23
293.886	8688.91
293.953	8699.84
294.02	8706.72
294.087	8705.56
294.154	8695.79
294.221	8710.91
294.288	8716.35
294.356	8733.05
294.423	8739.98
294.49	8742.48
294.557	8755.53
294.624	8750.81
294.691	8765.87
294.758	8768.38
294.825	8778.53
294.892	8776.27
294.959	8781.76
295.026	8784.45
295.093	8778.24
295.16	8777.14
295.226	8776.7
295.293	8793.6
295.36	8794.61
295.427	8809.87
295.494	8821.18
295.561	8831.72
295.628	8850.93
295.695	8863.02
295.762	8866.05
295.829	8875.68
295.896	8890.41
295.963	8899.17
296.03	8904.7
296.096	8909.95
296.163	8917.51
296.23	8933.06
296.297	8947.06
296.364	8943.26
296.431	8951.49
296.498	8940.04
296.564	8966.8
296.631	8969.01
296.698	8956.26
296.765	8973.92
296.832	8956.69
296.899	8941
296.965	8955.15
297.032	8939.45
297.099	8951.87
297.166	8961.16
297.233	8957.6
297.299	8949.42
297.366	8947.3
297.433	8952.83
297.5	8960.1
297.566	8955.82
297.633	8955.34
297.7	8955.05
297.767	8954.04
297.833	8958.71
297.9	8961.5
297.967	8942.78
298.033	8956.74
298.1	8978.4
298.167	8973.63
298.234	8981.24
298.3	8997.03
298.367	8992.36
298.434	8993.9
298.5	8984.37
298.567	8982.1
298.634	8976.38
298.7	8993.03
298.767	8996.5
298.834	9007.38
298.9	8995.05
298.967	8991.25
299.033	9001.07
299.1	9013.3
299.167	9024.56
299.233	9011.18
299.3	9023.94
299.366	9041.31
299.433	9055.28
299.5	9035.01
299.566	9036.26
299.633	9050.13
299.699	9051.57
299.766	9042.67
299.832	9045.41
299.899	9056.29
299.965	9062.26
300.032	9059.42
300.099	9059.04
300.165	9062.41
300.232	9053.69
300.298	9055.28
300.365	9071.99
300.431	9069.39
300.498	9055.67
300.564	9059.81
300.631	9080.22
300.697	9090.76
300.763	9092.01
300.83	9090.52
300.896	9103.23
300.963	9112.04
301.029	9113.15
301.096	9121.14
301.162	9137.75
301.229	9132.5
301.295	9117.43
301.361	9118.06
301.428	9118.25
301.494	9108.96
301.561	9111.08
301.627	9112.38
301.693	9121.24
301.76	9117.19
301.826	9113.72
301.892	9129.66
301.959	9143.57
302.025	9136.69
302.092	9129.9
302.158	9130.48
302.224	9124.27
302.291	9117.48
302.357	9116.71
302.423	9113.58
302.49	9106.89
302.556	9114.69
302.622	9111.32
302.688	9126.87
302.755	9138.52
302.821	9147.76
302.887	9156.86
302.954	9156.52
303.02	9169.28
303.086	9170.05
303.152	9168.18
303.219	9159.32
303.285	9161.48
303.351	9163.17
303.417	9165.29
303.483	9163.55
303.55	9158.31
303.616	9154.55
303.682	9154.31
303.748	9146.32
303.815	9155.27
303.881	9159.22
303.947	9142.85
304.013	9143.48
304.079	9127.93
304.145	9109.1
304.212	9111.51
304.278	9101.98
304.344	9088.4
304.41	9071.45
304.476	9060.62
304.542	9056.05
304.608	9059.18
304.674	9042.76
304.741	9026.49
304.807	9025.67
304.873	9027.21
304.939	9036.26
305.005	9020.28
305.071	9013.87
305.137	9015.56
305.203	8993.27
305.269	8991.39
305.335	9002.99
305.401	8997.6
305.467	8997.36
305.533	9000.97
305.599	9009.54
305.666	9022.49
305.732	9024.75
305.798	9035.92
305.864	9059.37
305.93	9067.84
305.996	9067.6
306.062	9066.5
306.128	9070.54
306.194	9052.82
306.259	9048.2
306.325	9041.8
306.391	9056.1
306.457	9068.08
306.523	9065
306.589	9085.7
306.655	9074.05
306.721	9056.05
306.787	9043.82
306.853	9050.47
306.919	9035.3
306.985	9017.15
307.051	9007.09
307.117	8999.24
307.183	8992.12
307.248	8962.46
307.314	8958.08
307.38	8956.59
307.446	8960.92
307.512	8944.94
307.578	8952.69
307.644	8942.73
307.709	8941.23
307.775	8937.77
307.841	8928.43
307.907	8928.48
307.973	8907.29
308.039	8906.33
308.104	8910.52
308.17	8919.33
308.236	8907.96
308.302	8911.77
308.368	8896.27
308.433	8888.86
308.499	8888.09
308.565	8877.4
308.631	8878.51
308.696	8861.13
308.762	8852.27
308.828	8847.27
308.894	8830.71
308.959	8809.24
309.025	8808.76
309.091	8806.55
309.156	8794.56
309.222	8795.81
309.288	8779.4
309.354	8757.69
309.419	8754.76
309.485	8737.33
309.551	8733.05
309.616	8720.29
309.682	8710.38
309.748	8707.49
309.813	8699.5
309.879	8684.25
309.945	8670.58
310.01	8667.21
310.076	8662.69
310.141	8650.17
310.207	8629.04
310.273	8632.07
310.338	8633.52
310.404	8607.15
310.469	8590.3
310.535	8577.88
310.601	8550.26
310.666	8556.08
310.732	8564.99
310.797	8556.13
310.863	8549.73
310.928	8538.9
310.994	8538.47
311.059	8540.1
311.125	8535.53
311.191	8543.76
311.256	8534.76
311.322	8540.35
311.387	8519.85
311.453	8850.18
311.518	8828.68
311.584	8831.13
311.649	8826.17
311.715	8816.98
311.78	8821.31
311.846	8812.31
311.911	8815.25
311.976	8824.15
312.042	8806.39
312.107	8791.19
312.173	8777.19
312.238	8768.96
312.304	8762.8
312.369	8752.11
312.434	8734.07
312.5	8731.57
312.565	8700.87
312.631	8702.89
312.696	8692.49
312.761	8692.97
312.827	8349.74
312.892	8384.15
312.958	8384.63
313.023	8387.32
313.088	8380.44
313.154	8363.65
313.219	8354.8
313.284	8340.94
313.35	8333.29
313.415	8323.76
313.48	8317.08
313.546	8316.89
313.611	8323.24
313.676	8315.06
313.741	8303.8
313.807	8313.18
313.872	8310.78
313.937	8314.77
314.003	8324.39
314.068	8324.1
314.133	8329.49
314.198	8322.42
314.264	8302.54
314.329	8287.72
314.394	8278.49
314.459	8279.21
314.525	8300.23
314.59	8295.13
314.655	8281.81
314.72	8284.45
314.785	8283.3
314.851	8277.53
314.916	8261.07
314.981	8246.45
315.046	8239.23
315.111	8228.41
315.176	8210.75
315.242	8213.88
315.307	8211.66
315.372	8195.83
315.437	8181.98
315.502	8169.09
315.567	8180.34
315.632	8164.76
315.698	8163.99
315.763	8164.9
315.828	8148.83
315.893	8141.91
315.958	8142.1
316.023	8135.51
316.088	8117.9
316.153	8100.63
316.218	8094.43
316.283	8077.84
316.348	8060.76
316.413	8056.43
316.479	8044.6
316.544	8015.32
316.609	7989.05
316.674	7950.82
316.739	7921.1
316.804	7899.03
316.869	7870.03
316.934	7830.73
316.999	7808.51
317.064	7761.44
317.129	7719.45
317.194	7688.44
317.259	7643.67
317.324	7589.59
317.389	7550.02
317.454	7517.81
317.518	7487.57
317.583	7465.84
317.648	7447.28
317.713	7417.91
317.778	7362.63
317.843	7334.85
317.908	7303.9
317.973	7268.62
318.038	7252.76
318.103	7211.67
318.168	7183.8
318.233	7154.62
318.297	7109.07
318.362	7065.39
318.427	7028.31
318.492	7006.49
318.557	6964.41
318.622	6937.08
318.687	6916.23
318.751	6877.62
318.816	6842.07
318.881	6811.42
318.946	6762.66
319.011	6715.74
319.075	6678.71
319.14	6651.72
319.205	6615.41
319.27	6581.81
319.335	6539.45
319.399	6498.68
319.464	6473.19
319.529	6418.99
319.594	6382.84
319.658	6354.37
319.723	6320.1
319.788	6294.04
319.853	6243.97
319.917	6218.68
319.982	6173.61
320.047	6139.93
320.112	6118.19
320.176	6074.24
320.241	6043.81
320.306	6013.87
320.37	5979.81
320.435	5946.56
320.5	5917.68
320.564	5877.54
320.629	5836.78
320.694	5806.32
320.758	5765.7
320.823	5727.19
320.888	5704.94
320.952	5656.94
321.017	5619.4
321.082	5580.52
321.146	5549.98
321.211	5513.79
321.275	5475.06
321.34	5432.7
321.405	5392.97
321.469	5353.47
321.534	5310.4
321.598	5259.51
321.663	5228.98
321.727	5201.47
321.792	5160.6
321.857	5120.5
321.921	5087.3
321.986	5052.97
322.05	5001.34
322.115	4968.58
322.179	4923.24
322.244	4865.84
322.308	4837.26
322.373	4793.94
322.437	4757.03
322.502	4735.76
322.566	4692.35
322.631	4657.13
322.695	4623.92
322.76	4583.01
322.824	4548.27
322.889	4509.38
322.953	4466.57
323.018	4403.09
323.082	4343.92
323.146	4295.05
323.211	4244.83
323.275	4201.98
323.34	4158.39
323.404	4124.35
323.468	4077.88
323.533	4041.12
323.597	4004.29
323.662	3954.11
323.726	3921.27
323.79	3880.89
323.855	3814.92
323.919	3771.65
323.983	3730.13
324.048	3663.06
324.112	3816.78
324.177	3695.88
324.241	3507.09
324.305	3321.84
324.37	3140.69
324.434	2961.98
324.498	2922.08
324.562	2876.88
324.627	2822.19
324.691	2773.57
324.755	2714.12
324.82	2648.61
324.884	2578.76
324.948	2514.81
325.012	2432.28
325.077	2321.88
