Data from 20250625_urea_1M_1_MAYP1162681_08-55-05-819.txt Node
Date: Thu Jun 26 08:55:05 BST 2025
User: adleo
Spectrometer: MAYP116268
Trigger mode: 0
Integration Time (sec): 1.000000E0
Scans to average: 1
Electric dark correction enabled: true
Nonlinearity correction enabled: true
Boxcar width: 10
XAxis mode: Wavelengths
Number of Pixels in Spectrum: 2068
>>>>>Begin Spectral Data<<<<<
179.565	1121.24
179.642	1175.14
179.718	1213.92
179.795	1252.93
179.871	1284.08
179.948	1301.92
180.024	1321.71
180.101	1342.57
180.177	1353.15
180.254	1374.5
180.33	1397.18
180.407	1445.98
180.483	1536.72
180.56	1620.43
180.636	1699.34
180.712	1686.64
180.789	1691.16
180.865	1703.56
180.942	1712.44
181.018	1721.85
181.095	1734.82
181.171	1739.19
181.248	1738.43
181.324	1753.45
181.4	1759.39
181.477	1768.04
181.553	1779.87
181.63	1798.7
181.706	1813.19
181.782	1824.78
181.859	1825.21
181.935	1830.49
182.011	1827.64
182.088	1842.18
182.164	1859.11
182.24	1870.28
182.317	1880.16
182.393	1881.35
182.469	1894.52
182.546	1907.4
182.622	1910.06
182.698	1908.54
182.775	1921.61
182.851	1934.45
182.927	1925.99
183.003	1922.14
183.08	1919.62
183.156	1927.27
183.232	1924.89
183.308	1914.39
183.385	1919.71
183.461	1935.12
183.537	1931.22
183.613	1941.96
183.69	1932.98
183.766	1923.89
183.842	1931.93
183.918	1934.26
183.995	1946.43
184.071	1948.9
184.147	1943.58
184.223	1935.45
184.299	1947.34
184.375	1935.07
184.452	1940.16
184.528	1991.81
184.604	2001.6
184.68	2010.25
184.756	2017.91
184.832	2020.62
184.908	2026.66
184.985	2027.89
185.061	2012.01
185.137	2022.81
185.213	2009.54
185.289	2011.59
185.365	2004.7
185.441	2001.89
185.517	2018.3
185.593	2016.16
185.669	2011.74
185.745	2021.82
185.822	2037.03
185.898	2027.14
185.974	2036.88
186.05	2032.65
186.126	1996.6
186.202	1987.33
186.278	1984.81
186.354	1974.06
186.43	1980.29
186.506	1975.92
186.582	1975.16
186.658	1982.86
186.734	1964.08
186.81	1967.74
186.886	1968.93
186.962	1980.39
187.038	1978.11
187.114	1970.02
187.19	1975.96
187.266	1967.74
187.341	1967.45
187.417	1960.99
187.493	1961.61
187.569	1963.27
187.645	1956.66
187.721	1944.72
187.797	1954.76
187.873	1957.28
187.949	1951.05
188.025	1945.96
188.101	1952.09
188.176	1955.8
188.252	1949
188.328	1957.08
188.404	1956.42
188.48	1950.52
188.556	1944.53
188.632	1943.87
188.707	1943.2
188.783	1942.3
188.859	1940.3
188.935	1931.26
189.011	1939.82
189.086	1935.92
189.162	1929.03
189.238	1924.56
189.314	1925.09
189.39	1918.38
189.465	1911.3
189.541	1929.37
189.617	1913.25
189.693	1908.21
189.768	1911.92
189.844	1935.75
189.92	1926.67
189.996	1937.23
190.071	1948.4
190.147	1951.35
190.223	1960.62
190.298	1953.82
190.374	1939.17
190.45	1948.63
190.526	1953.15
190.601	1946.02
190.677	1947.21
190.753	1976.51
190.828	1982.84
190.904	1994.2
190.98	2007.52
191.055	2018.93
191.131	2012.08
191.207	2034.14
191.282	2041.89
191.358	2033.38
191.433	2020.54
191.509	2034.51
191.585	2031.89
191.66	2032.51
191.736	2037.41
191.811	2028.14
191.887	2043.26
191.963	2068.04
192.038	2072.42
192.114	2074.84
192.189	2076.89
192.265	2073.46
192.34	2048.58
192.416	2046.58
192.491	2045.15
192.567	2049.82
192.642	2052.39
192.718	2048.11
192.793	2034.79
192.869	2031.75
192.944	2031.94
193.02	2039.26
193.095	2042.45
193.171	2048.16
193.246	2048.25
193.322	2043.54
193.397	2041.97
193.473	2029.51
193.548	2012.62
193.624	2018.85
193.699	2020.38
193.775	2037.17
193.85	2039.4
193.925	2048.77
194.001	2047.58
194.076	2038.83
194.152	2026.13
194.227	2020.47
194.302	2014.67
194.378	2019.9
194.453	2017.72
194.529	2032.36
194.604	2017.48
194.679	2012.49
194.755	1991.62
194.83	2003.18
194.905	2004.98
194.981	2015.73
195.056	2006.89
195.131	2013.55
195.207	2011.93
195.282	1997.95
195.357	1978.92
195.433	1993.86
195.508	1982.25
195.583	1991.52
195.659	2005.98
195.734	2013.02
195.809	2011.97
195.884	2018.15
195.96	2016.01
196.035	2027.81
196.11	2025.14
196.185	2039.22
196.261	2040.08
196.336	2072.65
196.411	2058.48
196.486	2059.9
196.561	2053.39
196.637	2062.94
196.712	2076.98
196.787	2081.98
196.862	2098.81
196.937	2108.8
197.013	2113.13
197.088	2124.63
197.163	2145.29
197.238	2161.95
197.313	2162.57
197.388	2174.18
197.464	2206.25
197.539	2219.95
197.614	2213.53
197.689	2224
197.764	2239.75
197.839	2260.07
197.914	2254.26
197.989	2276.82
198.065	2291.47
198.14	2339.56
198.215	2365.4
198.29	2373.55
198.365	2383.78
198.44	2395.01
198.515	2420.95
198.59	2434.38
198.665	2457.71
198.74	2463.33
198.815	2467.18
198.89	2490.56
198.965	2518.8
199.04	2514.04
199.115	2529.32
199.19	2569.45
199.265	2572.83
199.34	2582.55
199.415	2614.38
199.49	2631.9
199.565	2641.95
199.64	2664.86
199.715	2660.61
199.79	2665.95
199.865	2676.62
199.94	2674.1
200.015	2705.21
200.09	2711.5
200.165	2716.98
200.24	2722.41
200.315	2760.46
200.39	2772.99
200.464	2778.42
200.539	2777.66
200.614	2794.09
200.689	2815.06
200.764	2823.02
200.839	2839.79
200.914	2843.22
200.989	2835.83
201.063	2853.27
201.138	2836.51
201.213	2835.89
201.288	2819.22
201.363	2825.84
201.438	2825.46
201.512	2841.75
201.587	2825.02
201.662	2829.21
201.737	2841.74
201.812	2849.46
201.886	2820.37
201.961	2827.38
202.036	2813.09
202.111	2810.14
202.186	2780.66
202.26	2761.98
202.335	2740.25
202.41	2733.81
202.485	2718.29
202.559	2696.56
202.634	2669.22
202.709	2678.26
202.784	2660.11
202.858	2662.3
202.933	2642.92
203.008	2633.34
203.082	2615.15
203.157	2613.39
203.232	2575.3
203.306	2550.86
203.381	2522.61
203.456	2499.65
203.53	2477.82
203.605	2462.12
203.68	2440.54
203.754	2434.79
203.829	2420.98
203.904	2403.51
203.978	2390.7
204.053	2396.8
204.127	2387.13
204.202	2384.75
204.277	2367.67
204.351	2359.95
204.426	2350.67
204.5	2343.77
204.575	2312.08
204.65	2319.93
204.724	2311.41
204.799	2318.02
204.873	2317.92
204.948	2315.64
205.022	2303.46
205.097	2294.22
205.171	2307.64
205.246	2319.93
205.32	2319.26
205.395	2320.16
205.469	2312.79
205.544	2317.74
205.618	2296.7
205.693	2305.22
205.767	2292.71
205.842	2313.8
205.916	2310.61
205.991	2301.66
206.065	2306.09
206.14	2321.07
206.214	2315.83
206.289	2309.69
206.363	2320.16
206.438	2322.21
206.512	2329.16
206.586	2347.76
206.661	2358.72
206.735	2336.45
206.81	2333.07
206.884	2348.73
206.958	2337.21
207.033	2351.06
207.107	2357.06
207.181	2388.53
207.256	2384.58
207.33	2403.71
207.405	2415
207.479	2430.9
207.553	2437.71
207.628	2423.15
207.702	2435.43
207.776	2432.62
207.851	2437.47
207.925	2453.34
207.999	2452.05
208.073	2447.86
208.148	2448.34
208.222	2438.29
208.296	2468.74
208.371	2488.33
208.445	2499.37
208.519	2528.46
208.593	2540.7
208.668	2539.32
208.742	2544.08
208.816	2547.75
208.89	2563.71
208.965	2561.18
209.039	2569.23
209.113	2588.33
209.187	2608.7
209.261	2607.7
209.336	2629.37
209.41	2648.62
209.484	2648.95
209.558	2674.82
209.632	2694.49
209.707	2711.4
209.781	2735.27
209.855	2754.76
209.929	2775.84
210.003	2787.23
210.077	2790.14
210.151	2843.94
210.226	2882.99
210.3	2914.38
210.374	2943.63
210.448	2954.26
210.522	2973.57
210.596	2992.16
210.67	3011.71
210.744	3070.18
210.818	3111.31
210.892	3141.27
210.966	3150.09
211.041	3177.6
211.115	3189.76
211.189	3229.16
211.263	3262.79
211.337	3287.41
211.411	3324.73
211.485	3340.01
211.559	3374.31
211.633	3405.64
211.707	3403.78
211.781	3442.09
211.855	3446.92
211.929	3470.96
212.003	3491.67
212.077	3540.15
212.151	3589
212.225	3641.44
212.299	3673.37
212.373	3708.09
212.447	3754.06
212.52	3832.51
212.594	3889.62
212.668	3951.25
212.742	3991.97
212.816	4046.13
212.89	4104.02
212.964	4161.08
213.038	4225.99
213.112	4301.23
213.186	4381.86
213.26	4430.25
213.333	4457.42
213.407	4531.52
213.481	4611.68
213.555	4696.87
213.629	4765.83
213.703	4837.55
213.777	4918.22
213.85	4984.7
213.924	5100.36
213.998	5186.28
214.072	5270.37
214.146	5346.99
214.219	5438.55
214.293	5527.74
214.367	5626.61
214.441	5725.87
214.515	5811
214.588	5888.04
214.662	5956.2
214.736	6038.86
214.81	6150.13
214.883	6263.39
214.957	6356.63
215.031	6443.96
215.105	6531.4
215.178	6623.79
215.252	6720.21
215.326	6805.14
215.4	6893.89
215.473	6955.83
215.547	7047.66
215.621	7140.29
215.694	7256.41
215.768	7340.09
215.842	7436.02
215.915	7529.26
215.989	7614.02
216.063	7718.18
216.136	7831.53
216.21	7942.81
216.284	8060.66
216.357	8172.69
216.431	8271.84
216.504	8379.47
216.578	8515.44
216.652	8632.55
216.725	8741.13
216.799	8861.23
216.873	8964.62
216.946	9080.19
217.02	9183.24
217.093	9286.37
217.167	9371.4
217.24	9458.03
217.314	9562.66
217.387	9663.88
217.461	9757.84
217.535	9876.56
217.608	9965.38
217.682	10063.12
217.755	10172.23
217.829	10267.91
217.902	10365.18
217.976	10471.55
218.049	10569.74
218.123	10652.09
218.196	10755.78
218.27	10850.52
218.343	10934.99
218.417	11038.84
218.49	11129.77
218.563	11249.53
218.637	11358.06
218.71	11478.89
218.784	11584.67
218.857	11691.38
218.931	11798.38
219.004	11894.14
219.077	11992.38
219.151	12090.94
219.224	12179.63
219.298	12273.82
219.371	12373.5
219.444	12449.81
219.518	12538.02
219.591	12622.67
219.665	12741.97
219.738	12829.99
219.811	12907.6
219.885	12998.08
219.958	13088.9
220.031	13173.79
220.105	13251.69
220.178	13324.87
220.251	13388.99
220.325	13475.52
220.398	13557.42
220.471	13637.59
220.544	13726.57
220.618	13788.57
220.691	13875.1
220.764	13952.71
220.838	14020.58
220.911	14088.26
220.984	14185.4
221.057	14266.05
221.131	14348.96
221.204	14386.9
221.277	14476.8
221.35	14578.37
221.424	14646.67
221.497	14709.05
221.57	14770.75
221.643	14840.5
221.716	14914.49
221.79	14983.52
221.863	15036.79
221.936	15090.63
222.009	15145.77
222.082	15211.04
222.155	15276.74
222.229	15342.63
222.302	15409.58
222.375	15467.57
222.448	15527.1
222.521	15576.07
222.594	15630.39
222.667	15666.26
222.74	15725.35
222.814	15765.84
222.887	15803.24
222.96	15863.87
223.033	15927.02
223.106	15990.25
223.179	16043.46
223.252	16090.36
223.325	16140.2
223.398	16195
223.471	16249.13
223.544	16300.36
223.617	16344.8
223.69	16385.72
223.763	16411.02
223.837	16459.8
223.91	16513.73
223.983	16542.75
224.056	16573.11
224.129	16612.63
224.202	16666.42
224.275	16707.1
224.348	16737.22
224.42	16767.73
224.493	16784.74
224.566	16807.58
224.639	16851.34
224.712	16882.48
224.785	16911.25
224.858	16948.22
224.931	16974.72
225.004	16996.31
225.077	17023.06
225.15	17022.44
225.223	17057.52
225.296	17112.99
225.369	17118.29
225.442	17132.12
225.514	17162.2
225.587	17201.72
225.66	17233.77
225.733	17262.83
225.806	17288.85
225.879	17314.54
225.952	17332.51
226.025	17375.65
226.097	17422.63
226.17	17443.26
226.243	17443.84
226.316	17470.59
226.389	17494.25
226.461	17515.36
226.534	17544.03
226.607	17570.25
226.68	17620.71
226.753	17640.18
226.825	17641.91
226.898	17686.25
226.971	17719.02
227.044	17747.55
227.117	17769.67
227.189	17800.75
227.262	17833.91
227.335	17860.31
227.407	17878.53
227.48	17902.15
227.553	17923.16
227.626	17935.35
227.698	17954.09
227.771	17981.66
227.844	17995.4
227.916	18011.35
227.989	18029.13
228.062	18044.07
228.134	18082.91
228.207	18099.58
228.28	18113.27
228.352	18132.88
228.425	18148.84
228.498	18171.68
228.57	18177.94
228.643	18196.74
228.716	18198.81
228.788	18203.44
228.861	18217.51
228.934	18242.37
229.006	18252.16
229.079	18257.79
229.151	18260.44
229.224	18247.14
229.296	18265.55
229.369	18288.83
229.442	18315.19
229.514	18320.87
229.587	18342.95
229.659	18327.96
229.732	18351.86
229.804	18378.13
229.877	18402.94
229.949	18415.57
230.022	18440.53
230.094	18450.12
230.167	18454.41
230.239	18454.07
230.312	18459.37
230.384	18483.47
230.457	18500.48
230.529	18515.08
230.602	18520.29
230.674	18537.68
230.747	18569.15
230.819	18587.08
230.892	18576.28
230.964	18578.02
231.037	18580.33
231.109	18584.28
231.181	18601.82
231.254	18578.6
231.326	18575.37
231.399	18581.49
231.471	18573.01
231.544	18546.36
231.616	18555.9
231.688	18568.04
231.761	18569.49
231.833	18571.17
231.905	18545.88
231.978	18540.77
232.05	18536.77
232.122	18531.61
232.195	18516.82
232.267	18523.13
232.339	18507.32
232.412	18513.97
232.484	18498.89
232.556	18504.53
232.629	18525.54
232.701	18527.61
232.773	18538.79
232.846	18537.35
232.918	18527.76
232.99	18531.56
233.062	18542.94
233.135	18544.09
233.207	18519.13
233.279	18521.44
233.351	18509.97
233.424	18500.09
233.496	18475.18
233.568	18492.96
233.64	18489.16
233.713	18487.66
233.785	18477.69
233.857	18480.43
233.929	18461.49
234.001	18481.78
234.074	18480.1
234.146	18447.86
234.218	18437.4
234.29	18418.46
234.362	18394.41
234.434	18373.79
234.507	18353.07
234.579	18318.51
234.651	18294.61
234.723	18296.73
234.795	18290.76
234.867	18286.47
234.939	18293.07
235.012	18287.67
235.084	18273.55
235.156	18268.59
235.228	18244.16
235.3	18224.4
235.372	18220.35
235.444	18218.76
235.516	18170.42
235.588	18158.91
235.66	18143.15
235.732	18119.01
235.804	18165.17
235.876	18162.52
235.948	18162.81
236.02	18134.28
236.092	18123.53
236.164	18108.69
236.236	18089.17
236.308	18056.89
236.38	18039.87
236.452	18008.55
236.524	17998.48
236.596	17986.33
236.668	17961.13
236.74	17944.99
236.812	17937.61
236.884	17913.76
236.956	17894.92
237.028	17872.94
237.1	17840.6
237.172	17834.96
237.244	17827.64
237.316	17766.53
237.388	17741.67
237.46	17706.78
237.532	17709.09
237.604	17683.74
237.675	17689.48
237.747	17676.95
237.819	17658.39
237.891	17640.46
237.963	17615.64
238.035	17582.34
238.107	17533.91
238.178	17531.93
238.25	17507.21
238.322	17503.26
238.394	17467.45
238.466	17441.38
238.538	17422.97
238.609	17407.98
238.681	17373.48
238.753	17345.04
238.825	17323.93
238.897	17304.75
238.968	17300.03
239.04	17269.81
239.112	17271.07
239.184	17226.78
239.255	17198.34
239.327	17177.14
239.399	17150.25
239.471	17142.39
239.542	17132.75
239.614	17127.35
239.686	17073.47
239.758	17067.98
239.829	17028.22
239.901	17018.44
239.973	16991.83
240.044	16982.87
240.116	16961.81
240.188	16929.76
240.259	16899.44
240.331	16861.61
240.403	16845.9
240.474	16806.81
240.546	16781.32
240.618	16739.34
240.689	16718.47
240.761	16691.72
240.833	16684.4
240.904	16660.01
240.976	16633.69
241.048	16609.45
241.119	16580
241.191	16569.74
241.262	16554.8
241.334	16529.11
241.405	16494.79
241.477	16466.26
241.549	16435.61
241.62	16417.63
241.692	16407.6
241.763	16403.17
241.835	16377.05
241.906	16347.45
241.978	16300.7
242.049	16279.54
242.121	16265.61
242.192	16253.03
242.264	16221.13
242.335	16175.68
242.407	16162.57
242.478	16127.82
242.55	16108.05
242.621	16077.16
242.693	16042.46
242.764	16004.33
242.836	15962.3
242.907	15954.01
242.979	15934.83
243.05	15915.07
243.122	15891.21
243.193	15857.71
243.264	15802.28
243.336	15775
243.407	15754.03
243.479	15764.83
243.55	15742.56
243.622	15713.59
243.693	15675.13
243.764	15664.57
243.836	15628.32
243.907	15591.21
243.978	15557.9
244.05	15523.83
244.121	15489.17
244.192	15472.15
244.264	15442.17
244.335	15426.99
244.407	15377.49
244.478	15350.01
244.549	15317.72
244.62	15274.33
244.692	15239.29
244.763	15230.81
244.834	15200.58
244.906	15171.13
244.977	15142.31
245.048	15129.39
245.119	15100.71
245.191	15070.87
245.262	15015.05
245.333	15006.91
245.405	14981.65
245.476	14967.48
245.547	14943.71
245.618	14926.45
245.689	14903.9
245.761	14877.96
245.832	14852.8
245.903	14835.78
245.974	14820.84
246.045	14796.16
246.117	14787.87
246.188	14754.56
246.259	14709.01
246.33	14682.78
246.401	14652.9
246.473	14607.68
246.544	14577.07
246.615	14559.48
246.686	14531.04
246.757	14530.36
246.828	14495.85
246.899	14491.94
246.97	14446.29
247.042	14419.58
247.113	14401.94
247.184	14401.31
247.255	14366.8
247.326	14339.23
247.397	14311.03
247.468	14289.29
247.539	14260.6
247.61	14216.3
247.681	14209.31
247.752	14202.42
247.823	14173.4
247.894	14145.97
247.965	14107.74
248.037	14080.6
248.108	14036.98
248.179	14009.88
248.25	13977.54
248.321	13958.11
248.392	13916.6
248.463	13921.81
248.534	13890.67
248.605	13868.69
248.675	13840.2
248.746	13825.16
248.817	13805.01
248.888	13789.1
248.959	13744.94
249.03	13725.95
249.101	13711.39
249.172	13679.14
249.243	13638.69
249.314	13631.66
249.385	13610.93
249.456	13597.09
249.527	13564.46
249.598	13555.2
249.669	13529.31
249.739	13512.1
249.81	13492.05
249.881	13454.45
249.952	13426.88
250.023	13410.82
250.094	13376.79
250.165	13339.33
250.235	13310.99
250.306	13292.62
250.377	13260.18
250.448	13246.05
250.519	13212.02
250.59	13193.17
250.66	13168.63
250.731	13156.97
250.802	13134.26
250.873	13117.15
250.944	13105.34
251.014	13081.52
251.085	13076.46
251.156	13066.63
251.227	13063.74
251.297	13059.93
251.368	13049.66
251.439	13044.6
251.51	13028.59
251.58	13000.1
251.651	12972.14
251.722	12973.49
251.792	12935.99
251.863	12914.3
251.934	12900.32
252.005	12904.32
252.075	12888.22
252.146	12881.9
252.217	12870.91
252.287	12859.29
252.358	12837.89
252.429	12830.9
252.499	12804.82
252.57	12788.48
252.641	12773.63
252.711	12744.13
252.782	12704.84
252.852	12705.23
252.923	12676.74
252.994	12657.84
253.064	12647.29
253.135	12617.5
253.205	12577.87
253.276	12568.52
253.347	12567.12
253.417	12540.37
253.488	12512.51
253.558	12491.2
253.629	12469.03
253.699	12458.9
253.77	12447.82
253.841	12425.55
253.911	12409.16
253.982	12392.72
254.052	12380.19
254.123	12365.82
254.193	12347.55
254.264	12361.43
254.334	12327.79
254.405	12291.93
254.475	12261.8
254.546	12239.24
254.616	12241.65
254.687	12229.41
254.757	12224.3
254.827	12193.3
254.898	12181.59
254.968	12160.77
255.039	12136.14
255.109	12129.63
255.18	12105.77
255.25	12063.3
255.321	12048.31
255.391	12012.83
255.461	12019.49
255.532	11971.43
255.602	11947.18
255.673	11909.59
255.743	11886.31
255.813	11848.86
255.884	11844.95
255.954	11840.81
256.024	11841.53
256.095	11818.39
256.165	11788.8
256.235	11770
256.306	11752.31
256.376	11743.54
256.446	11739.88
256.517	11724.16
256.587	11711.2
256.657	11695.29
256.728	11683
256.798	11665.75
256.868	11651.14
256.938	11619.09
257.009	11611.38
257.079	11603.76
257.149	11613.88
257.219	11576.14
257.29	11570.12
257.36	11538.79
257.43	11527.66
257.5	11485.44
257.571	11467.17
257.641	11463.8
257.711	11437
257.781	11430.06
257.852	11418.88
257.922	11381.48
257.992	11360.71
258.062	11334.39
258.132	11318.49
258.202	11295.4
258.273	11278.44
258.343	11272.13
258.413	11251.07
258.483	11240.66
258.553	11210.39
258.623	11182.34
258.693	11166.1
258.764	11158.58
258.834	11157.43
258.904	11139.26
258.974	11122.49
259.044	11098.73
259.114	11087.36
259.184	11073.33
259.254	11049.48
259.324	11011.45
259.394	10999.6
259.464	11005.58
259.535	10988.37
259.605	10966.2
259.675	10944.28
259.745	10940.91
259.815	10923.12
259.885	10900.19
259.955	10910.02
260.025	10882.94
260.095	10866.41
260.165	10856.34
260.235	10861.64
260.305	10839.19
260.375	10814.8
260.445	10823.76
260.515	10826.08
260.585	10819.72
260.655	10808.54
260.725	10799.28
260.795	10795.91
260.865	10792.2
260.934	10763.1
261.004	10753.03
261.074	10739.82
261.144	10745.32
261.214	10736.35
261.284	10709.37
261.354	10704.07
261.424	10672.65
261.494	10684.79
261.564	10670.53
261.634	10660.51
261.703	10621.28
261.773	10610.11
261.843	10601.58
261.913	10579.08
261.983	10549.54
262.053	10532.19
262.123	10509.07
262.192	10484.64
262.262	10470.86
262.332	10448.17
262.402	10441.08
262.472	10424.65
262.541	10387.41
262.611	10381.49
262.681	10353.01
262.751	10346.27
262.821	10328.35
262.89	10298.52
262.96	10277.52
263.03	10275.93
263.1	10266.82
263.169	10252.9
263.239	10244.42
263.309	10239.55
263.379	10227.89
263.448	10213.2
263.518	10206.99
263.588	10199.71
263.657	10204.53
263.727	10202.36
263.797	10185.21
263.867	10166.86
263.936	10145.37
264.006	10147.73
264.076	10128.03
264.145	10111.46
264.215	10098.5
264.285	10097.3
264.354	10068.35
264.424	10056.21
264.494	10035.06
264.563	10012.42
264.633	10021.23
264.702	10008.76
264.772	9983.27
264.842	9968.68
264.911	9966.61
264.981	9937.08
265.05	9922.05
265.12	9904.75
265.19	9896.27
265.259	9894.44
265.329	9895.55
265.398	9891.46
265.468	9905.43
265.537	9887.56
265.607	9885.2
265.676	9880.72
265.746	9866.17
265.815	9865.4
265.885	9852.83
265.955	9832.07
266.024	9821.19
266.094	9786.17
266.163	9792.91
266.232	9793.01
266.302	9778.32
266.371	9765.85
266.441	9752.55
266.51	9747.54
266.58	9730.64
266.649	9703.38
266.719	9702.9
266.788	9687.34
266.858	9690.23
266.927	9653.19
266.996	9645.63
267.066	9629.06
267.135	9604.45
267.205	9604.6
267.274	9604.84
267.343	9605.46
267.413	9590.39
267.482	9591.84
267.552	9592.03
267.621	9556.44
267.69	9526.34
267.76	9519.45
267.829	9509.05
267.898	9506.98
267.968	9487.14
268.037	9482.37
268.106	9484.97
268.176	9461.28
268.245	9447.41
268.314	9423.57
268.384	9421.11
268.453	9409.36
268.522	9405.08
268.592	9404.84
268.661	9384.61
268.73	9369.97
268.799	9343.97
268.869	9355.58
268.938	9328.42
269.007	9311.85
269.076	9310.07
269.146	9309.25
269.215	9299.82
269.284	9303.33
269.353	9281.62
269.422	9266.93
269.492	9248.3
269.561	9210.02
269.63	9199.81
269.699	9191.15
269.768	9181.37
269.838	9178.15
269.907	9177.91
269.976	9151.04
270.045	9125.04
270.114	9125.72
270.183	9112.29
270.253	9107.66
270.322	9073.05
270.391	9068.19
270.46	9070.45
270.529	9055.72
270.598	9060.1
270.667	9047.05
270.736	9025.53
270.806	9021.1
270.875	9025.38
270.944	9013.54
271.013	9036.27
271.082	9033.23
271.151	9028.51
271.22	8998.62
271.289	8979.41
271.358	8963.62
271.427	8962.37
271.496	8951.69
271.565	8935.13
271.634	8930.94
271.703	8954.48
271.772	8955.73
271.841	8940.48
271.91	8917.47
271.979	8917.23
272.048	8893.44
272.117	8891.42
272.186	8878.09
272.255	8879.29
272.324	8877.22
272.393	8874.81
272.462	8857.29
272.531	8849.68
272.6	8830.62
272.669	8838.75
272.738	8835.34
272.807	8829.71
272.876	8814.35
272.945	8840.34
273.013	8838.9
273.082	8842.61
273.151	8795.09
273.22	8797.93
273.289	8787.25
273.358	8800.63
273.427	8786
273.496	8785.56
273.564	8781.14
273.633	8779.26
273.702	8755.39
273.771	8741.57
273.84	8735.8
273.909	8730.16
273.977	8726.26
274.046	8717.51
274.115	8727.08
274.184	8710.82
274.253	8702.73
274.322	8710.67
274.39	8680.35
274.459	8662.88
274.528	8635.25
274.597	8634.05
274.665	8629.04
274.734	8640.93
274.803	8629.96
274.872	8622.54
274.94	8604.35
275.009	8661.46
275.078	8650.58
275.147	8651.88
275.215	8651.35
275.284	8661.56
275.353	8655.69
275.421	8629.07
275.49	8645.05
275.559	8628.3
275.627	8616.95
275.696	8611.7
275.765	8606.89
275.833	8598.9
275.902	8600.15
275.971	8614.4
276.039	8629.27
276.108	8632.4
276.177	8630.33
276.245	8619.31
276.314	8620.42
276.383	8631.1
276.451	8564.12
276.52	8568.79
276.588	8582.75
276.657	8579.96
276.725	8570.38
276.794	8568.46
276.863	8580.2
276.931	8555.51
277	8566.43
277.068	8582.79
277.137	8591.36
277.205	8591.79
277.274	8607.81
277.342	8619.51
277.411	8593.77
277.48	8578.65
277.548	8564.07
277.617	8560.94
277.685	8550.55
277.754	8548.82
277.822	8534.72
277.89	8549.59
277.959	8541.12
278.027	8523.31
278.096	8512.49
278.164	8534.53
278.233	8528.04
278.301	8518.75
278.37	8523.42
278.438	8510.13
278.507	8507.15
278.575	8488.91
278.643	8480.92
278.712	8465.19
278.78	8448.83
278.849	8464.56
278.917	8473.41
278.985	8474.09
279.054	8468.99
279.122	8481.3
279.191	8481.93
279.259	8479.77
279.327	8463.11
279.396	8474.71
279.464	8466.96
279.532	8475.87
279.601	8469.61
279.669	8464.03
279.737	8481.25
279.806	8488.23
279.874	8495.21
279.942	8499.4
280.011	8493.53
280.079	8504.02
280.147	8521.15
280.215	8529.62
280.284	8522.59
280.352	8511.33
280.42	8515.9
280.488	8515.18
280.557	8509.84
280.625	8510.47
280.693	8512.73
280.761	8516.05
280.83	8503.63
280.898	8512.92
280.966	8493.43
281.034	8458.83
281.102	8445.12
281.171	8431.26
281.239	8431.6
281.307	8418.75
281.375	8404.7
281.443	8431.31
281.512	8428.03
281.58	8428.18
281.648	8411.39
281.716	8411.82
281.784	8407.34
281.852	8401.33
281.92	8402.19
281.989	8406.43
282.057	8388.24
282.125	8417.12
282.193	8410.19
282.261	8411.39
282.329	8410.04
282.397	8415.96
282.465	8422.07
282.533	8435.45
282.601	8430.88
282.67	8416.1
282.738	8414.66
282.806	8420.24
282.874	8406.04
282.942	8407.73
283.01	8402.92
283.078	8409.07
283.146	8404.94
283.214	8415.81
283.282	8418.27
283.35	8422.74
283.418	8423.99
283.486	8435.44
283.554	8408.44
283.622	8408.11
283.69	8406.13
283.758	8407.34
283.826	8411.04
283.894	8418.93
283.962	8441.21
284.03	8452.23
284.098	8455.31
284.165	8451.75
284.233	8457.43
284.301	8449.97
284.369	8439.34
284.437	8429.76
284.505	8427.07
284.573	8438.9
284.641	8426.68
284.709	8427.26
284.777	8412.1
284.845	8417.2
284.912	8421.2
284.98	8425.29
285.048	8421.25
285.116	8424.47
285.184	8435.78
285.252	8433.9
285.319	8419.23
285.387	8403.44
285.455	8389.01
285.523	8389.25
285.591	8382.99
285.659	8378.28
285.726	8391.51
285.794	8378.95
285.862	8380.49
285.93	8376.55
285.997	8376.4
286.065	8372.22
286.133	8365.96
286.201	8368.08
286.269	8355.18
286.336	8342.43
286.404	8331.03
286.472	8341.04
286.539	8318.38
286.607	8294.75
286.675	8294.9
286.743	8306.64
286.81	8306.15
286.878	8318.42
286.946	8311.59
287.013	8312.99
287.081	8313.81
287.149	8293.36
287.216	8314.04
287.284	8303.36
287.352	8299.85
287.419	8288.79
287.487	8304.38
287.555	8303.08
287.622	8297.16
287.69	8296.97
287.758	8311.4
287.825	8311.74
287.893	8293.55
287.96	8301.77
288.028	8314.24
288.096	8316.98
288.163	8313.71
288.231	8297.88
288.298	8298.02
288.366	8315.78
288.433	8308.37
288.501	8297.93
288.569	8306.54
288.636	8299.27
288.704	8318.09
288.771	8326.89
288.839	8323.67
288.906	8310.39
288.974	8323.48
289.041	8323.19
289.109	8315.2
289.176	8326.18
289.244	8327.71
289.311	8346.62
289.379	8361.44
289.446	8365.92
289.514	8363.08
289.581	8365.53
289.649	8371.88
289.716	8374.05
289.783	8363.75
289.851	8389.64
289.918	8395.5
289.986	8398.54
290.053	8406.72
290.121	8402.72
290.188	8401.81
290.255	8428.9
290.323	8426.83
290.39	8419.28
290.458	8422.35
290.525	8433.32
290.592	8421.92
290.66	8426.2
290.727	8418.69
290.794	8429.23
290.862	8429.62
290.929	8434.57
290.996	8435.39
291.064	8442.8
291.131	8448.38
291.198	8460.61
291.266	8458.15
291.333	8458.97
291.4	8471.58
291.468	8482.74
291.535	8483.85
291.602	8492.27
291.669	8481.78
291.737	8489.14
291.804	8486.83
291.871	8501.65
291.938	8514.98
292.006	8540.16
292.073	8547.23
292.14	8557.82
292.207	8542.47
292.275	8541.36
292.342	8553.29
292.409	8573.12
292.476	8598.87
292.543	8597.28
292.611	8595.94
292.678	8609.41
292.745	8632.17
292.812	8635.45
292.879	8625.29
292.946	8624.95
293.014	8638.91
293.081	8654.07
293.148	8665.14
293.215	8688.68
293.282	8683.62
293.349	8684.87
293.416	8667.16
293.484	8675.92
293.551	8687.28
293.618	8709.37
293.685	8731.17
293.752	8717.75
293.819	8718.95
293.886	8709.22
293.953	8711.05
294.02	8715.39
294.087	8714.81
294.154	8705.66
294.221	8722.8
294.288	8731.8
294.356	8746.05
294.423	8751.34
294.49	8738.54
294.557	8748.26
294.624	8735.99
294.691	8762.6
294.758	8766.21
294.825	8773.14
294.892	8771.12
294.959	8766.84
295.026	8770.69
295.093	8765.3
295.16	8768.62
295.226	8768.42
295.293	8779.54
295.36	8783.68
295.427	8800.87
295.494	8815.5
295.561	8821.61
295.628	8837.46
295.695	8848.29
295.762	8849.44
295.829	8853.73
295.896	8872.59
295.963	8881.02
296.03	8887.42
296.096	8879.77
296.163	8893.87
296.23	8911.97
296.297	8928.58
296.364	8929.01
296.431	8936.76
296.498	8933.44
296.564	8955.77
296.631	8960.25
296.698	8947.83
296.765	8964.58
296.832	8952.98
296.899	8940.9
296.965	8964.97
297.032	8944.84
297.099	8959.04
297.166	8971.99
297.233	8961.55
297.299	8950.72
297.366	8954.62
297.433	8959.86
297.5	8974.21
297.566	8972.77
297.633	8967.76
297.7	8965.74
297.767	8962.37
297.833	8966.22
297.9	8964.87
297.967	8955.39
298.033	8959.91
298.1	8994.05
298.167	8985.67
298.234	8993.13
298.3	9001.46
298.367	8990.1
298.434	9000.02
298.5	8991.16
298.567	8985.52
298.634	8989.86
298.7	8999.2
298.767	8998.47
298.834	9010.56
298.9	9003.43
298.967	8998.33
299.033	9001.17
299.1	9017.78
299.167	9032.6
299.233	9027.16
299.3	9041.27
299.366	9052.1
299.433	9065.63
299.5	9039.63
299.566	9045.55
299.633	9055.23
299.699	9069.24
299.766	9068.47
299.832	9078.29
299.899	9082.43
299.965	9088.98
300.032	9086.09
300.099	9099.71
300.165	9103.61
300.232	9098.66
300.298	9098.46
300.365	9109.01
300.431	9112.95
300.498	9107.32
300.564	9113.24
300.631	9121.48
300.697	9133.08
300.763	9132.74
300.83	9135.39
300.896	9146.94
300.963	9154.74
301.029	9161.92
301.096	9155.9
301.162	9168.03
301.229	9152.77
301.295	9140.93
301.361	9140.59
301.428	9140.25
301.494	9121.19
301.561	9121.38
301.627	9116.71
301.693	9115.94
301.76	9115.75
301.826	9106.12
301.892	9112.28
301.959	9118.16
302.025	9111.32
302.092	9104
302.158	9110.07
302.224	9103.66
302.291	9091.87
302.357	9087.34
302.423	9076.36
302.49	9072.22
302.556	9076.75
302.622	9072.75
302.688	9087.2
302.755	9106.84
302.821	9117.19
302.887	9124.75
302.954	9124.32
303.02	9135.2
303.086	9143.57
303.152	9137.99
303.219	9134.28
303.285	9135.87
303.351	9137.85
303.417	9144.39
303.483	9137.08
303.55	9132.17
303.616	9130.24
303.682	9125.57
303.748	9116.18
303.815	9130.39
303.881	9139.05
303.947	9123.6
304.013	9125.28
304.079	9115.46
304.145	9093.07
304.212	9091.29
304.278	9086.33
304.344	9079.4
304.41	9068.18
304.476	9059.85
304.542	9055.95
304.608	9067.41
304.674	9052.77
304.741	9047.57
304.807	9045.84
304.873	9050.08
304.939	9062.64
305.005	9044.83
305.071	9047.53
305.137	9047.91
305.203	9024.99
305.269	9020.76
305.335	9032.99
305.401	9027.4
305.467	9025.76
305.533	9032.31
305.599	9038.47
305.666	9042.23
305.732	9042.09
305.798	9051.91
305.864	9072.56
305.93	9072.03
305.996	9069.72
306.062	9069.96
306.128	9063.75
306.194	9047.53
306.259	9040.36
306.325	9028.08
306.391	9034.05
306.457	9039.34
306.523	9044.93
306.589	9061.2
306.655	9057.2
306.721	9034.05
306.787	9026.87
306.853	9036.17
306.919	9017.01
306.985	9001.36
307.051	8996.36
307.117	8986.87
307.183	8976.91
307.248	8948.02
307.314	8960.54
307.38	8960.68
307.446	8961.93
307.512	8954.04
307.578	8958.03
307.644	8958.27
307.709	8957.74
307.775	8955.19
307.841	8953.32
307.907	8945.66
307.973	8933
308.039	8927.56
308.104	8935.84
308.17	8934.64
308.236	8918.7
308.302	8919.76
308.368	8908.69
308.433	8908.3
308.499	8901.76
308.565	8889.29
308.631	8887.8
308.696	8855.31
308.762	8839.81
308.828	8832.92
308.894	8811.99
308.959	8792.59
309.025	8776.08
309.091	8771.94
309.156	8766.45
309.222	8768.28
309.288	8757.98
309.354	8729.35
309.419	8723.67
309.485	8707.78
309.551	8709.66
309.616	8695.03
309.682	8687.86
309.748	8691.13
309.813	8684.68
309.879	8679.63
309.945	8671.3
310.01	8672.17
310.076	8675.25
310.141	8669.28
310.207	8655.9
310.273	8658.78
310.338	8667.11
310.404	8654.31
310.469	8637.85
310.535	8623.99
310.601	8591.21
310.666	8594.87
310.732	8607.67
310.797	8598.91
310.863	8593.33
310.928	8585.05
310.994	8588.66
311.059	8590.44
311.125	8581.88
311.191	8587.75
311.256	8578.8
311.322	8579.13
311.387	8556.23
311.453	8892.06
311.518	8861.17
311.584	8862.47
311.649	8866.03
311.715	8849.72
311.78	8850.82
311.846	8837.78
311.911	8845.19
311.976	8847.07
312.042	8826.91
312.107	8813.19
312.173	8798.13
312.238	8792.5
312.304	8785.14
312.369	8770.89
312.434	8754
312.5	8742.41
312.565	8705.69
312.631	8704.06
312.696	8695.15
312.761	8695.2
312.827	8347.97
312.892	8389.06
312.958	8379.15
313.023	8373.9
313.088	8372.02
313.154	8360.48
313.219	8352.59
313.284	8338.1
313.35	8335.02
313.415	8327.47
313.48	8321.07
313.546	8323.04
313.611	8324.87
313.676	8319.29
313.741	8312.46
313.807	8313.08
313.872	8320.59
313.937	8335.36
314.003	8344.45
314.068	8342.05
314.133	8346.91
314.198	8339.36
314.264	8314.57
314.329	8305.67
314.394	8295.13
314.459	8292.34
314.525	8307.74
314.59	8308.94
314.655	8300.09
314.72	8309.9
314.785	8311.87
314.851	8301.82
314.916	8285.7
314.981	8267.76
315.046	8258.52
315.111	8250.06
315.176	8240.19
315.242	8238.75
315.307	8233.12
315.372	8210.8
315.437	8207.09
315.502	8193.19
315.567	8194.82
315.632	8182.84
315.698	8181.78
315.763	8180.05
315.828	8168.03
315.893	8158.88
315.958	8148.69
316.023	8134.35
316.088	8111.45
316.153	8087.64
316.218	8084.61
316.283	8065.81
316.348	8052.01
316.413	8046.72
316.479	8032.43
316.544	8007.28
316.609	7978.66
316.674	7945.57
316.739	7917.2
316.804	7885.36
316.869	7860.59
316.934	7831.64
316.999	7803.36
317.064	7753.93
317.129	7712.62
317.194	7676.8
317.259	7636.31
317.324	7594.44
317.389	7553.92
317.454	7518.14
317.518	7488.39
317.583	7459.35
317.648	7441.03
317.713	7407.15
317.778	7349.18
317.843	7323.07
317.908	7282.71
317.973	7248.77
318.038	7219.26
318.103	7185.67
318.168	7153.28
318.233	7118.01
318.297	7073.22
318.362	7037.9
318.427	7002.55
318.492	6981.84
318.557	6943.84
318.622	6914.49
318.687	6891.77
318.751	6858.34
318.816	6826.25
318.881	6794.6
318.946	6744.74
319.011	6702.47
319.075	6665.26
319.14	6641.44
319.205	6604.12
319.27	6580.45
319.335	6534.26
319.399	6500.7
319.464	6477.22
319.529	6431.56
319.594	6398.77
319.658	6365.79
319.723	6327.15
319.788	6303.25
319.853	6254.24
319.917	6225.4
319.982	6177.69
320.047	6142.32
320.112	6118.67
320.176	6073.47
320.241	6041.32
320.306	6012.78
320.37	5979.62
320.435	5951.94
320.5	5920.66
320.564	5879.12
320.629	5835.53
320.694	5810.59
320.758	5771.88
320.823	5728.14
320.888	5704.74
320.952	5660.29
321.017	5623.61
321.082	5586.74
321.146	5557.02
321.211	5520.01
321.275	5482.63
321.34	5441.17
321.405	5401.63
321.469	5359.6
321.534	5322.28
321.598	5278.91
321.663	5251.98
321.727	5219.63
321.792	5172.78
321.857	5132.24
321.921	5093.35
321.986	5056
322.05	5001.31
322.115	4961.94
322.179	4920.38
322.244	4863.07
322.308	4827.35
322.373	4785.47
322.437	4749.56
322.502	4723.7
322.566	4685.07
322.631	4652.09
322.695	4619.17
322.76	4576.25
322.824	4542.9
322.889	4502.81
322.953	4461.53
323.018	4401.01
323.082	4337.02
323.146	4293.13
323.211	4244.59
323.275	4206.47
323.34	4163.64
323.404	4128.99
323.468	4086.97
323.533	4049.11
323.597	4007.93
323.662	3962.86
323.726	3929.26
323.79	3884.05
323.855	3820.33
323.919	3777.19
323.983	3733.38
324.048	3669.6
324.112	3808.08
324.177	3688.85
324.241	3498.05
324.305	3310.17
324.37	3126.34
324.434	2952.37
324.498	2911.42
324.562	2865.95
324.627	2810.08
324.691	2760.61
324.755	2703.65
324.82	2635.95
324.884	2561.66
324.948	2500.77
325.012	2413.61
325.077	2301.85
