Data from 20250625_urea_1M_1_MAYP1162681_13-05-05-617.txt Node
Date: Thu Jun 26 13:05:05 BST 2025
User: adleo
Spectrometer: MAYP116268
Trigger mode: 0
Integration Time (sec): 1.000000E0
Scans to average: 1
Electric dark correction enabled: true
Nonlinearity correction enabled: true
Boxcar width: 10
XAxis mode: Wavelengths
Number of Pixels in Spectrum: 2068
>>>>>Begin Spectral Data<<<<<
179.565	1138.12
179.642	1190.68
179.718	1230.86
179.795	1269.51
179.871	1302
179.948	1318.09
180.024	1338.62
180.101	1358.37
180.177	1370.73
180.254	1391.34
180.33	1411.89
180.407	1460.68
180.483	1550.14
180.56	1634.33
180.636	1714.37
180.712	1701.92
180.789	1710.95
180.865	1723.2
180.942	1734.13
181.018	1743.96
181.095	1757.65
181.171	1761.74
181.248	1763.93
181.324	1780.57
181.4	1786.08
181.477	1793.49
181.553	1805.61
181.63	1824.34
181.706	1840.45
181.782	1849.95
181.859	1849.24
181.935	1854.56
182.011	1851.71
182.088	1868.64
182.164	1890.85
182.24	1903.68
182.317	1911.66
182.393	1911.99
182.469	1924.31
182.546	1936.19
182.622	1941.94
182.698	1937.28
182.775	1947.03
182.851	1958.82
182.927	1949.31
183.003	1945.99
183.08	1941.56
183.156	1949.6
183.232	1945.84
183.308	1935.76
183.385	1943.75
183.461	1963.62
183.537	1965.15
183.613	1976.98
183.69	1968.14
183.766	1955.01
183.842	1962.76
183.918	1969.51
183.995	1979.64
184.071	1985.16
184.147	1979.6
184.223	1968.33
184.299	1982.41
184.375	1971.85
184.452	1979.32
184.528	2033.41
184.604	2043.34
184.68	2054.47
184.756	2062.84
184.832	2068.74
184.908	2073.2
184.985	2072.78
185.061	2053.38
185.137	2061.6
185.213	2050.71
185.289	2052.33
185.365	2044.77
185.441	2041.68
185.517	2057.05
185.593	2055.05
185.669	2051.06
185.745	2059.52
185.822	2073.21
185.898	2065.31
185.974	2076.58
186.05	2066.26
186.126	2029.06
186.202	2020.36
186.278	2015.32
186.354	2007.99
186.43	2014.56
186.506	2011.66
186.582	2008.9
186.658	2019.26
186.734	1999.34
186.81	2000.34
186.886	2001.01
186.962	2011.94
187.038	2006.71
187.114	1997.62
187.19	2003.47
187.266	1995.91
187.341	1996.72
187.417	1991.3
187.493	1989.69
187.569	1990.64
187.645	1988.88
187.721	1977.03
187.797	1985.83
187.873	1990.11
187.949	1981.93
188.025	1974.46
188.101	1980.12
188.176	1985.97
188.252	1980.79
188.328	1989.48
188.404	1990.81
188.48	1988.25
188.556	1982.92
188.632	1985.63
188.707	1981.92
188.783	1980.26
188.859	1975.41
188.935	1966.04
189.011	1975.69
189.086	1970.18
189.162	1965.37
189.238	1961.52
189.314	1958.96
189.39	1954.68
189.465	1948.16
189.541	1967.57
189.617	1952.59
189.693	1944.98
189.768	1950.98
189.844	1973.48
189.92	1965.02
189.996	1973.2
190.071	1984.32
190.147	1982.75
190.223	1988.79
190.298	1983.56
190.374	1970.06
190.45	1979.9
190.526	1989.27
190.601	1983.56
190.677	1981.9
190.753	2007.5
190.828	2011.3
190.904	2025.43
190.98	2038.41
191.055	2049.49
191.131	2038.5
191.207	2058.76
191.282	2066.51
191.358	2055.47
191.433	2041.72
191.509	2056.94
191.585	2053.23
191.66	2052.56
191.736	2062.88
191.811	2056.93
191.887	2070.97
191.963	2093.99
192.038	2100.22
192.114	2099.55
192.189	2103.74
192.265	2102.45
192.34	2082.18
192.416	2080.32
192.491	2077.57
192.567	2081.99
192.642	2084.51
192.718	2084.32
192.793	2074.33
192.869	2073.29
192.944	2073.33
193.02	2079.61
193.095	2081.8
193.171	2088.84
193.246	2089.08
193.322	2085.27
193.397	2083.56
193.473	2072.72
193.548	2054.35
193.624	2059.78
193.699	2057.73
193.775	2070.15
193.85	2071.86
193.925	2077.09
194.001	2077.81
194.076	2069.67
194.152	2056.12
194.227	2049.36
194.302	2043.04
194.378	2046.75
194.453	2043.23
194.529	2058.12
194.604	2046.18
194.679	2039.62
194.755	2021.26
194.83	2033.3
194.905	2031.78
194.981	2038.44
195.056	2028.17
195.131	2037.06
195.207	2034.44
195.282	2024.55
195.357	2008.47
195.433	2024.31
195.508	2012.37
195.583	2020.41
195.659	2033.54
195.734	2041.62
195.809	2041.39
195.884	2046.57
195.96	2046.71
196.035	2063.5
196.11	2060.17
196.185	2069.78
196.261	2070.54
196.336	2101.12
196.411	2086.23
196.486	2090.08
196.561	2086.94
196.637	2099.11
196.712	2114.01
196.787	2116.29
196.862	2134.51
196.937	2143.07
197.013	2148.68
197.088	2159.76
197.163	2179.28
197.238	2195.85
197.313	2193.7
197.388	2207.69
197.464	2235.05
197.539	2245
197.614	2235.72
197.689	2247.52
197.764	2263.71
197.839	2286.12
197.914	2279.36
197.989	2303.2
198.065	2317
198.14	2367.58
198.215	2392.95
198.29	2403.71
198.365	2416.47
198.44	2423.6
198.515	2450.65
198.59	2462.64
198.665	2486.64
198.74	2495.78
198.815	2496.88
198.89	2520.63
198.965	2548.45
199.04	2548.45
199.115	2564.5
199.19	2605.06
199.265	2609.44
199.34	2619.73
199.415	2650.56
199.49	2671.89
199.565	2680.23
199.64	2702.04
199.715	2696.46
199.79	2699.75
199.865	2705.28
199.94	2702.85
200.015	2732.48
200.09	2737.58
200.165	2746.73
200.24	2754.88
200.315	2791.17
200.39	2805.75
200.464	2810.28
200.539	2812.28
200.614	2826.81
200.689	2850.78
200.764	2859.7
200.839	2875.85
200.914	2878.8
200.989	2869.51
201.063	2883.76
201.138	2869.61
201.213	2870.56
201.288	2850.08
201.363	2858.7
201.438	2858.37
201.512	2877.71
201.587	2860.79
201.662	2863.03
201.737	2873.42
201.812	2882.38
201.886	2850.23
201.961	2860.44
202.036	2848.05
202.111	2844.34
202.186	2814.38
202.26	2795.89
202.335	2774.01
202.41	2767.48
202.485	2752.1
202.559	2732.09
202.634	2705.22
202.709	2711.31
202.784	2690.26
202.858	2692.54
202.933	2673.34
203.008	2668.2
203.082	2645.33
203.157	2646.19
203.232	2606.29
203.306	2588.09
203.381	2553.55
203.456	2534.36
203.53	2509.48
203.605	2494.1
203.68	2470.14
203.754	2466.53
203.829	2451.53
203.904	2431.39
203.978	2419.62
204.053	2424.82
204.127	2411.58
204.202	2408.39
204.277	2393.92
204.351	2390.26
204.426	2382.45
204.5	2375.5
204.575	2341.57
204.65	2351.52
204.724	2341.56
204.799	2352.89
204.873	2346.65
204.948	2347.69
205.022	2333.13
205.097	2325.47
205.171	2339.79
205.246	2350.17
205.32	2347.56
205.395	2346.98
205.469	2340.37
205.544	2342.71
205.618	2325.62
205.693	2339.8
205.767	2329
205.842	2345.38
205.916	2340.09
205.991	2331
206.065	2337.43
206.14	2351.79
206.214	2349.32
206.289	2343.22
206.363	2354.5
206.438	2357.03
206.512	2366.22
206.586	2383.16
206.661	2391.44
206.735	2367.94
206.81	2368.8
206.884	2383.69
206.958	2369.32
207.033	2385.88
207.107	2394.4
207.181	2423.55
207.256	2416.93
207.33	2434.64
207.405	2444.97
207.479	2462.87
207.553	2472.11
207.628	2457.21
207.702	2468.83
207.776	2464.92
207.851	2468.63
207.925	2483.12
207.999	2479.02
208.073	2474.31
208.148	2480.88
208.222	2468.93
208.296	2499.38
208.371	2514.16
208.445	2526.25
208.519	2555.15
208.593	2569.39
208.668	2566.05
208.742	2569.91
208.816	2574.86
208.89	2589.68
208.965	2590.82
209.039	2600.31
209.113	2615.12
209.187	2635.63
209.261	2634.87
209.336	2653.93
209.41	2672.84
209.484	2673.46
209.558	2702.95
209.632	2716.33
209.707	2728.72
209.781	2752.49
209.855	2770.74
209.929	2788.96
210.003	2798.92
210.077	2802.06
210.151	2849
210.226	2890.2
210.3	2920.87
210.374	2947.94
210.448	2958.85
210.522	2975.59
210.596	2990.18
210.67	3010.34
210.744	3066.1
210.818	3103.33
210.892	3133.09
210.966	3141.91
211.041	3167.14
211.115	3171.86
211.189	3211.49
211.263	3243.26
211.337	3265.58
211.411	3298.36
211.485	3309.2
211.559	3341.45
211.633	3364.43
211.707	3355.88
211.781	3381.96
211.855	3374.47
211.929	3393.69
212.003	3402.95
212.077	3439.76
212.151	3482.44
212.225	3522.31
212.299	3541.42
212.373	3564.29
212.447	3591.9
212.52	3655.99
212.594	3695.11
212.668	3747.07
212.742	3772.54
212.816	3806.94
212.89	3841.75
212.964	3885.12
213.038	3938.18
213.112	3996.22
213.186	4061.87
213.26	4093.69
213.333	4102.01
213.407	4158.83
213.481	4219.97
213.555	4285.58
213.629	4338.5
213.703	4383.95
213.777	4439.74
213.85	4482.14
213.924	4580.41
213.998	4649.97
214.072	4711.94
214.146	4769.72
214.219	4835.32
214.293	4906.94
214.367	4980.84
214.441	5068.04
214.515	5134.02
214.588	5192.67
214.662	5239.97
214.736	5296.12
214.81	5381.33
214.883	5472.29
214.957	5543.98
215.031	5611.61
215.105	5672.13
215.178	5733.89
215.252	5811.44
215.326	5873.88
215.4	5940.01
215.473	5977.01
215.547	6045.31
215.621	6111.84
215.694	6201.16
215.768	6263.08
215.842	6331.61
215.915	6402.77
215.989	6464.42
216.063	6539.83
216.136	6623.78
216.21	6710.27
216.284	6809.99
216.357	6898.76
216.431	6979.85
216.504	7076.67
216.578	7187.3
216.652	7291.84
216.725	7388.41
216.799	7480.18
216.873	7570.84
216.946	7661.44
217.02	7748.69
217.093	7834.68
217.167	7903.63
217.24	7975.06
217.314	8061.19
217.387	8146.89
217.461	8226.41
217.535	8326.43
217.608	8400.09
217.682	8473.56
217.755	8563.5
217.829	8641.91
217.902	8726.61
217.976	8814.79
218.049	8889.21
218.123	8954.06
218.196	9035.65
218.27	9106.81
218.343	9183.56
218.417	9272.54
218.49	9358.29
218.563	9457.83
218.637	9537.58
218.71	9646.66
218.784	9736.62
218.857	9835.07
218.931	9921.09
219.004	10012.65
219.077	10102.93
219.151	10193.2
219.224	10283.86
219.298	10367.4
219.371	10456.78
219.444	10522.63
219.518	10594.28
219.591	10675.17
219.665	10781.86
219.738	10865.46
219.811	10938.6
219.885	11018.16
219.958	11098.45
220.031	11170.05
220.105	11244.46
220.178	11326.39
220.251	11388.85
220.325	11475.17
220.398	11551.18
220.471	11629.06
220.544	11705.7
220.618	11767.06
220.691	11842.49
220.764	11919.03
220.838	11999.77
220.911	12070.29
220.984	12174.11
221.057	12261.07
221.131	12337.18
221.204	12372.41
221.277	12462.36
221.35	12560.99
221.424	12630.93
221.497	12700.92
221.57	12774.34
221.643	12845.58
221.716	12920.16
221.79	12986.01
221.863	13044.1
221.936	13104.06
222.009	13170.11
222.082	13242.66
222.155	13303.2
222.229	13378.69
222.302	13442.71
222.375	13498.25
222.448	13567.52
222.521	13614.62
222.594	13669.47
222.667	13715.13
222.74	13794.52
222.814	13837.71
222.887	13887.13
222.96	13954.23
223.033	14015.98
223.106	14079.9
223.179	14141.17
223.252	14191.31
223.325	14250.02
223.398	14302.23
223.471	14355.83
223.544	14406.64
223.617	14452.68
223.69	14503.1
223.763	14540.89
223.837	14596.09
223.91	14646.65
223.983	14668.73
224.056	14706.09
224.129	14752.17
224.202	14816.67
224.275	14845.54
224.348	14881.7
224.42	14916.69
224.493	14944.36
224.566	14981.72
224.639	15027.37
224.712	15063.52
224.785	15105.84
224.858	15143.97
224.931	15180.12
225.004	15206.92
225.077	15247.12
225.15	15254.84
225.223	15297.35
225.296	15354.95
225.369	15366.33
225.442	15395.68
225.514	15441.86
225.587	15478.64
225.66	15522.4
225.733	15556.43
225.806	15600.25
225.879	15641.12
225.952	15666.28
226.025	15712.22
226.097	15764.85
226.17	15796.95
226.243	15819.56
226.316	15853.54
226.389	15889.88
226.461	15928.58
226.534	15971.24
226.607	16002.28
226.68	16067.74
226.753	16101.09
226.825	16112.22
226.898	16160.66
226.971	16186.26
227.044	16222.98
227.117	16258.75
227.189	16297.83
227.262	16337.4
227.335	16368.78
227.407	16398.47
227.48	16436.55
227.553	16465.13
227.626	16475.59
227.698	16502.38
227.771	16527.06
227.844	16545.47
227.916	16565.18
227.989	16584.46
228.062	16600.9
228.134	16648.71
228.207	16666.3
228.28	16680.18
228.352	16701.77
228.425	16723.41
228.498	16761.53
228.57	16772.81
228.643	16814.02
228.716	16823.61
228.788	16835.95
228.861	16853.34
228.934	16878.45
229.006	16900.14
229.079	16929.01
229.151	16939.9
229.224	16946.46
229.296	16970.12
229.369	17018.07
229.442	17054.56
229.514	17068.15
229.587	17102.8
229.659	17096.2
229.732	17122.41
229.804	17154.41
229.877	17195.28
229.949	17228.83
230.022	17265.45
230.094	17287.72
230.167	17299.77
230.239	17307.09
230.312	17320.63
230.384	17363.81
230.457	17383.62
230.529	17399.28
230.602	17397.12
230.674	17424.54
230.747	17450.61
230.819	17480.01
230.892	17453.02
230.964	17465.84
231.037	17488.1
231.109	17496.01
231.181	17521.21
231.254	17515.62
231.326	17522.27
231.399	17526.51
231.471	17525.69
231.544	17509.45
231.616	17526.95
231.688	17530.61
231.761	17541.26
231.833	17555.43
231.905	17533.79
231.978	17542.47
232.05	17545.79
232.122	17560.68
232.195	17557.07
232.267	17572.54
232.339	17568.83
232.412	17593.79
232.484	17598.47
232.556	17589.89
232.629	17611.53
232.701	17628.15
232.773	17639.81
232.846	17638.47
232.918	17651.38
232.99	17659.62
233.062	17673.69
233.135	17674.8
233.207	17674.13
233.279	17694.27
233.351	17691.67
233.424	17697.89
233.496	17684.63
233.568	17710.17
233.64	17697.45
233.713	17708.58
233.785	17712.25
233.857	17718.9
233.929	17705.07
234.001	17717.55
234.074	17737.11
234.146	17723.86
234.218	17712.05
234.29	17707.43
234.362	17704.01
234.434	17675.38
234.507	17649.31
234.579	17629.07
234.651	17625.16
234.723	17621.79
234.795	17612.78
234.867	17606.42
234.939	17614.9
235.012	17613.45
235.084	17607.53
235.156	17611.81
235.228	17585.31
235.3	17570.37
235.372	17566.42
235.444	17575.09
235.516	17543.77
235.588	17528.88
235.66	17521.07
235.732	17500.64
235.804	17551.24
235.876	17551.48
235.948	17561.65
236.02	17565.36
236.092	17551.67
236.164	17539.72
236.236	17526.85
236.308	17506.75
236.38	17500.34
236.452	17474.18
236.524	17475.57
236.596	17473.02
236.668	17471.09
236.74	17470.32
236.812	17458.37
236.884	17446.9
236.956	17430.22
237.028	17409.69
237.1	17386.95
237.172	17384.63
237.244	17390.42
237.316	17334.76
237.388	17308.83
237.46	17279.53
237.532	17278.95
237.604	17256.1
237.675	17258.46
237.747	17253.26
237.819	17231.09
237.891	17218.8
237.963	17197.88
238.035	17165.79
238.107	17109.4
238.178	17094.94
238.25	17075.71
238.322	17080.29
238.394	17047.62
238.466	17028.39
238.538	17024.43
238.609	17015.71
238.681	16982.41
238.753	16954.7
238.825	16929.35
238.897	16911.76
238.968	16912.58
239.04	16880.43
239.112	16892.09
239.184	16861.06
239.255	16838.65
239.327	16828.09
239.399	16799.32
239.471	16789.58
239.542	16783.22
239.614	16785.63
239.686	16747.8
239.758	16738.35
239.829	16703.46
239.901	16691.65
239.973	16670.97
240.044	16644.18
240.116	16621.33
240.188	16597.86
240.259	16574.48
240.331	16548.02
240.403	16541.23
240.474	16506.09
240.546	16476.26
240.618	16439.92
240.689	16401.99
240.761	16383.43
240.833	16376.25
240.904	16362.27
240.976	16339.33
241.048	16309.64
241.119	16296.34
241.191	16279.91
241.262	16268.63
241.334	16237.73
241.405	16209.2
241.477	16189.1
241.549	16170.06
241.62	16155.51
241.692	16137.29
241.763	16133.96
241.835	16115.41
241.906	16091.07
241.978	16050.1
242.049	16043.44
242.121	16032.89
242.192	16033.32
242.264	15987.53
242.335	15942.85
242.407	15917.55
242.478	15887.52
242.55	15866.55
242.621	15827.27
242.693	15788.66
242.764	15758.35
242.836	15732.75
242.907	15719.16
242.979	15691.88
243.05	15668.6
243.122	15644.21
243.193	15619.34
243.264	15568.97
243.336	15548.34
243.407	15528.57
243.479	15524.38
243.55	15497.2
243.622	15473
243.693	15441.57
243.764	15441.81
243.836	15415.69
243.907	15384.65
243.978	15351.19
244.05	15335.04
244.121	15297.35
244.192	15292.24
244.264	15256.38
244.335	15234.06
244.407	15189.23
244.478	15165.23
244.549	15136.6
244.62	15106.28
244.692	15081.4
244.763	15064.1
244.834	15028.33
244.906	14999.99
244.977	14981.91
245.048	14974.34
245.119	14934.24
245.191	14901.56
245.262	14850.85
245.333	14834.02
245.405	14806.6
245.476	14792.95
245.547	14769.62
245.618	14752.9
245.689	14728.94
245.761	14706.14
245.832	14682.08
245.903	14667.67
245.974	14645.64
246.045	14621.73
246.117	14609.15
246.188	14571.98
246.259	14534.1
246.33	14507.92
246.401	14473.79
246.473	14430.6
246.544	14394.83
246.615	14384.81
246.686	14356.85
246.757	14347.69
246.828	14310.38
246.899	14309.03
246.97	14274.46
247.042	14237.87
247.113	14222.54
247.184	14219.36
247.255	14193.28
247.326	14171.54
247.397	14148.84
247.468	14130.04
247.539	14101.07
247.61	14061.39
247.681	14044.86
247.752	14035.51
247.823	13995.78
247.894	13976.89
247.965	13940.64
248.037	13913.3
248.108	13881
248.179	13850.63
248.25	13826.15
248.321	13814.38
248.392	13776.44
248.463	13778.71
248.534	13760.54
248.605	13744.44
248.675	13710.21
248.746	13687.6
248.817	13672.27
248.888	13650.58
248.959	13610.47
249.03	13597.07
249.101	13571.9
249.172	13551.47
249.243	13512.56
249.314	13516.32
249.385	13497.91
249.456	13494.58
249.527	13474.77
249.598	13454.91
249.669	13441.17
249.739	13425.36
249.81	13406.46
249.881	13368.76
249.952	13334.49
250.023	13303.44
250.094	13269.02
250.165	13231.71
250.235	13203.17
250.306	13173.86
250.377	13145.9
250.448	13123.82
250.519	13087.04
250.59	13081.98
250.66	13053.15
250.731	13046.89
250.802	13019.51
250.873	13000.47
250.944	12971.3
251.014	12938.18
251.085	12938.52
251.156	12916.97
251.227	12902.75
251.297	12894.36
251.368	12891.04
251.439	12881.73
251.51	12872.48
251.58	12847.84
251.651	12828.08
251.722	12821.81
251.792	12792.07
251.863	12767.05
251.934	12759.73
252.005	12765.65
252.075	12740.54
252.146	12728.15
252.217	12718.37
252.287	12710.7
252.358	12686.5
252.429	12685.2
252.499	12660.62
252.57	12634.73
252.641	12623.55
252.711	12603.01
252.782	12571.29
252.852	12570.71
252.923	12544.39
252.994	12535.14
253.064	12521.54
253.135	12491.08
253.205	12460.86
253.276	12458.16
253.347	12454.59
253.417	12429.09
253.488	12399.2
253.558	12381.7
253.629	12363.34
253.699	12341.84
253.77	12325.64
253.841	12300.63
253.911	12288.67
253.982	12278.31
254.052	12271.99
254.123	12263.56
254.193	12240.32
254.264	12254.16
254.334	12218.2
254.405	12197.13
254.475	12156.07
254.546	12135.63
254.616	12132.83
254.687	12122.08
254.757	12107.38
254.827	12086.32
254.898	12072.87
254.968	12049.73
255.039	12023.37
255.109	12014.16
255.18	11994.69
255.25	11950.92
255.321	11940.7
255.391	11899.83
255.461	11902.24
255.532	11858.71
255.602	11830.37
255.673	11796.15
255.743	11760.62
255.813	11720.81
255.884	11706.21
255.954	11699.41
256.024	11697.29
256.095	11682.74
256.165	11656.61
256.235	11643.55
256.306	11622.1
256.376	11619.79
256.446	11620.08
256.517	11608.94
256.587	11600.94
256.657	11578.44
256.728	11575.4
256.798	11559.01
256.868	11542.48
256.938	11513.32
257.009	11506.19
257.079	11494.52
257.149	11508.79
257.219	11480.16
257.29	11476.35
257.36	11441.12
257.43	11429.08
257.5	11389.22
257.571	11365.41
257.641	11356.78
257.711	11326.18
257.781	11313.7
257.852	11292.88
257.922	11255.14
257.992	11234.51
258.062	11212.39
258.132	11205.02
258.202	11178.17
258.273	11157.02
258.343	11162.85
258.413	11133.69
258.483	11111.43
258.553	11086.56
258.623	11052.87
258.693	11037.16
258.764	11030.66
258.834	11033.93
258.904	11021.84
258.974	11002.18
259.044	10987.82
259.114	10971.29
259.184	10959.39
259.254	10940.98
259.324	10907.44
259.394	10899.39
259.464	10903.78
259.535	10884.36
259.605	10860.12
259.675	10847.06
259.745	10844.12
259.815	10815.74
259.885	10798.63
259.955	10807.55
260.025	10782.59
260.095	10772.08
260.165	10764.13
260.235	10760.23
260.305	10732.09
260.375	10703.61
260.445	10709.01
260.515	10705.25
260.585	10707.8
260.655	10690.41
260.725	10685.3
260.795	10676.48
260.865	10675.37
260.934	10646.99
261.004	10640.01
261.074	10630.32
261.144	10626.85
261.214	10616.88
261.284	10597.27
261.354	10590.86
261.424	10562.09
261.494	10571.1
261.564	10559.39
261.634	10549.75
261.703	10521.66
261.773	10518.97
261.843	10512.99
261.913	10494.01
261.983	10461.63
262.053	10452.43
262.123	10434.02
262.192	10401.84
262.262	10401.41
262.332	10375.01
262.402	10370.48
262.472	10351.59
262.541	10313.49
262.611	10310.11
262.681	10284.77
262.751	10280.15
262.821	10268.73
262.89	10246.37
262.96	10232.5
263.03	10226.57
263.1	10213.42
263.169	10196.27
263.239	10182.16
263.309	10188.37
263.379	10183.7
263.448	10173.05
263.518	10154.6
263.588	10147.71
263.657	10158.84
263.727	10147.66
263.797	10132.92
263.867	10113.02
263.936	10095.39
264.006	10101.8
264.076	10081.95
264.145	10067.64
264.215	10052.66
264.285	10046.55
264.354	10015.72
264.424	9992.31
264.494	9971.16
264.563	9949.97
264.633	9961.04
264.702	9956.9
264.772	9924.63
264.842	9900.35
264.911	9900.73
264.981	9873.47
265.05	9856.32
265.12	9834.74
265.19	9820.87
265.259	9819.81
265.329	9810.32
265.398	9798.52
265.468	9805.22
265.537	9785.61
265.607	9772.71
265.676	9762.64
265.746	9752.14
265.815	9754.21
265.885	9742.03
265.955	9714.62
266.024	9699.55
266.094	9663.91
266.163	9661.69
266.232	9663.38
266.302	9654.76
266.371	9635.06
266.441	9621.33
266.51	9620.23
266.58	9607.8
266.649	9586.51
266.719	9578.42
266.788	9571.49
266.858	9571.29
266.927	9537.53
266.996	9533.73
267.066	9531.37
267.135	9512.35
267.205	9508.3
267.274	9499.83
267.343	9498.96
267.413	9495.35
267.482	9499.34
267.552	9501.66
267.621	9475.79
267.69	9444.16
267.76	9439.05
267.829	9429.08
267.898	9423.45
267.968	9399.81
268.037	9389.94
268.106	9389.45
268.176	9363.26
268.245	9352.81
268.314	9330.03
268.384	9332.63
268.453	9323.19
268.522	9315.3
268.592	9311.49
268.661	9292.09
268.73	9284.62
268.799	9263.34
268.869	9269.7
268.938	9236.72
269.007	9216.78
269.076	9208.79
269.146	9206.38
269.215	9201.37
269.284	9212.83
269.353	9199.84
269.422	9191.27
269.492	9177.83
269.561	9140.48
269.63	9138.6
269.699	9120.83
269.768	9120.83
269.838	9110.43
269.907	9102.68
269.976	9076.49
270.045	9046.45
270.114	9039.47
270.183	9024.93
270.253	9018.48
270.322	8983.92
270.391	8977.03
270.46	8982.23
270.529	8974.24
270.598	8977.61
270.667	8956.14
270.736	8930.14
270.806	8918.54
270.875	8917.14
270.944	8908.67
271.013	8931.34
271.082	8924.17
271.151	8918.92
271.22	8892.59
271.289	8881.33
271.358	8867.46
271.427	8868.47
271.496	8867.51
271.565	8854.51
271.634	8846.52
271.703	8846.67
271.772	8852.73
271.841	8846.81
271.91	8821.3
271.979	8818.41
272.048	8791.65
272.117	8788.86
272.186	8783.61
272.255	8785.3
272.324	8785.87
272.393	8778.46
272.462	8757.52
272.531	8752.76
272.6	8738.94
272.669	8743.9
272.738	8735.38
272.807	8732.11
272.876	8712.57
272.945	8737.45
273.013	8736.78
273.082	8740.48
273.151	8729.32
273.22	8725.56
273.289	8715.41
273.358	8726.67
273.427	8716.08
273.496	8716.18
273.564	8717.53
273.633	8709.63
273.702	8693.32
273.771	8682.82
273.84	8679.94
273.909	8685.95
273.977	8683.5
274.046	8674.55
274.115	8682.39
274.184	8664.2
274.253	8655.93
274.322	8659.82
274.39	8630.32
274.459	8623.92
274.528	8596.58
274.597	8582.05
274.665	8579.11
274.734	8587.97
274.803	8577.77
274.872	8568.38
274.94	8556.4
275.009	8606.52
275.078	8596.51
275.147	8595.31
275.215	8588.04
275.284	8596.56
275.353	8585.97
275.421	8561.53
275.49	8579.24
275.559	8561.14
275.627	8557.34
275.696	8552.38
275.765	8560.13
275.833	8550.03
275.902	8545.94
275.971	8558.59
276.039	8572.74
276.108	8575
276.177	8570.62
276.245	8561.38
276.314	8560.18
276.383	8562.97
276.451	8507.74
276.52	8512.46
276.588	8523.77
276.657	8533.15
276.725	8521.08
276.794	8520.79
276.863	8534.74
276.931	8512.7
277	8519.15
277.068	8527.86
277.137	8539.89
277.205	8534.35
277.274	8551.77
277.342	8560.43
277.411	8538.26
277.48	8534.6
277.548	8514.15
277.617	8516.31
277.685	8505.15
277.754	8509.29
277.822	8506.16
277.89	8513.81
277.959	8500.24
278.027	8479.94
278.096	8461.84
278.164	8477.87
278.233	8470.12
278.301	8458.19
278.37	8462.66
278.438	8454.24
278.507	8453.66
278.575	8432.78
278.643	8428.54
278.712	8410.74
278.78	8399.05
278.849	8416.7
278.917	8422.33
278.985	8421.52
279.054	8421.52
279.122	8439.42
279.191	8437.11
279.259	8433.64
279.327	8412.18
279.396	8429.45
279.464	8431.38
279.532	8440.04
279.601	8448.56
279.669	8447.88
279.737	8458.33
279.806	8457.75
279.874	8465.69
279.942	8467.76
280.011	8457.9
280.079	8464.92
280.147	8477.29
280.215	8484.03
280.284	8472.57
280.352	8458.47
280.42	8470.84
280.488	8462.76
280.557	8456.84
280.625	8464.44
280.693	8466.32
280.761	8469.59
280.83	8452.75
280.898	8463.04
280.966	8442.31
281.034	8406.12
281.102	8385.38
281.171	8381.92
281.239	8394.48
281.307	8387.74
281.375	8379.42
281.443	8408.72
281.512	8404.29
281.58	8413.44
281.648	8391.25
281.716	8397.22
281.784	8388.66
281.852	8383.41
281.92	8379.75
281.989	8388.8
282.057	8363.97
282.125	8387.65
282.193	8386.73
282.261	8388.71
282.329	8378.8
282.397	8386.88
282.465	8383.8
282.533	8401.07
282.601	8390.58
282.67	8366.52
282.738	8351.46
282.806	8356.75
282.874	8344.29
282.942	8345.78
283.01	8333.65
283.078	8342.26
283.146	8338.9
283.214	8352.95
283.282	8356.46
283.35	8371.52
283.418	8364.88
283.486	8369.35
283.554	8339.81
283.622	8341.59
283.69	8338.89
283.758	8338.99
283.826	8345.63
283.894	8361.7
283.962	8381.72
284.03	8391.44
284.098	8397.16
284.165	8400.87
284.233	8400.77
284.301	8389.95
284.369	8383.02
284.437	8374.84
284.505	8369.93
284.573	8386.19
284.641	8375.13
284.709	8375.42
284.777	8353.43
284.845	8356.7
284.912	8361.46
284.98	8369.26
285.048	8357.37
285.116	8367.72
285.184	8378.3
285.252	8373.25
285.319	8355.4
285.387	8343.08
285.455	8330.19
285.523	8334.32
285.591	8328.07
285.659	8331.25
285.726	8347.84
285.794	8336.35
285.862	8342.22
285.93	8335.58
285.997	8329.51
286.065	8322.78
286.133	8317.58
286.201	8317.34
286.269	8300.31
286.336	8295.98
286.404	8290.06
286.472	8304.83
286.539	8282.75
286.607	8265.09
286.675	8263.02
286.743	8272.11
286.81	8265.67
286.878	8275.67
286.946	8262.44
287.013	8270
287.081	8268.46
287.149	8257.82
287.216	8272.16
287.284	8265.42
287.352	8271.39
287.419	8265.42
287.487	8284.09
287.555	8284.38
287.622	8285
287.69	8292.46
287.758	8301.07
287.825	8294.87
287.893	8281.73
287.96	8283.99
288.028	8294.19
288.096	8298.81
288.163	8301.84
288.231	8293.14
288.298	8293.71
288.366	8309.4
288.433	8299.44
288.501	8286.69
288.569	8286.07
288.636	8278.8
288.704	8286.07
288.771	8295.01
288.839	8287.22
288.906	8272.79
288.974	8284.33
289.041	8280.97
289.109	8270.72
289.176	8278.13
289.244	8282.41
289.311	8289.44
289.379	8299.97
289.446	8304.78
289.514	8304.74
289.581	8303.97
289.649	8306.47
289.716	8308.73
289.783	8306.13
289.851	8321.33
289.918	8331.63
289.986	8342.41
290.053	8349.43
290.121	8352.08
290.188	8353.33
290.255	8379.89
290.323	8383.84
290.39	8374.26
290.458	8387.59
290.525	8401.97
290.592	8395.14
290.66	8396.73
290.727	8390.95
290.794	8400.34
290.862	8394.61
290.929	8397.98
290.996	8396.15
291.064	8408.51
291.131	8418.57
291.198	8423.05
291.266	8418.62
291.333	8412.56
291.4	8414.48
291.468	8425.12
291.535	8416.17
291.602	8419.78
291.669	8413.91
291.737	8417.32
291.804	8427.53
291.871	8438.26
291.938	8446.77
292.006	8476.95
292.073	8489.13
292.14	8507.51
292.207	8505.58
292.275	8512.08
292.342	8524.4
292.409	8555.1
292.476	8575.13
292.543	8565.5
292.611	8567.47
292.678	8590.33
292.745	8617.28
292.812	8626.95
292.879	8628.06
292.946	8638.12
293.014	8648.18
293.081	8648.61
293.148	8662.42
293.215	8673.49
293.282	8668.77
293.349	8683.6
293.416	8653.23
293.484	8669.93
293.551	8678.83
293.618	8692.55
293.685	8715.17
293.752	8705.55
293.819	8697.99
293.886	8684.22
293.953	8692.21
294.02	8704.39
294.087	8715.12
294.154	8708
294.221	8720.51
294.288	8721.91
294.356	8738.51
294.423	8746.22
294.49	8740.34
294.557	8749.01
294.624	8736.69
294.691	8752.52
294.758	8748.53
294.825	8763.93
294.892	8752.18
294.959	8748.04
295.026	8752.47
295.093	8741.45
295.16	8743.32
295.226	8740.44
295.293	8759.88
295.36	8762.72
295.427	8772.49
295.494	8777.02
295.561	8783.9
295.628	8806.48
295.695	8818.04
295.762	8820.68
295.829	8827.86
295.896	8844.27
295.963	8850.81
296.03	8864.24
296.096	8869.59
296.163	8879.5
296.23	8891.92
296.297	8908.09
296.364	8908.96
296.431	8918.35
296.498	8917.29
296.564	8937.74
296.631	8941.98
296.698	8933.6
296.765	8952.76
296.832	8941.84
296.899	8927.25
296.965	8943.38
297.032	8918.58
297.099	8936.06
297.166	8943.81
297.233	8939.38
297.299	8937.69
297.366	8939.81
297.433	8937.93
297.5	8944.72
297.566	8942.27
297.633	8945.25
297.7	8942.94
297.767	8940.44
297.833	8940.78
297.9	8945.35
297.967	8934.33
298.033	8948.19
298.1	8979
298.167	8968.75
298.234	8977.03
298.3	8987.76
298.367	8979.1
298.434	8989.69
298.5	8982.52
298.567	8974.19
298.634	8968.94
298.7	8978.13
298.767	8978.71
298.834	8992.14
298.9	8984.15
298.967	8973.85
299.033	8979.29
299.1	8995.8
299.167	9005.53
299.233	8999.46
299.3	9009.76
299.366	9024.73
299.433	9027.53
299.5	8999.65
299.566	9008.75
299.633	9018.14
299.699	9026.8
299.766	9029.16
299.832	9030.85
299.899	9034.22
299.965	9048.27
300.032	9048.18
300.099	9059.49
300.165	9068.3
300.232	9063.39
300.298	9069.41
300.365	9086.55
300.431	9086.4
300.498	9075.76
300.564	9086.79
300.631	9100.36
300.697	9110.52
300.763	9108.31
300.83	9124.44
300.896	9141.82
300.963	9149.42
301.029	9154.62
301.096	9160.21
301.162	9164.78
301.229	9156.45
301.295	9144.75
301.361	9143.21
301.428	9148.03
301.494	9134.64
301.561	9131.71
301.627	9131.66
301.693	9134.88
301.76	9135.32
301.826	9129.2
301.892	9145.38
301.959	9146.68
302.025	9143.17
302.092	9137.24
302.158	9147.98
302.224	9135.89
302.291	9117.07
302.357	9113.41
302.423	9108.84
302.49	9103.54
302.556	9113.22
302.622	9113.41
302.688	9125.25
302.755	9135.89
302.821	9139.12
302.887	9146.2
302.954	9138.59
303.02	9145.38
303.086	9141.14
303.152	9137.43
303.219	9133.44
303.285	9127.9
303.351	9137.15
303.417	9137.29
303.483	9133.15
303.55	9120.2
303.616	9120.97
303.682	9122.75
303.748	9108.84
303.815	9117.79
303.881	9119.96
303.947	9112.45
304.013	9114.33
304.079	9104.22
304.145	9085.68
304.212	9087.7
304.278	9078.7
304.344	9083.03
304.41	9072.73
304.476	9065.08
304.542	9056.51
304.608	9063.39
304.674	9049
304.741	9039.94
304.807	9043.36
304.873	9040.23
304.939	9051.45
305.005	9031.28
305.071	9029.3
305.137	9039.9
305.203	9018.09
305.269	9015.97
305.335	9025.31
305.401	9022.32
305.467	9017.89
305.533	9024.97
305.599	9033.59
305.666	9041.1
305.732	9039.13
305.798	9047.26
305.864	9071.96
305.93	9081.3
305.996	9081.54
306.062	9084.76
306.128	9076.72
306.194	9061.51
306.259	9067.43
306.325	9056.55
306.391	9067.82
306.457	9075.95
306.523	9071.14
306.589	9090.3
306.655	9075.95
306.721	9054.24
306.787	9042.59
306.853	9053.18
306.919	9038.07
306.985	9022.04
307.051	9014.96
307.117	9005.52
307.183	9000.9
307.248	8975.58
307.314	8979.77
307.38	8980.87
307.446	8980.97
307.512	8977.5
307.578	8979.19
307.644	8970.38
307.709	8976.88
307.775	8972.4
307.841	8962.68
307.907	8961.19
307.973	8937.93
308.039	8938.8
308.104	8948.04
308.17	8950.45
308.236	8940.68
308.302	8944.96
308.368	8933.41
308.433	8926.76
308.499	8923.11
308.565	8907.75
308.631	8906.93
308.696	8879.21
308.762	8857.5
308.828	8852.44
308.894	8828.81
308.959	8805.56
309.025	8794.93
309.091	8780.15
309.156	8769.41
309.222	8771.24
309.288	8756.03
309.354	8740.29
309.419	8741.98
309.485	8722.29
309.551	8722.05
309.616	8704.34
309.682	8697.02
309.748	8690.19
309.813	8686.77
309.879	8675.22
309.945	8665.02
310.01	8660.69
310.076	8664.97
310.141	8664.15
310.207	8647.45
310.273	8657.89
310.338	8661.41
310.404	8642.21
310.469	8632.87
310.535	8618.86
310.601	8591.05
310.666	8594.66
310.732	8602.31
310.797	8588.93
310.863	8580.99
310.928	8574.78
310.994	8576.51
311.059	8570.25
311.125	8571.7
311.191	8575.21
311.256	8559.24
311.322	8566.89
311.387	8541.77
311.453	8923.78
311.518	8893.9
311.584	8892.7
311.649	8888.17
311.715	8886.78
311.78	8891.06
311.846	8882.69
311.911	8886.34
311.976	8894.72
312.042	8881.87
312.107	8867.05
312.173	8855.69
312.238	8847.41
312.304	8838.7
312.369	8826.96
312.434	8815.22
312.5	8800.11
312.565	8779.27
312.631	8787.93
312.696	8771.67
312.761	8777.63
312.827	8378.68
312.892	8415.74
312.958	8413.38
313.023	8412.41
313.088	8404.19
313.154	8393.27
313.219	8384.51
313.284	8371.81
313.35	8367.14
313.415	8352.22
313.48	8347.41
313.546	8349.72
313.611	8351.69
313.676	8336.92
313.741	8326.34
313.807	8333.12
313.872	8341.45
313.937	8344.14
314.003	8348.33
314.068	8353.67
314.133	8355.69
314.198	8347.13
314.264	8325.28
314.329	8313.49
314.394	8301.8
314.459	8299
314.525	8309.59
314.59	8299.44
314.655	8290.88
314.72	8290.92
314.785	8299.39
314.851	8288.95
314.916	8269.42
314.981	8257.92
315.046	8253.83
315.111	8249.02
315.176	8234.68
315.242	8234.35
315.307	8231.99
315.372	8213.71
315.437	8199.27
315.502	8185.18
315.567	8196.67
315.632	8184.7
315.698	8184.36
315.763	8178.44
315.828	8167.71
315.893	8168.92
315.958	8169.3
316.023	8159.63
316.088	8144.33
316.153	8115.91
316.218	8111.15
316.283	8094.65
316.348	8081.23
316.413	8082.43
316.479	8068.63
316.544	8036.89
316.609	8004.66
316.674	7967.92
316.739	7944.01
316.804	7915.83
316.869	7889.96
316.934	7855.18
316.999	7820.46
317.064	7772.09
317.129	7740.5
317.194	7708.04
317.259	7661.92
317.324	7611.97
317.389	7572.07
317.454	7534.71
317.518	7506.59
317.583	7488.94
317.648	7466.83
317.713	7432.02
317.778	7373.66
317.843	7344.82
317.908	7314.3
317.973	7277.49
318.038	7253.55
318.103	7213.09
318.168	7184.93
318.233	7154.46
318.297	7107.22
318.362	7080.98
318.427	7047.36
318.492	7020.73
318.557	6974.38
318.622	6948.05
318.687	6935.75
318.751	6902.42
318.816	6870.81
318.881	6843.29
318.946	6782.9
319.011	6737.66
319.075	6699.14
319.14	6669.66
319.205	6630.28
319.27	6597.15
319.335	6561.61
319.399	6518.78
319.464	6494.63
319.529	6445.76
319.594	6409.75
319.658	6383.88
319.723	6340.29
319.788	6316.1
319.853	6264.83
319.917	6240.84
319.982	6192.17
320.047	6150.98
320.112	6129.73
320.176	6085.53
320.241	6048.53
320.306	6023.25
320.37	5994.9
320.435	5969.28
320.5	5944.14
320.564	5906.67
320.629	5871.9
320.694	5841.35
320.758	5808.64
320.823	5765.62
320.888	5742.94
320.952	5700.74
321.017	5660.65
321.082	5624.5
321.146	5592.72
321.211	5557.2
321.275	5518.8
321.34	5477.58
321.405	5436.13
321.469	5387.81
321.534	5346.75
321.598	5298.26
321.663	5269.46
321.727	5237.83
321.792	5188.81
321.857	5145.64
321.921	5109.71
321.986	5066.13
322.05	5011.58
322.115	4972.74
322.179	4935.77
322.244	4882.67
322.308	4850.4
322.373	4805.4
322.437	4768.73
322.502	4744.97
322.566	4706.63
322.631	4677.19
322.695	4640.3
322.76	4598.91
322.824	4567.8
322.889	4528.82
322.953	4488.69
323.018	4425.83
323.082	4363.27
323.146	4316.46
323.211	4264.9
323.275	4223.44
323.34	4181.94
323.404	4151.64
323.468	4106.5
323.533	4062.43
323.597	4016.76
323.662	3967.62
323.726	3939.04
323.79	3898.23
323.855	3832.88
323.919	3789.73
323.983	3741.9
324.048	3679.41
324.112	3831.88
324.177	3713.68
324.241	3522.84
324.305	3337.68
324.37	3155.91
324.434	2979.73
324.498	2942.57
324.562	2898.11
324.627	2842.37
324.691	2793.63
324.755	2733.23
324.82	2668.11
324.884	2599.99
324.948	2542.14
325.012	2458.11
325.077	2342.12
