Data from 20250625_urea_1M_1_MAYP1162681_22-25-05-821.txt Node
Date: Wed Jun 25 22:25:05 BST 2025
User: adleo
Spectrometer: MAYP116268
Trigger mode: 0
Integration Time (sec): 1.000000E0
Scans to average: 1
Electric dark correction enabled: true
Nonlinearity correction enabled: true
Boxcar width: 10
XAxis mode: Wavelengths
Number of Pixels in Spectrum: 2068
>>>>>Begin Spectral Data<<<<<
179.565	1152.53
179.642	1207.81
179.718	1245.61
179.795	1287.35
179.871	1318.87
179.948	1335.91
180.024	1355.69
180.101	1379.32
180.177	1390.49
180.254	1414.41
180.33	1436.05
180.407	1486.08
180.483	1578.01
180.56	1662.67
180.636	1742.81
180.712	1732.54
180.789	1741.91
180.865	1757.63
180.942	1766.04
181.018	1776.97
181.095	1790.14
181.171	1794.8
181.248	1796.6
181.324	1814.86
181.4	1816.76
181.477	1827.22
181.553	1838.81
181.63	1858.49
181.706	1873.66
181.782	1885.49
181.859	1883.97
181.935	1891.19
182.011	1890.05
182.088	1905.17
182.164	1923.57
182.24	1936.83
182.317	1944.67
182.393	1941.49
182.469	1951.57
182.546	1964.5
182.622	1967.07
182.698	1963.98
182.775	1977.63
182.851	1989.89
182.927	1982.05
183.003	1978.2
183.08	1969.4
183.156	1980.43
183.232	1977.39
183.308	1965.22
183.385	1969.83
183.461	1986.23
183.537	1983.95
183.613	1997.74
183.69	1989.42
183.766	1979.58
183.842	1987.38
183.918	1990.89
183.995	2003.73
184.071	2009.11
184.147	2003.4
184.223	1995.37
184.299	2006.4
184.375	1993.37
184.452	1998.61
184.528	2050.93
184.604	2063.29
184.68	2076.32
184.756	2080.46
184.832	2087.73
184.908	2091.11
184.985	2092.44
185.061	2076.18
185.137	2086.45
185.213	2074.42
185.289	2076.42
185.365	2069.28
185.441	2067.05
185.517	2080.94
185.593	2076.42
185.669	2072.47
185.745	2081.7
185.822	2095.82
185.898	2087.11
185.974	2095.82
186.05	2088.82
186.126	2052.34
186.202	2042.97
186.278	2039.59
186.354	2030.22
186.43	2032.55
186.506	2032.93
186.582	2031.32
186.658	2038.5
186.734	2018.91
186.81	2017.72
186.886	2020.67
186.962	2033.08
187.038	2028.61
187.114	2020.61
187.19	2029.03
187.266	2018.57
187.341	2021.57
187.417	2015.72
187.493	2016.67
187.569	2022.19
187.645	2015.29
187.721	2002.88
187.797	2013.2
187.873	2017.81
187.949	2012.91
188.025	2007.58
188.101	2009.34
188.176	2014.95
188.252	2010.39
188.328	2016.95
188.404	2016.33
188.48	2010.86
188.556	2004.68
188.632	2006.2
188.707	2007.87
188.783	2005.73
188.859	2002.97
188.935	1988.32
189.011	1996.64
189.086	1989.61
189.162	1979.43
189.238	1978.62
189.314	1976.81
189.39	1971.11
189.465	1964.97
189.541	1983.9
189.617	1970.97
189.693	1966.4
189.768	1968.88
189.844	1992.38
189.92	1985.29
189.996	1996.04
190.071	2009.12
190.147	2008.93
190.223	2017.11
190.298	2012.02
190.374	1999.13
190.45	2010.88
190.526	2022.29
190.601	2015.16
190.677	2018.01
190.753	2044.37
190.828	2048.93
190.904	2062.44
190.98	2075.57
191.055	2085.04
191.131	2073.81
191.207	2091.59
191.282	2099.53
191.358	2089.64
191.433	2080.89
191.509	2094.72
191.585	2089.82
191.66	2087.25
191.736	2094.63
191.811	2086.63
191.887	2098.43
191.963	2120.93
192.038	2124.36
192.114	2122.5
192.189	2128.64
192.265	2123.98
192.34	2103.94
192.416	2100.14
192.491	2096.9
192.567	2101.57
192.642	2103.99
192.718	2104.66
192.793	2094.81
192.869	2089.53
192.944	2093.19
193.02	2095.38
193.095	2096.38
193.171	2102.28
193.246	2101.04
193.322	2099.09
193.397	2100.61
193.473	2092.57
193.548	2075.26
193.624	2080.25
193.699	2081.82
193.775	2095.57
193.85	2100.33
193.925	2106.37
194.001	2106.89
194.076	2098.28
194.152	2085.82
194.227	2079.3
194.302	2071.55
194.378	2073.88
194.453	2073.31
194.529	2086.25
194.604	2069.74
194.679	2067.94
194.755	2050.82
194.83	2065.76
194.905	2063.38
194.981	2069.47
195.056	2059.58
195.131	2062.91
195.207	2061.15
195.282	2048.98
195.357	2030.99
195.433	2042.74
195.508	2033.08
195.583	2044.02
195.659	2061.1
195.734	2069.81
195.809	2069.05
195.884	2076.99
195.96	2076.75
196.035	2091.3
196.11	2087.83
196.185	2102.71
196.261	2102.33
196.336	2134.87
196.411	2120.02
196.486	2122.97
196.561	2117.69
196.637	2127.96
196.712	2145.43
196.787	2150.61
196.862	2166.55
196.937	2176.87
197.013	2184.1
197.088	2193.04
197.163	2210.51
197.238	2224.56
197.313	2222.94
197.388	2237.74
197.464	2264.58
197.539	2280.57
197.614	2274.1
197.689	2285.9
197.764	2298.66
197.839	2319.02
197.914	2312.12
197.989	2334.92
198.065	2346.72
198.14	2395.39
198.215	2416.1
198.29	2426.19
198.365	2439.57
198.44	2452.85
198.515	2480.9
198.59	2495.66
198.665	2519.94
198.74	2528.94
198.815	2526.71
198.89	2551.32
198.965	2578.24
199.04	2576.76
199.115	2587.57
199.19	2628.95
199.265	2631.81
199.34	2642.14
199.415	2676.88
199.49	2698.17
199.565	2705.51
199.64	2731.8
199.715	2728.94
199.79	2738.94
199.865	2747.42
199.94	2741.95
200.015	2771.92
200.09	2775.97
200.165	2782.64
200.24	2791.03
200.315	2828.09
200.39	2847.44
200.464	2849.58
200.539	2850.91
200.614	2867.88
200.689	2890.66
200.764	2900.2
200.839	2916.35
200.914	2923.25
200.989	2909.04
201.063	2922.92
201.138	2907.34
201.213	2909.15
201.288	2891.38
201.363	2893.33
201.438	2893.05
201.512	2909.86
201.587	2894.56
201.662	2897.94
201.737	2910.57
201.812	2918.25
201.886	2886.96
201.961	2893.54
202.036	2882.25
202.111	2880.15
202.186	2850.34
202.26	2834.46
202.335	2811.91
202.41	2808.34
202.485	2794.71
202.559	2777.04
202.634	2750.83
202.709	2759.64
202.784	2738.53
202.858	2735.39
202.933	2719.57
203.008	2713.28
203.082	2694.99
203.157	2688.23
203.232	2648.42
203.306	2627.97
203.381	2596.52
203.456	2573.19
203.53	2552.93
203.605	2536.65
203.68	2514.07
203.754	2509.21
203.829	2493.92
203.904	2475.4
203.978	2462.4
204.053	2464.87
204.127	2454.07
204.202	2449.59
204.277	2436.07
204.351	2430.98
204.426	2425.07
204.5	2413.98
204.575	2379.76
204.65	2388.95
204.724	2382.86
204.799	2390.66
204.873	2384.42
204.948	2382.09
205.022	2372.38
205.097	2364.33
205.171	2376.56
205.246	2387.37
205.32	2388.71
205.395	2389.56
205.469	2380.05
205.544	2383.86
205.618	2365.15
205.693	2377.53
205.767	2367.53
205.842	2386.86
205.916	2379.96
205.991	2371.25
206.065	2378.2
206.14	2395.14
206.214	2389.56
206.289	2383.42
206.363	2392.18
206.438	2395.04
206.512	2405.75
206.586	2425.36
206.661	2431.55
206.735	2413.14
206.81	2409.85
206.884	2422.8
206.958	2408.85
207.033	2425.94
207.107	2432.6
207.181	2464.37
207.256	2456.13
207.33	2473.55
207.405	2483.99
207.479	2506.94
207.553	2516.84
207.628	2504.47
207.702	2515.94
207.776	2511.66
207.851	2517.28
207.925	2533.09
207.999	2531.09
208.073	2524.85
208.148	2526.04
208.222	2515.95
208.296	2544.98
208.371	2562.81
208.445	2573.9
208.519	2602.9
208.593	2615.33
208.668	2616.19
208.742	2618.48
208.816	2622.14
208.89	2639.44
208.965	2639.77
209.039	2646.63
209.113	2664.26
209.187	2687.63
209.261	2685.63
209.336	2708.31
209.41	2731.94
209.484	2737.47
209.558	2765.25
209.632	2783.69
209.707	2803.85
209.781	2833.2
209.855	2857.85
209.929	2883.94
210.003	2896.91
210.077	2908.35
210.151	2965.32
210.226	3009.34
210.3	3050.34
210.374	3092.57
210.448	3115.8
210.522	3147
210.596	3174.95
210.67	3209.35
210.744	3282.13
210.818	3343.99
210.892	3394.1
210.966	3420.54
211.041	3470.42
211.115	3503.49
211.189	3570.95
211.263	3626.91
211.337	3676.38
211.411	3737.15
211.485	3779.06
211.559	3846.35
211.633	3908.72
211.707	3936.16
211.781	4007.05
211.855	4040.99
211.929	4100.3
212.003	4153.58
212.077	4236.34
212.151	4330.25
212.225	4421.01
212.299	4494.18
212.373	4569.83
212.447	4656.53
212.52	4781.16
212.594	4884.8
212.668	5002.32
212.742	5093.01
212.816	5200.58
212.89	5318.13
212.964	5431.04
213.038	5560.76
213.112	5701.14
213.186	5844.87
213.26	5965.71
213.333	6058.36
213.407	6205.54
213.481	6353.57
213.555	6510.52
213.629	6648.69
213.703	6787.12
213.777	6943.99
213.85	7089.06
213.924	7291.75
213.998	7459.37
214.072	7619.79
214.146	7780.1
214.219	7951.41
214.293	8124.25
214.367	8307.16
214.441	8485.95
214.515	8662.08
214.588	8818.2
214.662	8972.38
214.736	9136.82
214.81	9330.89
214.883	9530.52
214.957	9710.37
215.031	9893.74
215.105	10069.22
215.178	10250.96
215.252	10442.39
215.326	10609.61
215.4	10778.91
215.473	10914.8
215.547	11088.47
215.621	11266.15
215.694	11462.82
215.768	11624.03
215.842	11802.88
215.915	11971.43
215.989	12143.31
216.063	12317.55
216.136	12501.63
216.21	12678.48
216.284	12862.95
216.357	13042.8
216.431	13220.91
216.504	13407.36
216.578	13607.89
216.652	13793.62
216.725	13977.23
216.799	14160.31
216.873	14329.56
216.946	14501.89
217.02	14677.16
217.093	14846.98
217.167	14999.45
217.24	15144.15
217.314	15311.51
217.387	15462.91
217.461	15623.47
217.535	15787.49
217.608	15932.43
217.682	16095.05
217.755	16261.72
217.829	16410.27
217.902	16553.66
217.976	16696.42
218.049	16840.86
218.123	16962.89
218.196	17096.15
218.27	17225.5
218.343	17341.98
218.417	17474.61
218.49	17611.43
218.563	17744.64
218.637	17876.25
218.71	18016.01
218.784	18147.86
218.857	18278.36
218.931	18407.51
219.004	18528.91
219.077	18645.29
219.151	18762.53
219.224	18865.47
219.298	18974.67
219.371	19088.83
219.444	19191.04
219.518	19292.63
219.591	19385.39
219.665	19516.57
219.738	19627.89
219.811	19710.15
219.885	19814.73
219.958	19924.7
220.031	20012.89
220.105	20108.31
220.178	20186.67
220.251	20267.82
220.325	20353.12
220.398	20437.8
220.471	20523.53
220.544	20598.57
220.618	20665.56
220.691	20751.59
220.764	20819.88
220.838	20883.49
220.911	20950.1
220.984	21036.85
221.057	21114.26
221.131	21179.61
221.204	21210.84
221.277	21287.19
221.35	21379.2
221.424	21418.48
221.497	21465.33
221.57	21524.71
221.643	21590.55
221.716	21651.58
221.79	21704.21
221.863	21753.14
221.936	21797.92
222.009	21832.77
222.082	21884.97
222.155	21933.85
222.229	21985.19
222.302	22040.09
222.375	22068.91
222.448	22108.87
222.521	22133.07
222.594	22171.59
222.667	22192.17
222.74	22230.59
222.814	22261.64
222.887	22292.83
222.96	22335.93
223.033	22376.13
223.106	22402.26
223.179	22421.31
223.252	22450.33
223.325	22470.24
223.398	22489.96
223.471	22507.94
223.544	22538.94
223.617	22553.16
223.69	22566.46
223.763	22568.34
223.837	22578.42
223.91	22616.99
223.983	22608.36
224.056	22607.15
224.129	22604.89
224.202	22624.99
224.275	22629.76
224.348	22620.17
224.42	22597.07
224.493	22596.25
224.566	22601.75
224.639	22615.59
224.712	22618.29
224.785	22612.26
224.858	22616.65
224.931	22606.67
225.004	22598.81
225.077	22596.4
225.15	22570.75
225.223	22577.98
225.296	22604.26
225.369	22592.16
225.442	22576.54
225.514	22580.69
225.587	22585.27
225.66	22587.34
225.733	22588.59
225.806	22582.95
225.879	22567.33
225.952	22561.4
226.025	22568.87
226.097	22566.66
226.17	22551.81
226.243	22519.51
226.316	22507.26
226.389	22490.87
226.461	22493.28
226.534	22496.56
226.607	22483.45
226.68	22498.78
226.753	22481.23
226.825	22436.87
226.898	22445.26
226.971	22437.35
227.044	22436.68
227.117	22420
227.189	22419.81
227.262	22415.47
227.335	22408.28
227.407	22394.79
227.48	22383.8
227.553	22366.2
227.626	22336.12
227.698	22329.7
227.771	22323.2
227.844	22302.52
227.916	22287.96
227.989	22257.78
228.062	22232.66
228.134	22239.37
228.207	22228.95
228.28	22206.2
228.352	22196.12
228.425	22175.06
228.498	22167.68
228.57	22142.86
228.643	22143.72
228.716	22115.52
228.788	22091.52
228.861	22064.76
228.934	22062.11
229.006	22044.71
229.079	22010.63
229.151	21990.24
229.224	21950.52
229.296	21928.73
229.369	21962.67
229.442	21954.28
229.514	21938.57
229.587	21935.48
229.659	21894.37
229.732	21874.75
229.804	21871.52
229.877	21873.3
229.949	21861.97
230.022	21850.69
230.094	21839.8
230.167	21824.61
230.239	21793.57
230.312	21769.91
230.384	21772.94
230.457	21763.69
230.529	21751.01
230.602	21743.54
230.674	21739.06
230.747	21728.79
230.819	21723.1
230.892	21641.83
230.964	21621.93
231.037	21600.19
231.109	21575.22
231.181	21556.86
231.254	21513.72
231.326	21482.2
231.399	21449.27
231.471	21413.12
231.544	21370.76
231.616	21353.31
231.688	21329.4
231.761	21302.85
231.833	21273.3
231.905	21228.04
231.978	21192.71
232.05	21153.48
232.122	21133.62
232.195	21094.39
232.267	21096.46
232.339	21064.27
232.412	21063.35
232.484	21026.05
232.556	20992.7
232.629	20988.94
232.701	20972.89
232.773	20952.79
232.846	20929.13
232.918	20899.63
232.99	20877.65
233.062	20864.01
233.135	20826.52
233.207	20785.17
233.279	20773.36
233.351	20756.78
233.424	20723.14
233.496	20685.07
233.568	20685.07
233.64	20638.95
233.713	20609.12
233.785	20578.66
233.857	20555.52
233.929	20515.81
234.001	20513.84
234.074	20512.29
234.146	20455.09
234.218	20416.87
234.29	20387.62
234.362	20344.58
234.434	20307.48
234.507	20268.01
234.579	20221.84
234.651	20189.69
234.723	20163.38
234.795	20125.17
234.867	20089.6
234.939	20076.15
235.012	20048.2
235.084	20022.66
235.156	20005.51
235.228	19973.22
235.3	19921.7
235.372	19893.36
235.444	19871.05
235.516	19811.1
235.588	19767.78
235.66	19738.19
235.732	19704.7
235.804	19736.89
235.876	19721.76
235.948	19706.67
236.02	19681.66
236.092	19645.33
236.164	19617.67
236.236	19590.15
236.308	19563.31
236.38	19547.26
236.452	19508.03
236.524	19480.9
236.596	19461.58
236.668	19437.82
236.74	19412.52
236.812	19393.73
236.884	19368.28
236.956	19332.04
237.028	19300.34
237.1	19263.18
237.172	19252.1
237.244	19240.97
237.316	19160.39
237.388	19119.91
237.46	19079.91
237.532	19062.52
237.604	19032.69
237.675	19016.83
237.747	18989.03
237.819	18945.99
237.891	18904.55
237.963	18866.05
238.035	18833.66
238.107	18767.74
238.178	18751.79
238.25	18717.43
238.322	18703.21
238.394	18653.24
238.466	18618.45
238.538	18596.47
238.609	18579.27
238.681	18521.97
238.753	18479.56
238.825	18456.67
238.897	18436.87
238.968	18423.38
239.04	18380.82
239.112	18371.72
239.184	18333.89
239.255	18302.37
239.327	18289.02
239.399	18255.77
239.471	18231.63
239.542	18208.49
239.614	18190.62
239.686	18123.53
239.758	18102.19
239.829	18054.53
239.901	18038.96
239.973	18007.78
240.044	17976.07
240.116	17944.79
240.188	17919.01
240.259	17891.06
240.331	17853.42
240.403	17816.22
240.474	17760.8
240.546	17717.81
240.618	17671.11
240.689	17630.39
240.761	17595.36
240.833	17569.77
240.904	17530.34
240.976	17496.13
241.048	17458.06
241.119	17432.66
241.191	17409.48
241.262	17396.08
241.334	17363.65
241.405	17327.31
241.477	17294.15
241.549	17258.54
241.62	17226.3
241.692	17202.63
241.763	17176.66
241.835	17136.32
241.906	17113.14
241.978	17076.61
242.049	17065.81
242.121	17046.2
242.192	17035.98
242.264	16993.42
242.335	16946.38
242.407	16933.27
242.478	16905.32
242.55	16878.14
242.621	16841.46
242.693	16812.93
242.764	16774.18
242.836	16731.58
242.907	16705.36
242.979	16682.47
243.05	16657.16
243.122	16619.96
243.193	16586.32
243.264	16540.34
243.336	16513.78
243.407	16486.5
243.479	16479.61
243.55	16443.85
243.622	16414.26
243.693	16378.64
243.764	16365.72
243.836	16328.7
243.907	16291.98
243.978	16263.11
244.05	16240.55
244.121	16202.14
244.192	16176.5
244.264	16133.07
244.335	16114.42
244.407	16072.87
244.478	16045.06
244.549	16015.75
244.62	15981.82
244.692	15947.26
244.763	15922.73
244.834	15893.95
244.906	15857.27
244.977	15825.13
245.048	15813.66
245.119	15775.19
245.191	15734.32
245.262	15684.09
245.333	15674.45
245.405	15650.21
245.476	15627.12
245.547	15602.39
245.618	15576.9
245.689	15550.14
245.761	15523.97
245.832	15486.95
245.903	15480.64
245.974	15454.56
246.045	15415.95
246.117	15412.91
246.188	15379.56
246.259	15343.7
246.33	15311.69
246.401	15286.29
246.473	15239.77
246.544	15201.89
246.615	15177.79
246.686	15144.14
246.757	15133.25
246.828	15086.63
246.899	15070.24
246.97	15024.35
247.042	14992.64
247.113	14972.44
247.184	14970.95
247.255	14944.92
247.326	14923.37
247.397	14884.9
247.468	14861.67
247.539	14850
247.61	14801.27
247.681	14785.12
247.752	14770.42
247.823	14734.51
247.894	14709.49
247.965	14683.02
248.037	14651.26
248.108	14617.56
248.179	14593.03
248.25	14569.89
248.321	14552.24
248.392	14515.42
248.463	14516.62
248.534	14482.83
248.605	14470.01
248.675	14430.67
248.746	14403.29
248.817	14383.82
248.888	14362.03
248.959	14316.96
249.03	14289.48
249.101	14265.76
249.172	14234.72
249.243	14198.13
249.314	14193.07
249.385	14172.97
249.456	14160.24
249.527	14142.69
249.598	14119.41
249.669	14099.11
249.739	14075.97
249.81	14065.95
249.881	14035.29
249.952	14002.89
250.023	13977.97
250.094	13936.27
250.165	13907.88
250.235	13886.91
250.306	13867.63
250.377	13834.9
250.448	13826.75
250.519	13789.1
250.59	13782.45
250.66	13757.81
250.731	13745.28
250.802	13727.2
250.873	13705.85
250.944	13680.39
251.014	13641.59
251.085	13651.9
251.156	13636.57
251.227	13627.37
251.297	13614.45
251.368	13601.19
251.439	13591.12
251.51	13582.39
251.58	13548.69
251.651	13527.92
251.722	13511.62
251.792	13470.65
251.863	13447.12
251.934	13434.11
252.005	13439.02
252.075	13418.63
252.146	13407.45
252.217	13400.6
252.287	13386.82
252.358	13362.76
252.429	13357.07
252.499	13344.73
252.57	13318.12
252.641	13303.71
252.711	13278.45
252.782	13236.65
252.852	13236.56
252.923	13216.6
252.994	13201.41
253.064	13192.93
253.135	13158.56
253.205	13133.35
253.276	13130.36
253.347	13125.44
253.417	13102.4
253.488	13082.15
253.558	13060.12
253.629	13041.75
253.699	13023.82
253.77	13004.73
253.841	12981.3
253.911	12963.66
253.982	12937.39
254.052	12923.7
254.123	12906.97
254.193	12887.4
254.264	12909.62
254.334	12878
254.405	12842.23
254.475	12810.75
254.546	12797.35
254.616	12797.01
254.687	12787.95
254.757	12778.21
254.827	12758.59
254.898	12741.87
254.968	12716.75
255.039	12683.44
255.109	12675.63
255.18	12639.82
255.25	12593.06
255.321	12577.83
255.391	12545
255.461	12550.93
255.532	12511.11
255.602	12486.14
255.673	12452.35
255.743	12426.32
255.813	12381.2
255.884	12376.86
255.954	12365.53
256.024	12359.36
256.095	12336.9
256.165	12300.17
256.235	12278.81
256.306	12253.22
256.376	12244.06
256.446	12238.56
256.517	12230.56
256.587	12217.98
256.657	12209.4
256.728	12205.5
256.798	12192.58
256.868	12172.43
256.938	12145.2
257.009	12138.83
257.079	12128.86
257.149	12138.11
257.219	12091.55
257.29	12085.71
257.36	12049.71
257.43	12040.6
257.5	12004.35
257.571	11987.05
257.641	11985.07
257.711	11956.05
257.781	11945.79
257.852	11931.9
257.922	11893.92
257.992	11878.5
258.062	11853.58
258.132	11849.19
258.202	11822.78
258.273	11807.02
258.343	11806.97
258.413	11778.58
258.483	11756.65
258.553	11733.46
258.623	11701.56
258.693	11693.22
258.764	11688.98
258.834	11686.9
258.904	11665.55
258.974	11635.72
259.044	11610.17
259.114	11595.38
259.184	11583.86
259.254	11562.99
259.324	11523.51
259.394	11514.69
259.464	11514.74
259.535	11496.52
259.605	11466.16
259.675	11440.14
259.745	11419.41
259.815	11393.48
259.885	11372.66
259.955	11384.71
260.025	11357.24
260.095	11339.51
260.165	11329.1
260.235	11327.26
260.305	11309.67
260.375	11289.72
260.445	11301.09
260.515	11295.12
260.585	11289.67
260.655	11274.73
260.725	11278.39
260.795	11275.07
260.865	11273.91
260.934	11243.4
261.004	11232.8
261.074	11211.74
261.144	11215.5
261.214	11213.48
261.284	11197
261.354	11189.09
261.424	11155.45
261.494	11155.74
261.564	11138.82
261.634	11125.52
261.703	11094.87
261.773	11082.49
261.843	11070.54
261.913	11050.97
261.983	11030.35
262.053	11019.98
262.123	11010.88
262.192	10969.53
262.262	10959.6
262.332	10926.64
262.402	10917.92
262.472	10903.37
262.541	10873.3
262.611	10871.81
262.681	10849.3
262.751	10843.28
262.821	10831.42
262.89	10806.8
262.96	10800.39
263.03	10809.74
263.1	10805.69
263.169	10790.75
263.239	10773.55
263.309	10770.27
263.379	10760.4
263.448	10744.45
263.518	10733.07
263.588	10715
263.657	10728.01
263.727	10722.76
263.797	10709.9
263.867	10692.17
263.936	10667.35
264.006	10668.84
264.076	10648.12
264.145	10633.57
264.215	10606.4
264.285	10597.39
264.354	10569.54
264.424	10554.27
264.494	10529.79
264.563	10504.97
264.633	10509.74
264.702	10500.11
264.772	10475.68
264.842	10458.81
264.911	10454.62
264.981	10425.42
265.05	10404.42
265.12	10383.22
265.19	10373.87
265.259	10369.97
265.329	10363.27
265.398	10350.7
265.468	10362.07
265.537	10344.67
265.607	10334.8
265.676	10331.23
265.746	10325.79
265.815	10325.55
265.885	10306.9
265.955	10274.92
266.024	10264.17
266.094	10229
266.163	10232.09
266.232	10231.75
266.302	10221.92
266.371	10206.22
266.441	10185.41
266.51	10183.33
266.58	10160.6
266.649	10134.34
266.719	10137.09
266.788	10129.71
266.858	10135.64
266.927	10098.79
266.996	10090.12
267.066	10080.43
267.135	10053.99
267.205	10047.15
267.274	10038
267.343	10036.02
267.413	10030.53
267.482	10025.13
267.552	10023.59
267.621	9993.63
267.69	9963.43
267.76	9948.21
267.829	9942.43
267.898	9935.73
267.968	9911.31
268.037	9905.58
268.106	9903.17
268.176	9871.67
268.245	9856.88
268.314	9836.21
268.384	9837.37
268.453	9822.97
268.522	9814.63
268.592	9818.25
268.661	9797
268.73	9785.16
268.799	9757.08
268.869	9764.54
268.938	9734.53
269.007	9719.41
269.076	9710.07
269.146	9708.96
269.215	9699.57
269.284	9702.03
269.353	9692.06
269.422	9678.62
269.492	9666.53
269.561	9621.36
269.63	9618.86
269.699	9605.61
269.768	9599.69
269.838	9589.86
269.907	9590.83
269.976	9564.87
270.045	9534.34
270.114	9525.38
270.183	9511.13
270.253	9507.71
270.322	9475.54
270.391	9463.84
270.46	9469.76
270.529	9468.6
270.598	9469.62
270.667	9457.43
270.736	9433.01
270.806	9418.71
270.875	9422.71
270.944	9411.15
271.013	9435.08
271.082	9427.04
271.151	9423
271.22	9389.67
271.289	9378.36
271.358	9358.9
271.427	9352.84
271.496	9350.14
271.565	9333.24
271.634	9325.39
271.703	9355.83
271.772	9359.78
271.841	9357.61
271.91	9327.76
271.979	9317.07
272.048	9293.28
272.117	9292.94
272.186	9284.47
272.255	9292.46
272.324	9293.04
272.393	9288.37
272.462	9278.88
272.531	9270.65
272.6	9252.88
272.669	9260.29
272.738	9245.37
272.807	9238.58
272.876	9219.75
272.945	9241.28
273.013	9246.04
273.082	9244.55
273.151	9192.21
273.22	9181.76
273.289	9169.67
273.358	9184.31
273.427	9172.8
273.496	9169.1
273.564	9160.96
273.633	9156.82
273.702	9134.82
273.771	9119.79
273.84	9113.29
273.909	9103.52
273.977	9096.25
274.046	9089.8
274.115	9095.91
274.184	9086.24
274.253	9083.3
274.322	9093.6
274.39	9066.21
274.459	9044.83
274.528	9022.59
274.597	9019.17
274.665	9014.7
274.734	9022.49
274.803	9010.79
274.872	9005.69
274.94	8993.7
275.009	9049.77
275.078	9032.29
275.147	9027.24
275.215	9022.47
275.284	9030.75
275.353	9022.66
275.421	8996
275.49	9007.55
275.559	8989.98
275.627	8980.35
275.696	8971.98
275.765	8973.08
275.833	8961.48
275.902	8963.41
275.971	8973.47
276.039	8989.26
276.108	8990.22
276.177	8984.59
276.245	8967.5
276.314	8962.4
276.383	8962.88
276.451	8899.45
276.52	8903.83
276.588	8921.02
276.657	8921.64
276.725	8908.94
276.794	8904.51
276.863	8921.88
276.931	8897.33
277	8902.96
277.068	8911
277.137	8923.23
277.205	8916.3
277.274	8931.36
277.342	8947.25
277.411	8925.59
277.48	8914.66
277.548	8907.15
277.617	8909.9
277.685	8901.52
277.754	8906.72
277.822	8901.09
277.89	8908.55
277.959	8902.01
278.027	8880.34
278.096	8875.82
278.164	8895.6
278.233	8892.23
278.301	8877.65
278.37	8881.84
278.438	8874.14
278.507	8879.53
278.575	8857.72
278.643	8852.86
278.712	8838.76
278.78	8819.79
278.849	8835.29
278.917	8836.78
278.985	8835.09
279.054	8829.03
279.122	8841.54
279.191	8832.64
279.259	8826.14
279.327	8809.82
279.396	8826.62
279.464	8818.58
279.532	8816.9
279.601	8815.69
279.669	8807.85
279.737	8818.49
279.806	8819.98
279.874	8826.48
279.942	8825.08
280.011	8821.52
280.079	8825.27
280.147	8837.55
280.215	8841.3
280.284	8833.5
280.352	8820.56
280.42	8825.23
280.488	8820.6
280.557	8802.22
280.625	8799.91
280.693	8803.81
280.761	8796.88
280.83	8775.74
280.898	8786.43
280.966	8768.53
281.034	8734.68
281.102	8724.72
281.171	8720.92
281.239	8731.27
281.307	8726.12
281.375	8713.03
281.443	8736.71
281.512	8737.48
281.58	8741.24
281.648	8728.1
281.716	8726.75
281.784	8719.72
281.852	8709.18
281.92	8703.31
281.989	8723.52
282.057	8710.34
282.125	8733.93
282.193	8740.81
282.261	8744.51
282.329	8740.71
282.397	8751.88
282.465	8752.79
282.533	8762.08
282.601	8745.23
282.67	8722.32
282.738	8710.91
282.806	8716.88
282.874	8699.6
282.942	8701.09
283.01	8693.25
283.078	8697.87
283.146	8690.7
283.214	8707.5
283.282	8716.16
283.35	8733.49
283.418	8723.04
283.486	8734.16
283.554	8705.13
283.622	8705.23
283.69	8700.75
283.758	8693.1
283.826	8690.69
283.894	8703.21
283.962	8722.9
284.03	8741.18
284.098	8741.38
284.165	8733.1
284.233	8736.47
284.301	8729.78
284.369	8717.26
284.437	8709.18
284.505	8697.29
284.573	8717.26
284.641	8699.99
284.709	8700.18
284.777	8680.83
284.845	8693.01
284.912	8693.97
284.98	8698.4
285.048	8684.39
285.116	8688.77
285.184	8701.81
285.252	8703.07
285.319	8680.78
285.387	8672.45
285.455	8655.95
285.523	8656.96
285.591	8652
285.659	8651.42
285.726	8663.46
285.794	8648.73
285.862	8651.23
285.93	8650.9
285.997	8639.01
286.065	8634.34
286.133	8627.12
286.201	8625.97
286.269	8604.31
286.336	8597.76
286.404	8588.91
286.472	8600.36
286.539	8574.57
286.607	8551.13
286.675	8551.66
286.743	8567.25
286.81	8559.26
286.878	8570.57
286.946	8565.37
287.013	8566.53
287.081	8563.06
287.149	8547.42
287.216	8569.46
287.284	8560.94
287.352	8564.79
287.419	8562.44
287.487	8580.77
287.555	8582.22
287.622	8580.68
287.69	8591.79
287.758	8598.87
287.825	8594.01
287.893	8581.54
287.96	8593.14
288.028	8606.76
288.096	8610.27
288.163	8605.8
288.231	8596.55
288.298	8594
288.366	8606.9
288.433	8601.85
288.501	8593.67
288.569	8592.85
288.636	8586.31
288.704	8596.51
288.771	8604.11
288.839	8602.48
288.906	8589.91
288.974	8602.09
289.041	8596.99
289.109	8582.27
289.176	8586.89
289.244	8596.27
289.311	8611.24
289.379	8623.56
289.446	8622.79
289.514	8619.56
289.581	8621.82
289.649	8623.41
289.716	8627.5
289.783	8613.26
289.851	8630.77
289.918	8628.13
289.986	8641.41
290.053	8642.08
290.121	8641.99
290.188	8644.59
290.255	8667.21
290.323	8665.04
290.39	8653.97
290.458	8658.4
290.525	8670.77
290.592	8663.4
290.66	8661.38
290.727	8651.42
290.794	8657.58
290.862	8658.3
290.929	8659.79
290.996	8658.73
291.064	8663.07
291.131	8670.57
291.198	8691.27
291.266	8688.05
291.333	8693.24
291.4	8695.22
291.468	8709.56
291.535	8705.32
291.602	8703.88
291.669	8693.92
291.737	8698.63
291.804	8697.38
291.871	8712.21
291.938	8724.09
292.006	8751.15
292.073	8764.67
292.14	8777.48
292.207	8771.12
292.275	8776.13
292.342	8784.36
292.409	8807.7
292.476	8832.78
292.543	8821.04
292.611	8817.24
292.678	8837.07
292.745	8854.49
292.812	8868.93
292.879	8863.73
292.946	8863.06
293.014	8875.58
293.081	8878.27
293.148	8886.93
293.215	8903.78
293.282	8903.59
293.349	8911.77
293.416	8891.51
293.484	8905.32
293.551	8913.12
293.618	8928.86
293.685	8950.14
293.752	8938.64
293.819	8932.62
293.886	8919.09
293.953	8928.14
294.02	8937.33
294.087	8943.74
294.154	8937.91
294.221	8944.51
294.288	8948.12
294.356	8968.72
294.423	8974.88
294.49	8968.34
294.557	8981.09
294.624	8969.3
294.691	8982.35
294.758	8979.6
294.825	8989.47
294.892	8981.19
294.959	8978.06
295.026	8982.49
295.093	8972.14
295.16	8977.38
295.226	8983.07
295.293	9001.26
295.36	9006.37
295.427	9014.74
295.494	9023.02
295.561	9033.09
295.628	9055.82
295.695	9071.37
295.762	9072.71
295.829	9080.42
295.896	9106.12
295.963	9114.12
296.03	9124.66
296.096	9125.04
296.163	9140.11
296.23	9151.19
296.297	9152.34
296.364	9148.73
296.431	9150.71
296.498	9149.26
296.564	9170.59
296.631	9168.42
296.698	9157.69
296.765	9172.71
296.832	9164.23
296.899	9149.31
296.965	9166.02
297.032	9147.09
297.099	9161.1
297.166	9171.94
297.233	9169.77
297.299	9153.79
297.366	9153.16
297.433	9158.41
297.5	9169.38
297.566	9163.7
297.633	9164.81
297.7	9174.49
297.767	9176.56
297.833	9184.12
297.9	9185.99
297.967	9169.1
298.033	9179.21
298.1	9203.52
298.167	9196.21
298.234	9197.89
298.3	9207.42
298.367	9202.17
298.434	9204.05
298.5	9190.38
298.567	9176.46
298.634	9169.91
298.7	9185.8
298.767	9179.73
298.834	9182.82
298.9	9172.18
298.967	9165.29
299.033	9172.22
299.1	9182.67
299.167	9196.15
299.233	9186.76
299.3	9200.15
299.366	9216.37
299.433	9235.25
299.5	9208.91
299.566	9213.87
299.633	9230.77
299.699	9239.87
299.766	9229.62
299.832	9233.81
299.899	9245.89
299.965	9255.43
300.032	9254.51
300.099	9259.57
300.165	9264.14
300.232	9263.85
300.298	9265.68
300.365	9279.55
300.431	9283.88
300.498	9278.15
300.564	9279.69
300.631	9294.96
300.697	9305.02
300.763	9305.94
300.83	9300.4
300.896	9314.26
300.963	9325.29
301.029	9329.77
301.096	9333.67
301.162	9347.58
301.229	9343.15
301.295	9322.26
301.361	9332.13
301.428	9331.65
301.494	9315.85
301.561	9323.85
301.627	9325.68
301.693	9332.75
301.76	9332.22
301.826	9324.66
301.892	9337.38
301.959	9345.47
302.025	9338.68
302.092	9329.09
302.158	9333.23
302.224	9329.57
302.291	9317.01
302.357	9308.24
302.423	9293.7
302.49	9279.31
302.556	9287.49
302.622	9282.87
302.688	9297.7
302.755	9299.29
302.821	9304.34
302.887	9313.83
302.954	9309.4
303.02	9319.41
303.086	9319.8
303.152	9312.38
303.219	9306.89
303.285	9306.75
303.351	9311.23
303.417	9309.01
303.483	9302.9
303.55	9295.53
303.616	9290.48
303.682	9294.33
303.748	9288.98
303.815	9305.79
303.881	9316.24
303.947	9301.94
304.013	9304.44
304.079	9297.89
304.145	9280.22
304.212	9282.92
304.278	9276.08
304.344	9268.28
304.41	9247.48
304.476	9235.3
304.542	9232.89
304.608	9235.54
304.674	9217.72
304.741	9208.96
304.807	9208.91
304.873	9207.95
304.939	9220.18
305.005	9201.11
305.071	9196.78
305.137	9198.12
305.203	9170.73
305.269	9171.4
305.335	9179.78
305.401	9173.04
305.467	9168.13
305.533	9176.89
305.599	9181.56
305.666	9191.62
305.732	9192.73
305.798	9204.48
305.864	9224.94
305.93	9228.7
305.996	9228.7
306.062	9223.74
306.128	9224.65
306.194	9211.7
306.259	9216.71
306.325	9209.01
306.391	9216.52
306.457	9225.47
306.523	9228.79
306.589	9250.32
306.655	9237.99
306.721	9218.97
306.787	9206.26
306.853	9216.47
306.919	9199.14
306.985	9186.67
307.051	9174.05
307.117	9166.98
307.183	9158.98
307.248	9134.28
307.314	9137.37
307.38	9134.43
307.446	9142.56
307.512	9123.55
307.578	9128.51
307.644	9118.92
307.709	9118.68
307.775	9116.08
307.841	9107.71
307.907	9098.56
307.973	9075.88
308.039	9078.34
308.104	9085.41
308.17	9083.58
308.236	9065.1
308.302	9067.98
308.368	9056.82
308.433	9056.48
308.499	9050.46
308.565	9033.18
308.631	9034.62
308.696	9006.37
308.762	8995.68
308.828	8988.55
308.894	8973.78
308.959	8952.69
309.025	8941.86
309.091	8939.16
309.156	8928.19
309.222	8934.83
309.288	8923.62
309.354	8907.59
309.419	8910.43
309.485	8888
309.551	8894.64
309.616	8878.08
309.682	8873.6
309.748	8865.47
309.813	8853.92
309.879	8846.55
309.945	8843.47
310.01	8835.1
310.076	8834.76
310.141	8822.87
310.207	8811.12
310.273	8809.92
310.338	8814.54
310.404	8797.41
310.469	8781.67
310.535	8772.47
310.601	8740.94
310.666	8742.15
310.732	8750.96
310.797	8733.14
310.863	8728.67
310.928	8713.12
310.994	8719.38
311.059	8707.78
311.125	8699.4
311.191	8711.44
311.256	8702.87
311.322	8703.3
311.387	8683.52
311.453	8941.56
311.518	8915.48
311.584	8910.04
311.649	8918.08
311.715	8908.17
311.78	8910.09
311.846	8894.54
311.911	8899.21
311.976	8899.26
312.042	8880.06
312.107	8859.89
312.173	8847.77
312.238	8835.83
312.304	8835.64
312.369	8824.14
312.434	8815.19
312.5	8813.02
312.565	8776.3
312.631	8772.88
312.696	8764.65
312.761	8769.03
312.827	8502.33
312.892	8533.42
312.958	8524.71
313.023	8518.69
313.088	8511.38
313.154	8492.9
313.219	8480.82
313.284	8470.96
313.35	8472.69
313.415	8466.34
313.48	8464.32
313.546	8464.22
313.611	8477.93
313.676	8463.11
313.741	8459.74
313.807	8464.22
313.872	8465.09
313.937	8470.38
314.003	8477.55
314.068	8474.81
314.133	8471.1
314.198	8460.66
314.264	8442.47
314.329	8434.14
314.394	8427.07
314.459	8427.64
314.525	8444.48
314.59	8450.45
314.655	8434.72
314.72	8433.9
314.785	8436.06
314.851	8427.88
314.916	8406.04
314.981	8388.14
315.046	8379.53
315.111	8358.31
315.176	8348.3
315.242	8347.96
315.307	8347.68
315.372	8329.01
315.437	8318.04
315.502	8308.75
315.567	8315.97
315.632	8302.59
315.698	8297.59
315.763	8293.3
315.828	8280.8
315.893	8274.3
315.958	8260.16
316.023	8254.33
316.088	8235.19
316.153	8209.69
316.218	8202.28
316.283	8183.67
316.348	8167.8
316.413	8170.78
316.479	8160.77
316.544	8128.88
316.609	8102.33
316.674	8069.38
316.739	8038.5
316.804	8007.82
316.869	7979.78
316.934	7945.62
316.999	7918.93
317.064	7877.38
317.129	7833.18
317.194	7798.27
317.259	7754.94
317.324	7710.51
317.389	7667.77
317.454	7634.39
317.518	7606.37
317.583	7586.99
317.648	7568.86
317.713	7535.35
317.778	7473.62
317.843	7446.12
317.908	7414.16
317.973	7376.56
318.038	7349.36
318.103	7312.12
318.168	7288.13
318.233	7258.38
318.297	7212.72
318.362	7178.5
318.427	7140.02
318.492	7112.82
318.557	7072.51
318.622	7046.8
318.687	7022.83
318.751	6980.61
318.816	6942.18
318.881	6909.61
318.946	6854.21
319.011	6812.42
319.075	6777.11
319.14	6747.91
319.205	6706.56
319.27	6674.34
319.335	6632.75
319.399	6595.82
319.464	6569.46
319.529	6511.41
319.594	6475.88
319.658	6446.88
319.723	6403.48
319.788	6379.19
319.853	6331.23
319.917	6300.09
319.982	6253.52
320.047	6217.19
320.112	6203.56
320.176	6158.98
320.241	6129.23
320.306	6101.54
320.37	6060.75
320.435	6027.65
320.5	6001.26
320.564	5960
320.629	5917.02
320.694	5888.92
320.758	5843.49
320.823	5803.93
320.888	5784.94
320.952	5731.85
321.017	5694.25
321.082	5655.08
321.146	5620.08
321.211	5590.21
321.275	5552.82
321.34	5513.04
321.405	5473.06
321.469	5424.12
321.534	5385.16
321.598	5334.02
321.663	5304.78
321.727	5278.09
321.792	5231.04
321.857	5185.46
321.921	5150.69
321.986	5112.18
322.05	5057.01
322.115	5027.98
322.179	4986.8
322.244	4931.25
322.308	4905.92
322.373	4856.13
322.437	4820.32
322.502	4793.79
322.566	4745.77
322.631	4711.45
322.695	4673.26
322.76	4627.18
322.824	4594.63
322.889	4551.97
322.953	4510.73
323.018	4445.56
323.082	4383.85
323.146	4337.51
323.211	4291.55
323.275	4251.62
323.34	4206.58
323.404	4173.17
323.468	4126.54
323.533	4084.81
323.597	4044.44
323.662	3995.34
323.726	3970.34
323.79	3928.14
323.855	3866.09
323.919	3823.96
323.983	3782.14
324.048	3717.78
324.112	3869.04
324.177	3750.49
324.241	3561.09
324.305	3371.82
324.37	3187.33
324.434	3007.28
324.498	2967.93
324.562	2920.78
324.627	2866.06
324.691	2818.12
324.755	2760.55
324.82	2692.83
324.884	2623.61
324.948	2559
325.012	2472.35
325.077	2350.8
