Data from 20250625_urea_1M_1_MAYP1162681_22-15-05-872.txt Node
Date: Wed Jun 25 22:15:05 BST 2025
User: adleo
Spectrometer: MAYP116268
Trigger mode: 0
Integration Time (sec): 1.000000E0
Scans to average: 1
Electric dark correction enabled: true
Nonlinearity correction enabled: true
Boxcar width: 10
XAxis mode: Wavelengths
Number of Pixels in Spectrum: 2068
>>>>>Begin Spectral Data<<<<<
179.565	1161.01
179.642	1218.37
179.718	1256.17
179.795	1296.9
179.871	1326.35
179.948	1341.27
180.024	1364.06
180.101	1383.87
180.177	1394.3
180.254	1416.2
180.33	1436.98
180.407	1489.39
180.483	1580.79
180.56	1669.78
180.636	1749.63
180.712	1737.04
180.789	1745.45
180.865	1758.46
180.942	1766.02
181.018	1777.47
181.095	1792.35
181.171	1796.96
181.248	1798.53
181.324	1817.07
181.4	1820.64
181.477	1830.28
181.553	1842.69
181.63	1859.89
181.706	1879.15
181.782	1890.12
181.859	1891.79
181.935	1897.4
182.011	1891.65
182.088	1909.09
182.164	1926.45
182.24	1939.05
182.317	1951.84
182.393	1948.03
182.469	1961.58
182.546	1973.18
182.622	1977.46
182.698	1973.99
182.775	1988.68
182.851	1996.86
182.927	1989.49
183.003	1984.22
183.08	1983.17
183.156	1991.82
183.232	1989.35
183.308	1974.66
183.385	1979.36
183.461	1992.34
183.537	1993.25
183.613	2008.04
183.69	1996.86
183.766	1987.06
183.842	1995.1
183.918	1997.9
183.995	2010.36
184.071	2015.36
184.147	2010.98
184.223	2000.24
184.299	2010.65
184.375	1996.58
184.452	2006.57
184.528	2057.61
184.604	2069.73
184.68	2079.53
184.756	2087.57
184.832	2092.75
184.908	2098.32
184.985	2103.5
185.061	2090.14
185.137	2099.46
185.213	2085.9
185.289	2089.85
185.365	2079.82
185.441	2079.15
185.517	2091.09
185.593	2090.24
185.669	2086.72
185.745	2097.18
185.822	2113.11
185.898	2105.45
185.974	2115.48
186.05	2104.35
186.126	2068.01
186.202	2060.3
186.278	2055.36
186.354	2046.84
186.43	2050.84
186.506	2049.37
186.582	2043.9
186.658	2051.55
186.734	2029.44
186.81	2030.97
186.886	2032.01
186.962	2045.23
187.038	2038.34
187.114	2031.53
187.19	2039.86
187.266	2029.35
187.341	2029.63
187.417	2020.03
187.493	2021.31
187.569	2025.02
187.645	2021.55
187.721	2009.52
187.797	2018.07
187.873	2022.93
187.949	2015.56
188.025	2011.51
188.101	2016.27
188.176	2023.4
188.252	2016.79
188.328	2026.82
188.404	2025.63
188.48	2021.45
188.556	2011.22
188.632	2015.64
188.707	2015.41
188.783	2012.22
188.859	2005.99
188.935	1996.34
189.011	2006.23
189.086	1999.67
189.162	1991.34
189.238	1989.44
189.314	1989.11
189.39	1985.11
189.465	1978.22
189.541	1994.43
189.617	1979.69
189.693	1976.32
189.768	1979.17
189.844	2002.24
189.92	1995.68
189.996	2007.19
190.071	2018.37
190.147	2021.65
190.223	2030.02
190.298	2024.6
190.374	2011.18
190.45	2027.02
190.526	2030.58
190.601	2022.74
190.677	2022.83
190.753	2050.67
190.828	2054
190.904	2065.08
190.98	2078.45
191.055	2087.58
191.131	2080.78
191.207	2099.28
191.282	2106.36
191.358	2098.37
191.433	2089
191.509	2102.36
191.585	2097.65
191.66	2098.27
191.736	2106.35
191.811	2095.51
191.887	2108.12
191.963	2129.19
192.038	2131.57
192.114	2136.47
192.189	2143.31
192.265	2140.03
192.34	2116.24
192.416	2115.76
192.491	2112.48
192.567	2116.67
192.642	2122.28
192.718	2123.9
192.793	2112.77
192.869	2109.87
192.944	2112.29
193.02	2118.14
193.095	2119.19
193.171	2126.18
193.246	2126.9
193.322	2124.14
193.397	2128.7
193.473	2116.14
193.548	2099.3
193.624	2105.87
193.699	2108.39
193.775	2121.76
193.85	2124.23
193.925	2131.94
194.001	2130.94
194.076	2122.14
194.152	2109.1
194.227	2097.64
194.302	2086.75
194.378	2088.7
194.453	2084.28
194.529	2095.46
194.604	2078.14
194.679	2073.81
194.755	2054.6
194.83	2064.84
194.905	2060.46
194.981	2067.55
195.056	2059.08
195.131	2062.84
195.207	2060.51
195.282	2048.24
195.357	2029.45
195.433	2041.24
195.508	2030.44
195.583	2040.62
195.659	2057.13
195.734	2066.64
195.809	2068.88
195.884	2078.34
195.96	2078.44
196.035	2093.61
196.11	2093.8
196.185	2105.64
196.261	2105.88
196.336	2135.27
196.411	2119.1
196.486	2125.04
196.561	2117.38
196.637	2126.89
196.712	2145.45
196.787	2147.35
196.862	2161.96
196.937	2171.37
197.013	2179.46
197.088	2187.74
197.163	2204.02
197.238	2220.78
197.313	2217.45
197.388	2228.34
197.464	2256.52
197.539	2268.41
197.614	2261.9
197.689	2268.7
197.764	2285.46
197.839	2306.53
197.914	2302.54
197.989	2327.57
198.065	2340.51
198.14	2388.38
198.215	2413.41
198.29	2425.41
198.365	2443.03
198.44	2451.17
198.515	2481.79
198.59	2497.64
198.665	2525.59
198.74	2535.4
198.815	2536.12
198.89	2558.73
198.965	2586.07
199.04	2581.93
199.115	2600.5
199.19	2643.17
199.265	2651.36
199.34	2658.79
199.415	2691.58
199.49	2711.77
199.565	2717.96
199.64	2745.11
199.715	2742.11
199.79	2751.4
199.865	2754.16
199.94	2747.16
200.015	2779.9
200.09	2784.81
200.165	2789.43
200.24	2795.24
200.315	2837.79
200.39	2852.66
200.464	2859.52
200.539	2864.15
200.614	2879.39
200.689	2899.84
200.764	2903.8
200.839	2919.33
200.914	2924.38
200.989	2911.84
201.063	2926.9
201.138	2912.05
201.213	2913.67
201.288	2896.94
201.363	2900.75
201.438	2899.94
201.512	2917.38
201.587	2900.5
201.662	2904.84
201.737	2919.14
201.812	2926.1
201.886	2888.27
201.961	2896.09
202.036	2885.75
202.111	2884.7
202.186	2859.27
202.26	2844.82
202.335	2824.38
202.41	2817.8
202.485	2804.65
202.559	2787.6
202.634	2761.1
202.709	2769.86
202.784	2747.37
202.858	2748.71
202.933	2732.27
203.008	2728.27
203.082	2710.45
203.157	2710.31
203.232	2667.68
203.306	2642.62
203.381	2613.75
203.456	2594.31
203.53	2568.14
203.605	2545.72
203.68	2519.09
203.754	2512.86
203.829	2495.76
203.904	2477.28
203.978	2466.47
204.053	2468.23
204.127	2457.71
204.202	2455
204.277	2439.62
204.351	2433.96
204.426	2423.72
204.5	2414.19
204.575	2379.6
204.65	2386.03
204.724	2375.93
204.799	2382.59
204.873	2381.06
204.948	2377.3
205.022	2366.5
205.097	2362.69
205.171	2379.2
205.246	2390.35
205.32	2388.59
205.395	2388.78
205.469	2380.12
205.544	2383.79
205.618	2366.98
205.693	2380.17
205.767	2367.23
205.842	2384.27
205.916	2380.65
205.991	2372.46
206.065	2378.27
206.14	2394.68
206.214	2391.68
206.289	2387.06
206.363	2398.96
206.438	2404.06
206.512	2414.91
206.586	2433.43
206.661	2441.91
206.735	2418.88
206.81	2418.59
206.884	2432.3
206.958	2421.26
207.033	2436.34
207.107	2442.49
207.181	2475.68
207.256	2466.21
207.33	2487.53
207.405	2502.49
207.479	2520.35
207.553	2530.92
207.628	2517.4
207.702	2529.97
207.776	2526.16
207.851	2527.97
207.925	2543.02
207.999	2538.55
208.073	2532.69
208.148	2533.83
208.222	2524.35
208.296	2557.86
208.371	2571.64
208.445	2583.54
208.519	2610.92
208.593	2626.83
208.668	2624.97
208.742	2625.73
208.816	2632.45
208.89	2647.17
208.965	2648.03
209.039	2657.04
209.113	2671.99
209.187	2692.56
209.261	2691.42
209.336	2715.19
209.41	2740.25
209.484	2748.79
209.558	2777.05
209.632	2798.29
209.707	2815.64
209.781	2843.23
209.855	2866.97
209.929	2894.78
210.003	2914.18
210.077	2924.29
210.151	2981.31
210.226	3030.11
210.3	3077.17
210.374	3115.54
210.448	3140.3
210.522	3169.78
210.596	3199.31
210.67	3235.28
210.744	3311.5
210.818	3369.45
210.892	3418.81
210.966	3446.1
211.041	3489.15
211.115	3524
211.189	3585.73
211.263	3643.83
211.337	3697.08
211.411	3754.59
211.485	3797.99
211.559	3860.66
211.633	3925.94
211.707	3953.68
211.781	4017.77
211.855	4047.75
211.929	4107.87
212.003	4160.77
212.077	4251.77
212.151	4345.01
212.225	4436.69
212.299	4510.1
212.373	4591.55
212.447	4678.93
212.52	4804.42
212.594	4909.78
212.668	5026.98
212.742	5124.04
212.816	5232.04
212.89	5336.36
212.964	5457.42
213.038	5588.58
213.112	5734.45
213.186	5872.52
213.26	5989.52
213.333	6087.02
213.407	6237.09
213.481	6385.5
213.555	6548.23
213.629	6690.9
213.703	6828.66
213.777	6983.47
213.85	7125.47
213.924	7325.81
213.998	7490.22
214.072	7651.27
214.146	7809.55
214.219	7981.84
214.293	8157.72
214.367	8335.24
214.441	8532.74
214.515	8705.6
214.588	8868.24
214.662	9015.2
214.736	9184.36
214.81	9376.89
214.883	9576.57
214.957	9750.69
215.031	9933.38
215.105	10100.3
215.178	10268.61
215.252	10458.6
215.326	10634.65
215.4	10805.77
215.473	10943.93
215.547	11120.01
215.621	11299.09
215.694	11503.47
215.768	11672.49
215.842	11846.72
215.915	12023.03
215.989	12187.2
216.063	12364.91
216.136	12549.81
216.21	12739.1
216.284	12932.34
216.357	13117.25
216.431	13291.51
216.504	13487.89
216.578	13687.69
216.652	13876.99
216.725	14059.21
216.799	14240.69
216.873	14414.47
216.946	14591.72
217.02	14758.89
217.093	14923.7
217.167	15071.87
217.24	15219.42
217.314	15371.5
217.387	15528.73
217.461	15685.67
217.535	15848.49
217.608	15995.89
217.682	16147.76
217.755	16303.05
217.829	16445.38
217.902	16596.14
217.976	16751.19
218.049	16876.88
218.123	17004.5
218.196	17147.83
218.27	17282.87
218.343	17406.39
218.417	17541.91
218.49	17671.26
218.563	17823.16
218.637	17958.15
218.71	18103.3
218.784	18227.93
218.857	18368.93
218.931	18497.65
219.004	18623.53
219.077	18754.8
219.151	18871.08
219.224	18978.02
219.298	19086.54
219.371	19207.16
219.444	19307.45
219.518	19398.91
219.591	19511.53
219.665	19639.48
219.738	19737.11
219.811	19822.17
219.885	19924.19
219.958	20022.16
220.031	20110.26
220.105	20204.81
220.178	20289.34
220.251	20369.15
220.325	20467.46
220.398	20548.28
220.471	20633.83
220.544	20715.27
220.618	20773.93
220.691	20855.91
220.764	20939.19
220.838	21021.02
220.911	21078.04
220.984	21163.16
221.057	21240.61
221.131	21305.05
221.204	21336.91
221.277	21419.95
221.35	21516.74
221.424	21562.05
221.497	21615.79
221.57	21676.81
221.643	21726.6
221.716	21792.01
221.79	21835.68
221.863	21874.49
221.936	21909.14
222.009	21946.74
222.082	21989.45
222.155	22027.77
222.229	22081.95
222.302	22122.59
222.375	22155.71
222.448	22201.65
222.521	22226.52
222.594	22264.65
222.667	22287.79
222.74	22331.13
222.814	22353.26
222.887	22367.53
222.96	22412.8
223.033	22440.47
223.106	22466.89
223.179	22493.16
223.252	22503.04
223.325	22525.51
223.398	22558.05
223.471	22590.21
223.544	22616.53
223.617	22636.63
223.69	22657.36
223.763	22653.7
223.837	22668.16
223.91	22685.9
223.983	22677.37
224.056	22676.65
224.129	22682.1
224.202	22705.33
224.275	22716.86
224.348	22712.61
224.42	22699.98
224.493	22690.68
224.566	22697.67
224.639	22711.65
224.712	22700.17
224.785	22708.71
224.858	22715.89
224.931	22697.62
225.004	22682.53
225.077	22679.3
225.15	22646.03
225.223	22648.88
225.296	22670.14
225.369	22644.54
225.442	22628.63
225.514	22635.72
225.587	22638.18
225.66	22642.81
225.733	22641.36
225.806	22623.91
225.879	22619.86
225.952	22611.32
226.025	22620.68
226.097	22619.37
226.17	22606.21
226.243	22584.33
226.316	22571.31
226.389	22558.63
226.461	22555.25
226.534	22541.9
226.607	22521.36
226.68	22536.45
226.753	22518.81
226.825	22482.12
226.898	22484.09
226.971	22472.52
227.044	22458.21
227.117	22447.79
227.189	22439.98
227.262	22425.18
227.335	22407.01
227.407	22383.24
227.48	22374.56
227.553	22353.11
227.626	22326.11
227.698	22312.42
227.771	22309.58
227.844	22298.97
227.916	22280.32
227.989	22250.91
228.062	22241.46
228.134	22249.13
228.207	22225.7
228.28	22200.97
228.352	22183.04
228.425	22173.39
228.498	22167.95
228.57	22141.82
228.643	22134.35
228.716	22105.42
228.788	22083.78
228.861	22072.21
228.934	22072.55
229.006	22056.74
229.079	22033.16
229.151	22011.47
229.224	21976.33
229.296	21965.58
229.369	21983.42
229.442	21986.94
229.514	21964.91
229.587	21961.3
229.659	21919.41
229.732	21912.9
229.804	21907.31
229.877	21910.1
229.949	21899.06
230.022	21899.11
230.094	21892.94
230.167	21878.39
230.239	21848.07
230.312	21823.48
230.384	21828.21
230.457	21805.75
230.529	21786.08
230.602	21770.51
230.674	21761.79
230.747	21759.91
230.819	21751.86
230.892	21682.64
230.964	21655.79
231.037	21633.62
231.109	21605.71
231.181	21596.94
231.254	21565.08
231.326	21543.77
231.399	21519.96
231.471	21483.52
231.544	21423.66
231.616	21407.65
231.688	21393.05
231.761	21366.54
231.833	21349.19
231.905	21295.25
231.978	21282.05
232.05	21251.78
232.122	21230.62
232.195	21190.42
232.267	21171.53
232.339	21128.73
232.412	21117.6
232.484	21093.69
232.556	21062.75
232.629	21056.53
232.701	21035.66
232.773	21012.48
232.846	20982.26
232.918	20956.43
232.99	20948.53
233.062	20944.19
233.135	20922.93
233.207	20868.47
233.279	20851.17
233.351	20831.36
233.424	20798.93
233.496	20740.42
233.568	20738.59
233.64	20696.18
233.713	20669.62
233.785	20641.09
233.857	20624.47
233.929	20586.54
234.001	20571.31
234.074	20564.42
234.146	20515.4
234.218	20477.09
234.29	20446.39
234.362	20402.39
234.434	20365.77
234.507	20316.17
234.579	20261.67
234.651	20215.5
234.723	20201.28
234.795	20170.3
234.867	20124.08
234.939	20110.49
235.012	20098.2
235.084	20070.35
235.156	20051.36
235.228	20019.46
235.3	19979.94
235.372	19949.53
235.444	19922.83
235.516	19852.71
235.588	19821.1
235.66	19789.63
235.732	19754.45
235.804	19772.96
235.876	19764.33
235.948	19736.72
236.02	19701.64
236.092	19678.46
236.164	19649.16
236.236	19610.8
236.308	19574.95
236.38	19551.19
236.452	19507.87
236.524	19472.69
236.596	19446.71
236.668	19422.04
236.74	19391.68
236.812	19367.3
236.884	19342.86
236.956	19313.66
237.028	19292.02
237.1	19241.42
237.172	19217.76
237.244	19203.31
237.316	19138.59
237.388	19095.5
237.46	19057
237.532	19043.22
237.604	18998.21
237.675	18984.67
237.747	18962.74
237.819	18928.86
237.891	18901.68
237.963	18868.1
238.035	18837.01
238.107	18770.42
238.178	18749.4
238.25	18711.24
238.322	18697.26
238.394	18650.52
238.466	18613.8
238.538	18584.35
238.609	18564.26
238.681	18523.39
238.753	18482.09
238.825	18442
238.897	18413.42
238.968	18397.04
239.04	18354.2
239.112	18355.07
239.184	18308.13
239.255	18273.48
239.327	18251.75
239.399	18212.86
239.471	18188.18
239.542	18159.51
239.614	18148.33
239.686	18086.36
239.758	18074.45
239.829	18036.19
239.901	18014.94
239.973	17982.02
240.044	17961.83
240.116	17938.7
240.188	17908.14
240.259	17874.22
240.331	17845.06
240.403	17826.07
240.474	17785.74
240.546	17754.22
240.618	17704.68
240.689	17662.17
240.761	17624.54
240.833	17611.96
240.904	17581.6
240.976	17553.93
241.048	17517.45
241.119	17488.25
241.191	17465.36
241.262	17444.15
241.334	17402.47
241.405	17356.92
241.477	17321.74
241.549	17275.72
241.62	17254.99
241.692	17233.64
241.763	17225.89
241.835	17190.75
241.906	17149.98
241.978	17102.03
242.049	17079.52
242.121	17057.06
242.192	17051.28
242.264	17010.94
242.335	16952.67
242.407	16935.18
242.478	16891.46
242.55	16863.03
242.621	16828.76
242.693	16797.58
242.764	16763.03
242.836	16732.76
242.907	16715.02
242.979	16699.55
243.05	16680.37
243.122	16648.9
243.193	16617.96
243.264	16560.94
243.336	16532.94
243.407	16512.75
243.479	16500.65
243.55	16473.56
243.622	16449.95
243.693	16415.39
243.764	16412.64
243.836	16376.73
243.907	16340.2
243.978	16310.61
244.05	16290.17
244.121	16243.13
244.192	16223.61
244.264	16179.7
244.335	16149
244.407	16101.14
244.478	16066.72
244.549	16033.71
244.62	15987.48
244.692	15952.78
244.763	15925.45
244.834	15886.12
244.906	15851.47
244.977	15825.68
245.048	15812.71
245.119	15779.02
245.191	15736.94
245.262	15683.92
245.333	15674.33
245.405	15636.25
245.476	15619.82
245.547	15593.4
245.618	15575.62
245.689	15537.97
245.761	15515.51
245.832	15491.31
245.903	15478.88
245.974	15451.36
246.045	15421.52
246.117	15413.04
246.188	15369.46
246.259	15335.96
246.33	15309.64
246.401	15273.59
246.473	15227.6
246.544	15196.61
246.615	15171.01
246.686	15140.69
246.757	15118.71
246.828	15076.58
246.899	15069.83
246.97	15028.43
247.042	14991.7
247.113	14967.4
247.184	14968.66
247.255	14938.91
247.326	14913.37
247.397	14879.62
247.468	14863.43
247.539	14836.63
247.61	14791.89
247.681	14783.7
247.752	14778.78
247.823	14744.7
247.894	14727.25
247.965	14700.35
248.037	14659.77
248.108	14623.76
248.179	14603.7
248.25	14578.15
248.321	14564.66
248.392	14521.66
248.463	14516.11
248.534	14489.84
248.605	14473.79
248.675	14445.88
248.746	14423.85
248.817	14402.83
248.888	14380.32
248.959	14332.7
249.03	14317.7
249.101	14301.6
249.172	14272.34
249.243	14222.93
249.314	14217
249.385	14194.63
249.456	14176.07
249.527	14152.79
249.598	14131.19
249.669	14104.63
249.739	14086.89
249.81	14067.76
249.881	14033.53
249.952	14008.7
250.023	13989.18
250.094	13956.21
250.165	13920.2
250.235	13892.19
250.306	13868.66
250.377	13839.84
250.448	13823.83
250.519	13779.77
250.59	13771.43
250.66	13739.9
250.731	13733.54
250.802	13708.52
250.873	13685.82
250.944	13668.66
251.014	13634.96
251.085	13638.09
251.156	13626.91
251.227	13614.95
251.297	13609.17
251.368	13602.76
251.439	13595.14
251.51	13586.32
251.58	13554.55
251.651	13532.33
251.722	13526.83
251.792	13488.94
251.863	13467.39
251.934	13456.21
252.005	13467.78
252.075	13440.01
252.146	13422.71
252.217	13405.4
252.287	13404.63
252.358	13388.43
252.429	13382.31
252.499	13362.88
252.57	13341.28
252.641	13322.92
252.711	13306.05
252.782	13270.57
252.852	13265.7
252.923	13242.08
252.994	13218.7
253.064	13215.47
253.135	13180.76
253.205	13152.27
253.276	13148.17
253.347	13144.07
253.417	13115.44
253.488	13074.03
253.558	13049.59
253.629	13034.26
253.699	13023.12
253.77	13002.68
253.841	12978.19
253.911	12958.82
253.982	12947.97
254.052	12936.5
254.123	12924.3
254.193	12901.5
254.264	12912.25
254.334	12884.67
254.405	12850.45
254.475	12816.85
254.546	12797.18
254.616	12793.52
254.687	12774.67
254.757	12763.53
254.827	12733.98
254.898	12717.93
254.968	12705.35
255.039	12681.1
255.109	12677.01
255.18	12646.83
255.25	12602.92
255.321	12594.33
255.391	12560.59
255.461	12559.15
255.532	12512.72
255.602	12487.71
255.673	12442.73
255.743	12417.38
255.813	12367.92
255.884	12363.39
255.954	12358.38
256.024	12349.36
256.095	12327.38
256.165	12301.98
256.235	12290.46
256.306	12278.12
256.376	12276.96
256.446	12266.74
256.517	12256.42
256.587	12241.39
256.657	12225.43
256.728	12212.37
256.798	12182.82
256.868	12163.73
256.938	12131.72
257.009	12128.74
257.079	12114.56
257.149	12131.48
257.219	12085.93
257.29	12081.64
257.36	12041.92
257.43	12034.89
257.5	11993.53
257.571	11975.89
257.641	11965.14
257.711	11933.86
257.781	11926.14
257.852	11909.85
257.922	11875.68
257.992	11856.16
258.062	11838.03
258.132	11833.94
258.202	11815.43
258.273	11801.4
258.343	11804.44
258.413	11784.24
258.483	11756
258.553	11726.84
258.623	11696.57
258.693	11679.84
258.764	11689.1
258.834	11692.57
258.904	11676.23
258.974	11652.66
259.044	11630.35
259.114	11620.37
259.184	11603.74
259.254	11572.65
259.324	11532.89
259.394	11530.91
259.464	11533.08
259.535	11515.68
259.605	11496.21
259.675	11471.63
259.745	11466.09
259.815	11436.26
259.885	11414.04
259.955	11430.09
260.025	11408.16
260.095	11394.47
260.165	11393.51
260.235	11384.93
260.305	11356.93
260.375	11323.87
260.445	11337.84
260.515	11337.89
260.585	11335.24
260.655	11321.07
260.725	11318.56
260.795	11311.91
260.865	11310.32
260.934	11283.53
261.004	11273.07
261.074	11250.56
261.144	11253.65
261.214	11243.38
261.284	11226.18
261.354	11219.81
261.424	11187.38
261.494	11191.76
261.564	11167.38
261.634	11161.26
261.703	11120.58
261.773	11118.61
261.843	11114.51
261.913	11094.17
261.983	11059.48
262.053	11039.96
262.123	11018.56
262.192	10988.98
262.262	10980.25
262.332	10950.13
262.402	10945.03
262.472	10933.41
262.541	10899.63
262.611	10887.68
262.681	10867.88
262.751	10862.72
262.821	10841.95
262.89	10814.44
262.96	10809.81
263.03	10818.73
263.1	10802.82
263.169	10794.1
263.239	10783.6
263.309	10782.15
263.379	10783.21
263.448	10795.74
263.518	10784.7
263.588	10776.18
263.657	10780.9
263.727	10778.15
263.797	10766.3
263.867	10744.42
263.936	10718.98
264.006	10725.77
264.076	10710.35
264.145	10691.61
264.215	10664.05
264.285	10659.18
264.354	10635.24
264.424	10606.62
264.494	10575.59
264.563	10556.99
264.633	10560.65
264.702	10546.05
264.772	10512.56
264.842	10480.66
264.911	10450.89
264.981	10428.48
265.05	10416.68
265.12	10398.56
265.19	10383.67
265.259	10371
265.329	10358.48
265.398	10349.8
265.468	10353.75
265.537	10336.27
265.607	10326.29
265.676	10326.82
265.746	10318.34
265.815	10317.24
265.885	10305.91
265.955	10285.49
266.024	10265.59
266.094	10231.87
266.163	10235.05
266.232	10236.54
266.302	10218.96
266.371	10212.7
266.441	10200.6
266.51	10189.47
266.58	10171.31
266.649	10154.5
266.719	10151.95
266.788	10143.56
266.858	10143.18
266.927	10108.3
266.996	10100.93
267.066	10089.27
267.135	10066.05
267.205	10063.5
267.274	10055.07
267.343	10054.25
267.413	10043.85
267.482	10041.2
267.552	10044.57
267.621	10009.02
267.69	9972.65
267.76	9970.53
267.829	9960.51
267.898	9946.16
267.968	9927.66
268.037	9920.15
268.106	9916.34
268.176	9896.69
268.245	9879.25
268.314	9856.27
268.384	9855.55
268.453	9841.68
268.522	9832.33
268.592	9832.77
268.661	9812.87
268.73	9803.67
268.799	9779.59
268.869	9790.28
268.938	9764.52
269.007	9741.01
269.076	9736.77
269.146	9740.48
269.215	9729.93
269.284	9733.84
269.353	9713.18
269.422	9693.67
269.492	9680.91
269.561	9639.06
269.63	9631.5
269.699	9622.11
269.768	9617.39
269.838	9609.34
269.907	9605.35
269.976	9584.4
270.045	9552.42
270.114	9547.51
270.183	9529.88
270.253	9523.53
270.322	9487.79
270.391	9481.1
270.46	9487.89
270.529	9477.73
270.598	9483.36
270.667	9469.44
270.736	9446.28
270.806	9437.66
270.875	9447.77
270.944	9437.03
271.013	9455.23
271.082	9444.88
271.151	9438.57
271.22	9405.2
271.289	9390.85
271.358	9378.38
271.427	9372.89
271.496	9365
271.565	9349.06
271.634	9343.47
271.703	9370.39
271.772	9372.99
271.841	9361.2
271.91	9337.12
271.979	9328.74
272.048	9304.66
272.117	9304.09
272.186	9293.25
272.255	9297.68
272.324	9295.27
272.393	9287.62
272.462	9273.99
272.531	9269.7
272.6	9256.17
272.669	9267.3
272.738	9252.47
272.807	9246.4
272.876	9226.95
272.945	9247.12
273.013	9240.58
273.082	9240.33
273.151	9191.31
273.22	9190.3
273.289	9182.36
273.358	9188.18
273.427	9181.25
273.496	9178.46
273.564	9170.03
273.633	9166.61
273.702	9147.69
273.771	9134.26
273.84	9124.77
273.909	9123.23
273.977	9114.09
274.046	9099.5
274.115	9100.12
274.184	9090.98
274.253	9074.8
274.322	9082.75
274.39	9057.42
274.459	9045.58
274.528	9023.67
274.597	9019.44
274.665	9009.57
274.734	9016.4
274.803	9010.67
274.872	9003.31
274.94	8986.03
275.009	9040.26
275.078	9026.59
275.147	9028.03
275.215	9020.18
275.284	9034
275.353	9022.16
275.421	8996.4
275.49	9015.47
275.559	9002.13
275.627	8998.86
275.696	8996.98
275.765	9000.59
275.833	8986.73
275.902	8988.13
275.971	8993.57
276.039	9004.93
276.108	9006.8
276.177	9003.72
276.245	8985.38
276.314	8977.39
276.383	8981.92
276.451	8919.84
276.52	8919.98
276.588	8930.09
276.657	8932.84
276.725	8914.74
276.794	8917.19
276.863	8933.07
276.931	8905.92
277	8914.49
277.068	8917.09
277.137	8935.87
277.205	8928.5
277.274	8949.34
277.342	8956.95
277.411	8937.79
277.48	8925.47
277.548	8920.61
277.617	8918.39
277.685	8912.81
277.754	8913.34
277.822	8905.45
277.89	8920.27
277.959	8916.04
278.027	8895.29
278.096	8882.44
278.164	8909.35
278.233	8899.43
278.301	8886.34
278.37	8891.78
278.438	8877.77
278.507	8880.56
278.575	8856.69
278.643	8848.84
278.712	8836.47
278.78	8824
278.849	8834.01
278.917	8846.09
278.985	8835.94
279.054	8835.02
279.122	8849.99
279.191	8848.55
279.259	8840.75
279.327	8815.29
279.396	8829.63
279.464	8825.88
279.532	8833.82
279.601	8825.59
279.669	8820.29
279.737	8839.3
279.806	8848.59
279.874	8857.64
279.942	8851.15
280.011	8843.11
280.079	8854.66
280.147	8865.35
280.215	8868.53
280.284	8869.34
280.352	8853.89
280.42	8859.67
280.488	8850.09
280.557	8841.52
280.625	8844.12
280.693	8845.23
280.761	8842.92
280.83	8816.92
280.898	8830.74
280.966	8811.68
281.034	8785.35
281.102	8770.43
281.171	8759.74
281.239	8761.67
281.307	8754.25
281.375	8743.95
281.443	8769.03
281.512	8757.19
281.58	8759.16
281.648	8739.62
281.716	8730.38
281.784	8725.38
281.852	8720.42
281.92	8719.36
281.989	8723.26
282.057	8707.91
282.125	8739.05
282.193	8747.43
282.261	8757.87
282.329	8752.38
282.397	8756.57
282.465	8759.07
282.533	8769.76
282.601	8757.92
282.67	8739.67
282.738	8729.71
282.806	8741.26
282.874	8730.72
282.942	8735.29
283.01	8729.85
283.078	8734.37
283.146	8736.15
283.214	8747.61
283.282	8750.74
283.35	8764.7
283.418	8761.14
283.486	8764.41
283.554	8734.23
283.622	8728.11
283.69	8721.28
283.758	8716.46
283.826	8720.89
283.894	8727.58
283.962	8752.52
284.03	8767.68
284.098	8765.42
284.165	8760.03
284.233	8758.68
284.301	8749.34
284.369	8747.8
284.437	8735.62
284.505	8734.08
284.573	8744.29
284.641	8725.57
284.709	8726.53
284.777	8706.22
284.845	8709.49
284.912	8715.75
284.98	8720.46
285.048	8714.2
285.116	8714.11
285.184	8721.67
285.252	8716.76
285.319	8698.23
285.387	8684.65
285.455	8668.14
285.523	8674.78
285.591	8673.44
285.659	8672.52
285.726	8683.4
285.794	8664.58
285.862	8668.14
285.93	8668.29
285.997	8664.63
286.065	8668.58
286.133	8662.42
286.201	8659.34
286.269	8650
286.336	8640.13
286.404	8633.83
286.472	8644.18
286.539	8628.2
286.607	8608.61
286.675	8609.91
286.743	8618
286.81	8607.89
286.878	8611.88
286.946	8600.81
287.013	8599.71
287.081	8598.5
287.149	8585.8
287.216	8604.52
287.284	8596.58
287.352	8591.52
287.419	8583.54
287.487	8591.62
287.555	8594.12
287.622	8592.97
287.69	8596.92
287.758	8607.55
287.825	8604.28
287.893	8588.44
287.96	8592.77
288.028	8603.8
288.096	8603.56
288.163	8604.9
288.231	8600.33
288.298	8600.52
288.366	8616.16
288.433	8612.07
288.501	8602.79
288.569	8599.27
288.636	8591.96
288.704	8603.41
288.771	8615.01
288.839	8612.03
288.906	8606.3
288.974	8613.62
289.041	8616.02
289.109	8604.57
289.176	8607.6
289.244	8610.68
289.311	8623
289.379	8633.25
289.446	8632.29
289.514	8639.51
289.581	8642.78
289.649	8641.19
289.716	8641.96
289.783	8633.11
289.851	8647.54
289.918	8648.79
289.986	8661.89
290.053	8665.11
290.121	8661.93
290.188	8660.1
290.255	8691.44
290.323	8688.65
290.39	8683.69
290.458	8685.52
290.525	8699
290.592	8694.71
290.66	8693.6
290.727	8687.88
290.794	8697.7
290.862	8699.43
290.929	8697.89
290.996	8695.19
291.064	8710.88
291.131	8721.76
291.198	8729.99
291.266	8724.12
291.333	8729.17
291.4	8731.19
291.468	8746.36
291.535	8741.88
291.602	8743.81
291.669	8728.98
291.737	8730.9
291.804	8733.26
291.871	8750.4
291.938	8760.75
292.006	8787.18
292.073	8805.61
292.14	8814.32
292.207	8809.94
292.275	8809.17
292.342	8816.25
292.409	8839.59
292.476	8854.23
292.543	8844.84
292.611	8847.54
292.678	8867.8
292.745	8893.94
292.812	8904.58
292.879	8893.32
292.946	8897.41
293.014	8910.21
293.081	8916.37
293.148	8932.35
293.215	8942.46
293.282	8930.91
293.349	8937.79
293.416	8918.15
293.484	8923.64
293.551	8936.69
293.618	8950.69
293.685	8974.76
293.752	8964.9
293.819	8960.51
293.886	8949.54
293.953	8957.86
294.02	8966.43
294.087	8972.07
294.154	8961.28
294.221	8969.56
294.288	8973.94
294.356	8992.04
294.423	8995.32
294.49	8987.47
294.557	8987.62
294.624	8980.44
294.691	9001.24
294.758	9000.61
294.825	9009.61
294.892	8999.84
294.959	8990.5
295.026	8997.82
295.093	8984.53
295.16	8990.69
295.226	8990.79
295.293	9015.06
295.36	9026.51
295.427	9034.41
295.494	9044.38
295.561	9050.78
295.628	9076.64
295.695	9088.24
295.762	9093.3
295.829	9103.41
295.896	9120.21
295.963	9135.13
296.03	9145.1
296.096	9144.09
296.163	9152.51
296.23	9162.38
296.297	9175.86
296.364	9182.12
296.431	9184.29
296.498	9193.82
296.564	9215.2
296.631	9215.2
296.698	9196.22
296.765	9206.43
296.832	9198.3
296.899	9183.37
296.965	9196.66
297.032	9168.44
297.099	9185.87
297.166	9186.69
297.233	9180.86
297.299	9169.5
297.366	9166.95
297.433	9169.07
297.5	9177.4
297.566	9179.03
297.633	9177.54
297.7	9182.31
297.767	9178.89
297.833	9182.98
297.9	9175.71
297.967	9156.65
298.033	9165.36
298.1	9192.42
298.167	9183.71
298.234	9188.38
298.3	9201.43
298.367	9195.65
298.434	9197.38
298.5	9183.37
298.567	9177.74
298.634	9177.69
298.7	9194.83
298.767	9198.68
298.834	9207.3
298.9	9203.49
298.967	9193.82
299.033	9199.88
299.1	9212.5
299.167	9227.81
299.233	9227.14
299.3	9242.11
299.366	9258.38
299.433	9273.69
299.5	9249.57
299.566	9252.75
299.633	9265.56
299.699	9273.16
299.766	9272.2
299.832	9277.88
299.899	9290.35
299.965	9301.91
300.032	9292.23
300.099	9298.59
300.165	9298.35
300.232	9291.8
300.298	9295.12
300.365	9304.41
300.431	9300.71
300.498	9284.48
300.564	9290.21
300.631	9294.64
300.697	9305.04
300.763	9305.23
300.83	9307.3
300.896	9316.16
300.963	9323.53
301.029	9324.59
301.096	9320.88
301.162	9328.88
301.229	9327.96
301.295	9311.73
301.361	9308.41
301.428	9317.41
301.494	9299.89
301.561	9303.45
301.627	9308.65
301.693	9307.06
301.76	9306.24
301.826	9301.24
301.892	9316.21
301.959	9319.1
302.025	9317.7
302.092	9307.78
302.158	9312.21
302.224	9312.55
302.291	9305.23
302.357	9301.04
302.423	9298.54
302.49	9293.77
302.556	9302.34
302.622	9300.61
302.688	9315.15
302.755	9327.62
302.821	9332.87
302.887	9344.04
302.954	9338.65
303.02	9346.35
303.086	9350.54
303.152	9345.15
303.219	9346.07
303.285	9347.94
303.351	9352.66
303.417	9350.69
303.483	9346.69
303.55	9341.11
303.616	9334.22
303.682	9331.67
303.748	9322.04
303.815	9334.66
303.881	9334.66
303.947	9324.11
304.013	9324.16
304.079	9310.1
304.145	9289.2
304.212	9285.2
304.278	9273.75
304.344	9272.64
304.41	9257.57
304.476	9246.59
304.542	9245.29
304.608	9247.02
304.674	9228.15
304.741	9219.53
304.807	9223.09
304.873	9227.18
304.939	9242.5
305.005	9225.88
305.071	9225.98
305.137	9222.42
305.203	9191.17
305.269	9190.88
305.335	9194.63
305.401	9190.69
305.467	9192.71
305.533	9200.94
305.599	9201.71
305.666	9207.54
305.732	9205.13
305.798	9215.39
305.864	9242.11
305.93	9245.24
305.996	9246.83
306.062	9247.07
306.128	9240.14
306.194	9223.09
306.259	9215.97
306.325	9197.33
306.391	9203.88
306.457	9210.04
306.523	9219.19
306.589	9240.18
306.655	9236.72
306.721	9219.67
306.787	9204.07
306.853	9212.11
306.919	9192.86
306.985	9189.1
307.051	9186.65
307.117	9178.22
307.183	9172.15
307.248	9138.98
307.314	9140.28
307.38	9138.5
307.446	9139.27
307.512	9127.37
307.578	9129.59
307.644	9122.41
307.709	9121.98
307.775	9113.07
307.841	9100.89
307.907	9095.69
307.973	9079.95
308.039	9076.19
308.104	9081.83
308.17	9086.3
308.236	9072.49
308.302	9078.7
308.368	9064.54
308.433	9059.97
308.499	9055.88
308.565	9036.43
308.631	9035.66
308.696	9010.34
308.762	8997.58
308.828	8995.36
308.894	8978.85
308.959	8957.19
309.025	8949.2
309.091	8944.39
309.156	8937.98
309.222	8941.59
309.288	8925.03
309.354	8896.15
309.419	8886.38
309.485	8866.93
309.551	8864.43
309.616	8850.9
309.682	8843.54
309.748	8839.06
309.813	8827.75
309.879	8814.08
309.945	8803.68
310.01	8802.43
310.076	8801.04
310.141	8792.23
310.207	8772.88
310.273	8775.67
310.338	8782.6
310.404	8767.1
310.469	8753.72
310.535	8742.55
310.601	8724.31
310.666	8728.59
310.732	8739.47
310.797	8728.98
310.863	8720.22
310.928	8712.52
310.994	8710.01
311.059	8709.1
311.125	8702.02
311.191	8712.32
311.256	8694.52
311.322	8696.59
311.387	8672.19
311.453	9034.63
311.518	9003.84
311.584	9006.53
311.649	9003.6
311.715	8989.74
311.78	8988.15
311.846	8977.46
311.911	8979.24
311.976	8972.27
312.042	8959.66
312.107	8942.62
312.173	8935.5
312.238	8934.92
312.304	8934.25
312.369	8922.31
312.434	8904.02
312.5	8899.26
312.565	8863.16
312.631	8869.18
312.696	8862.87
312.761	8861.09
312.827	8491.48
312.892	8534.98
312.958	8529.83
313.023	8524.88
313.088	8525.41
313.154	8509.34
313.219	8497.16
313.284	8482.53
313.35	8476.23
313.415	8460.35
313.48	8459.87
313.546	8460.01
313.611	8461.22
313.676	8439.18
313.741	8426.28
313.807	8437.74
313.872	8439.37
313.937	8448.9
314.003	8463.72
314.068	8464.3
314.133	8474.98
314.198	8462.76
314.264	8438.98
314.329	8427.05
314.394	8423.44
314.459	8418.91
314.525	8439.89
314.59	8438.31
314.655	8432.15
314.72	8441.87
314.785	8442.4
314.851	8434.02
314.916	8421.18
314.981	8399.33
315.046	8395.39
315.111	8390.05
315.176	8373.11
315.242	8370.37
315.307	8365.51
315.372	8345.3
315.437	8331.34
315.502	8315.89
315.567	8323.21
315.632	8309.25
315.698	8311.56
315.763	8306.27
315.828	8300.35
315.893	8291.55
315.958	8286.5
316.023	8275.14
316.088	8252.24
316.153	8236.51
316.218	8225.93
316.283	8208.23
316.348	8198.32
316.413	8198.37
316.479	8188.07
316.544	8153.25
316.609	8129.53
316.674	8100
316.739	8070.18
316.804	8046.18
316.869	8010.2
316.934	7983.26
316.999	7951.18
317.064	7899.44
317.129	7855.81
317.194	7816.91
317.259	7774.2
317.324	7731.64
317.389	7691.06
317.454	7658.41
317.518	7629.33
317.583	7607.3
317.648	7578.74
317.713	7543.74
317.778	7483.26
317.843	7457.78
317.908	7425.92
317.973	7382.07
318.038	7350.69
318.103	7311.86
318.168	7276.72
318.233	7250
318.297	7196.89
318.362	7164.26
318.427	7130.1
318.492	7116.16
318.557	7072.58
318.622	7044.57
318.687	7017.9
318.751	6985.05
318.816	6951.75
318.881	6920.47
318.946	6867.92
319.011	6825.07
319.075	6785.59
319.14	6751.45
319.205	6702.22
319.27	6673.16
319.335	6635.76
319.399	6601.08
319.464	6575.78
319.529	6528.15
319.594	6494.63
319.658	6464.96
319.723	6426.75
319.788	6401.4
319.853	6340.38
319.917	6309.62
319.982	6260.94
320.047	6230.89
320.112	6206.56
320.176	6162.16
320.241	6127.46
320.306	6100.45
320.37	6068.16
320.435	6035.44
320.5	6015.67
320.564	5981.27
320.629	5940.79
320.694	5910
320.758	5874.16
320.823	5829.41
320.888	5802.03
320.952	5755.51
321.017	5716.86
321.082	5677.16
321.146	5645.08
321.211	5618.95
321.275	5581.22
321.34	5539.76
321.405	5490.91
321.469	5446.81
321.534	5405.6
321.598	5353.74
321.663	5323.98
321.727	5293.02
321.792	5254.06
321.857	5210.69
321.921	5178.06
321.986	5140.41
322.05	5083.81
322.115	5043.04
322.179	5001.72
322.244	4950.44
322.308	4920.55
322.373	4880
322.437	4843.13
322.502	4816.21
322.566	4773.45
322.631	4739.56
322.695	4703.53
322.76	4663.81
322.824	4628.15
322.889	4590.16
322.953	4552.75
323.018	4491.89
323.082	4431.23
323.146	4380.11
323.211	4330.94
323.275	4283.87
323.34	4241.03
323.404	4213.78
323.468	4172.32
323.533	4135.7
323.597	4096.28
323.662	4048.61
323.726	4013
323.79	3967.74
323.855	3907.54
323.919	3859.81
323.983	3819.43
324.048	3758.88
324.112	3926.65
324.177	3804.21
324.241	3608.68
324.305	3416.4
324.37	3229.52
324.434	3049.52
324.498	3013.51
324.562	2968.42
324.627	2916.43
324.691	2866.82
324.755	2806.62
324.82	2738.33
324.884	2668.16
324.948	2601.93
325.012	2514.31
325.077	2404.64
