Data from 20250625_urea_1M_1_MAYP1162681_05-35-05-765.txt Node
Date: Thu Jun 26 05:35:05 BST 2025
User: adleo
Spectrometer: MAYP116268
Trigger mode: 0
Integration Time (sec): 1.000000E0
Scans to average: 1
Electric dark correction enabled: true
Nonlinearity correction enabled: true
Boxcar width: 10
XAxis mode: Wavelengths
Number of Pixels in Spectrum: 2068
>>>>>Begin Spectral Data<<<<<
179.565	1094.13
179.642	1143.13
179.718	1182.36
179.795	1219.34
179.871	1245.73
179.948	1264.84
180.024	1282.23
180.101	1302.78
180.177	1315.08
180.254	1333.43
180.33	1352.98
180.407	1398.35
180.483	1486.57
180.56	1567.72
180.636	1644.15
180.712	1634.79
180.789	1643.25
180.865	1656.69
180.942	1662.39
181.018	1671.65
181.095	1681.87
181.171	1690.04
181.248	1694.46
181.324	1705.34
181.4	1708.67
181.477	1721.45
181.553	1730.67
181.63	1749.82
181.706	1763.17
181.782	1770.2
181.859	1772.81
181.935	1777.28
182.011	1775.57
182.088	1791.07
182.164	1810.65
182.24	1821.77
182.317	1828.09
182.393	1825.15
182.469	1834.56
182.546	1849.19
182.622	1852.9
182.698	1849.19
182.775	1859.27
182.851	1870.25
182.927	1865.78
183.003	1864.03
183.08	1861.13
183.156	1870.82
183.232	1870.39
183.308	1860.22
183.385	1868.11
183.461	1881.09
183.537	1883.99
183.613	1895.21
183.69	1886.56
183.766	1876.28
183.842	1885.74
183.918	1891.97
183.995	1903.24
184.071	1908.89
184.147	1903.52
184.223	1896.58
184.299	1908
184.375	1898.77
184.452	1902.96
184.528	1955.74
184.604	1964.77
184.68	1973.19
184.756	1979.99
184.832	1980.61
184.908	1986.59
184.985	1989.07
185.061	1976.14
185.137	1984.51
185.213	1972.95
185.289	1972.72
185.365	1966.39
185.441	1963.26
185.517	1976.53
185.593	1976.43
185.669	1974.1
185.745	1983.18
185.822	1994.87
185.898	1987.07
185.974	1994.3
186.05	1987.93
186.126	1950.02
186.202	1945.75
186.278	1942.56
186.354	1933.72
186.43	1939.85
186.506	1938
186.582	1936.52
186.658	1944.08
186.734	1926.35
186.81	1929.63
186.886	1933.24
186.962	1941.61
187.038	1938.66
187.114	1930.29
187.19	1934.47
187.266	1926.2
187.341	1926.3
187.417	1919.31
187.493	1919.21
187.569	1922.49
187.645	1915.08
187.721	1905.28
187.797	1911.08
187.873	1914.6
187.949	1907.99
188.025	1902.19
188.101	1905.38
188.176	1908.8
188.252	1905.38
188.328	1912.22
188.404	1910.13
188.48	1905.09
188.556	1898.67
188.632	1899.86
188.707	1899.96
188.783	1897.67
188.859	1892.07
188.935	1881.32
189.011	1889.36
189.086	1881.09
189.162	1872.67
189.238	1874.81
189.314	1871.05
189.39	1866.16
189.465	1860.31
189.541	1874.14
189.617	1863.02
189.693	1856.89
189.768	1860.69
189.844	1880.33
189.92	1870.59
189.996	1879.25
190.071	1890.09
190.147	1891.37
190.223	1901.07
190.298	1895.51
190.374	1885.05
190.45	1898.12
190.526	1907.2
190.601	1902.35
190.677	1906.44
190.753	1934.55
190.828	1936.97
190.904	1949.76
190.98	1960.6
191.055	1968.54
191.131	1963.74
191.207	1981.9
191.282	1991.74
191.358	1982
191.433	1970.49
191.509	1984.36
191.585	1979.23
191.66	1978.99
191.736	1986.03
191.811	1975.94
191.887	1988.64
191.963	2009.38
192.038	2011.75
192.114	2012.47
192.189	2018.22
192.265	2016.84
192.34	1995.91
192.416	1994.29
192.491	1994.29
192.567	2001.43
192.642	2004.85
192.718	2004.71
192.793	1995.53
192.869	1990.21
192.944	1992.39
193.02	1998.29
193.095	2000.76
193.171	2009.27
193.246	2010.27
193.322	2007.85
193.397	2008.61
193.473	1997.62
193.548	1978.46
193.624	1986.07
193.699	1984.35
193.775	1997.29
193.85	1997.05
193.925	2004.43
194.001	2002.91
194.076	1993.97
194.152	1983.69
194.227	1977.13
194.302	1968.29
194.378	1970.66
194.453	1966.58
194.529	1979.37
194.604	1965.53
194.679	1960.3
194.755	1941.91
194.83	1953.37
194.905	1949.62
194.981	1954.8
195.056	1948.05
195.131	1954.28
195.207	1948.04
195.282	1937.21
195.357	1919.28
195.433	1932.87
195.508	1919.8
195.583	1928.35
195.659	1942.05
195.734	1945.95
195.809	1945.24
195.884	1950.89
195.96	1950.09
196.035	1967.63
196.11	1964.2
196.185	1976.9
196.261	1979.47
196.336	2010.18
196.411	1993.73
196.486	1999.91
196.561	1995.39
196.637	2002.85
196.712	2020.26
196.787	2025.88
196.862	2040.8
196.937	2050.22
197.013	2057.26
197.088	2068.58
197.163	2090.28
197.238	2102.65
197.313	2105.88
197.388	2118.06
197.464	2146.89
197.539	2160.07
197.614	2153.27
197.689	2167.07
197.764	2180.34
197.839	2198.42
197.914	2191.47
197.989	2214.26
198.065	2226.34
198.14	2274.9
198.215	2297.88
198.29	2308.12
198.365	2320.97
198.44	2333.48
198.515	2359.38
198.59	2371.23
198.665	2394.98
198.74	2401.17
198.815	2404.22
198.89	2422.59
198.965	2451.35
199.04	2446.02
199.115	2457.25
199.19	2498.67
199.265	2496.86
199.34	2506.67
199.415	2538.73
199.49	2558.72
199.565	2567.58
199.64	2589.48
199.715	2584.05
199.79	2593.72
199.865	2599.58
199.94	2599.72
200.015	2629.06
200.09	2634.59
200.165	2640.64
200.24	2646.64
200.315	2679.87
200.39	2694.78
200.464	2700.68
200.539	2702.64
200.614	2721.31
200.689	2742.65
200.764	2747.37
200.839	2764.46
200.914	2770.94
200.989	2762.46
201.063	2775.75
201.138	2759.71
201.213	2762.76
201.288	2745.23
201.363	2747.75
201.438	2746.47
201.512	2760.85
201.587	2743.88
201.662	2749.17
201.737	2762.61
201.812	2773.05
201.886	2742.77
201.961	2752.35
202.036	2739.12
202.111	2735.02
202.186	2704.5
202.26	2685.54
202.335	2667.24
202.41	2660.09
202.485	2642.76
202.559	2624.95
202.634	2601.27
202.709	2610.27
202.784	2590.55
202.858	2589.31
202.933	2573.64
203.008	2569.93
203.082	2552.55
203.157	2554.31
203.232	2510.75
203.306	2492.51
203.381	2459.02
203.456	2439.36
203.53	2417.82
203.605	2400.83
203.68	2379.12
203.754	2376.79
203.829	2366.84
203.904	2349.42
203.978	2341.7
204.053	2346.42
204.127	2334.95
204.202	2330.14
204.277	2316.1
204.351	2310.05
204.426	2304.96
204.5	2296.82
204.575	2263.28
204.65	2270.04
204.724	2260.23
204.799	2273.21
204.873	2265.65
204.948	2263.41
205.022	2250.66
205.097	2242.76
205.171	2258.12
205.246	2263.55
205.32	2263.03
205.395	2262.36
205.469	2252.42
205.544	2257.94
205.618	2241.86
205.693	2251
205.767	2240.48
205.842	2259.81
205.916	2254.62
205.991	2244.39
206.065	2249.2
206.14	2263.89
206.214	2257.42
206.289	2250.56
206.363	2259.41
206.438	2260.7
206.512	2271.07
206.586	2290.91
206.661	2295.24
206.735	2274.12
206.81	2274.55
206.884	2286.68
206.958	2275.22
207.033	2287.3
207.107	2289.49
207.181	2321.58
207.256	2316.96
207.33	2336.76
207.405	2343.19
207.479	2362.85
207.553	2372.46
207.628	2356.33
207.702	2367.61
207.776	2363.04
207.851	2366.56
207.925	2382.66
207.999	2382.8
208.073	2377.62
208.148	2381.85
208.222	2372.9
208.296	2402.98
208.371	2420.46
208.445	2435.93
208.519	2464.4
208.593	2477.49
208.668	2479.77
208.742	2480.44
208.816	2481.49
208.89	2493.54
208.965	2493.59
209.039	2501.35
209.113	2518.06
209.187	2542.05
209.261	2542.71
209.336	2564.81
209.41	2584.57
209.484	2587.95
209.558	2612.3
209.632	2629.63
209.707	2641.87
209.781	2668.92
209.855	2689.84
209.929	2710.96
210.003	2720.88
210.077	2727.64
210.151	2781.29
210.226	2821.15
210.3	2853.96
210.374	2886.88
210.448	2902.51
210.522	2926.45
210.596	2946.61
210.67	2969.92
210.744	3029.63
210.818	3075.67
210.892	3111.78
210.966	3126.89
211.041	3160.71
211.115	3180.98
211.189	3230.44
211.263	3274.33
211.337	3307.96
211.411	3346.28
211.485	3372.16
211.559	3418.4
211.633	3452.98
211.707	3461.05
211.781	3506.97
211.855	3516.38
211.929	3551.16
212.003	3581.71
212.077	3639.51
212.151	3705.97
212.225	3769.17
212.299	3809.57
212.373	3853.95
212.447	3911.6
212.52	4001.22
212.594	4069.93
212.668	4149
212.742	4203.95
212.816	4269.28
212.89	4340.06
212.964	4421.66
213.038	4504.7
213.112	4591.38
213.186	4690.28
213.26	4759.85
213.333	4804.47
213.407	4905.14
213.481	5004.7
213.555	5111.46
213.629	5197.61
213.703	5280.57
213.777	5381.34
213.85	5472.61
213.924	5608.93
213.998	5717.85
214.072	5823.12
214.146	5917.72
214.219	6031.82
214.293	6145.91
214.367	6269.65
214.441	6395.46
214.515	6501.67
214.588	6605.54
214.662	6707.16
214.736	6814.83
214.81	6946.26
214.883	7084.76
214.957	7198.14
215.031	7316.38
215.105	7428.91
215.178	7551.54
215.252	7676.2
215.326	7782.17
215.4	7894.54
215.473	7982.8
215.547	8101.96
215.621	8222.79
215.694	8358.36
215.768	8467.45
215.842	8589.05
215.915	8709.05
215.989	8814.94
216.063	8932.83
216.136	9063.77
216.21	9193.32
216.284	9338.83
216.357	9469.56
216.431	9595.87
216.504	9732.59
216.578	9881.61
216.652	10018.43
216.725	10144.97
216.799	10286.47
216.873	10415.14
216.946	10561.83
217.02	10689.21
217.093	10811.84
217.167	10919.39
217.24	11030.89
217.314	11152.47
217.387	11261.52
217.461	11370.34
217.535	11507.59
217.608	11621.86
217.682	11742.98
217.755	11863.52
217.829	11963.92
217.902	12081.72
217.976	12198.51
218.049	12300.41
218.123	12400.62
218.196	12515.3
218.27	12627.03
218.343	12722.53
218.417	12829.83
218.49	12922
218.563	13038.85
218.637	13141.77
218.71	13257.7
218.784	13370.98
218.857	13477.47
218.931	13597.98
219.004	13702.35
219.077	13805.41
219.151	13905.15
219.224	13991.63
219.298	14088.19
219.371	14201.81
219.444	14279.52
219.518	14370.77
219.591	14467.47
219.665	14586.24
219.738	14677.88
219.811	14755.87
219.885	14855.27
219.958	14960.3
220.031	15055.84
220.105	15156.25
220.178	15247.45
220.251	15329.54
220.325	15425.26
220.398	15510.29
220.471	15589.92
220.544	15671.81
220.618	15737.85
220.691	15825.19
220.764	15904.77
220.838	15983.14
220.911	16048.06
220.984	16149.95
221.057	16226.64
221.131	16303.95
221.204	16342.94
221.277	16430.18
221.35	16521.8
221.424	16570.24
221.497	16627.74
221.57	16688.61
221.643	16753.24
221.716	16818.83
221.79	16877.92
221.863	16921
221.936	16979.03
222.009	17038.41
222.082	17105.01
222.155	17172.72
222.229	17233.5
222.302	17293.64
222.375	17346.32
222.448	17404.34
222.521	17446.66
222.594	17503.81
222.667	17549.45
222.74	17604.82
222.814	17649.88
222.887	17696.1
222.96	17756.68
223.033	17806.7
223.106	17853.69
223.179	17893.59
223.252	17934.79
223.325	17981.64
223.398	18036.28
223.471	18069.78
223.544	18105.34
223.617	18141.34
223.69	18174.54
223.763	18203.94
223.837	18245.72
223.91	18286.39
223.983	18302.2
224.056	18323.6
224.129	18349.67
224.202	18389.76
224.275	18424.12
224.348	18441.23
224.42	18454.77
224.493	18472.75
224.566	18498.19
224.639	18529.47
224.712	18546.86
224.785	18573.85
224.858	18595.73
224.931	18605.27
225.004	18625.22
225.077	18648.59
225.15	18646.91
225.223	18661.55
225.296	18703.67
225.369	18711.77
225.442	18725.94
225.514	18750.13
225.587	18778.13
225.66	18809.02
225.733	18830.36
225.806	18849.45
225.879	18862.41
225.952	18876.96
226.025	18913.11
226.097	18946.31
226.17	18964.14
226.243	18963.32
226.316	18974.45
226.389	18990.64
226.461	19014.59
226.534	19040.47
226.607	19053.14
226.68	19094.88
226.753	19117.77
226.825	19117.72
226.898	19148.03
226.971	19158.97
227.044	19180.46
227.117	19191.4
227.189	19204.99
227.262	19229.04
227.335	19243.54
227.407	19253.42
227.48	19266.14
227.553	19268.7
227.626	19266.58
227.698	19273.47
227.771	19293.56
227.844	19287.35
227.916	19291.15
227.989	19286.91
228.062	19298.33
228.134	19329.03
228.207	19322.48
228.28	19319.25
228.352	19325.32
228.425	19320.07
228.498	19339.83
228.57	19334.72
228.643	19351.92
228.716	19359.01
228.788	19344.84
228.861	19342.48
228.934	19366.81
229.006	19370.57
229.079	19369.56
229.151	19375.34
229.224	19364.4
229.296	19372.21
229.369	19411.15
229.442	19433.51
229.514	19433.99
229.587	19439.34
229.659	19411.77
229.732	19429.56
229.804	19437.7
229.877	19460.2
229.949	19479.77
230.022	19486.66
230.094	19489.79
230.167	19487.09
230.239	19466.32
230.312	19463.92
230.384	19489.94
230.457	19478.71
230.529	19476.69
230.602	19492.06
230.674	19488.49
230.747	19501.26
230.819	19505.89
230.892	19474.18
230.964	19475.1
231.037	19482.85
231.109	19476.11
231.181	19492.97
231.254	19473.02
231.326	19471.58
231.399	19458.9
231.471	19442.42
231.544	19414.71
231.616	19420.98
231.688	19418.33
231.761	19410.95
231.833	19410.18
231.905	19372.35
231.978	19373.66
232.05	19368.26
232.122	19348.93
232.195	19343.87
232.267	19343.87
232.339	19334.04
232.412	19343.05
232.484	19324.5
232.556	19304.31
232.629	19314.14
232.701	19306.82
232.773	19301.66
232.846	19282.05
232.918	19270.77
232.99	19267.64
233.062	19271.44
233.135	19257.61
233.207	19235.06
233.279	19238.53
233.351	19231.59
233.424	19215.45
233.496	19192.22
233.568	19200.12
233.64	19160.75
233.713	19143.02
233.785	19122.68
233.857	19109.48
233.929	19078.3
234.001	19079.12
234.074	19079.55
234.146	19045.58
234.218	19026.59
234.29	19002.98
234.362	18990.59
234.434	18954.21
234.507	18915.71
234.579	18875.66
234.651	18859.9
234.723	18844.87
234.795	18833.11
234.867	18808.87
234.939	18809.21
235.012	18798.75
235.084	18769.45
235.156	18776.05
235.228	18747.53
235.3	18728.39
235.372	18712.59
235.444	18700.2
235.516	18655.87
235.588	18637.85
235.66	18623.92
235.732	18591.15
235.804	18628.26
235.876	18613.61
235.948	18618.81
236.02	18602.28
236.092	18587
236.164	18557.46
236.236	18544.07
236.308	18513.56
236.38	18504.74
236.452	18474.77
236.524	18441.71
236.596	18449.61
236.668	18434.87
236.74	18411.54
236.812	18385.86
236.884	18367.4
236.956	18347.31
237.028	18315.45
237.1	18283.41
237.172	18271.5
237.244	18265.19
237.316	18210.35
237.388	18179.65
237.46	18138.59
237.532	18136.18
237.604	18105.53
237.675	18102.02
237.747	18082.93
237.819	18042.4
237.891	18012.57
237.963	17987.42
238.035	17965.06
238.107	17886.99
238.178	17868.29
238.25	17843.42
238.322	17846.07
238.394	17808.48
238.466	17781.54
238.538	17764.34
238.609	17746.46
238.681	17705.21
238.753	17672.87
238.825	17638.99
238.897	17617.64
238.968	17608.68
239.04	17568.06
239.112	17569.55
239.184	17529.69
239.255	17496.06
239.327	17481.5
239.399	17456.06
239.471	17428.2
239.542	17407.67
239.614	17412.54
239.686	17360.88
239.758	17347.38
239.829	17304.63
239.901	17286.9
239.973	17262.8
240.044	17241.84
240.116	17215.91
240.188	17182.42
240.259	17157.6
240.331	17127.52
240.403	17102.8
240.474	17062.89
240.546	17029.06
240.618	16985.49
240.689	16947.23
240.761	16915.13
240.833	16898.12
240.904	16864.24
240.976	16834.16
241.048	16814.4
241.119	16787.99
241.191	16772.33
241.262	16760.28
241.334	16728.04
241.405	16694.44
241.477	16659.65
241.549	16631.31
241.62	16594.92
241.692	16576.51
241.763	16556.89
241.835	16536.02
241.906	16508.79
241.978	16467.87
242.049	16456.79
242.121	16434.14
242.192	16426.62
242.264	16397.65
242.335	16356.44
242.407	16344.92
242.478	16311.81
242.55	16272.38
242.621	16237.3
242.693	16201.34
242.764	16168.04
242.836	16140.71
242.907	16122.39
242.979	16100.08
243.05	16074.15
243.122	16051.11
243.193	16021.76
243.264	15968.35
243.336	15939.58
243.407	15914.22
243.479	15898.85
243.55	15865.01
243.622	15845.83
243.693	15814.6
243.764	15800.62
243.836	15760.22
243.907	15719.59
243.978	15705.57
244.05	15690
244.121	15646.57
244.192	15624.97
244.264	15575.09
244.335	15548.53
244.407	15505.15
244.478	15476.47
244.549	15441.23
244.62	15413.66
244.692	15390.38
244.763	15378.09
244.834	15337.07
244.906	15301.74
244.977	15280
245.048	15268.86
245.119	15232.09
245.191	15198.05
245.262	15146.62
245.333	15143.34
245.405	15115.63
245.476	15085.02
245.547	15052.77
245.618	15037.11
245.689	15014.31
245.761	14992.95
245.832	14966.1
245.903	14945.71
245.974	14932.99
246.045	14907.82
246.117	14891.24
246.188	14845.79
246.259	14815.27
246.33	14789.68
246.401	14765.04
246.473	14721.32
246.544	14685.17
246.615	14667.72
246.686	14636
246.757	14627.28
246.828	14592.18
246.899	14578.97
246.97	14542
247.042	14504.3
247.113	14487.87
247.184	14483.77
247.255	14460.78
247.326	14428.19
247.397	14400.71
247.468	14364.8
247.539	14342.82
247.61	14297.6
247.681	14282.37
247.752	14262.94
247.823	14234.5
247.894	14217.05
247.965	14185.14
248.037	14159.59
248.108	14115.48
248.179	14089.88
248.25	14056.91
248.321	14038.49
248.392	14007.5
248.463	14003.35
248.534	13980.98
248.605	13959.48
248.675	13923.72
248.746	13902.26
248.817	13894.02
248.888	13879.27
248.959	13840.75
249.03	13819.69
249.101	13802.91
249.172	13779.53
249.243	13734.94
249.314	13723.27
249.385	13705.34
249.456	13691.6
249.527	13662.39
249.598	13646
249.669	13626.81
249.739	13608.93
249.81	13583.38
249.881	13541.87
249.952	13515.02
250.023	13489.57
250.094	13451.82
250.165	13420.87
250.235	13396.29
250.306	13371.27
250.377	13332.22
250.448	13317.86
250.519	13274.42
250.59	13263.09
250.66	13232.29
250.731	13228.53
250.802	13204.33
250.873	13184.61
250.944	13164.13
251.014	13135.73
251.085	13138.43
251.156	13117.9
251.227	13110.47
251.297	13102.42
251.368	13095.87
251.439	13079.96
251.51	13078.61
251.58	13053.49
251.651	13027.17
251.722	13020.23
251.792	12982.68
251.863	12963.54
251.934	12962.91
252.005	12974.43
252.075	12955.63
252.146	12953.22
252.217	12947.53
252.287	12939.82
252.358	12912.78
252.429	12908.2
252.499	12886.8
252.57	12869.59
252.641	12855.56
252.711	12835.7
252.782	12803.4
252.852	12800.56
252.923	12777.27
252.994	12753.02
253.064	12741.84
253.135	12715.67
253.205	12686.98
253.276	12681.87
253.347	12679.61
253.417	12648.32
253.488	12622.73
253.558	12600.5
253.629	12575.49
253.699	12552.25
253.77	12537.6
253.841	12515.08
253.911	12502.65
253.982	12480.96
254.052	12466.4
254.123	12453.77
254.193	12433.38
254.264	12446.88
254.334	12412.07
254.405	12384.45
254.475	12356.2
254.546	12332.49
254.616	12326.03
254.687	12310.56
254.757	12295.37
254.827	12270.84
254.898	12258.21
254.968	12232.81
255.039	12205.96
255.109	12195.26
255.18	12172.36
255.25	12127.82
255.321	12114.18
255.391	12080.63
255.461	12090.85
255.532	12043.13
255.602	12014.59
255.673	11981.96
255.743	11952.17
255.813	11913.66
255.884	11903.49
255.954	11893.18
256.024	11901.18
256.095	11879.49
256.165	11844.45
256.235	11827.86
256.306	11795.23
256.376	11780.34
256.446	11775.38
256.517	11760
256.587	11750.6
256.657	11736.57
256.728	11725.3
256.798	11705.87
256.868	11684.81
256.938	11648.61
257.009	11646.44
257.079	11642.01
257.149	11650.2
257.219	11617.52
257.29	11608.03
257.36	11580.65
257.43	11577.18
257.5	11535.01
257.571	11515.78
257.641	11506.96
257.711	11479.54
257.781	11478.48
257.852	11462.91
257.922	11428.21
257.992	11407.63
258.062	11383.1
258.132	11370.56
258.202	11356.15
258.273	11341.41
258.343	11340.83
258.413	11321.26
258.483	11300.06
258.553	11264.59
258.623	11235.23
258.693	11219.38
258.764	11219.71
258.834	11212.68
258.904	11186.8
258.974	11160.05
259.044	11139.81
259.114	11131.48
259.184	11122.08
259.254	11107.48
259.324	11075.19
259.394	11062.71
259.464	11065.93
259.535	11046.85
259.605	11031.33
259.675	11005.07
259.745	10993.46
259.815	10965.51
259.885	10943.34
259.955	10955.77
260.025	10938.38
260.095	10916.31
260.165	10902.28
260.235	10899.15
260.305	10875.25
260.375	10850.63
260.445	10857.04
260.515	10861.52
260.585	10858.48
260.655	10834.2
260.725	10825.47
260.795	10818.1
260.865	10818.58
260.934	10796.71
261.004	10789.19
261.074	10765.34
261.144	10767.99
261.214	10765.29
261.284	10748.28
261.354	10742.21
261.424	10711.41
261.494	10712.91
261.564	10700.86
261.634	10691.99
261.703	10659.66
261.773	10653.59
261.843	10652.96
261.913	10637.11
261.983	10606.37
262.053	10589.22
262.123	10578.23
262.192	10550.53
262.262	10547.88
262.332	10525.62
262.402	10515.74
262.472	10510.87
262.541	10472.81
262.611	10461.15
262.681	10432.2
262.751	10421.02
262.821	10407.58
262.89	10382.76
262.96	10378.38
263.03	10389.12
263.1	10377.27
263.169	10370.77
263.239	10360.51
263.309	10356.27
263.379	10343.98
263.448	10327.84
263.518	10315.89
263.588	10305.82
263.657	10305.29
263.727	10297.68
263.797	10282.8
263.867	10267.52
263.936	10231.2
264.006	10232.02
264.076	10219.97
264.145	10210.05
264.215	10191.17
264.285	10185.43
264.354	10155.71
264.424	10131.67
264.494	10091.73
264.563	10075.21
264.633	10075.84
264.702	10060.33
264.772	10029.01
264.842	10008.49
264.911	10003.15
264.981	9975.98
265.05	9958.3
265.12	9936.09
265.19	9922.36
265.259	9915.86
265.329	9907.81
265.398	9900.06
265.468	9916.34
265.537	9895.82
265.607	9881.75
265.676	9880.94
265.746	9869.47
265.815	9867.83
265.885	9854.25
265.955	9831.71
266.024	9813.41
266.094	9772.47
266.163	9779.55
266.232	9782.2
266.302	9770.49
266.371	9755.66
266.441	9749.69
266.51	9746.94
266.58	9735
266.649	9709.42
266.719	9703.26
266.788	9690.01
266.858	9691.7
266.927	9654.32
266.996	9643.29
267.066	9633.85
267.135	9617.24
267.205	9617.14
267.274	9611.65
267.343	9607.8
267.413	9605.2
267.482	9609.29
267.552	9613.77
267.621	9581.55
267.69	9548.03
267.76	9543.02
267.829	9541.05
267.898	9526.31
267.968	9504.6
268.037	9500.84
268.106	9504.88
268.176	9485.86
268.245	9478.69
268.314	9463.27
268.384	9467.08
268.453	9455.19
268.522	9442.95
268.592	9434.05
268.661	9409.58
268.73	9403.42
268.799	9389.4
268.869	9393.4
268.938	9357.24
269.007	9342.02
269.076	9335.81
269.146	9337.78
269.215	9323.24
269.284	9325.94
269.353	9310.92
269.422	9296.28
269.492	9276.64
269.561	9237.06
269.63	9233.16
269.699	9219.34
269.768	9209.42
269.838	9198.78
269.907	9198.73
269.976	9183.32
270.045	9154.82
270.114	9151.65
270.183	9137.59
270.253	9124.44
270.322	9097.53
270.391	9098.01
270.46	9098.88
270.529	9094.88
270.598	9092.28
270.667	9080.73
270.736	9058.24
270.806	9056.51
270.875	9062.91
270.944	9054.05
271.013	9069.94
271.082	9061.08
271.151	9050.44
271.22	9020.64
271.289	9008.27
271.358	8996.67
271.427	8988
271.496	8984.06
271.565	8963.36
271.634	8955.17
271.703	8976.6
271.772	8978.48
271.841	8964.18
271.91	8941.89
271.979	8935.01
272.048	8916.09
272.117	8920.42
272.186	8902.27
272.255	8898.76
272.324	8893.51
272.393	8887.54
272.462	8868.43
272.531	8857.6
272.6	8845.32
272.669	8854.42
272.738	8844.94
272.807	8837.72
272.876	8816.93
272.945	8845.09
273.013	8851.34
273.082	8848.36
273.151	8808.4
273.22	8800.84
273.289	8798.15
273.358	8808.21
273.427	8795.17
273.496	8791.12
273.564	8785.01
273.633	8787.27
273.702	8765.13
273.771	8758.58
273.84	8750.55
273.909	8753.72
273.977	8751.22
274.046	8741.88
274.115	8741.88
274.184	8727.45
274.253	8720.32
274.322	8732.64
274.39	8696.16
274.459	8680.75
274.528	8659.48
274.597	8655.49
274.665	8649.86
274.734	8652.74
274.803	8641.82
274.872	8631.66
274.94	8620.84
275.009	8641.01
275.078	8624.69
275.147	8625.94
275.215	8616.27
275.284	8626.33
275.353	8613.62
275.421	8586.24
275.49	8599.67
275.559	8591.29
275.627	8580.95
275.696	8572.19
275.765	8569.98
275.833	8560.31
275.902	8562.71
275.971	8571.33
276.039	8582.88
276.108	8589.76
276.177	8585.48
276.245	8575.66
276.314	8571.23
276.383	8580.66
276.451	8551.06
276.52	8556.06
276.588	8572.52
276.657	8576.95
276.725	8566.89
276.794	8569.88
276.863	8587.73
276.931	8570.11
277	8571.41
277.068	8583.39
277.137	8597.3
277.205	8593.26
277.274	8610.05
277.342	8609.04
277.411	8588.64
277.48	8573.91
277.548	8558.8
277.617	8557.74
277.685	8548.07
277.754	8554.62
277.822	8536.72
277.89	8548.65
277.959	8544.66
278.027	8520.5
278.096	8514.05
278.164	8538.07
278.233	8526.23
278.301	8510.25
278.37	8515.07
278.438	8511.89
278.507	8513.91
278.575	8492.3
278.643	8488.02
278.712	8473.49
278.78	8467.09
278.849	8479.6
278.917	8489.51
278.985	8483.3
279.054	8485.13
279.122	8495.62
279.191	8496.2
279.259	8497.74
279.327	8476.08
279.396	8488.45
279.464	8486.04
279.532	8490.09
279.601	8483.49
279.669	8480.7
279.737	8498.41
279.806	8495.28
279.874	8497.25
279.942	8499.66
280.011	8495.23
280.079	8502.65
280.147	8514.87
280.215	8515.64
280.284	8510.49
280.352	8498.36
280.42	8506.25
280.488	8495.38
280.557	8490.52
280.625	8490.66
280.693	8493.16
280.761	8492.68
280.83	8474.25
280.898	8488.16
280.966	8465.3
281.034	8435.03
281.102	8421.71
281.171	8406.26
281.239	8414.92
281.307	8402.07
281.375	8384.13
281.443	8409.25
281.512	8405.59
281.58	8413.43
281.648	8401.98
281.716	8406.89
281.784	8408.81
281.852	8401.31
281.92	8402.22
281.989	8413.39
282.057	8397.8
282.125	8431.63
282.193	8438.56
282.261	8440.2
282.329	8431.29
282.397	8440.15
282.465	8444.52
282.533	8462.04
282.601	8456.36
282.67	8432.59
282.738	8432.68
282.806	8443.46
282.874	8424.41
282.942	8425.08
283.01	8421.08
283.078	8425.32
283.146	8423.3
283.214	8429.46
283.282	8436.34
283.35	8447.5
283.418	8435.57
283.486	8439.9
283.554	8405.48
283.622	8404.19
283.69	8399.66
283.758	8399.76
283.826	8406.64
283.894	8417.71
283.962	8434.41
284.03	8450.38
284.098	8450.96
284.165	8446.92
284.233	8449.61
284.301	8447.69
284.369	8442.11
284.437	8429.98
284.505	8430.56
284.573	8433.93
284.641	8419.11
284.709	8422.23
284.777	8400.82
284.845	8410.59
284.912	8415.3
284.98	8418.91
285.048	8410.64
285.116	8419.2
285.184	8426.85
285.252	8421.66
285.319	8400.34
285.387	8388.4
285.455	8372.43
285.523	8380.13
285.591	8373.54
285.659	8375.32
285.726	8388.02
285.794	8374.12
285.862	8370.8
285.93	8362.95
285.997	8361.37
286.065	8355.64
286.133	8348.13
286.201	8348.81
286.269	8336.78
286.336	8326.96
286.404	8319.55
286.472	8327.11
286.539	8307.34
286.607	8288.71
286.675	8289.97
286.743	8299.2
286.81	8292.27
286.878	8304.83
286.946	8298.14
287.013	8297.76
287.081	8292.13
287.149	8274.33
287.216	8292.51
287.284	8289.29
287.352	8296.02
287.419	8291.98
287.487	8310.46
287.555	8311.61
287.622	8311.23
287.69	8312.24
287.758	8321.52
287.825	8319.6
287.893	8307.86
287.96	8317.19
288.028	8330.57
288.096	8335.81
288.163	8338.12
288.231	8327.15
288.298	8319.65
288.366	8330.09
288.433	8327.39
288.501	8312.72
288.569	8317.39
288.636	8313.01
288.704	8325.76
288.771	8328.12
288.839	8320.66
288.906	8316.47
288.974	8327.97
289.041	8332.93
289.109	8328.07
289.176	8333.36
289.244	8332.02
289.311	8344.05
289.379	8352.99
289.446	8350.59
289.514	8346.35
289.581	8347.22
289.649	8349.1
289.716	8353.38
289.783	8345.05
289.851	8364.44
289.918	8375.22
289.986	8385.08
290.053	8387.39
290.121	8387.83
290.188	8391.15
290.255	8421.61
290.323	8408.57
290.39	8399.71
290.458	8399.95
290.525	8407.75
290.592	8405.49
290.66	8408.61
290.727	8402.94
290.794	8416.7
290.862	8416.84
290.929	8418.72
290.996	8415.11
291.064	8424.2
291.131	8435.56
291.198	8452.45
291.266	8445.91
291.333	8444.71
291.4	8452.41
291.468	8468
291.535	8460.49
291.602	8458.13
291.669	8446.58
291.737	8456.69
291.804	8458.32
291.871	8469.63
291.938	8480.31
292.006	8502.45
292.073	8515.69
292.14	8525.98
292.207	8516.17
292.275	8518.72
292.342	8527.19
292.409	8555.29
292.476	8576.66
292.543	8570.5
292.611	8564.05
292.678	8579.35
292.745	8601.97
292.812	8603.95
292.879	8593.55
292.946	8600.29
293.014	8613.57
293.081	8620.5
293.148	8635.42
293.215	8646.82
293.282	8645.62
293.349	8651.2
293.416	8633.54
293.484	8651.54
293.551	8656.06
293.618	8675.27
293.685	8699.53
293.752	8690.57
293.819	8683.31
293.886	8674.88
293.953	8682.49
294.02	8695.77
294.087	8707.71
294.154	8700.87
294.221	8719.16
294.288	8726.82
294.356	8742.31
294.423	8751.07
294.49	8746.84
294.557	8752.86
294.624	8745.01
294.691	8756.18
294.758	8755.36
294.825	8765.75
294.892	8750.5
294.959	8750.83
295.026	8750.98
295.093	8742.7
295.16	8747.99
295.226	8748.95
295.293	8767
295.36	8765.08
295.427	8779.71
295.494	8787.99
295.561	8796.08
295.628	8813.37
295.695	8828.48
295.762	8829.01
295.829	8838.25
295.896	8852.74
295.963	8860.01
296.03	8873.97
296.096	8877.87
296.163	8884.75
296.23	8897.99
296.297	8918.2
296.364	8920.18
296.431	8925.81
296.498	8923.16
296.564	8946.22
296.631	8947.18
296.698	8938.56
296.765	8961.43
296.832	8947.37
296.899	8934.04
296.965	8950.12
297.032	8929.12
297.099	8941.26
297.166	8946.02
297.233	8942.07
297.299	8936.39
297.366	8933.75
297.433	8934.23
297.5	8950.98
297.566	8952.23
297.633	8951.03
297.7	8943.37
297.767	8941.4
297.833	8947.27
297.9	8950.5
297.967	8934.37
298.033	8950.79
298.1	8971.25
298.167	8961.86
298.234	8966.15
298.3	8976.06
298.367	8969.52
298.434	8977.46
298.5	8969.56
298.567	8969.85
298.634	8965.42
298.7	8979.53
298.767	8983.38
298.834	8993.1
298.9	8985.59
298.967	8980.64
299.033	8983.96
299.1	9002.11
299.167	9020.98
299.233	9016.5
299.3	9026.13
299.366	9030.84
299.433	9037.63
299.5	9020.64
299.566	9024.44
299.633	9032.91
299.699	9038.84
299.766	9033.49
299.832	9035.08
299.899	9043.8
299.965	9054.39
300.032	9046.78
300.099	9054.58
300.165	9059.68
300.232	9057.86
300.298	9059.54
300.365	9069.55
300.431	9075.19
300.498	9067.63
300.564	9069.94
300.631	9080.24
300.697	9090.16
300.763	9100.36
300.83	9105.23
300.896	9115.82
300.963	9125.74
301.029	9141.05
301.096	9142.73
301.162	9157.8
301.229	9148.56
301.295	9133.54
301.361	9136.23
301.428	9144.7
301.494	9132.43
301.561	9133.49
301.627	9136.47
301.693	9135.8
301.76	9140.47
301.826	9132.62
301.892	9138.88
301.959	9144.13
302.025	9142.44
302.092	9132.72
302.158	9133.97
302.224	9123.57
302.291	9114.71
302.357	9106.24
302.423	9086.21
302.49	9080.53
302.556	9087.7
302.622	9090.4
302.688	9096.41
302.755	9102.72
302.821	9113.7
302.887	9114.61
302.954	9115.72
303.02	9121.26
303.086	9125.69
303.152	9125.01
303.219	9118.8
303.285	9120.68
303.351	9124
303.417	9115.43
303.483	9113.94
303.55	9111.82
303.616	9110.71
303.682	9109.27
303.748	9099.69
303.815	9114.57
303.881	9123.76
303.947	9107.97
304.013	9104.94
304.079	9100.12
304.145	9079.18
304.212	9077.21
304.278	9067.05
304.344	9056.27
304.41	9043.17
304.476	9029.98
304.542	9022.57
304.608	9029.74
304.674	9018.62
304.741	9009.04
304.807	9014.48
304.873	9017.46
304.939	9024.1
305.005	9012.45
305.071	9006.53
305.137	9011.01
305.203	8987.52
305.269	8980.29
305.335	8994.3
305.401	8991.08
305.467	8990.26
305.533	9000.32
305.599	9000.66
305.666	9012.74
305.732	9017.32
305.798	9030.46
305.864	9053.42
305.93	9060.4
305.996	9054.68
306.062	9050.01
306.128	9050.05
306.194	9041.63
306.259	9041.29
306.325	9028.97
306.391	9032.1
306.457	9043.31
306.523	9038.69
306.589	9062.91
306.655	9061.27
306.721	9037.63
306.787	9027.48
306.853	9031.95
306.919	9015.68
306.985	9004.9
307.051	8992.53
307.117	8982.85
307.183	8968.7
307.248	8942.65
307.314	8943.86
307.38	8948.33
307.446	8951.7
307.512	8940.25
307.578	8938.85
307.644	8924.22
307.709	8918.54
307.775	8912.28
307.841	8901.25
307.907	8903.32
307.973	8882.86
308.039	8870.44
308.104	8869.96
308.17	8874.44
308.236	8860.53
308.302	8859.18
308.368	8845.46
308.433	8845.85
308.499	8845.36
308.565	8837.13
308.631	8828.28
308.696	8803.01
308.762	8785.1
308.828	8778.89
308.894	8755.5
308.959	8729.9
309.025	8724.94
309.091	8725.42
309.156	8715.79
309.222	8714.35
309.288	8695.92
309.354	8673.92
309.419	8675.89
309.485	8668.1
309.551	8668.58
309.616	8655.44
309.682	8652.6
309.748	8647.5
309.813	8636.33
309.879	8620.5
309.945	8605.44
310.01	8603.32
310.076	8600.96
310.141	8593.45
310.207	8576.32
310.273	8581.32
310.338	8586.81
310.404	8575.11
310.469	8560.58
310.535	8556.97
310.601	8533.25
310.666	8538.54
310.732	8546.62
310.797	8535.94
310.863	8524.49
310.928	8511.3
310.994	8511.92
311.059	8510.38
311.125	8511.15
311.191	8520.83
311.256	8511.78
311.322	8510.82
311.387	8494.22
311.453	8834.34
311.518	8809.22
311.584	8811.87
311.649	8815.82
311.715	8807.83
311.78	8805.28
311.846	8796.38
311.911	8797.92
311.976	8803.21
312.042	8789.54
312.107	8768.52
312.173	8754.46
312.238	8747.44
312.304	8742.58
312.369	8732.33
312.434	8717.51
312.5	8697.54
312.565	8668.33
312.631	8668.14
312.696	8660.88
312.761	8663.81
312.827	8316.86
312.892	8355.79
312.958	8348.28
313.023	8340.1
313.088	8331.78
313.154	8314.07
313.219	8307.77
313.284	8296.61
313.35	8290.88
313.415	8281.6
313.48	8280.1
313.546	8282.75
313.611	8289.29
313.676	8278.76
313.741	8264.85
313.807	8268.94
313.872	8278.47
313.937	8279.24
314.003	8290.35
314.068	8290.83
314.133	8295.02
314.198	8279.24
314.264	8256.09
314.329	8242.91
314.394	8234.87
314.459	8234.68
314.525	8250.65
314.59	8243.25
314.655	8231.03
314.72	8236.37
314.785	8236.51
314.851	8234.59
314.916	8219.24
314.981	8204.47
315.046	8199.95
315.111	8193.55
315.176	8177.34
315.242	8182.34
315.307	8182.15
315.372	8161.36
315.437	8152.17
315.502	8142.7
315.567	8157.03
315.632	8140.05
315.698	8138.18
315.763	8137.94
315.828	8126.58
315.893	8122.64
315.958	8122.11
316.023	8109.32
316.088	8084.54
316.153	8064.05
316.218	8054.1
316.283	8035.44
316.348	8018.89
316.413	8010.86
316.479	7998.4
316.544	7971.33
316.609	7938.96
316.674	7908.27
316.739	7874.81
316.804	7844.42
316.869	7807.63
316.934	7769.1
316.999	7740.83
317.064	7697.03
317.129	7652.26
317.194	7619.47
317.259	7579.36
317.324	7529.9
317.389	7493.36
317.454	7458.75
317.518	7429.09
317.583	7406.35
317.648	7384.91
317.713	7353.86
317.778	7299.54
317.843	7271.04
317.908	7232.6
317.973	7195.59
318.038	7164.06
318.103	7132.35
318.168	7103.04
318.233	7077.04
318.297	7028.32
318.362	7000.84
318.427	6967.21
318.492	6943.72
318.557	6905.05
318.622	6878.96
318.687	6855.57
318.751	6822.91
318.816	6797.6
318.881	6762.92
318.946	6712.1
319.011	6669.5
319.075	6625.66
319.14	6594.74
319.205	6557.76
319.27	6528
319.335	6489.3
319.399	6453.92
319.464	6428.38
319.529	6380.18
319.594	6343.5
319.658	6316.05
319.723	6273.09
319.788	6246.69
319.853	6196.49
319.917	6166.45
319.982	6113.71
320.047	6078.06
320.112	6048.59
320.176	5999.12
320.241	5969.09
320.306	5941.07
320.37	5906.24
320.435	5881.88
320.5	5852.67
320.564	5818.03
320.629	5778.04
320.694	5748.17
320.758	5707.12
320.823	5664.2
320.888	5638.46
320.952	5594.68
321.017	5556.57
321.082	5521.29
321.146	5489.31
321.211	5457.34
321.275	5420.92
321.34	5380.23
321.405	5343.33
321.469	5302.17
321.534	5258.63
321.598	5211.43
321.663	5179.08
321.727	5146.26
321.792	5103.39
321.857	5062.28
321.921	5024.87
321.986	4989.59
322.05	4936.58
322.115	4904.25
322.179	4864.9
322.244	4817.17
322.308	4787.39
322.373	4746.75
322.437	4708.27
322.502	4678.91
322.566	4637.75
322.631	4603.77
322.695	4567.13
322.76	4525.41
322.824	4494.45
322.889	4463.55
322.953	4421.18
323.018	4359.9
323.082	4302.62
323.146	4253.27
323.211	4206.22
323.275	4164.61
323.34	4124.03
323.404	4090.53
323.468	4046.59
323.533	4004.63
323.597	3959.06
323.662	3907.16
323.726	3872.13
323.79	3831.28
323.855	3771.92
323.919	3729.26
323.983	3684.3
324.048	3623.11
324.112	3768.84
324.177	3645.14
324.241	3453.72
324.305	3270.76
324.37	3091.82
324.434	2916.88
324.498	2877.88
324.562	2833.77
324.627	2776.39
324.691	2725.61
324.755	2666.78
324.82	2600.84
324.884	2532.01
324.948	2471.01
325.012	2389.65
325.077	2281.93
