Data from 20250625_urea_1M_1_MAYP1162681_06-15-05-563.txt Node
Date: Thu Jun 26 06:15:05 BST 2025
User: adleo
Spectrometer: MAYP116268
Trigger mode: 0
Integration Time (sec): 1.000000E0
Scans to average: 1
Electric dark correction enabled: true
Nonlinearity correction enabled: true
Boxcar width: 10
XAxis mode: Wavelengths
Number of Pixels in Spectrum: 2068
>>>>>Begin Spectral Data<<<<<
179.565	1097.92
179.642	1149.36
179.718	1187.59
179.795	1224.63
179.871	1254.01
179.948	1270.43
180.024	1289.96
180.101	1311.92
180.177	1324.22
180.254	1344.47
180.33	1363.59
180.407	1409.73
180.483	1496.62
180.56	1581.05
180.636	1658.95
180.712	1649.92
180.789	1657.85
180.865	1671.34
180.942	1681.51
181.018	1690.2
181.095	1703.08
181.171	1707.55
181.248	1708.26
181.324	1722.42
181.4	1727.79
181.477	1739.01
181.553	1751.07
181.63	1770.66
181.706	1785.44
181.782	1797.17
181.859	1796.84
181.935	1801.83
182.011	1799.41
182.088	1815.9
182.164	1830.5
182.24	1842.76
182.317	1850.31
182.393	1847.94
182.469	1859.34
182.546	1869.42
182.622	1873.89
182.698	1869.56
182.775	1883.06
182.851	1897.42
182.927	1891.09
183.003	1888.01
183.08	1882.92
183.156	1890.86
183.232	1888.91
183.308	1878.35
183.385	1884.63
183.461	1901.74
183.537	1902.74
183.613	1913.68
183.69	1905.16
183.766	1897.13
183.842	1904.5
183.918	1910.63
183.995	1921.66
184.071	1924.8
184.147	1921.04
184.223	1911.11
184.299	1925.56
184.375	1916.1
184.452	1920.96
184.528	1975.65
184.604	1984.49
184.68	1995.28
184.756	2003.6
184.832	2003.8
184.908	2007.98
184.985	2007.22
185.061	1991.86
185.137	2002.65
185.213	1989.72
185.289	1989.96
185.365	1982.59
185.441	1979.17
185.517	1991.01
185.593	1989.78
185.669	1988.11
185.745	1995.63
185.822	2010.03
185.898	2000.37
185.974	2008.69
186.05	2000.46
186.126	1961.65
186.202	1955.33
186.278	1951.76
186.354	1942.68
186.43	1950.96
186.506	1948.86
186.582	1946.53
186.658	1953.57
186.734	1935.22
186.81	1941.02
186.886	1942.78
186.962	1952.9
187.038	1948.81
187.114	1940.96
187.19	1945.15
187.266	1938.35
187.341	1939.59
187.417	1932.03
187.493	1930.65
187.569	1932.6
187.645	1928.94
187.721	1917
187.797	1926.37
187.873	1928.36
187.949	1922.52
188.025	1918.05
188.101	1921.14
188.176	1925.32
188.252	1922.09
188.328	1927.12
188.404	1927.17
188.48	1923.65
188.556	1917.81
188.632	1918.28
188.707	1916.62
188.783	1917.43
188.859	1910.68
188.935	1899.84
189.011	1906.68
189.086	1902.17
189.162	1896.7
189.238	1893.18
189.314	1891.09
189.39	1884.43
189.465	1879.54
189.541	1893.85
189.617	1879.82
189.693	1875.64
189.768	1878.11
189.844	1899.09
189.92	1892.06
189.996	1899.81
190.071	1909.93
190.147	1911.36
190.223	1921.06
190.298	1914.35
190.374	1901.47
190.45	1914.97
190.526	1923.05
190.601	1921.1
190.677	1921.81
190.753	1948.22
190.828	1951.55
190.904	1964.38
190.98	1976.89
191.055	1984.5
191.131	1976.75
191.207	1995.1
191.282	2001.61
191.358	1993.48
191.433	1980.11
191.509	1993.18
191.585	1988.67
191.66	1993
191.736	2000.7
191.811	1990
191.887	2004.46
191.963	2025.33
192.038	2029.47
192.114	2031.47
192.189	2033.94
192.265	2029.19
192.34	2007.06
192.416	2008.3
192.491	2007.54
192.567	2011.58
192.642	2017.81
192.718	2018.91
192.793	2007.25
192.869	2006.49
192.944	2006.4
193.02	2015.01
193.095	2018.1
193.171	2026.04
193.246	2024.14
193.322	2019.24
193.397	2021
193.473	2011.3
193.548	1995.84
193.624	1998.03
193.699	1997.17
193.775	2010.2
193.85	2013.34
193.925	2020.19
194.001	2015.39
194.076	2004.59
194.152	1994.22
194.227	1986.52
194.302	1978.11
194.378	1980.53
194.453	1974.78
194.529	1988.9
194.604	1973.16
194.679	1967.84
194.755	1947.58
194.83	1957.15
194.905	1955.48
194.981	1965.66
195.056	1957.15
195.131	1961.9
195.207	1960.76
195.282	1953.01
195.357	1935.23
195.433	1949.35
195.508	1936.98
195.583	1947.82
195.659	1964.99
195.734	1973.55
195.809	1969.84
195.884	1976.45
195.96	1977.54
196.035	1995.57
196.11	1991.9
196.185	2004.17
196.261	2006.93
196.336	2035.98
196.411	2022.28
196.486	2026.89
196.561	2019.14
196.637	2029.7
196.712	2044.11
196.787	2046.68
196.862	2057.9
196.937	2067.51
197.013	2071.98
197.088	2084.44
197.163	2104.14
197.238	2117.89
197.313	2115.51
197.388	2131.02
197.464	2159.14
197.539	2173.74
197.614	2165.14
197.689	2177.32
197.764	2191.78
197.839	2211.67
197.914	2208.62
197.989	2231.7
198.065	2245.64
198.14	2296.3
198.215	2322.33
198.29	2333.43
198.365	2347.89
198.44	2357.88
198.515	2386.16
198.59	2402.06
198.665	2426.48
198.74	2435.48
198.815	2435.67
198.89	2458.75
198.965	2487.95
199.04	2484.09
199.115	2494.18
199.19	2535.84
199.265	2541.6
199.34	2548.93
199.415	2580.43
199.49	2603.28
199.565	2608.9
199.64	2629.66
199.715	2621.56
199.79	2628.08
199.865	2634.51
199.94	2632.7
200.015	2662.24
200.09	2667.29
200.165	2675.24
200.24	2679.2
200.315	2714.1
200.39	2730.15
200.464	2731.77
200.539	2730.68
200.614	2749.49
200.689	2771.84
200.764	2778.8
200.839	2792.51
200.914	2800.04
200.989	2787.36
201.063	2797.75
201.138	2783.94
201.213	2784.75
201.288	2768.98
201.363	2771.56
201.438	2771.46
201.512	2787.94
201.587	2770.83
201.662	2776.74
201.737	2783.8
201.812	2795.9
201.886	2765.86
201.961	2772.77
202.036	2766.06
202.111	2762.86
202.186	2733.25
202.26	2719.62
202.335	2697.46
202.41	2692.12
202.485	2675.79
202.559	2660.26
202.634	2635.77
202.709	2644.87
202.784	2626.86
202.858	2626.43
202.933	2610.19
203.008	2604.76
203.082	2586.9
203.157	2588.52
203.232	2545.77
203.306	2528.48
203.381	2496.85
203.456	2476.56
203.53	2455.4
203.605	2436.6
203.68	2414.41
203.754	2408.08
203.829	2393.7
203.904	2374.9
203.978	2363.19
204.053	2364.81
204.127	2352.24
204.202	2347.91
204.277	2332.82
204.351	2326.16
204.426	2319.83
204.5	2309.4
204.575	2276.48
204.65	2282.24
204.724	2273.57
204.799	2280.28
204.873	2275.85
204.948	2272.38
205.022	2260.06
205.097	2250.82
205.171	2264.29
205.246	2273.66
205.32	2274.38
205.395	2274.28
205.469	2265.48
205.544	2272.43
205.618	2261.3
205.693	2271.62
205.767	2260.02
205.842	2280.01
205.916	2275.15
205.991	2265.26
206.065	2272.44
206.14	2289.37
206.214	2285.33
206.289	2278.85
206.363	2287.61
206.438	2291.84
206.512	2301.36
206.586	2318.07
206.661	2326.21
206.735	2305.75
206.81	2307.27
206.884	2320.12
206.958	2307.61
207.033	2323.45
207.107	2328.54
207.181	2355.4
207.256	2351.16
207.33	2371.34
207.405	2381.06
207.479	2400.33
207.553	2410.57
207.628	2396.43
207.702	2406.91
207.776	2402.67
207.851	2407.62
207.925	2424.19
207.999	2419.24
208.073	2414.38
208.148	2418.95
208.222	2408.67
208.296	2435.08
208.371	2451.18
208.445	2461.94
208.519	2488.55
208.593	2499.07
208.668	2498.36
208.742	2500.93
208.816	2503.22
208.89	2515.98
208.965	2513.93
209.039	2522.08
209.113	2534.89
209.187	2555.88
209.261	2552.97
209.336	2572.4
209.41	2590.26
209.484	2594.46
209.558	2620.65
209.632	2636.65
209.707	2650.47
209.781	2676.28
209.855	2698.58
209.929	2716.61
210.003	2732.57
210.077	2739.24
210.151	2792.61
210.226	2830.6
210.3	2862.18
210.374	2894.77
210.448	2909.11
210.522	2934.19
210.596	2955.07
210.67	2979.05
210.744	3037.81
210.818	3083.99
210.892	3119.81
210.966	3135.49
211.041	3170.6
211.115	3188.34
211.189	3233.89
211.263	3273.48
211.337	3306.4
211.411	3345.29
211.485	3363.29
211.559	3403.23
211.633	3436.47
211.707	3440.06
211.781	3486.93
211.855	3496.76
211.929	3533.23
212.003	3561.19
212.077	3615.66
212.151	3674.6
212.225	3735.8
212.299	3778.11
212.373	3822.92
212.447	3882.44
212.52	3969.08
212.594	4031.04
212.668	4107.86
212.742	4162.22
212.816	4225.06
212.89	4294.55
212.964	4370.87
213.038	4455.65
213.112	4542.09
213.186	4635.28
213.26	4701.1
213.333	4739.73
213.407	4834.83
213.481	4923.76
213.555	5026.91
213.629	5110.33
213.703	5188.38
213.777	5282.94
213.85	5368.99
213.924	5494.93
213.998	5593.33
214.072	5691.67
214.146	5790.85
214.219	5897.31
214.293	6000.91
214.367	6117.85
214.441	6231.05
214.515	6333.16
214.588	6430.81
214.662	6518.81
214.736	6622.9
214.81	6749.49
214.883	6880.32
214.957	6990.41
215.031	7101.41
215.105	7203.72
215.178	7311.09
215.252	7432.44
215.326	7531.71
215.4	7634.68
215.473	7724.95
215.547	7833.01
215.621	7950.87
215.694	8081.1
215.768	8182.46
215.842	8301.28
215.915	8411.72
215.989	8514.98
216.063	8628.23
216.136	8751.3
216.21	8881.34
216.284	9010.25
216.357	9138.98
216.431	9261.95
216.504	9390.55
216.578	9541.18
216.652	9677.25
216.725	9805.61
216.799	9944.14
216.873	10070.9
216.946	10207.12
217.02	10326.15
217.093	10445.38
217.167	10540.78
217.24	10640.23
217.314	10755.67
217.387	10868.12
217.461	10981.36
217.535	11115.13
217.608	11227.07
217.682	11350.25
217.755	11468.09
217.829	11579.85
217.902	11691.91
217.976	11806.28
218.049	11916.85
218.123	12012.67
218.196	12120.93
218.27	12224.9
218.343	12316.68
218.417	12422.53
218.49	12523.62
218.563	12638.39
218.637	12743.14
218.71	12870.01
218.784	12986.23
218.857	13095.85
218.931	13210.87
219.004	13305.49
219.077	13415.69
219.151	13520.93
219.224	13603.6
219.298	13696.25
219.371	13798.79
219.444	13875.58
219.518	13963.7
219.591	14054.28
219.665	14167.22
219.738	14257.17
219.811	14333.24
219.885	14423.87
219.958	14519.46
220.031	14600.73
220.105	14695.65
220.178	14783.04
220.251	14860.65
220.325	14943.46
220.398	15033.41
220.471	15106.97
220.544	15196.29
220.618	15256.15
220.691	15325.66
220.764	15410.4
220.838	15496.39
220.911	15560.06
220.984	15655.98
221.057	15732.53
221.131	15810.03
221.204	15851.05
221.277	15947.74
221.35	16054.26
221.424	16115.66
221.497	16183.14
221.57	16247.58
221.643	16320.12
221.716	16400.22
221.79	16454.64
221.863	16527.56
221.936	16582.12
222.009	16636.58
222.082	16709.11
222.155	16769.89
222.229	16837.6
222.302	16895.15
222.375	16944.74
222.448	17008.55
222.521	17063.4
222.594	17115.98
222.667	17148.7
222.74	17209.09
222.814	17243.79
222.887	17276.8
222.96	17343.64
223.033	17407.79
223.106	17459.55
223.179	17503.6
223.252	17539.69
223.325	17595.02
223.398	17624.12
223.471	17671.26
223.544	17711.93
223.617	17745.91
223.69	17784.8
223.763	17813.52
223.837	17856.89
223.91	17899.73
223.983	17924.22
224.056	17943.06
224.129	17984.7
224.202	18034.62
224.275	18068.12
224.348	18089.17
224.42	18116.31
224.493	18128.55
224.566	18145.03
224.639	18176.93
224.712	18183.44
224.785	18200.5
224.858	18218.71
224.931	18239.05
225.004	18249.26
225.077	18283.29
225.15	18291.38
225.223	18315.72
225.296	18365.84
225.369	18365.98
225.442	18382.17
225.514	18405.69
225.587	18440.29
225.66	18458.46
225.733	18480.34
225.806	18496.38
225.879	18512.58
225.952	18521.44
226.025	18554.36
226.097	18592.52
226.17	18612.23
226.243	18622.98
226.316	18648.13
226.389	18667.27
226.461	18701.77
226.534	18730.35
226.607	18750.44
226.68	18782.82
226.753	18795.02
226.825	18783.6
226.898	18825.14
226.971	18836.65
227.044	18851.01
227.117	18860.27
227.189	18884.02
227.262	18902.05
227.335	18921.56
227.407	18937.9
227.48	18960.45
227.553	18972.31
227.626	18975.39
227.698	18987.73
227.771	19007.58
227.844	19007.77
227.916	19019.39
227.989	19008.4
228.062	19023.19
228.134	19048.88
228.207	19054.57
228.28	19062.18
228.352	19072.83
228.425	19068.78
228.498	19084.73
228.57	19090.95
228.643	19112.2
228.716	19117.89
228.788	19118.95
228.861	19120.59
228.934	19133.36
229.006	19125.07
229.079	19122.37
229.151	19113.36
229.224	19104.64
229.296	19112.92
229.369	19144.3
229.442	19161.93
229.514	19149.93
229.587	19152.92
229.659	19129.26
229.732	19132.87
229.804	19140.54
229.877	19176.15
229.949	19194.12
230.022	19210.17
230.094	19217.35
230.167	19218.65
230.239	19208.92
230.312	19205.74
230.384	19233.01
230.457	19245.35
230.529	19258.89
230.602	19257.4
230.674	19257.06
230.747	19273.59
230.819	19289.35
230.892	19257.01
230.964	19253.3
231.037	19274.26
231.109	19278.79
231.181	19288.19
231.254	19285.15
231.326	19281.88
231.399	19268.19
231.471	19250.07
231.544	19226.99
231.616	19227.04
231.688	19224.05
231.761	19215.09
231.833	19211.47
231.905	19183.67
231.978	19171.72
232.05	19166.56
232.122	19168.34
232.195	19161.11
232.267	19161.02
232.339	19131.09
232.412	19136.59
232.484	19125.02
232.556	19109.02
232.629	19120.83
232.701	19127.24
232.773	19111.19
232.846	19105.26
232.918	19094.76
232.99	19098.52
233.062	19098.47
233.135	19093.79
233.207	19073.17
233.279	19073.36
233.351	19077.36
233.424	19054.81
233.496	19033.27
233.568	19031.19
233.64	19014.18
233.713	19010.09
233.785	18998.86
233.857	19000.5
233.929	18975.92
234.001	18979.73
234.074	18977.56
234.146	18936.69
234.218	18912.02
234.29	18904.74
234.362	18878
234.434	18848.07
234.507	18819.83
234.579	18795.26
234.651	18772.17
234.723	18759.12
234.795	18745.48
234.867	18717.05
234.939	18714.44
235.012	18704.9
235.084	18692.71
235.156	18670.78
235.228	18637.68
235.3	18611.03
235.372	18590.93
235.444	18589.44
235.516	18548.24
235.588	18532.09
235.66	18513.97
235.732	18489.88
235.804	18523.9
235.876	18521.92
235.948	18526.98
236.02	18511.47
236.092	18484.43
236.164	18463.9
236.236	18447.47
236.308	18417.74
236.38	18404.68
236.452	18376.87
236.524	18357.5
236.596	18351.62
236.668	18336.92
236.74	18323.24
236.812	18309.41
236.884	18305.41
236.956	18284.73
237.028	18244.4
237.1	18210.18
237.172	18217.02
237.244	18212.16
237.316	18145.03
237.388	18117.94
237.46	18075.78
237.532	18064.4
237.604	18033.03
237.675	18023.87
237.747	18003.54
237.819	17978.38
237.891	17953.03
237.963	17925.03
238.035	17894.38
238.107	17829.71
238.178	17822.44
238.25	17790.72
238.322	17785.09
238.394	17729.18
238.466	17699.5
238.538	17692.7
238.609	17676.7
238.681	17619.5
238.753	17584.8
238.825	17561.04
238.897	17529.48
238.968	17525.19
239.04	17486.97
239.112	17496.95
239.184	17453.19
239.255	17418.39
239.327	17394.1
239.399	17363.16
239.471	17338.97
239.542	17321.04
239.614	17311.16
239.686	17256.51
239.758	17250.05
239.829	17206.73
239.901	17197.67
239.973	17174.05
240.044	17155.21
240.116	17126.78
240.188	17094.34
240.259	17068.32
240.331	17042.19
240.403	17028.6
240.474	16986.68
240.546	16953.04
240.618	16903.3
240.689	16875.39
240.761	16853.03
240.833	16839.34
240.904	16812.69
240.976	16793.12
241.048	16774.04
241.119	16758.09
241.191	16741.94
241.262	16719.34
241.334	16691.77
241.405	16668.15
241.477	16639.14
241.549	16612.78
241.62	16586.65
241.692	16572.1
241.763	16562.85
241.835	16527.9
241.906	16505.3
241.978	16461.97
242.049	16451.95
242.121	16435.8
242.192	16432.47
242.264	16390.06
242.335	16351.89
242.407	16330.44
242.478	16292.31
242.55	16261.66
242.621	16226.67
242.693	16201.65
242.764	16169.07
242.836	16137.5
242.907	16108.34
242.979	16080.58
243.05	16051.76
243.122	16029.88
243.193	15997.87
243.264	15942.15
243.336	15916.42
243.407	15886.1
243.479	15877.47
243.55	15850.96
243.622	15825.75
243.693	15784.54
243.764	15783.24
243.836	15743.43
243.907	15715.09
243.978	15693.64
244.05	15671.46
244.121	15623.99
244.192	15600.8
244.264	15560.12
244.335	15537.8
244.407	15502.42
244.478	15479.34
244.549	15451.04
244.62	15420.14
244.692	15393.34
244.763	15373.29
244.834	15342.59
244.906	15310.68
244.977	15288.36
245.048	15273.95
245.119	15239.97
245.191	15205.74
245.262	15161.35
245.333	15152.48
245.405	15125.49
245.476	15104.13
245.547	15071.88
245.618	15058.53
245.689	15028.98
245.761	15011.49
245.832	14972.54
245.903	14951.62
245.974	14926.79
246.045	14893.87
246.117	14876.18
246.188	14841.62
246.259	14807.44
246.33	14780.59
246.401	14750.7
246.473	14708.23
246.544	14669.19
246.615	14650.1
246.686	14620.74
246.757	14599.2
246.828	14561.79
246.899	14548.39
246.97	14504.47
247.042	14475.02
247.113	14453.38
247.184	14445.52
247.255	14408.69
247.326	14395.34
247.397	14366.61
247.468	14343.08
247.539	14315.46
247.61	14277.48
247.681	14263.3
247.752	14241.66
247.823	14208.73
247.894	14187.28
247.965	14152.96
248.037	14130.11
248.108	14084.51
248.179	14058.86
248.25	14028.49
248.321	14008.1
248.392	13972.96
248.463	13976.72
248.534	13947.17
248.605	13930.1
248.675	13901.37
248.746	13889.27
248.817	13864.25
248.888	13848.83
248.959	13813.2
249.03	13796.86
249.101	13770.88
249.172	13734
249.243	13700.25
249.314	13696.93
249.385	13671.62
249.456	13657.54
249.527	13627.51
249.598	13615.56
249.669	13604.37
249.739	13585.47
249.81	13566.48
249.881	13525.41
249.952	13494.41
250.023	13474.79
250.094	13441.77
250.165	13407.59
250.235	13375.29
250.306	13353.07
250.377	13310.6
250.448	13292.76
250.519	13261
250.59	13255.65
250.66	13237.76
250.731	13231.06
250.802	13201.56
250.873	13188.59
250.944	13170.99
251.014	13145.06
251.085	13145.69
251.156	13118.26
251.227	13115.94
251.297	13105.77
251.368	13103.31
251.439	13087.02
251.51	13077.38
251.58	13042.53
251.651	13017.41
251.722	13014.61
251.792	12973.45
251.863	12956.86
251.934	12945.29
252.005	12948.38
252.075	12930.64
252.146	12922.93
252.217	12907.98
252.287	12892.8
252.358	12867.01
252.429	12861.99
252.499	12836.4
252.57	12816.15
252.641	12807.33
252.711	12781.39
252.782	12747.17
252.852	12743.41
252.923	12727.4
252.994	12706.48
253.064	12700.84
253.135	12672.55
253.205	12651.34
253.276	12651.48
253.347	12649.41
253.417	12618.12
253.488	12590.69
253.558	12559.41
253.629	12534.87
253.699	12521.23
253.77	12511.25
253.841	12481.27
253.911	12468.64
253.982	12453.65
254.052	12436.54
254.123	12412.97
254.193	12392.96
254.264	12407.33
254.334	12380.67
254.405	12348.32
254.475	12320.08
254.546	12296.55
254.616	12291.11
254.687	12267.2
254.757	12252.11
254.827	12222.42
254.898	12212.63
254.968	12187.71
255.039	12164.04
255.109	12152.91
255.18	12121.34
255.25	12080.46
255.321	12077.96
255.391	12039.34
255.461	12036.69
255.532	12000.06
255.602	11977.69
255.673	11947.62
255.743	11921.2
255.813	11877.44
255.884	11871.27
255.954	11858.4
256.024	11863.22
256.095	11848.52
256.165	11820.27
256.235	11805.62
256.306	11783.01
256.376	11772.41
256.446	11768.94
256.517	11761.37
256.587	11750.33
256.657	11741.71
256.728	11723.63
256.798	11701.56
256.868	11678.71
256.938	11649.45
257.009	11642.27
257.079	11637.16
257.149	11641.74
257.219	11608.82
257.29	11595.18
257.36	11555.33
257.43	11544.14
257.5	11498.74
257.571	11479.66
257.641	11472.62
257.711	11440.71
257.781	11430.02
257.852	11418.98
257.922	11376.33
257.992	11350.3
258.062	11328.56
258.132	11316.18
258.202	11300.08
258.273	11284.71
258.343	11287.36
258.413	11263.79
258.483	11250.2
258.553	11223.74
258.623	11198.73
258.693	11181.67
258.764	11185.72
258.834	11191.5
258.904	11180.94
258.974	11168.13
259.044	11146.63
259.114	11136.27
259.184	11134.01
259.254	11115.79
259.324	11075.93
259.394	11068.37
259.464	11073.14
259.535	11056.51
259.605	11029.96
259.675	11002.88
259.745	10992.86
259.815	10966.45
259.885	10947.94
259.955	10958.5
260.025	10933.2
260.095	10911.9
260.165	10900.87
260.235	10896.14
260.305	10865.83
260.375	10835.96
260.445	10836.05
260.515	10836.73
260.585	10833.5
260.655	10815.67
260.725	10808.92
260.795	10806.27
260.865	10814.32
260.934	10786.03
261.004	10781.26
261.074	10770.57
261.144	10778.81
261.214	10775.82
261.284	10760.06
261.354	10760.25
261.424	10729.22
261.494	10725.84
261.564	10707.54
261.634	10694.53
261.703	10663.73
261.773	10656.94
261.843	10651.16
261.913	10634.2
261.983	10605.05
262.053	10589.48
262.123	10568.67
262.192	10547.04
262.262	10538.31
262.332	10504.97
262.402	10495.62
262.472	10480.25
262.541	10450.38
262.611	10445.61
262.681	10416.51
262.751	10401.77
262.821	10380.72
262.89	10346.12
262.96	10341.78
263.03	10347.04
263.1	10337.54
263.169	10317.89
263.239	10310.76
263.309	10314.18
263.379	10307.87
263.448	10294.33
263.518	10278.72
263.588	10264.94
263.657	10265.67
263.727	10260.46
263.797	10244.9
263.867	10234.88
263.936	10205.06
264.006	10205.21
264.076	10183.91
264.145	10172.54
264.215	10155.2
264.285	10151.64
264.354	10126.25
264.424	10103.66
264.494	10073.26
264.563	10054.18
264.633	10060.74
264.702	10047.54
264.772	10010.87
264.842	9991.03
264.911	9982.21
264.981	9956.2
265.05	9950.66
265.12	9934.18
265.19	9915.01
265.259	9913.57
265.329	9906.05
265.398	9893.48
265.468	9904.56
265.537	9881.54
265.607	9866.99
265.676	9865.11
265.746	9858.22
265.815	9859.57
265.885	9854.13
265.955	9836.5
266.024	9822.1
266.094	9790.65
266.163	9798.31
266.232	9795.51
266.302	9778.85
266.371	9775.43
266.441	9768.11
266.51	9754.05
266.58	9738.1
266.649	9719.85
266.719	9721.2
266.788	9711.66
266.858	9717.01
266.927	9681.94
266.996	9678.76
267.066	9670.82
267.135	9641.87
267.205	9639.85
267.274	9624.3
267.343	9619.67
267.413	9609.22
267.482	9606.77
267.552	9610.04
267.621	9574.31
267.69	9552.15
267.76	9540.5
267.829	9528.07
267.898	9513.92
267.968	9497.93
268.037	9492.92
268.106	9494.12
268.176	9466
268.245	9455.16
268.314	9439.41
268.384	9439.03
268.453	9429.35
268.522	9425.83
268.592	9429.88
268.661	9404.79
268.73	9404.93
268.799	9382.44
268.869	9386.63
268.938	9364.24
269.007	9343.06
269.076	9338.43
269.146	9340.6
269.215	9333.52
269.284	9333.09
269.353	9310.94
269.422	9296.59
269.492	9282.15
269.561	9246.09
269.63	9237.52
269.699	9218.35
269.768	9207.71
269.838	9198.22
269.907	9195.67
269.976	9168.71
270.045	9142.81
270.114	9138.57
270.183	9117.53
270.253	9114.16
270.322	9081.43
270.391	9072.81
270.46	9079.4
270.529	9073.67
270.598	9068.72
270.667	9057.93
270.736	9036.79
270.806	9041.32
270.875	9047.77
270.944	9035.83
271.013	9057.45
271.082	9052.1
271.151	9048.11
271.22	9022.35
271.289	9005.99
271.358	8993.71
271.427	8990.1
271.496	8982.11
271.565	8969.69
271.634	8963.43
271.703	8964.3
271.772	8977.25
271.841	8966.32
271.91	8944.46
271.979	8938.93
272.048	8915.19
272.117	8914.62
272.186	8892.43
272.255	8893.05
272.324	8888.43
272.393	8880.54
272.462	8857.14
272.531	8851.79
272.6	8839.66
272.669	8844.81
272.738	8834.9
272.807	8829.8
272.876	8806.45
272.945	8831.63
273.013	8831.97
273.082	8838.51
273.151	8815.07
273.22	8802.46
273.289	8794.71
273.358	8799.57
273.427	8784.17
273.496	8784.7
273.564	8782.77
273.633	8792.3
273.702	8769.2
273.771	8753.75
273.84	8748.6
273.909	8746.29
273.977	8740.66
274.046	8733.2
274.115	8736.56
274.184	8725.45
274.253	8712.16
274.322	8722.46
274.39	8687.85
274.459	8668.02
274.528	8641.46
274.597	8640.69
274.665	8646.03
274.734	8657.39
274.803	8646.03
274.872	8638.28
274.94	8623.55
275.009	8673.06
275.078	8661.89
275.147	8665.45
275.215	8663.81
275.284	8671.9
275.353	8663.81
275.421	8635.13
275.49	8645.58
275.559	8633.5
275.627	8626.67
275.696	8623.78
275.765	8626.38
275.833	8621.47
275.902	8625.8
275.971	8636.92
276.039	8643.13
276.108	8642.45
276.177	8633.55
276.245	8623.15
276.314	8623.35
276.383	8631.43
276.451	8577.07
276.52	8578.51
276.588	8584.58
276.657	8589.1
276.725	8580.63
276.794	8581.35
276.863	8602.19
276.931	8580
277	8589.29
277.068	8595.69
277.137	8611.96
277.205	8608.73
277.274	8630.48
277.342	8638.86
277.411	8619.85
277.48	8611.57
277.548	8596.36
277.617	8591.74
277.685	8587.7
277.754	8585.1
277.822	8569.85
277.89	8577.17
277.959	8571.25
278.027	8553.92
278.096	8540.98
278.164	8563.02
278.233	8553.54
278.301	8536.75
278.37	8546.76
278.438	8531.94
278.507	8533.23
278.575	8510.76
278.643	8513.36
278.712	8492.28
278.78	8473.99
278.849	8485.25
278.917	8493.77
278.985	8491.12
279.054	8494.25
279.122	8508.11
279.191	8507.68
279.259	8510.8
279.327	8486.89
279.396	8497.47
279.464	8490.64
279.532	8497.04
279.601	8489.87
279.669	8483.42
279.737	8503.63
279.806	8500.26
279.874	8510.56
279.942	8504.69
280.011	8494.83
280.079	8495.65
280.147	8513.07
280.215	8517.25
280.284	8515.95
280.352	8498.97
280.42	8506.38
280.488	8501.03
280.557	8492.13
280.625	8496.85
280.693	8494.49
280.761	8498.1
280.83	8479.62
280.898	8493.67
280.966	8470.67
281.034	8439.44
281.102	8431.21
281.171	8426.35
281.239	8430.35
281.307	8421.68
281.375	8419.47
281.443	8442.18
281.512	8436.94
281.58	8442.81
281.648	8434.72
281.716	8432.32
281.784	8433.52
281.852	8424.38
281.92	8424.14
281.989	8432.08
282.057	8413.51
282.125	8451.24
282.193	8452.06
282.261	8451.82
282.329	8444.98
282.397	8450.8
282.465	8458.89
282.533	8474.91
282.601	8459.99
282.67	8446.47
282.738	8436.08
282.806	8443.2
282.874	8428.91
282.942	8431.74
283.01	8417.31
283.078	8420.24
283.146	8417.5
283.214	8427.89
283.282	8429.1
283.35	8441.08
283.418	8431.98
283.486	8443.44
283.554	8407.14
283.622	8405.22
283.69	8408.01
283.758	8402.48
283.826	8415.81
283.894	8424.56
283.962	8441.89
284.03	8457.29
284.098	8455.07
284.165	8449.93
284.233	8447.57
284.301	8451.23
284.369	8442.76
284.437	8435.3
284.505	8431.88
284.573	8439.29
284.641	8425.82
284.709	8431.69
284.777	8412.92
284.845	8423.85
284.912	8419.56
284.98	8417.49
285.048	8416.29
285.116	8422.64
285.184	8431.4
285.252	8420.57
285.319	8396.9
285.387	8385.93
285.455	8367.35
285.523	8373.37
285.591	8374.57
285.659	8371.4
285.726	8378.37
285.794	8363.94
285.862	8367.84
285.93	8363.65
285.997	8362.79
286.065	8357.73
286.133	8351.33
286.201	8352.92
286.269	8334.11
286.336	8330.55
286.404	8327.61
286.472	8331.08
286.539	8309.86
286.607	8301.78
286.675	8306.06
286.743	8316.4
286.81	8309.04
286.878	8318.61
286.946	8305.14
287.013	8304.66
287.081	8309.57
287.149	8291.86
287.216	8313.18
287.284	8302.93
287.352	8302.49
287.419	8293.83
287.487	8316.88
287.555	8318.9
287.622	8315.54
287.69	8321.12
287.758	8331.41
287.825	8327.04
287.893	8317.36
287.96	8324.63
288.028	8331.12
288.096	8334.3
288.163	8337.28
288.231	8329.83
288.298	8326.12
288.366	8341.9
288.433	8341.81
288.501	8329.34
288.569	8333.1
288.636	8322.08
288.704	8338.77
288.771	8345.03
288.839	8342.14
288.906	8324.43
288.974	8335.74
289.041	8333.05
289.109	8326.7
289.176	8332.14
289.244	8339.01
289.311	8353.35
289.379	8359.66
289.446	8361.24
289.514	8359.9
289.581	8360.81
289.649	8363.79
289.716	8368.75
289.783	8358.84
289.851	8376.93
289.918	8382.17
289.986	8389.1
290.053	8398.15
290.121	8395.93
290.188	8392.42
290.255	8417.83
290.323	8412.35
290.39	8403.97
290.458	8407.96
290.525	8418.89
290.592	8411.33
290.66	8411.57
290.727	8404.79
290.794	8416.34
290.862	8420.47
290.929	8420.47
290.996	8420.47
291.064	8428.65
291.131	8439.19
291.198	8453.1
291.266	8442.9
291.333	8446.03
291.4	8448.67
291.468	8461.72
291.535	8459.55
291.602	8469.08
291.669	8462.58
291.737	8466.62
291.804	8465.37
291.871	8480.38
291.938	8489.77
292.006	8513.21
292.073	8526.49
292.14	8533.85
292.207	8528.08
292.275	8523.94
292.342	8538.18
292.409	8561.14
292.476	8585.11
292.543	8574.95
292.611	8574.71
292.678	8597.04
292.745	8621.68
292.812	8633.57
292.879	8627.89
292.946	8625.34
293.014	8640.26
293.081	8644.88
293.148	8656.96
293.215	8672.07
293.282	8664.13
293.349	8669.33
293.416	8654.12
293.484	8662.3
293.551	8675.15
293.618	8689.97
293.685	8709.95
293.752	8700.71
293.819	8695.22
293.886	8675.58
293.953	8684.77
294.02	8694.69
294.087	8697.62
294.154	8684.05
294.221	8696.61
294.288	8700.08
294.356	8719.33
294.423	8718.8
294.49	8718.56
294.557	8734.88
294.624	8727.85
294.691	8749.12
294.758	8750.28
294.825	8765.97
294.892	8762.07
294.959	8757.79
295.026	8765.63
295.093	8763.03
295.16	8765.73
295.226	8772.18
295.293	8796.63
295.36	8797.5
295.427	8817.33
295.494	8825.75
295.561	8832.83
295.628	8850.74
295.695	8861.72
295.762	8864.41
295.829	8872.4
295.896	8883.18
295.963	8886.55
296.03	8890.07
296.096	8889.3
296.163	8901.33
296.23	8906.92
296.297	8913.75
296.364	8915.1
296.431	8919
296.498	8914.14
296.564	8936.23
296.631	8935.07
296.698	8920.25
296.765	8939.02
296.832	8921.69
296.899	8911.82
296.965	8927.95
297.032	8910.81
297.099	8923.03
297.166	8926.6
297.233	8924.33
297.299	8914.32
297.366	8912.73
297.433	8916.68
297.5	8925.68
297.566	8924.86
297.633	8926.84
297.7	8930.54
297.767	8926.6
297.833	8930.59
297.9	8930.5
297.967	8916.06
298.033	8922.51
298.1	8946.19
298.167	8937.72
298.234	8942.39
298.3	8954.47
298.367	8955.05
298.434	8959.14
298.5	8952.64
298.567	8946.05
298.634	8947.11
298.7	8965.69
298.767	8970.45
298.834	8986.05
298.9	8982.87
298.967	8972.09
299.033	8976.62
299.1	8992.17
299.167	8999.63
299.233	8998.33
299.3	9015.22
299.366	9021.82
299.433	9041.99
299.5	9021.34
299.566	9026.01
299.633	9042.28
299.699	9047.53
299.766	9035.54
299.832	9044.16
299.899	9051.67
299.965	9064.09
300.032	9060.34
300.099	9067.37
300.165	9073.87
300.232	9066.16
300.298	9064.09
300.365	9082.05
300.431	9079.54
300.498	9070.78
300.564	9086.53
300.631	9097.21
300.697	9105.45
300.763	9112.72
300.83	9112.62
300.896	9124.03
300.963	9132.6
301.029	9127.69
301.096	9131.73
301.162	9144.92
301.229	9134.38
301.295	9120.32
301.361	9124.89
301.428	9124.6
301.494	9106.79
301.561	9105.93
301.627	9108.77
301.693	9119.84
301.76	9119.26
301.826	9111.51
301.892	9122.44
301.959	9124.22
302.025	9116.85
302.092	9109.58
302.158	9113.63
302.224	9102.7
302.291	9100.05
302.357	9092.78
302.423	9091.96
302.49	9080.98
302.556	9089.89
302.622	9093.26
302.688	9103.37
302.755	9115.46
302.821	9129.23
302.887	9139.24
302.954	9138.32
303.02	9146.36
303.086	9141.93
303.152	9139.96
303.219	9140.68
303.285	9139.82
303.351	9147.38
303.417	9144.97
303.483	9137.22
303.55	9128.02
303.616	9124.51
303.682	9119.21
303.748	9116.76
303.815	9127.59
303.881	9135.82
303.947	9122.05
304.013	9118.06
304.079	9108.09
304.145	9081.61
304.212	9074.78
304.278	9061.2
304.344	9055.76
304.41	9038.96
304.476	9028.37
304.542	9024.71
304.608	9033.28
304.674	9018.11
304.741	9002.75
304.807	9006.65
304.873	9011.08
304.939	9021.72
305.005	9009.21
305.071	9007.62
305.137	9005.11
305.203	8979.89
305.269	8971.36
305.335	8982.25
305.401	8978.92
305.467	8978.54
305.533	8990.72
305.599	8992.02
305.666	9003.67
305.732	9002.37
305.798	9016.81
305.864	9037.08
305.93	9034.43
305.996	9023.55
306.062	9024.03
306.128	9021.58
306.194	9006.12
306.259	9004.87
306.325	8995.72
306.391	9004.39
306.457	9006.03
306.523	9003.72
306.589	9020.95
306.655	9017.58
306.721	8997.26
306.787	8982.54
306.853	8995.34
306.919	8976.57
306.985	8968
307.051	8958.52
307.117	8949.51
307.183	8940.13
307.248	8916.2
307.314	8922.12
307.38	8925.73
307.446	8930.3
307.512	8917.21
307.578	8918.7
307.644	8907.1
307.709	8906.72
307.775	8902.91
307.841	8898.15
307.907	8900.03
307.973	8879.86
308.039	8871.29
308.104	8873.84
308.17	8871.67
308.236	8853.33
308.302	8854.82
308.368	8846.64
308.433	8844.33
308.499	8842.65
308.565	8836
308.631	8832.01
308.696	8806.83
308.762	8789.65
308.828	8784.26
308.894	8767.8
308.959	8745.32
309.025	8745.18
309.091	8742.72
309.156	8729.1
309.222	8733.96
309.288	8720.15
309.354	8701
309.419	8705.81
309.485	8694.64
309.551	8706.68
309.616	8694.11
309.682	8687.09
309.748	8677.41
309.813	8671.35
309.879	8663.55
309.945	8642.52
310.01	8639.78
310.076	8637.66
310.141	8635.5
310.207	8616.24
310.273	8613.16
310.338	8620.19
310.404	8598.53
310.469	8582.27
310.535	8571.97
310.601	8544.49
310.666	8546.89
310.732	8550.55
310.797	8535.29
310.863	8524.32
310.928	8515.99
310.994	8515.75
311.059	8513.11
311.125	8510.8
311.191	8521.34
311.256	8506.18
311.322	8519.61
311.387	8494.44
311.453	8810.31
311.518	8781.68
311.584	8780.53
311.649	8782.07
311.715	8771.63
311.78	8768.74
311.846	8755.89
311.911	8762.49
311.976	8763.26
312.042	8746.65
312.107	8738.91
312.173	8728.03
312.238	8722.55
312.304	8709.75
312.369	8696.71
312.434	8682.99
312.5	8675.49
312.565	8640.26
312.631	8639.88
312.696	8624.67
312.761	8633.14
312.827	8312.07
312.892	8349.94
312.958	8347.87
313.023	8349.41
313.088	8346.86
313.154	8339.35
313.219	8335.79
313.284	8326.89
313.35	8323.14
313.415	8311.06
313.48	8302.5
313.546	8305.63
313.611	8310.29
313.676	8302.21
313.741	8294.13
313.807	8304.91
313.872	8308.95
313.937	8315.97
314.003	8326.03
314.068	8326.12
314.133	8328.48
314.198	8318.28
314.264	8297.64
314.329	8288.97
314.394	8285.37
314.459	8282.29
314.525	8294.27
314.59	8286.28
314.655	8270.69
314.72	8280.51
314.785	8280.75
314.851	8276.61
314.916	8260.5
314.981	8243.9
315.046	8236.1
315.111	8230.57
315.176	8217.44
315.242	8218.88
315.307	8215.9
315.372	8199.06
315.437	8188.38
315.502	8174.95
315.567	8175.29
315.632	8163.26
315.698	8160.76
315.763	8153.55
315.828	8144.84
315.893	8139.11
315.958	8133.58
316.023	8128.48
316.088	8099.67
316.153	8086.87
316.218	8076.82
316.283	8057.73
316.348	8045.56
316.413	8038.78
316.479	8023.48
316.544	7988.23
316.609	7957.78
316.674	7926.43
316.739	7893.87
316.804	7864.68
316.869	7831.21
316.934	7800.34
316.999	7766.48
317.064	7723.44
317.129	7685.98
317.194	7646.27
317.259	7606.21
317.324	7559.78
317.389	7513
317.454	7479.78
317.518	7445.7
317.583	7421.8
317.648	7403.68
317.713	7367.97
317.778	7315.86
317.843	7293.08
317.908	7262.61
317.973	7224.93
318.038	7197.15
318.103	7161.93
318.168	7130.31
318.233	7107.48
318.297	7055.06
318.362	7026.14
318.427	6983.48
318.492	6955.47
318.557	6916.18
318.622	6887.01
318.687	6864.63
318.751	6834.14
318.816	6802.48
318.881	6769.44
318.946	6720.35
319.011	6674.34
319.075	6637.17
319.14	6607.25
319.205	6560.81
319.27	6526.97
319.335	6487.88
319.399	6450
319.464	6423.11
319.529	6379.38
319.594	6342.84
319.658	6319.04
319.723	6277.66
319.788	6255.01
319.853	6209.56
319.917	6181.06
319.982	6133.16
320.047	6100.05
320.112	6074.47
320.176	6030.81
320.241	5995.45
320.306	5968.58
320.37	5934.67
320.435	5903.34
320.5	5874.85
320.564	5838.11
320.629	5801.47
320.694	5771.16
320.758	5729.63
320.823	5688.25
320.888	5663.03
320.952	5615.85
321.017	5580.18
321.082	5542.55
321.146	5508.89
321.211	5476.15
321.275	5438.82
321.34	5398.33
321.405	5358.93
321.469	5312.69
321.534	5270.96
321.598	5224.73
321.663	5197.07
321.727	5165.21
321.792	5122.58
321.857	5082.38
321.921	5047.46
321.986	5011.35
322.05	4953.8
322.115	4920.66
322.179	4883.89
322.244	4829.36
322.308	4799.44
322.373	4754.92
322.437	4718.54
322.502	4693.97
322.566	4649.56
322.631	4617.73
322.695	4578.74
322.76	4539.36
322.824	4511.46
322.889	4475.73
322.953	4438.05
323.018	4373.61
323.082	4313.88
323.146	4270.41
323.211	4216.91
323.275	4174.49
323.34	4134.24
323.404	4105.37
323.468	4062.2
323.533	4017.27
323.597	3977.72
323.662	3932.02
323.726	3902.63
323.79	3858.1
323.855	3795.39
323.919	3750.87
323.983	3709.11
324.048	3647.73
324.112	3805.45
324.177	3682.69
324.241	3492.28
324.305	3307.69
324.37	3126.93
324.434	2951.94
324.498	2910.52
324.562	2870.45
324.627	2818.22
324.691	2763.63
324.755	2706.55
324.82	2639.77
324.884	2574.85
324.948	2511.43
325.012	2424.99
325.077	2311.62
