Data from 20250625_urea_1M_1_MAYP1162681_14-45-06-097.txt Node
Date: Thu Jun 26 14:45:06 BST 2025
User: adleo
Spectrometer: MAYP116268
Trigger mode: 0
Integration Time (sec): 1.000000E0
Scans to average: 1
Electric dark correction enabled: true
Nonlinearity correction enabled: true
Boxcar width: 10
XAxis mode: Wavelengths
Number of Pixels in Spectrum: 2068
>>>>>Begin Spectral Data<<<<<
179.565	1132.04
179.642	1185.03
179.718	1223.96
179.795	1263.81
179.871	1294.35
179.948	1314.04
180.024	1334.63
180.101	1355.87
180.177	1369.32
180.254	1391.14
180.33	1409.03
180.407	1458.35
180.483	1549.14
180.56	1635.23
180.636	1714.8
180.712	1700.97
180.789	1709.47
180.865	1719.45
180.942	1728.85
181.018	1740.4
181.095	1756.23
181.171	1760.6
181.248	1762.88
181.324	1778.38
181.4	1784.6
181.477	1796.63
181.553	1805.7
181.63	1825.67
181.706	1840.36
181.782	1850.62
181.859	1851.1
181.935	1861.22
182.011	1858.08
182.088	1875.1
182.164	1894.89
182.24	1907.53
182.317	1918.37
182.393	1916.08
182.469	1930.49
182.546	1945.18
182.622	1948.55
182.698	1944.7
182.775	1957.44
182.851	1970.81
182.927	1966.34
183.003	1961.11
183.08	1954.69
183.156	1968.43
183.232	1963.48
183.308	1953.98
183.385	1961.11
183.461	1976.75
183.537	1975.66
183.613	1987.31
183.69	1978.22
183.766	1964.67
183.842	1972.7
183.918	1978.17
183.995	1994.05
184.071	1996.76
184.147	1988.72
184.223	1977.84
184.299	1988.87
184.375	1976.37
184.452	1981.65
184.528	2030.88
184.604	2043
184.68	2052.94
184.756	2057.55
184.832	2062.74
184.908	2068.06
184.985	2066.44
185.061	2050.04
185.137	2058.65
185.213	2049.38
185.289	2050.75
185.365	2045.86
185.441	2044.19
185.517	2056.99
185.593	2053.57
185.669	2049.29
185.745	2061.22
185.822	2078.72
185.898	2070.06
185.974	2081.57
186.05	2071.2
186.126	2036.24
186.202	2027.49
186.278	2023.83
186.354	2014.65
186.43	2021.21
186.506	2018.12
186.582	2016.31
186.658	2026.01
186.734	2007.38
186.81	2009.13
186.886	2011.18
186.962	2023.88
187.038	2016.27
187.114	2012.18
187.19	2017.98
187.266	2010.51
187.341	2010.37
187.417	2001.24
187.493	2001.15
187.569	2003.14
187.645	2000.67
187.721	1988.11
187.797	1997.48
187.873	2002.57
187.949	1997.15
188.025	1993.53
188.101	1996.2
188.176	2002.47
188.252	1997.24
188.328	2004.13
188.404	2003.37
188.48	2000
188.556	1988.97
188.632	1993.34
188.707	1991.72
188.783	1988.11
188.859	1984.5
188.935	1971.65
189.011	1981.21
189.086	1977.65
189.162	1970.04
189.238	1968.09
189.314	1964.95
189.39	1960.81
189.465	1953.16
189.541	1968.66
189.617	1952.35
189.693	1949.5
189.768	1952.54
189.844	1973.71
189.92	1967.48
189.996	1974.85
190.071	1983.89
190.147	1988.07
190.223	1994.11
190.298	1985.84
190.374	1973.67
190.45	1985.17
190.526	1994.11
190.601	1990.02
190.677	1991.3
190.753	2017.95
190.828	2022.04
190.904	2039.49
190.98	2051.19
191.055	2063.42
191.131	2052.81
191.207	2072.16
191.282	2081.34
191.358	2073.64
191.433	2062.31
191.509	2073.2
191.585	2070.96
191.66	2071.15
191.736	2076.15
191.811	2069.16
191.887	2084.67
191.963	2109.3
192.038	2115.82
192.114	2116.15
192.189	2119.96
192.265	2116.39
192.34	2094.74
192.416	2091.41
192.491	2084.89
192.567	2086.03
192.642	2085.51
192.718	2089.36
192.793	2077.9
192.869	2071.24
192.944	2072.86
193.02	2079.71
193.095	2083.99
193.171	2091.41
193.246	2093.69
193.322	2093.31
193.397	2092.22
193.473	2078.09
193.548	2059.63
193.624	2062.68
193.699	2062.11
193.775	2076.9
193.85	2077
193.925	2085.47
194.001	2085.56
194.076	2078.09
194.152	2068.15
194.227	2062.92
194.302	2053.7
194.378	2053.7
194.453	2050.51
194.529	2064.64
194.604	2048.32
194.679	2040.43
194.755	2017.75
194.83	2023.32
194.905	2019.09
194.981	2027.89
195.056	2018.66
195.131	2025.84
195.207	2022.89
195.282	2015.57
195.357	1995.02
195.433	2011.85
195.508	1998.96
195.583	2008.43
195.659	2025.36
195.734	2035.02
195.809	2035.11
195.884	2040.77
195.96	2043.29
196.035	2061.08
196.11	2054.89
196.185	2067.35
196.261	2073.44
196.336	2109.3
196.411	2099.5
196.486	2105.45
196.561	2100.78
196.637	2114.67
196.712	2126.56
196.787	2130.42
196.862	2144.16
196.937	2154.2
197.013	2157.72
197.088	2168.42
197.163	2188.51
197.238	2201.12
197.313	2199.22
197.388	2213.92
197.464	2244.1
197.539	2256.23
197.614	2245.43
197.689	2256.42
197.764	2271.56
197.839	2289.83
197.914	2282.69
197.989	2304.44
198.065	2319.47
198.14	2369.86
198.215	2392.42
198.29	2406.76
198.365	2420.13
198.44	2431.22
198.515	2460.31
198.59	2475.02
198.665	2499.11
198.74	2503.88
198.815	2509.31
198.89	2531.54
198.965	2554.17
199.04	2551.93
199.115	2569.54
199.19	2614.49
199.265	2620.2
199.34	2629.16
199.415	2661.42
199.49	2682.27
199.565	2691.61
199.64	2712.09
199.715	2708.33
199.79	2716.62
199.865	2723.76
199.94	2722.43
200.015	2753.02
200.09	2758.69
200.165	2766.31
200.24	2772.6
200.315	2811.23
200.39	2824.62
200.464	2830.39
200.539	2836.3
200.614	2849.88
200.689	2867.51
200.764	2876.24
200.839	2888.95
200.914	2897.48
200.989	2888.8
201.063	2901.2
201.138	2882.24
201.213	2881.53
201.288	2861.42
201.363	2864.42
201.438	2863.56
201.512	2879.71
201.587	2859.74
201.662	2862.55
201.737	2874.09
201.812	2882.05
201.886	2852
201.961	2860.73
202.036	2850.39
202.111	2847.62
202.186	2819.72
202.26	2806.13
202.335	2780.63
202.41	2776.92
202.485	2760.24
202.559	2740.23
202.634	2713.98
202.709	2725.93
202.784	2708.26
202.858	2707.64
202.933	2691.54
203.008	2685.34
203.082	2667.67
203.157	2672.77
203.232	2631.34
203.306	2608.66
203.381	2578.22
203.456	2553.79
203.53	2528.09
203.605	2509.72
203.68	2484.19
203.754	2479.29
203.829	2464.05
203.904	2447.19
203.978	2436.24
204.053	2438.86
204.127	2429.34
204.202	2428.96
204.277	2412.01
204.351	2405.92
204.426	2397.49
204.5	2387.87
204.575	2354.94
204.65	2361.13
204.724	2350.65
204.799	2357.45
204.873	2354.69
204.948	2352.22
205.022	2343.65
205.097	2338.6
205.171	2348.26
205.246	2356.45
205.32	2353.36
205.395	2351.22
205.469	2343.13
205.544	2350.46
205.618	2334.42
205.693	2344.99
205.767	2332.47
205.842	2349.33
205.916	2344.42
205.991	2337.09
206.065	2341.71
206.14	2355.27
206.214	2349.65
206.289	2340.46
206.363	2353.07
206.438	2353.41
206.512	2363.64
206.586	2382.34
206.661	2391.59
206.735	2371.6
206.81	2374.27
206.884	2393.74
206.958	2381.32
207.033	2393.16
207.107	2396.16
207.181	2422.59
207.256	2416.31
207.33	2435.73
207.405	2451.21
207.479	2467.4
207.553	2475.68
207.628	2461.26
207.702	2474.16
207.776	2472.35
207.851	2476.4
207.925	2493.07
207.999	2494.31
208.073	2493.26
208.148	2494.31
208.222	2482.17
208.296	2513.2
208.371	2528.73
208.445	2538.78
208.519	2566.39
208.593	2580.77
208.668	2580.63
208.742	2584.01
208.816	2584.63
208.89	2595.97
208.965	2594.87
209.039	2605.74
209.113	2622.55
209.187	2646.16
209.261	2642.82
209.336	2661.83
209.41	2683.22
209.484	2682.65
209.558	2704.52
209.632	2716.38
209.707	2731.34
209.781	2752.54
209.855	2769.12
209.929	2788.39
210.003	2794.92
210.077	2798.82
210.151	2847.66
210.226	2881.85
210.3	2914.14
210.374	2945.35
210.448	2953.98
210.522	2970.53
210.596	2983.78
210.67	3001.51
210.744	3052.64
210.818	3093.06
210.892	3118.91
210.966	3120.82
211.041	3143.04
211.115	3148.95
211.189	3184.43
211.263	3215.29
211.337	3235.94
211.411	3265.14
211.485	3275.65
211.559	3303.31
211.633	3327.01
211.707	3317.94
211.781	3345.64
211.855	3332.75
211.929	3343.96
212.003	3349.16
212.077	3380.95
212.151	3420.24
212.225	3456.38
212.299	3477.12
212.373	3495.45
212.447	3522.81
212.52	3583.35
212.594	3626.3
212.668	3673.37
212.742	3699.55
212.816	3729.98
212.89	3762.65
212.964	3804.23
213.038	3849.92
213.112	3904.6
213.186	3963.22
213.26	3988.97
213.333	3992.03
213.407	4049.5
213.481	4104.25
213.555	4171.13
213.629	4215.28
213.703	4253.83
213.777	4304.44
213.85	4337.26
213.924	4424.49
213.998	4488.67
214.072	4545.59
214.146	4591.49
214.219	4650.12
214.293	4710.51
214.367	4779.84
214.441	4858.12
214.515	4917.47
214.588	4962.15
214.662	5001.71
214.736	5054.15
214.81	5133.34
214.883	5213.15
214.957	5278.92
215.031	5337.21
215.105	5390
215.178	5448.76
215.252	5522
215.326	5580.88
215.4	5640.02
215.473	5675.71
215.547	5730.67
215.621	5798.14
215.694	5878.3
215.768	5939.27
215.842	6000.68
215.915	6062.59
215.989	6115.96
216.063	6180.86
216.136	6259.18
216.21	6335.01
216.284	6421.72
216.357	6503.63
216.431	6579.34
216.504	6658.96
216.578	6762.27
216.652	6850.37
216.725	6937.37
216.799	7021.47
216.873	7097.71
216.946	7192.55
217.02	7267.6
217.093	7343.53
217.167	7397.94
217.24	7465.87
217.314	7543.41
217.387	7622.67
217.461	7700.13
217.535	7795.15
217.608	7862.43
217.682	7943.28
217.755	8034.42
217.829	8107.97
217.902	8194.53
217.976	8276.35
218.049	8352.95
218.123	8416.08
218.196	8504.52
218.27	8573.77
218.343	8640.05
218.417	8723.31
218.49	8795.41
218.563	8889.85
218.637	8980.64
218.71	9089.97
218.784	9181.11
218.857	9267.29
218.931	9352.31
219.004	9429.45
219.077	9513.39
219.151	9599.78
219.224	9678.04
219.298	9754.09
219.371	9840.59
219.444	9903.35
219.518	9981.72
219.591	10063.46
219.665	10177.45
219.738	10255.63
219.811	10327.98
219.885	10408.53
219.958	10496.13
220.031	10573.5
220.105	10651.94
220.178	10725.23
220.251	10783.39
220.325	10857.89
220.398	10934.36
220.471	11009.01
220.544	11091.26
220.618	11153.67
220.691	11223.45
220.764	11295.89
220.838	11375.55
220.911	11440.08
220.984	11529.53
221.057	11599.18
221.131	11666.41
221.204	11697.5
221.277	11780.88
221.35	11887.12
221.424	11951.7
221.497	12009.4
221.57	12074.47
221.643	12141.28
221.716	12212.18
221.79	12274.61
221.863	12336.93
221.936	12396.27
222.009	12458.98
222.082	12530.76
222.155	12585.86
222.229	12669.1
222.302	12731.29
222.375	12790.58
222.448	12860.62
222.521	12912.01
222.594	12982.58
222.667	13029.01
222.74	13104.88
222.814	13152.8
222.887	13191.46
222.96	13263.19
223.033	13332.03
223.106	13393.88
223.179	13458.33
223.252	13515.12
223.325	13576.77
223.398	13632.36
223.471	13699.27
223.544	13759.86
223.617	13809.71
223.69	13865.1
223.763	13897.68
223.837	13960.16
223.91	14009.57
223.983	14035.07
224.056	14076.77
224.129	14122.66
224.202	14186
224.275	14221.48
224.348	14259.57
224.42	14296.88
224.493	14321.66
224.566	14358.97
224.639	14403.22
224.712	14440.87
224.785	14482.47
224.858	14520.94
224.931	14557.47
225.004	14582.3
225.077	14616.77
225.15	14630.65
225.223	14679.87
225.296	14752.89
225.369	14769.19
225.442	14794.98
225.514	14841.98
225.587	14889.46
225.66	14925.75
225.733	14969.14
225.806	15010.74
225.879	15051.85
225.952	15081.16
226.025	15133.32
226.097	15184.41
226.17	15223.6
226.243	15237.1
226.316	15266.93
226.389	15302.51
226.461	15344.88
226.534	15388.84
226.607	15426.82
226.68	15484.23
226.753	15507.89
226.825	15516.71
226.898	15568.1
226.971	15601.16
227.044	15646.33
227.117	15675.39
227.189	15717.66
227.262	15762.54
227.335	15798.45
227.407	15822.4
227.48	15862.5
227.553	15901.26
227.626	15924.68
227.698	15955.82
227.771	15996.93
227.844	16021.42
227.916	16054.39
227.989	16065.81
228.062	16094.1
228.134	16143.75
228.207	16170.5
228.28	16198.88
228.352	16223.95
228.425	16253.35
228.498	16291.95
228.57	16307.91
228.643	16342.13
228.716	16365.12
228.788	16378.71
228.861	16397.17
228.934	16438.91
229.006	16462.67
229.079	16477.13
229.151	16489.71
229.224	16496.41
229.296	16525.71
229.369	16581.33
229.442	16619.35
229.514	16644.8
229.587	16676.56
229.659	16679.21
229.732	16703.6
229.804	16732.28
229.877	16777.34
229.949	16807.41
230.022	16845.82
230.094	16867.71
230.167	16885.83
230.239	16897.3
230.312	16917.78
230.384	16961.88
230.457	16985.64
230.529	17008.67
230.602	17036
230.674	17059.33
230.747	17089.98
230.819	17115.72
230.892	17097.31
230.964	17112.87
231.037	17136.54
231.109	17140.92
231.181	17158.95
231.254	17159.33
231.326	17164.73
231.399	17168.73
231.471	17170.95
231.544	17160.01
231.616	17183.33
231.688	17210.13
231.761	17212.44
231.833	17223.09
231.905	17205.4
231.978	17212.63
232.05	17208.49
232.122	17221.98
232.195	17230.71
232.267	17257.31
232.339	17256.68
232.412	17278.47
232.484	17278.13
232.556	17268.54
232.629	17300.15
232.701	17314.22
232.773	17332.63
232.846	17345.45
232.918	17358.08
232.99	17371.72
233.062	17397.98
233.135	17397.84
233.207	17386.95
233.279	17398.61
233.351	17404.1
233.424	17412.44
233.496	17399.62
233.568	17432.3
233.64	17416.49
233.713	17421.65
233.785	17412.3
233.857	17426.47
233.929	17414.27
234.001	17433.16
234.074	17454.85
234.146	17440.54
234.218	17433.21
234.29	17423.96
234.362	17418.32
234.434	17393.17
234.507	17377.98
234.579	17353.02
234.651	17349.07
234.723	17339.57
234.795	17346.18
234.867	17335.38
234.939	17344.78
235.012	17353.5
235.084	17344.78
235.156	17339.09
235.228	17322.13
235.3	17311
235.372	17301.07
235.444	17315.24
235.516	17278.71
235.588	17271.04
235.66	17260.25
235.732	17253.41
235.804	17295.24
235.876	17295.19
235.948	17306.27
236.02	17299.81
236.092	17298.37
236.164	17288.63
236.236	17291.09
236.308	17278.47
236.38	17265.84
236.452	17247.57
236.524	17236.92
236.596	17249.11
236.668	17253.07
236.74	17250.46
236.812	17251.72
236.884	17241.6
236.956	17224.39
237.028	17216.73
237.1	17201.02
237.172	17206.85
237.244	17203.96
237.316	17157.89
237.388	17137.74
237.46	17112.44
237.532	17116
237.604	17094.03
237.675	17098.12
237.747	17091.71
237.819	17064.77
237.891	17053.16
237.963	17028.24
238.035	17005.78
238.107	16949.4
238.178	16943.85
238.25	16927.47
238.322	16930.55
238.394	16904.96
238.466	16895.18
238.538	16887.42
238.609	16877.68
238.681	16839.7
238.753	16812.57
238.825	16806.84
238.897	16797.82
238.968	16802.4
239.04	16770.21
239.112	16777.44
239.184	16740.52
239.255	16713.1
239.327	16702.64
239.399	16686.44
239.471	16675.89
239.542	16660.66
239.614	16658.68
239.686	16617.67
239.758	16609.43
239.829	16570
239.901	16560.46
239.973	16522.58
240.044	16504.6
240.116	16481.75
240.188	16462.38
240.259	16448.31
240.331	16414.42
240.403	16393.99
240.474	16359.29
240.546	16328.83
240.618	16284.29
240.689	16261.93
240.761	16248.24
240.833	16244.77
240.904	16227.8
240.976	16208.62
241.048	16190.69
241.119	16173.92
241.191	16155.51
241.262	16141.67
241.334	16124.85
241.405	16104.13
241.477	16087.07
241.549	16054.77
241.62	16033.37
241.692	16017.61
241.763	16000.6
241.835	15971.53
241.906	15954.81
241.978	15912.15
242.049	15902.08
242.121	15896.63
242.192	15889.3
242.264	15842.21
242.335	15795.51
242.407	15781.14
242.478	15752.8
242.55	15733.04
242.621	15700.22
242.693	15678.81
242.764	15654.47
242.836	15623
242.907	15604.01
242.979	15582.85
243.05	15567.18
243.122	15553.06
243.193	15523.66
243.264	15487.36
243.336	15470.54
243.407	15450.15
243.479	15454.54
243.55	15431.74
243.622	15414.29
243.693	15386.72
243.764	15385.8
243.836	15355.14
243.907	15322.46
243.978	15297.74
244.05	15278.6
244.121	15242.54
244.192	15229.24
244.264	15187.3
244.335	15167.25
244.407	15120.25
244.478	15101.31
244.549	15075.43
244.62	15030.31
244.692	15005.15
244.763	14984.71
244.834	14953.71
244.906	14926.48
244.977	14901.46
245.048	14894.66
245.119	14854.56
245.191	14818.07
245.262	14772.56
245.333	14776.32
245.405	14755.35
245.476	14735.74
245.547	14713.56
245.618	14697.94
245.689	14669.99
245.761	14650.08
245.832	14625.83
245.903	14620.86
245.974	14594.35
246.045	14564.71
246.117	14560.66
246.188	14526.77
246.259	14489.94
246.33	14465.07
246.401	14427.71
246.473	14388.71
246.544	14355.54
246.615	14341.37
246.686	14313.65
246.757	14304.59
246.828	14265.01
246.899	14248.43
246.97	14213.24
247.042	14177.33
247.113	14163.59
247.184	14151.78
247.255	14119.91
247.326	14092
247.397	14062.5
247.468	14038.16
247.539	14014.54
247.61	13983.64
247.681	13971.34
247.752	13970.23
247.823	13935.91
247.894	13920.68
247.965	13883.75
248.037	13855.07
248.108	13822.53
248.179	13805.18
248.25	13779.48
248.321	13763.33
248.392	13730.75
248.463	13732.38
248.534	13708.23
248.605	13684.95
248.675	13666.15
248.746	13647.25
248.817	13631.05
248.888	13609.99
248.959	13577.69
249.03	13568.72
249.101	13542.16
249.172	13511.21
249.243	13463.25
249.314	13459.15
249.385	13441.84
249.456	13426.61
249.527	13402.17
249.598	13381.2
249.669	13359.46
249.739	13335.07
249.81	13310.19
249.881	13274.23
249.952	13244.68
250.023	13227.85
250.094	13194.06
250.165	13163.5
250.235	13144.75
250.306	13122.09
250.377	13088.78
250.448	13066.41
250.519	13023.94
250.59	13018.35
250.66	12998.1
250.731	12995.69
250.802	12970.14
250.873	12951.2
250.944	12934.71
251.014	12911.67
251.085	12912.49
251.156	12894.51
251.227	12892.29
251.297	12888.82
251.368	12878.89
251.439	12867.32
251.51	12846.64
251.58	12814.73
251.651	12786.33
251.722	12777.56
251.792	12745.65
251.863	12717.93
251.934	12718.12
252.005	12721.5
252.075	12699.9
252.146	12693.3
252.217	12676.09
252.287	12670.59
252.358	12644.56
252.429	12642.2
252.499	12610.63
252.57	12590.77
252.641	12577.51
252.711	12557.99
252.782	12523.18
252.852	12522.46
252.923	12497.25
252.994	12487.22
253.064	12485.78
253.135	12456.08
253.205	12428.17
253.276	12424.99
253.347	12425.23
253.417	12391.44
253.488	12365.75
253.558	12340.68
253.629	12318.46
253.699	12301.69
253.77	12289.97
253.841	12268.14
253.911	12255.56
253.982	12242.49
254.052	12236.76
254.123	12216.17
254.193	12195.16
254.264	12209.38
254.334	12182.29
254.405	12153.03
254.475	12121.7
254.546	12097.6
254.616	12094.32
254.687	12080.63
254.757	12060.39
254.827	12040.53
254.898	12026.55
254.968	12011.08
255.039	11986.35
255.109	11983.31
255.18	11962.06
255.25	11914.63
255.321	11905.76
255.391	11870.28
255.461	11869.99
255.532	11818.03
255.602	11801.21
255.673	11758.79
255.743	11725.39
255.813	11682.59
255.884	11676.13
255.954	11662.49
256.024	11667.6
256.095	11650.92
256.165	11620.56
256.235	11607.06
256.306	11583.83
256.376	11583.35
256.446	11575.98
256.517	11563.4
256.587	11546.87
256.657	11528.07
256.728	11521.95
256.798	11502.09
256.868	11477.85
256.938	11455.2
257.009	11448.54
257.079	11437.56
257.149	11448.5
257.219	11412.01
257.29	11402.04
257.36	11367.68
257.43	11368.78
257.5	11330.37
257.571	11304.3
257.641	11297.36
257.711	11268.68
257.781	11262.03
257.852	11243.86
257.922	11201.07
257.992	11184.34
258.062	11164.05
258.132	11160.25
258.202	11137.31
258.273	11122.9
258.343	11130.95
258.413	11110.22
258.483	11092.1
258.553	11068.15
258.623	11040.3
258.693	11029.94
258.764	11034.27
258.834	11034.51
258.904	11011.67
258.974	10987.09
259.044	10975.77
259.114	10959.82
259.184	10949.36
259.254	10924.69
259.324	10885.42
259.394	10882
259.464	10878.82
259.535	10853.66
259.605	10824.65
259.675	10797.04
259.745	10783.12
259.815	10748.13
259.885	10724.95
259.955	10736.14
260.025	10710.45
260.095	10698.12
260.165	10689.25
260.235	10682.17
260.305	10659.76
260.375	10633.94
260.445	10641.74
260.515	10632.44
260.585	10629.79
260.655	10619.38
260.725	10616.78
260.795	10610.81
260.865	10614.04
260.934	10590.09
261.004	10585.75
261.074	10577.37
261.144	10583.1
261.214	10575.25
261.284	10563.63
261.354	10559.88
261.424	10530.96
261.494	10533.32
261.564	10518.53
261.634	10504.51
261.703	10472.42
261.773	10462.26
261.843	10454.26
261.913	10431.9
261.983	10407.43
262.053	10399.72
262.123	10375.34
262.192	10346.15
262.262	10340.46
262.332	10308.61
262.402	10303.75
262.472	10294.84
262.541	10256.15
262.611	10250.18
262.681	10231.34
262.751	10221.47
262.821	10202
262.89	10175.07
262.96	10165.97
263.03	10167.65
263.1	10162.45
263.169	10150.6
263.239	10141.59
263.309	10146.65
263.379	10135.28
263.448	10123.91
263.518	10112.54
263.588	10100.21
263.657	10103.05
263.727	10104.88
263.797	10089.33
263.867	10073.43
263.936	10045.34
264.006	10051.41
264.076	10032.34
264.145	10015.86
264.215	9995.73
264.285	9990.33
264.354	9959.22
264.424	9939.08
264.494	9910.09
264.563	9889.23
264.633	9892.5
264.702	9884.89
264.772	9850.74
264.842	9832.48
264.911	9824.39
264.981	9795.78
265.05	9783.16
265.12	9773
265.19	9757.48
265.259	9754.64
265.329	9744.19
265.398	9732.97
265.468	9744
265.537	9731.72
265.607	9719.82
265.676	9720.26
265.746	9715.87
265.815	9720.06
265.885	9706.05
265.955	9688.04
266.024	9674.89
266.094	9639.39
266.163	9643.39
266.232	9644.84
266.302	9635.2
266.371	9624.08
266.441	9610.79
266.51	9614.35
266.58	9593.74
266.649	9572.88
266.719	9568.31
266.788	9558.24
266.858	9565.03
266.927	9532.38
266.996	9519.86
267.066	9513.36
267.135	9493.86
267.205	9488.37
267.274	9481.82
267.343	9482.68
267.413	9471.56
267.482	9469.25
267.552	9472.43
267.621	9437.51
267.69	9404.72
267.76	9394.9
267.829	9387.34
267.898	9380.21
267.968	9361.91
268.037	9359.21
268.106	9359.41
268.176	9341.11
268.245	9326.57
268.314	9303.16
268.384	9304.41
268.453	9298.97
268.522	9290.93
268.592	9287.18
268.661	9262.62
268.73	9252.22
268.799	9230.07
268.869	9239.31
268.938	9217.07
269.007	9202.96
269.076	9198.29
269.146	9203.2
269.215	9199.11
269.284	9205.32
269.353	9189.43
269.422	9171.91
269.492	9152.51
269.561	9108.7
269.63	9101.77
269.699	9091.08
269.768	9084.48
269.838	9069.89
269.907	9064.26
269.976	9040
270.045	9012.17
270.114	9012.03
270.183	9000.48
270.253	8992.44
270.322	8958.16
270.391	8949.35
270.46	8951.76
270.529	8950.46
270.598	8944.3
270.667	8922.83
270.736	8897.12
270.806	8891.05
270.875	8889.56
270.944	8875.55
271.013	8901.74
271.082	8891.53
271.151	8885.8
271.22	8858.03
271.289	8851
271.358	8838.54
271.427	8840.99
271.496	8834.01
271.565	8817.79
271.634	8813.7
271.703	8821.06
271.772	8828.67
271.841	8815.1
271.91	8791.27
271.979	8777.74
272.048	8766.19
272.117	8769.51
272.186	8756.27
272.255	8762.68
272.324	8764.36
272.393	8759.93
272.462	8738.13
272.531	8733.17
272.6	8717.86
272.669	8725.66
272.738	8712.38
272.807	8709.2
272.876	8687.16
272.945	8719.7
273.013	8719.89
273.082	8723.93
273.151	8701.31
273.22	8700.35
273.289	8696.74
273.358	8715.22
273.427	8703.62
273.496	8697.9
273.564	8693.37
273.633	8701.46
273.702	8674.84
273.771	8666.56
273.84	8665.55
273.909	8672.24
273.977	8669.45
274.046	8664.35
274.115	8669.16
274.184	8651.84
274.253	8643.9
274.322	8648.52
274.39	8610.93
274.459	8594.66
274.528	8566.7
274.597	8563.57
274.665	8553.71
274.734	8564.05
274.803	8547.78
274.872	8542.59
274.94	8524.35
275.009	8553.91
275.078	8535.96
275.147	8538.31
275.215	8527.68
275.284	8533.12
275.353	8526.33
275.421	8503.86
275.49	8512.04
275.559	8503.57
275.627	8502.27
275.696	8494.18
275.765	8497.07
275.833	8487.11
275.902	8489.61
275.971	8493.7
276.039	8508.14
276.108	8509.01
276.177	8506.17
276.245	8493.7
276.314	8491.35
276.383	8505.2
276.451	8472.81
276.52	8478.29
276.588	8486.04
276.657	8491.82
276.725	8487.1
276.794	8477.28
276.863	8492.25
276.931	8468.96
277	8466.94
277.068	8476.94
277.137	8492.73
277.205	8490.81
277.274	8510.82
277.342	8521.22
277.411	8505.44
277.48	8489.84
277.548	8489.22
277.617	8489.8
277.685	8483.93
277.754	8489.41
277.822	8477.14
277.89	8483.45
277.959	8470.17
278.027	8452.51
278.096	8441.34
278.164	8466.61
278.233	8464.25
278.301	8448.42
278.37	8461.27
278.438	8451.31
278.507	8454.63
278.575	8428.21
278.643	8424.79
278.712	8410.07
278.78	8394.48
278.849	8407.8
278.917	8414.88
278.985	8406.89
279.054	8403.81
279.122	8413.82
279.191	8411.85
279.259	8412.9
279.327	8397.36
279.396	8414.88
279.464	8419.01
279.532	8425.22
279.601	8420.98
279.669	8416.8
279.737	8426.04
279.806	8427.96
279.874	8440.66
279.942	8438.69
280.011	8439.12
280.079	8444.9
280.147	8463.04
280.215	8470.07
280.284	8466.79
280.352	8457.94
280.42	8463.47
280.488	8456.4
280.557	8458.18
280.625	8464.15
280.693	8462.56
280.761	8466.22
280.83	8453.22
280.898	8458.95
280.966	8445.09
281.034	8410.92
281.102	8398.17
281.171	8397.02
281.239	8407.17
281.307	8398.61
281.375	8385.62
281.443	8406.79
281.512	8404.1
281.58	8404.53
281.648	8390
281.716	8384.71
281.784	8380.76
281.852	8372.29
281.92	8372.44
281.989	8377.54
282.057	8355.79
282.125	8380.86
282.193	8376.53
282.261	8374.61
282.329	8364.45
282.397	8369.22
282.465	8373.88
282.533	8381.2
282.601	8368.78
282.67	8350.83
282.738	8343.09
282.806	8356.56
282.874	8346.69
282.942	8348.95
283.01	8346.5
283.078	8347.56
283.146	8351.07
283.214	8360.69
283.282	8365.07
283.35	8368.83
283.418	8362.19
283.486	8372.43
283.554	8340.96
283.622	8342.74
283.69	8342.16
283.758	8344.23
283.826	8345.87
283.894	8355.3
283.962	8379.94
284.03	8395.91
284.098	8390.48
284.165	8392.06
284.233	8384.7
284.301	8371.66
284.369	8362.42
284.437	8347.46
284.505	8345.05
284.573	8356.22
284.641	8346.74
284.709	8352.9
284.777	8345.97
284.845	8349.58
284.912	8348.9
284.98	8356.17
285.048	8351.45
285.116	8355.25
285.184	8365.79
285.252	8364.97
285.319	8343.13
285.387	8331.48
285.455	8313.25
285.523	8322.97
285.591	8310.7
285.659	8313.3
285.726	8328.6
285.794	8312.58
285.862	8312.39
285.93	8311.38
285.997	8306.42
286.065	8300.94
286.133	8294.01
286.201	8287.9
286.269	8271.06
286.336	8261
286.404	8257.15
286.472	8263.26
286.539	8240.65
286.607	8222.03
286.675	8221.12
286.743	8231.27
286.81	8225.98
286.878	8243.25
286.946	8231.85
287.013	8236.7
287.081	8232.37
287.149	8221.89
287.216	8245.55
287.284	8237.66
287.352	8243.39
287.419	8236.61
287.487	8250.9
287.555	8248.92
287.622	8246.95
287.69	8259.27
287.758	8275.96
287.825	8275.19
287.893	8263.6
287.96	8275.62
288.028	8289.09
288.096	8288.85
288.163	8288.37
288.231	8279.95
288.298	8274.66
288.366	8290.54
288.433	8289.58
288.501	8281.06
288.569	8278.51
288.636	8265.57
288.704	8283.85
288.771	8290.4
288.839	8287.17
288.906	8278.9
288.974	8290.35
289.041	8287.7
289.109	8277.94
289.176	8285.44
289.244	8288.52
289.311	8299.64
289.379	8306.13
289.446	8309.55
289.514	8313.25
289.581	8319.46
289.649	8317.44
289.716	8318.88
289.783	8309.4
289.851	8326.34
289.918	8334.08
289.986	8344.72
290.053	8355.01
290.121	8351.93
290.188	8348.13
290.255	8377.97
290.323	8375.32
290.39	8372.19
290.458	8380.9
290.525	8392.59
290.592	8382.87
290.66	8379.6
290.727	8373.15
290.794	8386.19
290.862	8385.04
290.929	8387.06
290.996	8387.35
291.064	8400.67
291.131	8417.04
291.198	8430.7
291.266	8430.56
291.333	8432.39
291.4	8440.42
291.468	8457.41
291.535	8448.08
291.602	8460.35
291.669	8447.45
291.737	8447.5
291.804	8443.94
291.871	8456.21
291.938	8459.05
292.006	8483.06
292.073	8499.08
292.14	8514.82
292.207	8508.76
292.275	8508.32
292.342	8518.14
292.409	8537.58
292.476	8555.15
292.543	8542.25
292.611	8544.66
292.678	8556.45
292.745	8586.14
292.812	8594.76
292.879	8586.53
292.946	8594.9
293.014	8604.67
293.081	8610.93
293.148	8629.36
293.215	8643.84
293.282	8640.38
293.349	8653.18
293.416	8641.24
293.484	8652.41
293.551	8660.35
293.618	8676.76
293.685	8698.13
293.752	8691.92
293.819	8688.26
293.886	8679.36
293.953	8690.81
294.02	8697.94
294.087	8704.67
294.154	8689.08
294.221	8701.98
294.288	8703.38
294.356	8719.31
294.423	8721.81
294.49	8719.98
294.557	8734.32
294.624	8723.4
294.691	8749
294.758	8748.48
294.825	8754.25
294.892	8743.04
294.959	8735.96
295.026	8737.45
295.093	8729.13
295.16	8729.66
295.226	8731.97
295.293	8758.97
295.36	8752.96
295.427	8760.56
295.494	8769.23
295.561	8781.64
295.628	8792.81
295.695	8811.97
295.762	8815
295.829	8823.91
295.896	8840.66
295.963	8845.23
296.03	8855.68
296.096	8850
296.163	8861.6
296.23	8869.83
296.297	8885.37
296.364	8885.04
296.431	8889.85
296.498	8887.44
296.564	8913.39
296.631	8918.11
296.698	8898.7
296.765	8924.41
296.832	8914.4
296.899	8904.24
296.965	8918.73
297.032	8905.87
297.099	8918.25
297.166	8924.22
297.233	8918.54
297.299	8912.66
297.366	8916.08
297.433	8916.61
297.5	8927.49
297.566	8921.14
297.633	8919.07
297.7	8921.09
297.767	8929.32
297.833	8934.86
297.9	8938.51
297.967	8914.74
298.033	8921.62
298.1	8953.59
298.167	8946.03
298.234	8952.38
298.3	8956.43
298.367	8946.7
298.434	8947.66
298.5	8933.37
298.567	8930.48
298.634	8933.75
298.7	8946.27
298.767	8941.16
298.834	8964.66
298.9	8953.92
298.967	8948
299.033	8961.48
299.1	8976.02
299.167	8987.48
299.233	8984.92
299.3	8999.85
299.366	9019.87
299.433	9036.63
299.5	9009.37
299.566	9009.86
299.633	9026.18
299.699	9037.92
299.766	9039.99
299.832	9048.27
299.899	9062.62
299.965	9073.26
300.032	9064.69
300.099	9070.57
300.165	9079.42
300.232	9066.28
300.298	9074.56
300.365	9093.29
300.431	9086.35
300.498	9082.07
300.564	9087.12
300.631	9098.63
300.697	9112.79
300.763	9112.59
300.83	9110.09
300.896	9118.9
300.963	9130.5
301.029	9138.01
301.096	9141.62
301.162	9148.89
301.229	9144.95
301.295	9131.47
301.361	9134.45
301.428	9140.32
301.494	9126.46
301.561	9125.98
301.627	9129.39
301.693	9126.6
301.76	9126.22
301.826	9129.64
301.892	9136.09
301.959	9140.13
302.025	9138.01
302.092	9126.51
302.158	9137
302.224	9133.63
302.291	9121.98
302.357	9113.36
302.423	9103.3
302.49	9094.34
302.556	9106.91
302.622	9103.78
302.688	9115.29
302.755	9129.2
302.821	9135.99
302.887	9145.14
302.954	9144.85
303.02	9153.47
303.086	9157.18
303.152	9157.32
303.219	9151.25
303.285	9153.66
303.351	9160.98
303.417	9160.98
303.483	9158.72
303.55	9148.08
303.616	9148.37
303.682	9149.71
303.748	9140.04
303.815	9150.49
303.881	9163.05
303.947	9147.41
304.013	9151.35
304.079	9138.59
304.145	9112.84
304.212	9108.26
304.278	9097.82
304.344	9086.26
304.41	9074.95
304.476	9064.21
304.542	9054.78
304.608	9055.11
304.674	9038.31
304.741	9030.85
304.807	9028.78
304.873	9026.51
304.939	9039.99
305.005	9022.76
305.071	9024.35
305.137	9029.02
305.203	9003.93
305.269	8997
305.335	9005.47
305.401	8999.7
305.467	9003.5
305.533	9006.39
305.599	9010.05
305.666	9016.64
305.732	9015.92
305.798	9026.56
305.864	9047.12
305.93	9055.01
305.996	9054.24
306.062	9053.18
306.128	9044.9
306.194	9034.7
306.259	9033.16
306.325	9023.48
306.391	9030.65
306.457	9037.68
306.523	9036.96
306.589	9062.28
306.655	9055.49
306.721	9038.02
306.787	9026.42
306.853	9035.32
306.919	9025.65
306.985	9021.94
307.051	9014.67
307.117	9017.51
307.183	9002.49
307.248	8977.12
307.314	8980.68
307.38	8987.18
307.446	8987.9
307.512	8977.12
307.578	8974.86
307.644	8970.67
307.709	8973.27
307.775	8970.48
307.841	8961.62
307.907	8964.32
307.973	8935.86
308.039	8931
308.104	8937.69
308.17	8935.48
308.236	8918.73
308.302	8922.86
308.368	8910.49
308.433	8911.55
308.499	8899.23
308.565	8892.88
308.631	8892.44
308.696	8863.66
308.762	8850.56
308.828	8847.43
308.894	8834.2
308.959	8819.18
309.025	8803.68
309.091	8792.56
309.156	8777.83
309.222	8779.86
309.288	8761.23
309.354	8744.38
309.419	8744.38
309.485	8725.32
309.551	8727.06
309.616	8713.92
309.682	8704.91
309.748	8698.56
309.813	8692.64
309.879	8682.01
309.945	8666.8
310.01	8661.7
310.076	8662.9
310.141	8647.45
310.207	8630.03
310.273	8633.88
310.338	8634.74
310.404	8623.05
310.469	8611.07
310.535	8600.38
310.601	8574.83
310.666	8582.38
310.732	8584.74
310.797	8569.15
310.863	8557.84
310.928	8551.2
310.994	8552.64
311.059	8549.03
311.125	8540.27
311.191	8547.01
311.256	8532.14
311.322	8541.43
311.387	8522.86
311.453	8885.49
311.518	8860.81
311.584	8860.61
311.649	8858.74
311.715	8848.63
311.78	8849.74
311.846	8842.14
311.911	8846.27
311.976	8851.57
312.042	8838.57
312.107	8825.49
312.173	8811.82
312.238	8807.15
312.304	8799.69
312.369	8789.93
312.434	8777.61
312.5	8772.6
312.565	8736.61
312.631	8746.9
312.696	8731.02
312.761	8731.02
312.827	8360.26
312.892	8397.21
312.958	8401.35
313.023	8395.62
313.088	8396.68
313.154	8382.78
313.219	8370.22
313.284	8364.35
313.35	8354.63
313.415	8343.76
313.48	8344.96
313.546	8354.25
313.611	8361.94
313.676	8348.09
313.741	8339.19
313.807	8342.79
313.872	8346.02
313.937	8353.81
314.003	8356.36
314.068	8363.82
314.133	8371.28
314.198	8358.14
314.264	8338.51
314.329	8325.03
314.394	8322.63
314.459	8314.88
314.525	8334.03
314.59	8330.95
314.655	8318.88
314.72	8322.34
314.785	8319.26
314.851	8316.18
314.916	8297.85
314.981	8279.38
315.046	8278.46
315.111	8263.31
315.176	8254.22
315.242	8257.49
315.307	8254.12
315.372	8236.75
315.437	8222.08
315.502	8210.1
315.567	8216.59
315.632	8205.72
315.698	8204.03
315.763	8202.25
315.828	8193.16
315.893	8184.07
315.958	8176.18
316.023	8165.36
316.088	8151.74
316.153	8134.52
316.218	8122.83
316.283	8106.05
316.348	8101
316.413	8099.32
316.479	8089.6
316.544	8057.71
316.609	8026.88
316.674	7987.78
316.739	7957.25
316.804	7925.75
316.869	7895.3
316.934	7867.16
316.999	7836.34
317.064	7786.91
317.129	7740.59
317.194	7707.89
317.259	7665.19
317.324	7618.7
317.389	7578.47
317.454	7543.99
317.518	7507.89
317.583	7483.18
317.648	7459.28
317.713	7423.85
317.778	7359.68
317.843	7333.14
317.908	7300.46
317.973	7265.56
318.038	7247.16
318.103	7216.88
318.168	7191.75
318.233	7156.48
318.297	7106.31
318.362	7068.25
318.427	7035.78
318.492	7014.58
318.557	6970.29
318.622	6945.02
318.687	6922.97
318.751	6889.31
318.816	6855.1
318.881	6828.25
318.946	6781.65
319.011	6739.62
319.075	6697.69
319.14	6674.26
319.205	6632.82
319.27	6603.29
319.335	6561.41
319.399	6521.27
319.464	6493.09
319.529	6441.33
319.594	6409.84
319.658	6383.92
319.723	6346.67
319.788	6315.09
319.853	6264.06
319.917	6241.17
319.982	6191.01
320.047	6159.82
320.112	6137.65
320.176	6090.1
320.241	6060.73
320.306	6031.41
320.37	5999.17
320.435	5968.42
320.5	5943.37
320.564	5909.5
320.629	5867.15
320.694	5839.38
320.758	5804.46
320.823	5762.07
320.888	5737.23
320.952	5692.4
321.017	5651.55
321.082	5620.14
321.146	5591.52
321.211	5558.97
321.275	5514.2
321.34	5472.94
321.405	5432.44
321.469	5385.13
321.534	5350.21
321.598	5296.97
321.663	5268.4
321.727	5233.99
321.792	5190.34
321.857	5141.81
321.921	5103.29
321.986	5067.66
322.05	5015.93
322.115	4978.24
322.179	4937.01
322.244	4884.11
322.308	4858.11
322.373	4819.28
322.437	4779.26
322.502	4756.03
322.566	4712.75
322.631	4682.31
322.695	4646.71
322.76	4605.8
322.824	4575.46
322.889	4537
322.953	4497.68
323.018	4432.95
323.082	4378.61
323.146	4330.17
323.211	4288.75
323.275	4244.75
323.34	4202.49
323.404	4166.4
323.468	4125.61
323.533	4087.47
323.597	4050.72
323.662	3997.43
323.726	3962.82
323.79	3919.62
323.855	3858.09
323.919	3813.8
323.983	3769.03
324.048	3708.21
324.112	3853.48
324.177	3733.57
324.241	3539.71
324.305	3353.64
324.37	3169.77
324.434	2988.3
324.498	2950.41
324.562	2901.3
324.627	2848.96
324.691	2797.48
324.755	2739.45
324.82	2667.79
324.884	2596.94
324.948	2529.21
325.012	2446.02
325.077	2329.48
