Data from 20250625_urea_1M_1_MAYP1162681_07-35-06-209.txt Node
Date: Thu Jun 26 07:35:06 BST 2025
User: adleo
Spectrometer: MAYP116268
Trigger mode: 0
Integration Time (sec): 1.000000E0
Scans to average: 1
Electric dark correction enabled: true
Nonlinearity correction enabled: true
Boxcar width: 10
XAxis mode: Wavelengths
Number of Pixels in Spectrum: 2068
>>>>>Begin Spectral Data<<<<<
179.565	1118.68
179.642	1171.9
179.718	1209.63
179.795	1247.18
179.871	1276.46
179.948	1291.86
180.024	1310.08
180.101	1330.44
180.177	1339.2
180.254	1360.55
180.33	1379.96
180.407	1428.86
180.483	1517.36
180.56	1601.5
180.636	1681.45
180.712	1667.95
180.789	1673.84
180.865	1685.53
180.942	1697.26
181.018	1706.1
181.095	1716.89
181.171	1721.69
181.248	1720.59
181.324	1733.95
181.4	1736.23
181.477	1748.49
181.553	1760.51
181.63	1781.9
181.706	1794.59
181.782	1807.46
181.859	1809.41
181.935	1817.25
182.011	1811.69
182.088	1827.04
182.164	1845.35
182.24	1857.37
182.317	1868.49
182.393	1867.02
182.469	1879
182.546	1891.46
182.622	1895.54
182.698	1893.78
182.775	1908.47
182.851	1921.26
182.927	1915.18
183.003	1916.17
183.08	1908.38
183.156	1917.84
183.232	1914.99
183.308	1907.76
183.385	1913.42
183.461	1926.68
183.537	1925.97
183.613	1940.66
183.69	1933
183.766	1922.3
183.842	1928.01
183.918	1931.24
183.995	1944.98
184.071	1946.93
184.147	1941.27
184.223	1930.77
184.299	1939.28
184.375	1924.45
184.452	1933.58
184.528	1986.61
184.604	1995.35
184.68	2006.14
184.756	2012.9
184.832	2015.47
184.908	2020.17
184.985	2022.36
185.061	2009.66
185.137	2017.89
185.213	2005.91
185.289	2004.86
185.365	1997.11
185.441	1994.69
185.517	2008.96
185.593	2007.39
185.669	2005.11
185.745	2014.38
185.822	2031.82
185.898	2028.16
185.974	2038
186.05	2028.82
186.126	1991.2
186.202	1983.12
186.278	1979.41
186.354	1969.14
186.43	1976.13
186.506	1975.66
186.582	1972.23
186.658	1976.23
186.734	1956.78
186.81	1956.26
186.886	1962.35
186.962	1975.75
187.038	1974.37
187.114	1962.67
187.19	1968.66
187.266	1960.68
187.341	1963.1
187.417	1954.64
187.493	1952.36
187.569	1956.16
187.645	1949.89
187.721	1939.95
187.797	1947.51
187.873	1953.5
187.949	1949.93
188.025	1941.8
188.101	1943.94
188.176	1950.12
188.252	1947.84
188.328	1956.34
188.404	1957.44
188.48	1950.4
188.556	1940.7
188.632	1939.66
188.707	1942.41
188.783	1938.32
188.859	1935.38
188.935	1922.82
189.011	1930.33
189.086	1924.82
189.162	1916.21
189.238	1915.64
189.314	1913.6
189.39	1910.94
189.465	1903
189.541	1918.21
189.617	1905.47
189.693	1899.77
189.768	1904.29
189.844	1924.55
189.92	1914.95
189.996	1924.89
190.071	1935.87
190.147	1939.24
190.223	1948.37
190.298	1940.53
190.374	1927.6
190.45	1939.67
190.526	1946.76
190.601	1942.71
190.677	1943.71
190.753	1971.21
190.828	1973.78
190.904	1986.38
190.98	2001.27
191.055	2010.87
191.131	2001.45
191.207	2019.33
191.282	2027.17
191.358	2016.52
191.433	2005.11
191.509	2018.98
191.585	2012.71
191.66	2012.66
191.736	2018.89
191.811	2008.66
191.887	2027.79
191.963	2051.37
192.038	2052.9
192.114	2054.7
192.189	2058.03
192.265	2056.08
192.34	2035.62
192.416	2035.34
192.491	2032.29
192.567	2033.67
192.642	2037.29
192.718	2038.38
192.793	2029.01
192.869	2026.49
192.944	2028.87
193.02	2034.86
193.095	2038
193.171	2046.8
193.246	2047.84
193.322	2045.13
193.397	2047.61
193.473	2034.76
193.548	2016.45
193.624	2025.34
193.699	2022.73
193.775	2036.71
193.85	2038.43
193.925	2045.94
194.001	2043.33
194.076	2035.29
194.152	2020.88
194.227	2011.94
194.302	2004.23
194.378	2008.13
194.453	2004.28
194.529	2017.74
194.604	2004.57
194.679	2001.57
194.755	1983.22
194.83	1995.88
194.905	1992.79
194.981	2000.64
195.056	1993.65
195.131	2000.11
195.207	1994.78
195.282	1986.27
195.357	1970.39
195.433	1982.46
195.508	1970.72
195.583	1980.94
195.659	1997.21
195.734	2006.62
195.809	2010.57
195.884	2018.89
195.96	2016.27
196.035	2032.16
196.11	2024.78
196.185	2037.62
196.261	2038
196.336	2066.96
196.411	2049.08
196.486	2053.69
196.561	2048.89
196.637	2056.35
196.712	2073.29
196.787	2078.52
196.862	2093.36
196.937	2101.59
197.013	2111.63
197.088	2119.71
197.163	2135.22
197.238	2148.12
197.313	2148.17
197.388	2159.73
197.464	2189.62
197.539	2203.6
197.614	2195.56
197.689	2209.5
197.764	2222.02
197.839	2243.24
197.914	2238.29
197.989	2260.94
198.065	2275.45
198.14	2324.45
198.215	2347.96
198.29	2356.72
198.365	2370.57
198.44	2378.52
198.515	2404.7
198.59	2416.46
198.665	2442.6
198.74	2452.07
198.815	2451.07
198.89	2473.83
198.965	2499.78
199.04	2493.07
199.115	2508.68
199.19	2551.1
199.265	2552.15
199.34	2561.82
199.415	2592.55
199.49	2611.83
199.565	2621.88
199.64	2644.41
199.715	2638.69
199.79	2644.16
199.865	2651.07
199.94	2649.45
200.015	2682.66
200.09	2688.66
200.165	2692.04
200.24	2701.86
200.315	2739.66
200.39	2758.48
200.464	2762.39
200.539	2765.15
200.614	2781.64
200.689	2801.46
200.764	2806.27
200.839	2824.75
200.914	2830.56
200.989	2822.03
201.063	2837.76
201.138	2822.04
201.213	2823.04
201.288	2804.18
201.363	2810.08
201.438	2809.23
201.512	2823.9
201.587	2806.69
201.662	2808.26
201.737	2823.28
201.812	2826.61
201.886	2798.57
201.961	2807.73
202.036	2795.01
202.111	2792.58
202.186	2763.39
202.26	2748.47
202.335	2730.36
202.41	2725.17
202.485	2708.64
202.559	2687.73
202.634	2659.53
202.709	2668.33
202.784	2648.09
202.858	2652.42
202.933	2633.61
203.008	2630.56
203.082	2612.08
203.157	2611.32
203.232	2571.86
203.306	2549.7
203.381	2519.88
203.456	2497.12
203.53	2468.48
203.605	2450.97
203.68	2428.58
203.754	2424.92
203.829	2409.96
203.904	2391.64
203.978	2381.02
204.053	2385.54
204.127	2374.59
204.202	2373.45
204.277	2358.22
204.351	2351.98
204.426	2344.46
204.5	2337.46
204.575	2301.11
204.65	2311.63
204.724	2303.49
204.799	2313.53
204.873	2307
204.948	2305.15
205.022	2292.06
205.097	2288.21
205.171	2303.43
205.246	2312.39
205.32	2310.15
205.395	2310.77
205.469	2301.11
205.544	2306.68
205.618	2290.6
205.693	2302.83
205.767	2292.22
205.842	2312.35
205.916	2307.98
205.991	2294.79
206.065	2299.17
206.14	2315.43
206.214	2308
206.289	2300.48
206.363	2311.57
206.438	2318.52
206.512	2329.66
206.586	2348.22
206.661	2358.17
206.735	2334.39
206.81	2332.62
206.884	2348.61
206.958	2335.53
207.033	2350.99
207.107	2356.75
207.181	2386.84
207.256	2378.7
207.33	2399.46
207.405	2409.56
207.479	2429.31
207.553	2440.93
207.628	2429.89
207.702	2443.07
207.776	2438.36
207.851	2444.5
207.925	2456.22
207.999	2452.64
208.073	2447.79
208.148	2449.41
208.222	2440.5
208.296	2472.38
208.371	2488.3
208.445	2496.82
208.519	2523.24
208.593	2535.9
208.668	2532.43
208.742	2532.57
208.816	2539.47
208.89	2551.95
208.965	2551.62
209.039	2556.96
209.113	2570.53
209.187	2591.09
209.261	2590.14
209.336	2611
209.41	2630.67
209.484	2635.2
209.558	2656.87
209.632	2672.02
209.707	2686.83
209.781	2710.46
209.855	2731
209.929	2755.99
210.003	2768.52
210.077	2774
210.151	2823.6
210.226	2864.51
210.3	2901.34
210.374	2930.21
210.448	2941.08
210.522	2961.39
210.596	2981.46
210.67	3002.3
210.744	3057.91
210.818	3100.57
210.892	3135.15
210.966	3144.83
211.041	3175.83
211.115	3193.33
211.189	3238.31
211.263	3276.28
211.337	3303.61
211.411	3342.13
211.485	3357.21
211.559	3396.53
211.633	3430.96
211.707	3433.69
211.781	3473.01
211.855	3479.64
211.929	3508.13
212.003	3531.18
212.077	3579.66
212.151	3636.45
212.225	3691.24
212.299	3727.28
212.373	3766.54
212.447	3816.16
212.52	3897.77
212.594	3955.12
212.668	4025.57
212.742	4069.5
212.816	4129.22
212.89	4185.43
212.964	4248.63
213.038	4320.82
213.112	4402.21
213.186	4488.26
213.26	4543.11
213.333	4575.03
213.407	4654.41
213.481	4739.14
213.555	4834.64
213.629	4914.54
213.703	4988.45
213.777	5078.05
213.85	5152.02
213.924	5275.68
213.998	5365.17
214.072	5459.45
214.146	5545.21
214.219	5646.98
214.293	5747.9
214.367	5860.98
214.441	5977.15
214.515	6071.34
214.588	6158.1
214.662	6238.15
214.736	6330.78
214.81	6452.27
214.883	6572.91
214.957	6674.73
215.031	6775.26
215.105	6868.78
215.178	6963.8
215.252	7075.03
215.326	7166.18
215.4	7264
215.473	7339.19
215.547	7441.01
215.621	7542.86
215.694	7665.38
215.768	7755.93
215.842	7860.56
215.915	7956.78
215.989	8048.12
216.063	8154.01
216.136	8273.47
216.21	8389.12
216.284	8512.07
216.357	8627.42
216.431	8746.3
216.504	8872.35
216.578	9012.82
216.652	9140.13
216.725	9260.87
216.799	9378.71
216.873	9493.06
216.946	9614.92
217.02	9721.2
217.093	9838.62
217.167	9928.06
217.24	10027.34
217.314	10129.26
217.387	10239.57
217.461	10341.03
217.535	10464.07
217.608	10574.78
217.682	10676.98
217.755	10792.91
217.829	10897.67
217.902	11001.56
217.976	11102.76
218.049	11194.13
218.123	11278.8
218.196	11385.55
218.27	11481.94
218.343	11575.15
218.417	11682.78
218.49	11783.22
218.563	11899.38
218.637	11999.49
218.71	12129.15
218.784	12239.68
218.857	12360.71
218.931	12458.37
219.004	12559.74
219.077	12664.34
219.151	12756.89
219.224	12851.95
219.298	12949.28
219.371	13044.24
219.444	13123.88
219.518	13221.21
219.591	13324.17
219.665	13438.61
219.738	13528.66
219.811	13606.08
219.885	13700.13
219.958	13786.08
220.031	13873.19
220.105	13970.42
220.178	14053.72
220.251	14116.39
220.325	14203.3
220.398	14279.66
220.471	14358.91
220.544	14449.3
220.618	14518.86
220.691	14601.72
220.764	14676.68
220.838	14745.9
220.911	14821.29
220.984	14921.8
221.057	14992.51
221.131	15062.5
221.204	15107.33
221.277	15198.58
221.35	15300.14
221.424	15362.46
221.497	15432.5
221.57	15494.63
221.643	15564.24
221.716	15640.73
221.79	15703.73
221.863	15760.89
221.936	15822.49
222.009	15882.65
222.082	15946.08
222.155	15995.92
222.229	16063.63
222.302	16127.35
222.375	16179.6
222.448	16237.82
222.521	16282.89
222.594	16334.65
222.667	16376.73
222.74	16443.05
222.814	16482.57
222.887	16526.53
222.96	16585.76
223.033	16640.27
223.106	16705.24
223.179	16749.05
223.252	16784.95
223.325	16837.48
223.398	16874.6
223.471	16930.6
223.544	16982.26
223.617	17014.84
223.69	17070.65
223.763	17097.83
223.837	17140.87
223.91	17202.03
223.983	17225.84
224.056	17267.28
224.129	17308.73
224.202	17354.66
224.275	17384.06
224.348	17405.89
224.42	17427.09
224.493	17444.78
224.566	17471.04
224.639	17496.64
224.712	17516.49
224.785	17553.6
224.858	17585.07
224.931	17617.02
225.004	17622.99
225.077	17649.26
225.15	17648.39
225.223	17670.8
225.296	17722.46
225.369	17741.11
225.442	17745.84
225.514	17774.17
225.587	17801.26
225.66	17830.99
225.733	17861.16
225.806	17883.95
225.879	17907.18
225.952	17926.79
226.025	17967.03
226.097	18009.44
226.17	18027.66
226.243	18040.72
226.316	18058.4
226.389	18073.44
226.461	18098.21
226.534	18127.03
226.607	18144.71
226.68	18198.35
226.753	18216.28
226.825	18223.6
226.898	18251.89
226.971	18269.34
227.044	18297.91
227.117	18303.21
227.189	18328.27
227.262	18353.57
227.335	18388.99
227.407	18411.93
227.48	18438.48
227.553	18446
227.626	18451.69
227.698	18464.51
227.771	18472.99
227.844	18476.46
227.916	18501.61
227.989	18498
228.062	18509.23
228.134	18537.27
228.207	18541.18
228.28	18551.78
228.352	18552.45
228.425	18557.13
228.498	18581.27
228.57	18576.36
228.643	18611.39
228.716	18616.59
228.788	18611.53
228.861	18606.43
228.934	18621.56
229.006	18626.76
229.079	18635.05
229.151	18638.52
229.224	18638.47
229.296	18662.18
229.369	18700.97
229.442	18719.43
229.514	18736.73
229.587	18756.83
229.659	18751.86
229.732	18765.98
229.804	18774.85
229.877	18801.98
229.949	18818.8
230.022	18833.5
230.094	18841.78
230.167	18845.93
230.239	18834.99
230.312	18843.28
230.384	18865.06
230.457	18865.01
230.529	18866.17
230.602	18876.1
230.674	18883.23
230.747	18900
230.819	18910.17
230.892	18882.84
230.964	18878.55
231.037	18877.73
231.109	18864.53
231.181	18872.87
231.254	18865.2
231.326	18862.7
231.399	18861.83
231.471	18862.99
231.544	18854.8
231.616	18867.33
231.688	18863.42
231.761	18859.52
231.833	18855.76
231.905	18833.88
231.978	18833.35
232.05	18828.39
232.122	18824.34
232.195	18821.55
232.267	18829.83
232.339	18822.17
232.412	18837.35
232.484	18830.46
232.556	18826.99
232.629	18852.87
232.701	18851.9
232.773	18851.37
232.846	18848.72
232.918	18837.45
232.99	18827.28
233.062	18829.64
233.135	18824.05
233.207	18797.69
233.279	18796.44
233.351	18799.38
233.424	18788.87
233.496	18776.78
233.568	18793.21
233.64	18776.78
233.713	18758.75
233.785	18742.51
233.857	18734.71
233.929	18699.91
234.001	18697.07
234.074	18696.4
234.146	18667.82
234.218	18653.84
234.29	18640.59
234.362	18619.68
234.434	18591.87
234.507	18575.34
234.579	18540.45
234.651	18523.68
234.723	18524.7
234.795	18515.49
234.867	18495.11
234.939	18491.16
235.012	18468.41
235.084	18448.12
235.156	18436.07
235.228	18410.58
235.3	18389.81
235.372	18363.31
235.444	18359.64
235.516	18318.88
235.588	18297
235.66	18281.48
235.732	18261.48
235.804	18294.35
235.876	18282.15
235.948	18280.56
236.02	18258.2
236.092	18239.12
236.164	18221.43
236.236	18195.75
236.308	18170.79
236.38	18154.4
236.452	18131.8
236.524	18126.5
236.596	18126.59
236.668	18117.97
236.74	18109.39
236.812	18093.54
236.884	18092.14
236.956	18075.17
237.028	18055.99
237.1	18030.31
237.172	18024.43
237.244	18019.27
237.316	17963.08
237.388	17942.99
237.46	17917.06
237.532	17908.14
237.604	17882.17
237.675	17880.1
237.747	17873.74
237.819	17860.1
237.891	17834.03
237.963	17804.82
238.035	17767.57
238.107	17707.28
238.178	17690.08
238.25	17667.28
238.322	17668.54
238.394	17626.37
238.466	17596.44
238.538	17585.64
238.609	17571.96
238.681	17526.75
238.753	17491.14
238.825	17467.86
238.897	17450.8
238.968	17445.65
239.04	17415.43
239.112	17416.3
239.184	17371.29
239.255	17336.2
239.327	17307
239.399	17286.08
239.471	17268.73
239.542	17257.6
239.614	17249.26
239.686	17205.36
239.758	17190.75
239.829	17151.62
239.901	17139.72
239.973	17119.72
240.044	17096.2
240.116	17073.93
240.188	17044.48
240.259	17013.25
240.331	16988.05
240.403	16960.1
240.474	16914.89
240.546	16885.11
240.618	16833.44
240.689	16799.75
240.761	16772.57
240.833	16762.5
240.904	16735.89
240.976	16710.44
241.048	16680.76
241.119	16666.92
241.191	16642.2
241.262	16624.7
241.334	16590.24
241.405	16555.5
241.477	16523.49
241.549	16496.5
241.62	16466.62
241.692	16446.76
241.763	16433.27
241.835	16397.51
241.906	16375.14
241.978	16329.07
242.049	16315.52
242.121	16308.1
242.192	16296.97
242.264	16259.52
242.335	16210.84
242.407	16187.36
242.478	16154.83
242.55	16134.68
242.621	16090.82
242.693	16068.03
242.764	16045.71
242.836	16022.19
242.907	16002.96
242.979	15988.55
243.05	15964.54
243.122	15938.85
243.193	15915.48
243.264	15869.06
243.336	15841.88
243.407	15825.39
243.479	15824.48
243.55	15797.39
243.622	15777.19
243.693	15741.81
243.764	15731.74
243.836	15697.66
243.907	15670.38
243.978	15648.45
244.05	15623.53
244.121	15581.11
244.192	15562.31
244.264	15511.41
244.335	15490.06
244.407	15447.74
244.478	15417.85
244.549	15382.19
244.62	15351.29
244.692	15314.17
244.763	15298.6
244.834	15269.39
244.906	15224.61
244.977	15197.86
245.048	15189.67
245.119	15156.31
245.191	15129.32
245.262	15083.04
245.333	15084.87
245.405	15059.52
245.476	15032.28
245.547	15017.68
245.618	15003.6
245.689	14972.27
245.761	14952.89
245.832	14913.61
245.903	14903.92
245.974	14879.53
246.045	14857.79
246.117	14847.42
246.188	14819.32
246.259	14780.56
246.33	14751.88
246.401	14727.01
246.473	14687.58
246.544	14645.74
246.615	14628.96
246.686	14595.32
246.757	14584.42
246.828	14536.41
246.899	14526.24
246.97	14489.6
247.042	14446.89
247.113	14429.44
247.184	14425.88
247.255	14391.5
247.326	14372.85
247.397	14336.26
247.468	14307.68
247.539	14276.1
247.61	14230.64
247.681	14217.48
247.752	14210.4
247.823	14178.53
247.894	14157.47
247.965	14120.25
248.037	14086.51
248.108	14044.33
248.179	14022.25
248.25	13988.6
248.321	13976.65
248.392	13940.68
248.463	13935.82
248.534	13916.2
248.605	13894.12
248.675	13862.3
248.746	13846.83
248.817	13829.38
248.888	13815.44
248.959	13782.18
249.03	13768.83
249.101	13747.18
249.172	13713.63
249.243	13669.19
249.314	13666.53
249.385	13651.69
249.456	13642.09
249.527	13619.44
249.598	13594.8
249.669	13573.88
249.739	13555.9
249.81	13536.04
249.881	13493.52
249.952	13461.08
250.023	13430.13
250.094	13397.35
250.165	13365
250.235	13337.52
250.306	13318.48
250.377	13284.55
250.448	13263.09
250.519	13222.21
250.59	13217.15
250.66	13195.07
250.731	13190.4
250.802	13157.18
250.873	13127.87
250.944	13110.42
251.014	13089.16
251.085	13106.71
251.156	13089.84
251.227	13090.08
251.297	13082.75
251.368	13080.01
251.439	13076.53
251.51	13070.7
251.58	13039.42
251.651	13015.41
251.722	13004.71
251.792	12966.05
251.863	12944.64
251.934	12943.73
252.005	12951.73
252.075	12927.53
252.146	12919.58
252.217	12904.1
252.287	12894.8
252.358	12879.76
252.429	12870.94
252.499	12833.82
252.57	12802.63
252.641	12793.71
252.711	12768.74
252.782	12729.84
252.852	12725.98
252.923	12699.52
252.994	12690.02
253.064	12678.02
253.135	12655.75
253.205	12633.72
253.276	12626.29
253.347	12626.58
253.417	12589.51
253.488	12565.84
253.558	12547.05
253.629	12526.75
253.699	12518.27
253.77	12507.9
253.841	12482.74
253.911	12470.5
253.982	12465.63
254.052	12459.65
254.123	12435.64
254.193	12414.53
254.264	12431.5
254.334	12395.01
254.405	12363.68
254.475	12323.52
254.546	12309.64
254.616	12308.53
254.687	12291.71
254.757	12283.08
254.827	12252.28
254.898	12242.11
254.968	12221.14
255.039	12186.05
255.109	12173.61
255.18	12138.81
255.25	12097.55
255.321	12091.09
255.391	12053.01
255.461	12051.42
255.532	11998.11
255.602	11977.96
255.673	11939.59
255.743	11910.53
255.813	11877.46
255.884	11883.15
255.954	11875.92
256.024	11874.43
256.095	11844.97
256.165	11817.79
256.235	11794.85
256.306	11775.37
256.376	11769.73
256.446	11759.81
256.517	11752.72
256.587	11749.1
256.657	11733.83
256.728	11716.86
256.798	11697.24
256.868	11682.35
256.938	11652.85
257.009	11648.27
257.079	11636.9
257.149	11646.25
257.219	11615.35
257.29	11597.76
257.36	11554.87
257.43	11545.71
257.5	11506.48
257.571	11486.77
257.641	11475.05
257.711	11450.81
257.781	11442.38
257.852	11423.72
257.922	11390.66
257.992	11371.91
258.062	11344.63
258.132	11339.24
258.202	11325.12
258.273	11311.48
258.343	11313.26
258.413	11295.09
258.483	11272.44
258.553	11249.84
258.623	11226.41
258.693	11207.04
258.764	11214.65
258.834	11215.28
258.904	11197.79
258.974	11179.62
259.044	11161.06
259.114	11148.78
259.184	11132.92
259.254	11108.01
259.324	11070.95
259.394	11056.73
259.464	11059.43
259.535	11041.12
259.605	11014.27
259.675	10987.77
259.745	10976.98
259.815	10943
259.885	10922.19
259.955	10940.07
260.025	10919.15
260.095	10897.32
260.165	10889.37
260.235	10883.88
260.305	10854.63
260.375	10830.82
260.445	10831.88
260.515	10828.56
260.585	10824.36
260.655	10814.2
260.725	10809.52
260.795	10805.43
260.865	10811.79
260.934	10786.97
261.004	10773.77
261.074	10755.55
261.144	10758.83
261.214	10746.74
261.284	10731.99
261.354	10729.39
261.424	10699.99
261.494	10694.6
261.564	10682.94
261.634	10670.99
261.703	10636.29
261.773	10627.14
261.843	10619.09
261.913	10610.9
261.983	10582.38
262.053	10571.05
262.123	10544.79
262.192	10516.37
262.262	10516.66
262.332	10486.64
262.402	10475.22
262.472	10463.37
262.541	10433.79
262.611	10423.33
262.681	10400.11
262.751	10391.2
262.821	10370.09
262.89	10341.14
262.96	10333.52
263.03	10332.9
263.1	10325.72
263.169	10315.84
263.239	10307.61
263.309	10305.15
263.379	10291.18
263.448	10282.07
263.518	10273.45
263.588	10268.63
263.657	10277.93
263.727	10267.23
263.797	10254.32
263.867	10240.2
263.936	10212.31
264.006	10212.94
264.076	10202
264.145	10189.09
264.215	10172.52
264.285	10170.16
264.354	10139.28
264.424	10120.5
264.494	10097.18
264.563	10076.7
264.633	10081.04
264.702	10073.57
264.772	10042.45
264.842	10016.87
264.911	10010.9
264.981	9982.43
265.05	9963.55
265.12	9940.81
265.19	9920.77
265.259	9912.73
265.329	9907.38
265.398	9897.99
265.468	9915.67
265.537	9893.8
265.607	9882.82
265.676	9882
265.746	9870.19
265.815	9871.78
265.885	9853.63
265.955	9831.09
266.024	9810.28
266.094	9770.16
266.163	9771.55
266.232	9769.19
266.302	9759.37
266.371	9747.42
266.441	9732.93
266.51	9736.68
266.58	9720.74
266.649	9704.75
266.719	9701.76
266.788	9684.81
266.858	9689.29
266.927	9651.77
266.996	9647.19
267.066	9639.39
267.135	9615.46
267.205	9610.4
267.274	9600.28
267.343	9607.94
267.413	9599.03
267.482	9603.46
267.552	9612.18
267.621	9578.61
267.69	9552.32
267.76	9546.54
267.829	9534.02
267.898	9522.85
267.968	9499.63
268.037	9491.83
268.106	9485.67
268.176	9463.23
268.245	9456.34
268.314	9439.24
268.384	9432.07
268.453	9418.15
268.522	9408.86
268.592	9406.02
268.661	9380.98
268.73	9371.2
268.799	9343.42
268.869	9346.88
268.938	9321.17
269.007	9307.06
269.076	9299.93
269.146	9295.36
269.215	9285.92
269.284	9288.38
269.353	9275.81
269.422	9263.44
269.492	9253.42
269.561	9225.84
269.63	9217.22
269.699	9200.07
269.768	9192.56
269.838	9191.99
269.907	9189.19
269.976	9163.87
270.045	9137.15
270.114	9132.72
270.183	9123.96
270.253	9121.45
270.322	9091.27
270.391	9085.68
270.46	9080.19
270.529	9080.87
270.598	9080.72
270.667	9068.93
270.736	9047.6
270.806	9044.66
270.875	9049.04
270.944	9036.77
271.013	9055.54
271.082	9048.8
271.151	9038.89
271.22	9009.28
271.289	8999.32
271.358	8985.11
271.427	8981.6
271.496	8972.98
271.565	8959.17
271.634	8948.43
271.703	8948.29
271.772	8952.19
271.841	8938.32
271.91	8915.51
271.979	8908.82
272.048	8890.86
272.117	8887.39
272.186	8875.74
272.255	8872.66
272.324	8866.84
272.393	8861.11
272.462	8843.87
272.531	8839.78
272.6	8831.07
272.669	8841.13
272.738	8827.8
272.807	8822.64
272.876	8802.48
272.945	8826.5
273.013	8834.01
273.082	8835.84
273.151	8815.38
273.22	8811.63
273.289	8804.84
273.358	8815.28
273.427	8798.77
273.496	8798.92
273.564	8795.79
273.633	8794.44
273.702	8783.71
273.771	8772.73
273.84	8771.43
273.909	8763.73
273.977	8758.24
274.046	8746.69
274.115	8747.13
274.184	8730.62
274.253	8727.54
274.322	8733.65
274.39	8704.82
274.459	8682.34
274.528	8663.19
274.597	8654.91
274.665	8648.41
274.734	8652.89
274.803	8642.88
274.872	8641.91
274.94	8629.93
275.009	8682.85
275.078	8668.9
275.147	8660.81
275.215	8659.17
275.284	8663.55
275.353	8659.22
275.421	8639.3
275.49	8658.98
275.559	8651.52
275.627	8645.17
275.696	8635.84
275.765	8640.89
275.833	8637.86
275.902	8643.73
275.971	8651.52
276.039	8669.47
276.108	8673.9
276.177	8669.23
276.245	8659.32
276.314	8645.08
276.383	8645.51
276.451	8583.54
276.52	8590.71
276.588	8608.28
276.657	8604.04
276.725	8591.82
276.794	8590.28
276.863	8604.81
276.931	8575.55
277	8579.88
277.068	8585.51
277.137	8598.89
277.205	8593.65
277.274	8606.74
277.342	8616.75
277.411	8595.91
277.48	8579.65
277.548	8568.58
277.617	8566.55
277.685	8562.27
277.754	8565.06
277.822	8560.4
277.89	8570.74
277.959	8560.59
278.027	8537.44
278.096	8530.41
278.164	8549.57
278.233	8539.8
278.301	8522.04
278.37	8529.5
278.438	8517.95
278.507	8525.12
278.575	8502.94
278.643	8500.1
278.712	8480.61
278.78	8465.64
278.849	8479.83
278.917	8487.68
278.985	8480.22
279.054	8483.64
279.122	8491.48
279.191	8495.28
279.259	8492.3
279.327	8470.5
279.396	8484.11
279.464	8477.67
279.532	8480.99
279.601	8479.59
279.669	8479.35
279.737	8488.16
279.806	8486.91
279.874	8494.17
279.942	8497.64
280.011	8492.35
280.079	8496.87
280.147	8512.51
280.215	8513.81
280.284	8505.58
280.352	8496.77
280.42	8506.73
280.488	8504.76
280.557	8495.95
280.625	8493.36
280.693	8492.1
280.761	8493.98
280.83	8478.68
280.898	8487.92
280.966	8471.46
281.034	8439.8
281.102	8420.79
281.171	8418.43
281.239	8426.95
281.307	8418.67
281.375	8404.14
281.443	8427
281.512	8424.11
281.58	8429.74
281.648	8413.48
281.716	8412.95
281.784	8407.85
281.852	8400.15
281.92	8395.24
281.989	8410.98
282.057	8393.56
282.125	8423.79
282.193	8420.42
282.261	8420.66
282.329	8417.15
282.397	8427.3
282.465	8436.25
282.533	8450.39
282.601	8438.75
282.67	8424.41
282.738	8418.92
282.806	8428.79
282.874	8418.92
282.942	8420.94
283.01	8417.81
283.078	8424.5
283.146	8427.92
283.214	8437.2
283.282	8441.58
283.35	8452.46
283.418	8438.84
283.486	8456.54
283.554	8428.29
283.622	8432.29
283.69	8425.94
283.758	8425.5
283.826	8422.47
283.894	8425.79
283.962	8448.07
284.03	8462.7
284.098	8465.35
284.165	8459.43
284.233	8452.11
284.301	8445.62
284.369	8439.56
284.437	8425.31
284.505	8420.36
284.573	8426.03
284.641	8414.82
284.709	8420.26
284.777	8405.25
284.845	8415.4
284.912	8408.71
284.98	8410.15
285.048	8402.46
285.116	8410.73
285.184	8416.79
285.252	8416.46
285.319	8402.17
285.387	8391.48
285.455	8376.81
285.523	8378.3
285.591	8377.14
285.659	8384.03
285.726	8394.18
285.794	8378.11
285.862	8377.29
285.93	8385.13
285.997	8382.49
286.065	8378.21
286.133	8368.15
286.201	8367.23
286.269	8351.4
286.336	8349.67
286.404	8344.19
286.472	8351.31
286.539	8335.77
286.607	8319.31
286.675	8315.94
286.743	8325.61
286.81	8321.24
286.878	8338.12
286.946	8326.87
287.013	8322.82
287.081	8320.42
287.149	8303
287.216	8319.12
287.284	8313.73
287.352	8310.55
287.419	8307.14
287.487	8321.33
287.555	8327.35
287.622	8319.46
287.69	8325.86
287.758	8336.01
287.825	8330.86
287.893	8324.41
287.96	8327.78
288.028	8341.54
288.096	8348.71
288.163	8346.26
288.231	8331.58
288.298	8321.33
288.366	8332.25
288.433	8327.35
288.501	8313.39
288.569	8321.72
288.636	8315.65
288.704	8331.68
288.771	8331.39
288.839	8324.36
288.906	8313.83
288.974	8320.03
289.041	8315.9
289.109	8303.97
289.176	8305.94
289.244	8309.93
289.311	8316.96
289.379	8324.51
289.446	8323.6
289.514	8324.37
289.581	8330.28
289.649	8336.01
289.716	8338.17
289.783	8333.07
289.851	8353.71
289.918	8362.66
289.986	8367.09
290.053	8376.52
290.121	8374.69
290.188	8379.41
290.255	8404.14
290.323	8403.95
290.39	8399.09
290.458	8406.64
290.525	8423.05
290.592	8420.45
290.66	8422.71
290.727	8415.11
290.794	8428.24
290.862	8431.66
290.929	8433.83
290.996	8429.16
291.064	8435.22
291.131	8444.17
291.198	8463.61
291.266	8459.86
291.333	8456.4
291.4	8464.48
291.468	8477.33
291.535	8468.43
291.602	8471.12
291.669	8463.71
291.737	8466.26
291.804	8462.99
291.871	8478.97
291.938	8486.09
292.006	8508.56
292.073	8514.15
292.14	8531.28
292.207	8529.06
292.275	8534.12
292.342	8546.82
292.409	8575.41
292.476	8599.33
292.543	8593.75
292.611	8591.05
292.678	8611.31
292.745	8633.98
292.812	8639.27
292.879	8634.27
292.946	8639.18
293.014	8652.27
293.081	8659.82
293.148	8677.68
293.215	8692.4
293.282	8684.7
293.349	8692.89
293.416	8675.41
293.484	8695.29
293.551	8697.99
293.618	8712.33
293.685	8728.55
293.752	8719.74
293.819	8712.81
293.886	8697.7
293.953	8700.73
294.02	8713.44
294.087	8720.7
294.154	8716.37
294.221	8724.22
294.288	8722.63
294.356	8741.88
294.423	8748.96
294.49	8744.24
294.557	8749.34
294.624	8742.6
294.691	8767.1
294.758	8767.87
294.825	8773.98
294.892	8763.59
294.959	8765.42
295.026	8768.69
295.093	8765.13
295.16	8766.33
295.226	8766.81
295.293	8792.52
295.36	8805.27
295.427	8807.24
295.494	8814.95
295.561	8826.79
295.628	8850.38
295.695	8865.64
295.762	8868.33
295.829	8873.24
295.896	8893.56
295.963	8905.35
296.03	8913.53
296.096	8910.89
296.163	8923.69
296.23	8939.67
296.297	8949.88
296.364	8950.79
296.431	8954.64
296.498	8943.67
296.564	8967.69
296.631	8974.38
296.698	8955.12
296.765	8968.12
296.832	8962.78
296.899	8949.68
296.965	8958.64
297.032	8932.54
297.099	8947.13
297.166	8949.25
297.233	8940.58
297.299	8929.61
297.366	8928.64
297.433	8938.46
297.5	8949.87
297.566	8945.88
297.633	8942.46
297.7	8945.2
297.767	8941.59
297.833	8942.85
297.9	8946.98
297.967	8928.5
298.033	8936.35
298.1	8967.54
298.167	8959.07
298.234	8958.78
298.3	8964.13
298.367	8962.92
298.434	8975.2
298.5	8966.44
298.567	8963.16
298.634	8972.6
298.7	8985.55
298.767	8982.61
298.834	8987.91
298.9	8984.78
298.967	8978.66
299.033	8988.82
299.1	9003.5
299.167	9017.8
299.233	9016.45
299.3	9024.59
299.366	9040.76
299.433	9052.7
299.5	9028
299.566	9033.59
299.633	9050.15
299.699	9057.23
299.766	9049.62
299.832	9051.35
299.899	9059.3
299.965	9070.95
300.032	9062.23
300.099	9069.74
300.165	9081.54
300.232	9076.39
300.298	9080.58
300.365	9091.6
300.431	9098.1
300.498	9094.2
300.564	9099.69
300.631	9110.33
300.697	9128.05
300.763	9126.31
300.83	9131.76
300.896	9147.6
300.963	9154.72
301.029	9155.39
301.096	9164.64
301.162	9176.96
301.229	9178.65
301.295	9167
301.361	9172.68
301.428	9179.85
301.494	9164.01
301.561	9162.09
301.627	9158.24
301.693	9153.95
301.76	9152.75
301.826	9140.04
301.892	9147.31
301.959	9155.54
302.025	9152.55
302.092	9145.91
302.158	9152.22
302.224	9141.19
302.291	9128.24
302.357	9122.46
302.423	9119.38
302.49	9104.94
302.556	9111.44
302.622	9103.3
302.688	9110.42
302.755	9120.39
302.821	9120.2
302.887	9127.37
302.954	9128.58
303.02	9142.73
303.086	9147.4
303.152	9142.1
303.219	9145.72
303.285	9143.79
303.351	9146.82
303.417	9142.11
303.483	9130.31
303.55	9122.17
303.616	9117.74
303.682	9113.56
303.748	9108.36
303.815	9122.08
303.881	9129.59
303.947	9115.63
304.013	9119.86
304.079	9113.56
304.145	9083.13
304.212	9086.69
304.278	9076.58
304.344	9067.29
304.41	9047.84
304.476	9032.73
304.542	9032.53
304.608	9030.61
304.674	9014.34
304.741	9009.91
304.807	9013.47
304.873	9019.15
304.939	9037.93
305.005	9019.63
305.071	9016.26
305.137	9014.43
305.203	8988.48
305.269	8989.16
305.335	9004.42
305.401	8995.61
305.467	8992.72
305.533	9002.01
305.599	9006.97
305.666	9014.14
305.732	9014
305.798	9028.92
305.864	9054.73
305.93	9056.36
305.996	9054.25
306.062	9060.17
306.128	9050.44
306.194	9039.9
306.259	9037.97
306.325	9017.32
306.391	9029.31
306.457	9035.71
306.523	9038.88
306.589	9062.09
306.655	9049.14
306.721	9029.35
306.787	9015.54
306.853	9029.84
306.919	9014.19
306.985	9003.89
307.051	8999.37
307.117	8988.05
307.183	8977.94
307.248	8951.27
307.314	8950.89
307.38	8952.28
307.446	8951.42
307.512	8943.42
307.578	8947.28
307.644	8945.64
307.709	8951.03
307.775	8939.14
307.841	8935.82
307.907	8936.11
307.973	8911.99
308.039	8910.45
308.104	8913.62
308.17	8919.16
308.236	8896.92
308.302	8900.62
308.368	8883.68
308.433	8881.03
308.499	8878.1
308.565	8868.62
308.631	8874.68
308.696	8853.5
308.762	8831.65
308.828	8823.95
308.894	8798.49
308.959	8778.9
309.025	8759.31
309.091	8753
309.156	8751.8
309.222	8749.82
309.288	8735.53
309.354	8708.1
309.419	8706.8
309.485	8690.24
309.551	8694.52
309.616	8685.23
309.682	8678.35
309.748	8669.4
309.813	8662.61
309.879	8654.29
309.945	8640.24
310.01	8624.64
310.076	8623.34
310.141	8629.98
310.207	8617.85
310.273	8627.96
310.338	8627.53
310.404	8619.83
310.469	8604.95
310.535	8595.23
310.601	8575.02
310.666	8577.72
310.732	8594.7
310.797	8581.61
310.863	8569.48
310.928	8560.05
310.994	8558.12
311.059	8556.3
311.125	8558.08
311.191	8563.95
311.256	8549.95
311.322	8560.2
311.387	8545.33
311.453	8844.43
311.518	8810.31
311.584	8806.6
311.649	8803.96
311.715	8793.04
311.78	8793.61
311.846	8783.27
311.911	8785.72
311.976	8784.13
312.042	8767.92
312.107	8751.07
312.173	8741.79
312.238	8734.86
312.304	8728.84
312.369	8721.77
312.434	8709.4
312.5	8704.73
312.565	8674.56
312.631	8682.31
312.696	8665.51
312.761	8660.8
312.827	8355.93
312.892	8396.49
312.958	8396.49
313.023	8391.87
313.088	8387.4
313.154	8369.21
313.219	8360.6
313.284	8352.18
313.35	8350.16
313.415	8340.82
313.48	8333.9
313.546	8337.41
313.611	8346.6
313.676	8331.87
313.741	8315.95
313.807	8322.78
313.872	8323.94
313.937	8331.15
314.003	8338.13
314.068	8344.34
314.133	8348.91
314.198	8335.15
314.264	8307.04
314.329	8291.65
314.394	8283.95
314.459	8276.97
314.525	8296.55
314.59	8292.42
314.655	8275.24
314.72	8279.43
314.785	8277.21
314.851	8273.8
314.916	8251.52
314.981	8236.66
315.046	8229.1
315.111	8223.33
315.176	8214.09
315.242	8210.49
315.307	8198.89
315.372	8177.24
315.437	8162.47
315.502	8158.24
315.567	8165.21
315.632	8155.2
315.698	8156.36
315.763	8154.77
315.828	8154.82
315.893	8148.66
315.958	8140.1
316.023	8135.05
316.088	8113.06
316.153	8092.86
316.218	8084.21
316.283	8069.97
316.348	8052.22
316.413	8048.52
316.479	8037.41
316.544	8004.61
316.609	7978.73
316.674	7951.08
316.739	7921.31
316.804	7895.54
316.869	7863.51
316.934	7833.06
316.999	7804.59
317.064	7758.96
317.129	7720.92
317.194	7683.41
317.259	7637.24
317.324	7592.73
317.389	7553.31
317.454	7520.13
317.518	7491.29
317.583	7466.24
317.648	7441.2
317.713	7411.3
317.778	7356.74
317.843	7333.95
317.908	7290.32
317.973	7250.19
318.038	7222.56
318.103	7189.98
318.168	7155.38
318.233	7121.79
318.297	7071.62
318.362	7036.73
318.427	6999.6
318.492	6974.47
318.557	6931.38
318.622	6902.84
318.687	6881.56
318.751	6844.1
318.816	6813.07
318.881	6784.97
318.946	6734.29
319.011	6694.57
319.075	6654.52
319.14	6625.71
319.205	6575.57
319.27	6554.69
319.335	6518.39
319.399	6481.61
319.464	6452.81
319.529	6407.4
319.594	6370.96
319.658	6346.09
319.723	6306.44
319.788	6278.8
319.853	6228.25
319.917	6199.8
319.982	6150.37
320.047	6116.92
320.112	6091.01
320.176	6045.47
320.241	6011.16
320.306	5985.97
320.37	5950.67
320.435	5919.87
320.5	5892.43
320.564	5857.66
320.629	5816.03
320.694	5785.81
320.758	5749.65
320.823	5709.61
320.888	5685.73
320.952	5642.58
321.017	5606.9
321.082	5572.58
321.146	5543.43
321.211	5512.55
321.275	5474.07
321.34	5437.36
321.405	5396.05
321.469	5354.93
321.534	5314.3
321.598	5264.9
321.663	5233.41
321.727	5206.43
321.792	5164.08
321.857	5121.25
321.921	5088.1
321.986	5052.66
322.05	4998.41
322.115	4962.25
322.179	4917.87
322.244	4865.78
322.308	4836.19
322.373	4788.26
322.437	4749.34
322.502	4725.54
322.566	4687.05
322.631	4651.59
322.695	4614.08
322.76	4572.4
322.824	4538.71
322.889	4503.99
322.953	4460.99
323.018	4400.23
323.082	4334.24
323.146	4285.08
323.211	4237.03
323.275	4195.56
323.34	4150.34
323.404	4118.41
323.468	4072.75
323.533	4033.75
323.597	3991.76
323.662	3941.53
323.726	3909.27
323.79	3863.11
323.855	3799.39
323.919	3749.32
323.983	3711.33
324.048	3652.04
324.112	3809.22
324.177	3689.23
324.241	3496.28
324.305	3312.27
324.37	3129.88
324.434	2957.71
324.498	2920.73
324.562	2877.33
324.627	2821.8
324.691	2773.31
324.755	2715.57
324.82	2650.72
324.884	2583.77
324.948	2520.87
325.012	2439.97
325.077	2330.23
