Data from 20250625_urea_1M_1_MAYP1162681_12-15-05-807.txt Node
Date: Thu Jun 26 12:15:05 BST 2025
User: adleo
Spectrometer: MAYP116268
Trigger mode: 0
Integration Time (sec): 1.000000E0
Scans to average: 1
Electric dark correction enabled: true
Nonlinearity correction enabled: true
Boxcar width: 10
XAxis mode: Wavelengths
Number of Pixels in Spectrum: 2068
>>>>>Begin Spectral Data<<<<<
179.565	1141.9
179.642	1192.01
179.718	1231.96
179.795	1268.35
179.871	1298.88
179.948	1317.61
180.024	1336.84
180.101	1359.09
180.177	1371.17
180.254	1390.53
180.33	1413.6
180.407	1462.11
180.483	1550.9
180.56	1635.37
180.636	1714.7
180.712	1701.44
180.789	1708.57
180.865	1718.83
180.942	1724.29
181.018	1733.8
181.095	1745.68
181.171	1750.29
181.248	1753.99
181.324	1770.01
181.4	1775.67
181.477	1786.46
181.553	1798.39
181.63	1819.92
181.706	1833.47
181.782	1843.3
181.859	1844.39
181.935	1846.82
182.011	1844.11
182.088	1863.08
182.164	1882.96
182.24	1897.21
182.317	1906.29
182.393	1904.1
182.469	1919.27
182.546	1935.43
182.622	1940.71
182.698	1937.81
182.775	1952.17
182.851	1962.58
182.927	1954.02
183.003	1950.27
183.08	1941.57
183.156	1948.32
183.232	1944.75
183.308	1933.86
183.385	1938.52
183.461	1957.83
183.537	1959.25
183.613	1969.76
183.69	1958.35
183.766	1945.94
183.842	1953.5
183.918	1959.82
183.995	1974.75
184.071	1978.74
184.147	1973.23
184.223	1960.63
184.299	1973.52
184.375	1961.02
184.452	1967.82
184.528	2022
184.604	2033.17
184.68	2048
184.756	2057.28
184.832	2060.51
184.908	2064.6
184.985	2067.07
185.061	2049.24
185.137	2057.04
185.213	2048.1
185.289	2051.38
185.365	2046.72
185.441	2040.73
185.517	2053.72
185.593	2047.11
185.669	2042.25
185.745	2049.2
185.822	2066.55
185.898	2059.18
185.974	2066.07
186.05	2058.7
186.126	2019.16
186.202	2012.7
186.278	2009.61
186.354	1998.57
186.43	2002.28
186.506	2002
186.582	2000.57
186.658	2007.84
186.734	1989.97
186.81	1990.68
186.886	1993.53
186.962	2003.66
187.038	2000.86
187.114	1992.77
187.19	2004.14
187.266	1995.43
187.341	1998.81
187.417	1987.5
187.493	1984.41
187.569	1988.21
187.645	1983.69
187.721	1974.28
187.797	1978.08
187.873	1980.88
187.949	1972.8
188.025	1970.71
188.101	1973.37
188.176	1977.13
188.252	1971.09
188.328	1977.7
188.404	1979.6
188.48	1970.61
188.556	1962.82
188.632	1963.91
188.707	1963.58
188.783	1958.53
188.859	1955.02
188.935	1944.93
189.011	1955.82
189.086	1952.35
189.162	1944.65
189.238	1940.99
189.314	1939.28
189.39	1936.66
189.465	1931.29
189.541	1948.69
189.617	1933.05
189.693	1929.24
189.768	1931.95
189.844	1953.79
189.92	1947.56
189.996	1955.64
190.071	1967.77
190.147	1967.62
190.223	1975.28
190.298	1966.91
190.374	1954.31
190.45	1965.58
190.526	1971.9
190.601	1969.24
190.677	1968.91
190.753	1998.21
190.828	2003.63
190.904	2017.14
190.98	2033.46
191.055	2042.25
191.131	2034.45
191.207	2054.81
191.282	2062.89
191.358	2056.23
191.433	2045.1
191.509	2055.37
191.585	2051.85
191.66	2055.56
191.736	2062.4
191.811	2057.89
191.887	2076.73
191.963	2098.79
192.038	2102.41
192.114	2102.6
192.189	2106.88
192.265	2105.12
192.34	2083.94
192.416	2081.85
192.491	2075.48
192.567	2076.24
192.642	2077.38
192.718	2077.47
192.793	2066.96
192.869	2064.16
192.944	2066.49
193.02	2074.14
193.095	2077.33
193.171	2085.42
193.246	2083.28
193.322	2083.66
193.397	2082.13
193.473	2068.91
193.548	2052.69
193.624	2058.59
193.699	2059.58
193.775	2072.72
193.85	2072.95
193.925	2079.52
194.001	2076.52
194.076	2070.96
194.152	2058.88
194.227	2052.79
194.302	2045.89
194.378	2045.61
194.453	2041.66
194.529	2051.79
194.604	2037.53
194.679	2033.06
194.755	2010.47
194.83	2022.75
194.905	2020.99
194.981	2028.07
195.056	2017.9
195.131	2023.18
195.207	2022.42
195.282	2012.38
195.357	1993.02
195.433	2008.62
195.508	1998.3
195.583	2007.81
195.659	2020.51
195.734	2029.26
195.809	2029.97
195.884	2037.53
195.96	2039.1
196.035	2053.99
196.11	2050.94
196.185	2063.12
196.261	2065.68
196.336	2096.98
196.411	2080.23
196.486	2082.94
196.561	2079.61
196.637	2090.12
196.712	2104.58
196.787	2105.16
196.862	2119.9
196.937	2128.03
197.013	2133.98
197.088	2143.49
197.163	2166.24
197.238	2182.57
197.313	2181.28
197.388	2194.13
197.464	2220.88
197.539	2235.48
197.614	2229.11
197.689	2240.38
197.764	2253.14
197.839	2273.74
197.914	2268.7
197.989	2291.87
198.065	2306.05
198.14	2353.67
198.215	2377.52
198.29	2390.14
198.365	2403.42
198.44	2411.36
198.515	2438.64
198.59	2452.59
198.665	2476.82
198.74	2484.54
198.815	2484.49
198.89	2509.2
198.965	2535.49
199.04	2533.59
199.115	2544.82
199.19	2585.39
199.265	2591.06
199.34	2602.87
199.415	2637.47
199.49	2661.13
199.565	2669.8
199.64	2693.57
199.715	2689.75
199.79	2696.76
199.865	2704.14
199.94	2700.28
200.015	2730.58
200.09	2738.16
200.165	2745.31
200.24	2751.41
200.315	2790.13
200.39	2807.19
200.464	2810.48
200.539	2811.24
200.614	2824.53
200.689	2846.74
200.764	2852.98
200.839	2866.18
200.914	2868.13
200.989	2855.88
201.063	2866.46
201.138	2853.74
201.213	2851.69
201.288	2832.3
201.363	2838.97
201.438	2836.83
201.512	2854.26
201.587	2837.77
201.662	2840.01
201.737	2852.93
201.812	2860.22
201.886	2825.16
201.961	2833.98
202.036	2823.5
202.111	2822.6
202.186	2796.5
202.26	2782.68
202.335	2763.47
202.41	2762.04
202.485	2747.99
202.559	2730.13
202.634	2704.73
202.709	2713.35
202.784	2696.39
202.858	2696.82
202.933	2677.95
203.008	2674.33
203.082	2657.95
203.157	2660.43
203.232	2620.95
203.306	2598.89
203.381	2569.07
203.456	2549.26
203.53	2528.19
203.605	2507.49
203.68	2485.53
203.754	2479.15
203.829	2462.1
203.904	2442.39
203.978	2428.91
204.053	2435.2
204.127	2420.97
204.202	2418.2
204.277	2402.11
204.351	2397.88
204.426	2391.92
204.5	2383.59
204.575	2347.43
204.65	2356
204.724	2345.52
204.799	2354.08
204.873	2351.04
204.948	2349.7
205.022	2339.04
205.097	2329.61
205.171	2345.03
205.246	2349.22
205.32	2349.79
205.395	2351.55
205.469	2343.85
205.544	2346.42
205.618	2328
205.693	2338.85
205.767	2327.66
205.842	2345.28
205.916	2337.38
205.991	2329.24
206.065	2333.62
206.14	2350.84
206.214	2346.41
206.289	2342.55
206.363	2354.31
206.438	2355.45
206.512	2359.88
206.586	2376.39
206.661	2383.63
206.735	2359.13
206.81	2363.84
206.884	2377.65
206.958	2364.37
207.033	2377.69
207.107	2383.98
207.181	2416.98
207.256	2415.84
207.33	2435.21
207.405	2446.64
207.479	2464.69
207.553	2471.11
207.628	2456.08
207.702	2465.64
207.776	2456.69
207.851	2460.45
207.925	2476.27
207.999	2475.98
208.073	2474.08
208.148	2477.13
208.222	2467.75
208.296	2502.91
208.371	2519.45
208.445	2528.31
208.519	2554.87
208.593	2568.77
208.668	2569.06
208.742	2567.68
208.816	2566.35
208.89	2578.26
208.965	2577.97
209.039	2588.78
209.113	2605.36
209.187	2627.87
209.261	2628.4
209.336	2652.02
209.41	2668.93
209.484	2671.27
209.558	2693.33
209.632	2710.71
209.707	2721.33
209.781	2745.06
209.855	2762.74
209.929	2778.62
210.003	2791.53
210.077	2794.68
210.151	2842.85
210.226	2880.99
210.3	2910.81
210.374	2942.54
210.448	2955.6
210.522	2975.01
210.596	2991.27
210.67	3006.81
210.744	3064.52
210.818	3101.12
210.892	3129.03
210.966	3137.42
211.041	3161.55
211.115	3171.61
211.189	3209.58
211.263	3245.63
211.337	3265.09
211.411	3293.34
211.485	3308.04
211.559	3341.77
211.633	3368.81
211.707	3360.84
211.781	3388.63
211.855	3385.48
211.929	3403.76
212.003	3413.92
212.077	3448.15
212.151	3490.8
212.225	3531.57
212.299	3549.82
212.373	3577.7
212.447	3611.9
212.52	3676.48
212.594	3725.02
212.668	3779.85
212.742	3807.37
212.816	3847.03
212.89	3891.13
212.964	3938.93
213.038	3991.9
213.112	4053.68
213.186	4119.55
213.26	4157.91
213.333	4170.15
213.407	4232.48
213.481	4295.53
213.555	4365.03
213.629	4423.55
213.703	4471.16
213.777	4537.88
213.85	4589.57
213.924	4690.5
213.998	4759.25
214.072	4823.14
214.146	4873.56
214.219	4943.35
214.293	5017.99
214.367	5093.59
214.441	5184.91
214.515	5254.63
214.588	5311.85
214.662	5357.61
214.736	5420.06
214.81	5509.36
214.883	5603.7
214.957	5678.87
215.031	5750.96
215.105	5814.95
215.178	5883.26
215.252	5964.51
215.326	6026.93
215.4	6093.27
215.473	6133.45
215.547	6206.31
215.621	6283.42
215.694	6381.27
215.768	6447.09
215.842	6526.79
215.915	6605.12
215.989	6663.39
216.063	6737.07
216.136	6830.31
216.21	6923.1
216.284	7023.57
216.357	7117.66
216.431	7206.03
216.504	7298.4
216.578	7417.91
216.652	7519.63
216.725	7613.19
216.799	7717.74
216.873	7811.4
216.946	7911.51
217.02	8006.29
217.093	8097.53
217.167	8168.49
217.24	8244.94
217.314	8329.69
217.387	8412.48
217.461	8498.72
217.535	8605.06
217.608	8690.53
217.682	8778.66
217.755	8876.27
217.829	8960.23
217.902	9049.38
217.976	9133.29
218.049	9212.58
218.123	9267.33
218.196	9361.26
218.27	9444.76
218.343	9514.36
218.417	9601.72
218.49	9687.2
218.563	9782.13
218.637	9869.65
218.71	9984
218.784	10080.11
218.857	10180.68
218.931	10274.81
219.004	10360.27
219.077	10449.02
219.151	10536.76
219.224	10620.25
219.298	10700.63
219.371	10792.76
219.444	10854.63
219.518	10939.72
219.591	11025.83
219.665	11136.62
219.738	11219.7
219.811	11284.23
219.885	11370.35
219.958	11469.63
220.031	11546.79
220.105	11626.89
220.178	11701.65
220.251	11764.02
220.325	11845.04
220.398	11919.7
220.471	11991.91
220.544	12083.97
220.618	12140.37
220.691	12215.51
220.764	12287.53
220.838	12363.3
220.911	12428.57
220.984	12527.97
221.057	12614.35
221.131	12693.84
221.204	12739.2
221.277	12825.53
221.35	12929.41
221.424	12993.19
221.497	13048.77
221.57	13124.6
221.643	13198.74
221.716	13272.69
221.79	13341.86
221.863	13405.26
221.936	13469.23
222.009	13530.78
222.082	13591.04
222.155	13659.4
222.229	13739.18
222.302	13804.07
222.375	13865.67
222.448	13928.87
222.521	13979.92
222.594	14029.04
222.667	14072.72
222.74	14147.97
222.814	14197.28
222.887	14252.57
222.96	14314.23
223.033	14373.72
223.106	14423.85
223.179	14481.21
223.252	14538.05
223.325	14582.3
223.398	14629.35
223.471	14681.5
223.544	14737.37
223.617	14782.35
223.69	14838.84
223.763	14870.13
223.837	14923.25
223.91	14980.37
223.983	15006.64
224.056	15042.45
224.129	15091.38
224.202	15149.47
224.275	15186.15
224.348	15210.39
224.42	15233.05
224.493	15265.97
224.566	15302.85
224.639	15346.37
224.712	15376.11
224.785	15412.89
224.858	15455.45
224.931	15485.63
225.004	15514.4
225.077	15548.96
225.15	15560.63
225.223	15594.13
225.296	15660.11
225.369	15674.86
225.442	15694.67
225.514	15742.05
225.587	15781.05
225.66	15822.84
225.733	15861.64
225.806	15894.31
225.879	15932.49
225.952	15956.25
226.025	15998.57
226.097	16044.55
226.17	16081.13
226.243	16096.56
226.316	16120.61
226.389	16155.7
226.461	16200.23
226.534	16246.69
226.607	16280.43
226.68	16343.67
226.753	16371.29
226.825	16373.89
226.898	16423.29
226.971	16452.21
227.044	16490.43
227.117	16527.49
227.189	16565.18
227.262	16599.74
227.335	16637.47
227.407	16665.57
227.48	16699.89
227.553	16725.96
227.626	16746.74
227.698	16771.27
227.771	16806.07
227.844	16825.68
227.916	16857.01
227.989	16864.38
228.062	16874.94
228.134	16919.37
228.207	16929.97
228.28	16945.73
228.352	16968.58
228.425	16987.9
228.498	17017.54
228.57	17023.09
228.643	17058.51
228.716	17067.42
228.788	17072.87
228.861	17084.49
228.934	17124
229.006	17143.67
229.079	17166.13
229.151	17181.11
229.224	17187.28
229.296	17209.79
229.369	17254.13
229.442	17272.2
229.514	17287.81
229.587	17318.56
229.659	17317.6
229.732	17332.83
229.804	17367.48
229.877	17408.01
229.949	17442.95
230.022	17478.75
230.094	17499
230.167	17514.27
230.239	17525.4
230.312	17537.12
230.384	17572.3
230.457	17584.78
230.529	17610.42
230.602	17625.93
230.674	17647.86
230.747	17665.45
230.819	17694.99
230.892	17676.2
230.964	17691.19
231.037	17704.78
231.109	17715.09
231.181	17733.26
231.254	17738.22
231.326	17741.31
231.399	17741.02
231.471	17732.25
231.544	17714.13
231.616	17739.09
231.688	17739.72
231.761	17738.66
231.833	17753.16
231.905	17737.93
231.978	17736.39
232.05	17735.57
232.122	17733.6
232.195	17725.55
232.267	17754.61
232.339	17742.17
232.412	17768.05
232.484	17770.27
232.556	17769.02
232.629	17792.44
232.701	17804.05
232.773	17816.44
232.846	17816.63
232.918	17821.4
232.99	17829.74
233.062	17851.47
233.135	17854.12
233.207	17848.48
233.279	17856
233.351	17867.57
233.424	17873.16
233.496	17872.24
233.568	17890.17
233.64	17882.12
233.713	17881.06
233.785	17869.74
233.857	17880.29
233.929	17865.35
234.001	17870.22
234.074	17882.46
234.146	17850.61
234.218	17847.81
234.29	17835.09
234.362	17819.95
234.434	17803.86
234.507	17790.17
234.579	17757.79
234.651	17744.73
234.723	17747.04
234.795	17736.63
234.867	17724.34
234.939	17736.29
235.012	17726.22
235.084	17715.28
235.156	17722.32
235.228	17707.72
235.3	17697.5
235.372	17680.73
235.444	17681.45
235.516	17654.56
235.588	17646.95
235.66	17642.66
235.732	17615.19
235.804	17663.43
235.876	17660.87
235.948	17668.73
236.02	17654.99
236.092	17643.91
236.164	17621.11
236.236	17601.64
236.308	17595.52
236.38	17590.03
236.452	17551.86
236.524	17542.32
236.596	17553.16
236.668	17547.72
236.74	17537.45
236.812	17525.26
236.884	17523.62
236.956	17512.01
237.028	17483.77
237.1	17463.86
237.172	17469.89
237.244	17469.02
237.316	17414.47
237.388	17395.24
237.46	17368.1
237.532	17370.13
237.604	17356.1
237.675	17366.27
237.747	17361.6
237.819	17333.84
237.891	17304.25
237.963	17286.42
238.035	17261.88
238.107	17202.27
238.178	17188.82
238.25	17178.03
238.322	17178.37
238.394	17139.57
238.466	17112.73
238.538	17110.7
238.609	17100.48
238.681	17062.46
238.753	17038.07
238.825	17023.86
238.897	17017.45
238.968	17013.06
239.04	16990.07
239.112	17001.45
239.184	16964
239.255	16935.23
239.327	16920.43
239.399	16909.73
239.471	16888.72
239.542	16884.38
239.614	16882.12
239.686	16830.45
239.758	16812.76
239.829	16782.35
239.901	16781.97
239.973	16765.34
240.044	16752.66
240.116	16728.08
240.188	16704.23
240.259	16687.46
240.331	16659.16
240.403	16636.66
240.474	16593.91
240.546	16554.96
240.618	16505.47
240.689	16477.08
240.761	16461.75
240.833	16460.36
240.904	16431.05
240.976	16414.23
241.048	16383.43
241.119	16366.71
241.191	16361.17
241.262	16351.53
241.334	16317.89
241.405	16291.86
241.477	16261.93
241.549	16229.39
241.62	16203.9
241.692	16192.47
241.763	16175.75
241.835	16145.63
241.906	16120.56
241.978	16085.38
242.049	16069.09
242.121	16056.89
242.192	16051.73
242.264	16011.3
242.335	15963.58
242.407	15941.94
242.478	15913.89
242.55	15895.28
242.621	15859.66
242.693	15828.43
242.764	15798.35
242.836	15773.91
242.907	15748.22
242.979	15731.93
243.05	15717.52
243.122	15698.14
243.193	15666.67
243.264	15613.7
243.336	15586.37
243.407	15571.81
243.479	15570.89
243.55	15552.48
243.622	15535.95
243.693	15512.96
243.764	15508.76
243.836	15486.98
243.907	15453.77
243.978	15426.39
244.05	15406.62
244.121	15367.53
244.192	15349.46
244.264	15311.86
244.335	15289.06
244.407	15247.94
244.478	15221.91
244.549	15185.23
244.62	15147.87
244.692	15127.63
244.763	15118.33
244.834	15094.47
244.906	15058.99
244.977	15033.2
245.048	15020.43
245.119	14979.02
245.191	14932.79
245.262	14876.35
245.333	14856.15
245.405	14833.54
245.476	14817.49
245.547	14789.82
245.618	14770.64
245.689	14747.45
245.761	14723.4
245.832	14698.28
245.903	14684.78
245.974	14668.25
246.045	14648
246.117	14649.02
246.188	14602.31
246.259	14564.03
246.33	14532.79
246.401	14506.67
246.473	14458.9
246.544	14431.71
246.615	14415.17
246.686	14389.87
246.757	14386.78
246.828	14351.3
246.899	14347.54
246.97	14308.59
247.042	14279.28
247.113	14267.62
247.184	14264.72
247.255	14238.89
247.326	14214.59
247.397	14190.44
247.468	14161.28
247.539	14135.34
247.61	14088.73
247.681	14078.84
247.752	14071.13
247.823	14049.63
247.894	14029.91
247.965	14002.97
248.037	13966.86
248.108	13928.15
248.179	13903.32
248.25	13878.45
248.321	13864.9
248.392	13821.95
248.463	13815.93
248.534	13793.12
248.605	13776.4
248.675	13745.21
248.746	13725.59
248.817	13705.92
248.888	13683.99
248.959	13636.36
249.03	13619
249.101	13592.83
249.172	13558.07
249.243	13504.03
249.314	13484.6
249.385	13467.59
249.456	13450.33
249.527	13420.97
249.598	13408.73
249.669	13385.49
249.739	13368.04
249.81	13350.88
249.881	13325.52
249.952	13302.04
250.023	13272.4
250.094	13233.45
250.165	13197.97
250.235	13166.39
250.306	13142.1
250.377	13106.86
250.448	13095.62
250.519	13054.07
250.59	13054.12
250.66	13034.21
250.731	13041.44
250.802	13017.58
250.873	12990.92
250.944	12983.21
251.014	12962.09
251.085	12961.03
251.156	12945.12
251.227	12932.25
251.297	12923.87
251.368	12910.9
251.439	12905.74
251.51	12896.24
251.58	12870.31
251.651	12847.89
251.722	12847.36
251.792	12817.86
251.863	12801.47
251.934	12797.04
252.005	12801.91
252.075	12776.6
252.146	12768.64
252.217	12759.34
252.287	12752.93
252.358	12734.03
252.429	12715.38
252.499	12696.34
252.57	12676.96
252.641	12670.21
252.711	12642.92
252.782	12609.28
252.852	12614.53
252.923	12582.23
252.994	12565.65
253.064	12555.82
253.135	12522.89
253.205	12490.4
253.276	12482.4
253.347	12474.02
253.417	12449.91
253.488	12431.07
253.558	12408.94
253.629	12391.59
253.699	12375
253.77	12364.16
253.841	12339.43
253.911	12340.2
253.982	12318.7
254.052	12307.71
254.123	12289.25
254.193	12274.79
254.264	12287.56
254.334	12256.18
254.405	12231.84
254.475	12202.34
254.546	12185.66
254.616	12186.96
254.687	12175.44
254.757	12161.22
254.827	12138.76
254.898	12127.48
254.968	12107.29
255.039	12078.37
255.109	12065.69
255.18	12034.45
255.25	11986.59
255.321	11980.76
255.391	11936.41
255.461	11945.76
255.532	11900.07
255.602	11875.29
255.673	11839.29
255.743	11804.58
255.813	11755.95
255.884	11741.64
255.954	11731.56
256.024	11732.29
256.095	11712.57
256.165	11676.57
256.235	11664.95
256.306	11638.54
256.376	11625.53
256.446	11611.21
256.517	11600.61
256.587	11589.71
256.657	11576.85
256.728	11564.8
256.798	11539.06
256.868	11518.14
256.938	11484.84
257.009	11480.98
257.079	11466.96
257.149	11470.76
257.219	11446.57
257.29	11441.46
257.36	11414.18
257.43	11405.56
257.5	11361.65
257.571	11340.78
257.641	11340.35
257.711	11309.16
257.781	11303.48
257.852	11291.72
257.922	11262.75
257.992	11254.85
258.062	11237.06
258.132	11224
258.202	11208.44
258.273	11202.9
258.343	11206.12
258.413	11183.47
258.483	11164.63
258.553	11144.68
258.623	11118.03
258.693	11095.52
258.764	11094.37
258.834	11091.19
258.904	11077.84
258.974	11054.75
259.044	11034.56
259.114	11022.52
259.184	11012.59
259.254	10990.86
259.324	10954.13
259.394	10948.3
259.464	10945.51
259.535	10925.75
259.605	10906.19
259.675	10883.78
259.745	10866.48
259.815	10836.07
259.885	10815.35
259.955	10818.1
260.025	10789.53
260.095	10778.78
260.165	10768.23
260.235	10762.2
260.305	10738.93
260.375	10709.1
260.445	10718.98
260.515	10719.13
260.585	10711.85
260.655	10692.53
260.725	10692.86
260.795	10690.84
260.865	10686.89
260.934	10655.66
261.004	10646.56
261.074	10635.52
261.144	10636.58
261.214	10627.81
261.284	10616.73
261.354	10619.33
261.424	10602.66
261.494	10609.31
261.564	10595.05
261.634	10593.7
261.703	10562.57
261.773	10556.11
261.843	10553.18
261.913	10530.96
261.983	10501.38
262.053	10492.18
262.123	10474.64
262.192	10441.74
262.262	10429.93
262.332	10399.67
262.402	10396.73
262.472	10381.32
262.541	10345.72
262.611	10335.12
262.681	10308.52
262.751	10303.85
262.821	10277.69
262.89	10250.13
262.96	10244.73
263.03	10254.18
263.1	10240.3
263.169	10230.76
263.239	10216.94
263.309	10215.11
263.379	10210.05
263.448	10197.76
263.518	10191.4
263.588	10185.62
263.657	10192.42
263.727	10187.89
263.797	10174.5
263.867	10154.45
263.936	10127.09
264.006	10128.01
264.076	10112.69
264.145	10098.87
264.215	10080.13
264.285	10082.73
264.354	10053.15
264.424	10025.5
264.494	9992.93
264.563	9973.14
264.633	9977.95
264.702	9974.34
264.772	9941.73
264.842	9922.99
264.911	9914.66
264.981	9876.07
265.05	9860.51
265.12	9843.03
265.19	9828.48
265.259	9824.77
265.329	9821.93
265.398	9814.42
265.468	9828.29
265.537	9818.03
265.607	9807.1
265.676	9802.42
265.746	9785.33
265.815	9786.14
265.885	9768.33
265.955	9745.02
266.024	9728.54
266.094	9690.64
266.163	9686.21
266.232	9685.48
266.302	9670.41
266.371	9662.8
266.441	9655.91
266.51	9651.1
266.58	9629.86
266.649	9609.53
266.719	9605.3
266.788	9592
266.858	9599.03
266.927	9563.2
266.996	9547.02
267.066	9538.26
267.135	9508.78
267.205	9500.79
267.274	9489.28
267.343	9495.25
267.413	9482.88
267.482	9485.77
267.552	9494.92
267.621	9466.36
267.69	9445.17
267.76	9432.46
267.829	9422.3
267.898	9413.87
267.968	9393.69
268.037	9396.53
268.106	9402.65
268.176	9380.11
268.245	9365.28
268.314	9347.41
268.384	9345.39
268.453	9334.56
268.522	9330.03
268.592	9334.65
268.661	9319.34
268.73	9308.94
268.799	9282.75
268.869	9291.27
268.938	9263.54
269.007	9240.33
269.076	9231.66
269.146	9229.54
269.215	9227.14
269.284	9235.9
269.353	9221.5
269.422	9208.65
269.492	9186.07
269.561	9143.07
269.63	9138.74
269.699	9123.91
269.768	9109.9
269.838	9099.4
269.907	9105.42
269.976	9089.39
270.045	9057.76
270.114	9055.79
270.183	9046.02
270.253	9044.33
270.322	9014.1
270.391	9002.54
270.46	9008.08
270.529	9010.63
270.598	9006.97
270.667	8998.16
270.736	8974.57
270.806	8969.47
270.875	8971.73
270.944	8961.38
271.013	8980.54
271.082	8976.3
271.151	8974.67
271.22	8952.53
271.289	8944.58
271.358	8924.6
271.427	8919.55
271.496	8919.84
271.565	8902.99
271.634	8898.03
271.703	8920.9
271.772	8926.1
271.841	8915.13
271.91	8889.42
271.979	8879.98
272.048	8859.29
272.117	8854.57
272.186	8840.7
272.255	8834.54
272.324	8831.7
272.393	8828.77
272.462	8817.02
272.531	8807.01
272.6	8794.25
272.669	8802
272.738	8789.53
272.807	8787.32
272.876	8766.72
272.945	8790.55
273.013	8796.52
273.082	8794.78
273.151	8750.11
273.22	8744.91
273.289	8740.29
273.358	8748.86
273.427	8733.7
273.496	8728.74
273.564	8723.74
273.633	8727.83
273.702	8714.4
273.771	8698.33
273.84	8695
273.909	8683.5
273.977	8677.48
274.046	8667.52
274.115	8666.13
274.184	8654.67
274.253	8646.97
274.322	8654.19
274.39	8625.02
274.459	8607.89
274.528	8585.17
274.597	8580.89
274.665	8578.39
274.734	8585.89
274.803	8575.93
274.872	8570.35
274.94	8560.53
275.009	8609.07
275.078	8591.79
275.147	8594.48
275.215	8592.42
275.284	8600.89
275.353	8597.04
275.421	8572.93
275.49	8584.14
275.559	8572.49
275.627	8559.74
275.696	8553.3
275.765	8551.76
275.833	8536.7
275.902	8537.56
275.971	8545.21
276.039	8561.09
276.108	8565.28
276.177	8559.36
276.245	8551.04
276.314	8550.27
276.383	8552.24
276.451	8494.32
276.52	8492.49
276.588	8498.89
276.657	8506.74
276.725	8492.83
276.794	8492.25
276.863	8505.87
276.931	8487.53
277	8497.83
277.068	8508.95
277.137	8523.09
277.205	8522.13
277.274	8543.11
277.342	8553.07
277.411	8532.48
277.48	8526.56
277.548	8512.27
277.617	8514.77
277.685	8508.95
277.754	8510.39
277.822	8509.43
277.89	8521.37
277.959	8519.73
278.027	8500.34
278.096	8488.79
278.164	8516.61
278.233	8509.34
278.301	8498.8
278.37	8499.38
278.438	8484.65
278.507	8490
278.575	8467.33
278.643	8461.22
278.712	8443.37
278.78	8419.88
278.849	8434.12
278.917	8433.59
278.985	8429.65
279.054	8431.29
279.122	8440.52
279.191	8440.28
279.259	8429.55
279.327	8408.09
279.396	8420.41
279.464	8416.61
279.532	8423.15
279.601	8414.25
279.669	8409.87
279.737	8419.73
279.806	8422.91
279.874	8428.3
279.942	8424.93
280.011	8421.32
280.079	8425.36
280.147	8444.61
280.215	8453.8
280.284	8444.8
280.352	8433.3
280.42	8442.01
280.488	8430.75
280.557	8424.88
280.625	8427.48
280.693	8431.19
280.761	8438.45
280.83	8422.62
280.898	8435.47
280.966	8409.97
281.034	8381.81
281.102	8370.22
281.171	8363.29
281.239	8371.76
281.307	8368.73
281.375	8356.32
281.443	8382.01
281.512	8375.71
281.58	8381.1
281.648	8370.37
281.716	8380.91
281.784	8384.13
281.852	8374.07
281.92	8371.09
281.989	8380.23
282.057	8362.24
282.125	8390.54
282.193	8389.14
282.261	8388.61
282.329	8383.56
282.397	8395.06
282.465	8400.2
282.533	8408.57
282.601	8403.43
282.67	8387.31
282.738	8378.21
282.806	8390.87
282.874	8371.38
282.942	8377.87
283.01	8367.72
283.078	8374.65
283.146	8366.13
283.214	8373.64
283.282	8378.21
283.35	8390.67
283.418	8387.06
283.486	8389.71
283.554	8364.63
283.622	8358.19
283.69	8360.01
283.758	8357.7
283.826	8364.1
283.894	8366.41
283.962	8392.01
284.03	8404.48
284.098	8407.51
284.165	8399.76
284.233	8400.15
284.301	8393.8
284.369	8388.6
284.437	8379.89
284.505	8372.48
284.573	8383.74
284.641	8370.03
284.709	8373.2
284.777	8357.61
284.845	8357.28
284.912	8362.52
284.98	8364.11
285.048	8357.13
285.116	8363.34
285.184	8376.14
285.252	8378.01
285.319	8369.84
285.387	8356.12
285.455	8341.2
285.523	8344.57
285.591	8344.47
285.659	8340.82
285.726	8359.82
285.794	8350.88
285.862	8350.11
285.93	8349.34
285.997	8345.2
286.065	8337.31
286.133	8329.46
286.201	8327.88
286.269	8315.75
286.336	8311.04
286.404	8305.79
286.472	8323.64
286.539	8302.04
286.607	8281.11
286.675	8279.04
286.743	8284.43
286.81	8280.49
286.878	8294.68
286.946	8285.59
287.013	8283.23
287.081	8285.25
287.149	8266.58
287.216	8280.92
287.284	8273.85
287.352	8275.67
287.419	8270.72
287.487	8295.45
287.555	8301.51
287.622	8297.09
287.69	8303.58
287.758	8316.09
287.825	8311.47
287.893	8294.87
287.96	8297.57
288.028	8314.55
288.096	8312.92
288.163	8308.97
288.231	8296.6
288.298	8288.91
288.366	8300.89
288.433	8300.31
288.501	8291.31
288.569	8295.16
288.636	8285.01
288.704	8301.22
288.771	8308.49
288.839	8303.15
288.906	8294.39
288.974	8299.54
289.041	8303.1
289.109	8297.13
289.176	8302.14
289.244	8302.62
289.311	8319.03
289.379	8330.57
289.446	8327.25
289.514	8333.12
289.581	8337.6
289.649	8340.1
289.716	8344.05
289.783	8336.68
289.851	8361.65
289.918	8363.67
289.986	8375.27
290.053	8385.57
290.121	8382.34
290.188	8379.79
290.255	8411.75
290.323	8404.91
290.39	8399.96
290.458	8405.54
290.525	8423.29
290.592	8415.59
290.66	8419.06
290.727	8405.97
290.794	8417.32
290.862	8417.13
290.929	8413.14
290.996	8411.7
291.064	8419.35
291.131	8434.22
291.198	8444.66
291.266	8435.56
291.333	8438.69
291.4	8438.02
291.468	8449.52
291.535	8446.01
291.602	8449.66
291.669	8437.53
291.737	8441.86
291.804	8441.86
291.871	8456.25
291.938	8457.12
292.006	8487.83
292.073	8501.35
292.14	8516.22
292.207	8509.67
292.275	8511.26
292.342	8520.79
292.409	8544.8
292.476	8574.35
292.543	8563.96
292.611	8563.77
292.678	8584.89
292.745	8608.67
292.812	8625.9
292.879	8621.85
292.946	8624.21
293.014	8634.56
293.081	8641.68
293.148	8655.88
293.215	8668.82
293.282	8662.86
293.349	8670.32
293.416	8646.1
293.484	8660.01
293.551	8672.24
293.618	8684.51
293.685	8707.95
293.752	8704.44
293.819	8699.57
293.886	8684.32
293.953	8694.76
294.02	8709.49
294.087	8712.13
294.154	8703.62
294.221	8707.32
294.288	8707.8
294.356	8725.03
294.423	8736.01
294.49	8727.63
294.557	8736.68
294.624	8732.59
294.691	8751.5
294.758	8752.85
294.825	8759.64
294.892	8745.39
294.959	8742.89
295.026	8756.37
295.093	8750.54
295.16	8754.15
295.226	8760.65
295.293	8777.45
295.36	8779.42
295.427	8789.34
295.494	8802.72
295.561	8814.51
295.628	8835.8
295.695	8850.67
295.762	8854.71
295.829	8863.91
295.896	8877.38
295.963	8888.02
296.03	8895.68
296.096	8897.02
296.163	8905.35
296.23	8922.54
296.297	8940.39
296.364	8936.49
296.431	8936.3
296.498	8935.19
296.564	8957.24
296.631	8958.68
296.698	8947.71
296.765	8968.5
296.832	8958.25
296.899	8944.82
296.965	8960.51
297.032	8945.01
297.099	8957.62
297.166	8966.53
297.233	8958.15
297.299	8954.69
297.366	8947.03
297.433	8952.38
297.5	8961.19
297.566	8961.38
297.633	8955.36
297.7	8954.3
297.767	8954.59
297.833	8962.73
297.9	8965.57
297.967	8944.87
298.033	8959.79
298.1	8985.89
298.167	8975.49
298.234	8976.88
298.3	8983.19
298.367	8974.09
298.434	8971.59
298.5	8961.67
298.567	8949.35
298.634	8949.92
298.7	8962.25
298.767	8969.52
298.834	8980.35
298.9	8973.27
298.967	8960.51
299.033	8969.47
299.1	8983.96
299.167	8994.79
299.233	8989.88
299.3	8999.07
299.366	9018.91
299.433	9037.06
299.5	9011.16
299.566	9007.45
299.633	9020.98
299.699	9029.26
299.766	9024.54
299.832	9033.83
299.899	9044.28
299.965	9061.18
300.032	9058.72
300.099	9070.95
300.165	9069.56
300.232	9065.51
300.298	9069.12
300.365	9084.09
300.431	9086.98
300.498	9079.18
300.564	9088.28
300.631	9098.2
300.697	9111.15
300.763	9109.61
300.83	9104.17
300.896	9119
300.963	9133.1
301.029	9138.74
301.096	9144.37
301.162	9158.04
301.229	9152.99
301.295	9136.95
301.361	9139.12
301.428	9141.72
301.494	9123.76
301.561	9129.83
301.627	9131.56
301.693	9134.64
301.76	9143.36
301.826	9138.54
301.892	9147.59
301.959	9153.42
302.025	9147.55
302.092	9137.87
302.158	9143.16
302.224	9133.39
302.291	9124.82
302.357	9117.41
302.423	9108.26
302.49	9095.11
302.556	9101.18
302.622	9099.45
302.688	9118.8
302.755	9124.97
302.821	9131.9
302.887	9139.6
302.954	9136.95
303.02	9141.77
303.086	9144.56
303.152	9136.86
303.219	9128.86
303.285	9134.26
303.351	9141.62
303.417	9142.54
303.483	9141.09
303.55	9134.35
303.616	9132.57
303.682	9133.39
303.748	9125.06
303.815	9142.16
303.881	9144.52
303.947	9128.53
304.013	9125.45
304.079	9109.85
304.145	9096.18
304.212	9094.78
304.278	9085.49
304.344	9081.88
304.41	9068.45
304.476	9060.36
304.542	9052.66
304.608	9055.69
304.674	9034.41
304.741	9029.74
304.807	9030.56
304.873	9029.06
304.939	9039.75
305.005	9024.25
305.071	9028.34
305.137	9030.8
305.203	9000.13
305.269	9002.73
305.335	9014.52
305.401	9013.22
305.467	9008.6
305.533	9012.45
305.599	9016.07
305.666	9022.47
305.732	9017.85
305.798	9025.45
305.864	9044.47
305.93	9049.28
305.996	9046.97
306.062	9050.54
306.128	9042.06
306.194	9025.26
306.259	9024.78
306.325	9016.55
306.391	9024.97
306.457	9021.75
306.523	9023.29
306.589	9049.43
306.655	9045.72
306.721	9026.22
306.787	9014.96
306.853	9030.75
306.919	9009.19
306.985	8999.51
307.051	8995.8
307.117	8992.19
307.183	8983.77
307.248	8958.2
307.314	8965.57
307.38	8967.11
307.446	8974.14
307.512	8958.11
307.578	8965.71
307.644	8959.5
307.709	8953.44
307.775	8946.31
307.841	8942.27
307.907	8939.91
307.973	8914.73
308.039	8910.98
308.104	8917.52
308.17	8919.11
308.236	8906.3
308.302	8912.03
308.368	8901.59
308.433	8897.25
308.499	8891.91
308.565	8884.26
308.631	8886.91
308.696	8861.73
308.762	8847.53
308.828	8839.73
308.894	8824.52
308.959	8805.03
309.025	8793
309.091	8790.88
309.156	8781.3
309.222	8784
309.288	8773.84
309.354	8752.09
309.419	8750.06
309.485	8731.77
309.551	8730.67
309.616	8714.3
309.682	8709.68
309.748	8706.26
309.813	8699.24
309.879	8692.02
309.945	8680.32
310.01	8669.97
310.076	8666.61
310.141	8663.33
310.207	8648.46
310.273	8646.01
310.338	8648.51
310.404	8640.47
310.469	8625.07
310.535	8617.66
310.601	8588.69
310.666	8592.44
310.732	8609.62
310.797	8597.44
310.863	8588.88
310.928	8583.29
310.994	8583.73
311.059	8579.06
311.125	8577.76
311.191	8582.14
311.256	8567.99
311.322	8574.87
311.387	8558.08
311.453	8908.51
311.518	8879.88
311.584	8874.4
311.649	8882.63
311.715	8866.07
311.78	8858.81
311.846	8854.62
311.911	8861.65
311.976	8864.63
312.042	8849.57
312.107	8830.41
312.173	8819.25
312.238	8811.55
312.304	8809.19
312.369	8793.75
312.434	8786.24
312.5	8770.65
312.565	8743.46
312.631	8745.39
312.696	8732.73
312.761	8733.11
312.827	8374.94
312.892	8413.24
312.958	8409.39
313.023	8403.81
313.088	8408.04
313.154	8395.87
313.219	8383.17
313.284	8367.24
313.35	8368.01
313.415	8352.03
313.48	8346.36
313.546	8342.03
313.611	8352.32
313.676	8336.39
313.741	8333.84
313.807	8330.62
313.872	8333.56
313.937	8339.04
314.003	8347.75
314.068	8345.54
314.133	8341.69
314.198	8329.32
314.264	8312.24
314.329	8302.9
314.394	8296.07
314.459	8292.65
314.525	8310.94
314.59	8309.83
314.655	8298.33
314.72	8298.09
314.785	8300.45
314.851	8293.14
314.916	8275.34
314.981	8255.71
315.046	8251.57
315.111	8237.67
315.176	8224.73
315.242	8224.2
315.307	8221.5
315.372	8203.51
315.437	8200.72
315.502	8194.03
315.567	8201.25
315.632	8181.76
315.698	8186.19
315.763	8177.38
315.828	8169.01
315.893	8161.12
315.958	8153.62
316.023	8142.89
316.088	8126.53
316.153	8108.02
316.218	8096.86
316.283	8086.61
316.348	8075.98
316.413	8069.06
316.479	8062.28
316.544	8032.7
316.609	8010.86
316.674	7977.82
316.739	7941.95
316.804	7906.65
316.869	7874.28
316.934	7851.58
316.999	7820.95
317.064	7765.36
317.129	7730.83
317.194	7693.71
317.259	7647.93
317.324	7601.63
317.389	7563.65
317.454	7526.05
317.518	7498.94
317.583	7480.04
317.648	7457.21
317.713	7425.82
317.778	7373.56
317.843	7339.77
317.908	7312.28
317.973	7276.32
318.038	7252.68
318.103	7221.35
318.168	7194.24
318.233	7168.87
318.297	7114.56
318.362	7086.41
318.427	7054.7
318.492	7030.44
318.557	6986.96
318.622	6961.07
318.687	6940.75
318.751	6900.55
318.816	6867.55
318.881	6833.2
318.946	6781.32
319.011	6734.01
319.075	6697.22
319.14	6667.93
319.205	6625.77
319.27	6592.25
319.335	6546.44
319.399	6508.17
319.464	6484.26
319.529	6434.19
319.594	6397.79
319.658	6371.25
319.723	6329.1
319.788	6303.28
319.853	6253.16
319.917	6224.71
319.982	6175.32
320.047	6140.81
320.112	6122.15
320.176	6074.88
320.241	6040.67
320.306	6017.4
320.37	5984.3
320.435	5950.33
320.5	5919.29
320.564	5887.3
320.629	5850.9
320.694	5825.91
320.758	5782.69
320.823	5739.63
320.888	5716.18
320.952	5674.61
321.017	5633.27
321.082	5594.83
321.146	5566.11
321.211	5530.39
321.275	5497.32
321.34	5454.82
321.405	5419.35
321.469	5377.26
321.534	5340.9
321.598	5291.83
321.663	5262.59
321.727	5236
321.792	5192.16
321.857	5153.92
321.921	5115.89
321.986	5072.21
322.05	5013.5
322.115	4979.11
322.179	4940.76
322.244	4884.74
322.308	4851.08
322.373	4808.09
322.437	4769.22
322.502	4741.59
322.566	4701.86
322.631	4665.2
322.695	4632.52
322.76	4586.86
322.824	4551.69
322.889	4511.36
322.953	4469.99
323.018	4403.68
323.082	4341.22
323.146	4292.06
323.211	4241.7
323.275	4198.14
323.34	4154.88
323.404	4124.05
323.468	4081.78
323.533	4037.61
323.597	3998.92
323.662	3949.54
323.726	3919.19
323.79	3881.59
323.855	3820.78
323.919	3775.2
323.983	3734.11
324.048	3673.01
324.112	3832.46
324.177	3712.75
324.241	3522.33
324.305	3338.32
324.37	3155.79
324.434	2979.8
324.498	2943.48
324.562	2898.79
324.627	2847.8
324.691	2802.43
324.755	2745.31
324.82	2678.7
324.884	2613.33
324.948	2550.54
325.012	2470.19
325.077	2358.73
