Data from 20250625_urea_1M_1_MAYP1162681_00-05-05-372.txt Node
Date: Thu Jun 26 00:05:05 BST 2025
User: adleo
Spectrometer: MAYP116268
Trigger mode: 0
Integration Time (sec): 1.000000E0
Scans to average: 1
Electric dark correction enabled: true
Nonlinearity correction enabled: true
Boxcar width: 10
XAxis mode: Wavelengths
Number of Pixels in Spectrum: 2068
>>>>>Begin Spectral Data<<<<<
179.565	1132.71
179.642	1186.69
179.718	1225.7
179.795	1263.05
179.871	1291.89
179.948	1309.59
180.024	1326.32
180.101	1348.11
180.177	1362
180.254	1383.73
180.33	1404.57
180.407	1453.94
180.483	1543.78
180.56	1629.62
180.636	1710.85
180.712	1699.16
180.789	1703.2
180.865	1716.26
180.942	1724.01
181.018	1731.85
181.095	1749.44
181.171	1753.67
181.248	1755.38
181.324	1770.92
181.4	1775.58
181.477	1786.84
181.553	1798.67
181.63	1820.2
181.706	1835.65
181.782	1844.68
181.859	1846.63
181.935	1852.62
182.011	1849.53
182.088	1867.31
182.164	1882.52
182.24	1890.89
182.317	1900.06
182.393	1898.68
182.469	1911.32
182.546	1924.45
182.622	1929.87
182.698	1923.87
182.775	1937.33
182.851	1946.93
182.927	1937.71
183.003	1935.9
183.08	1932.1
183.156	1938.61
183.232	1935.62
183.308	1925.77
183.385	1930.53
183.461	1942.75
183.537	1940.85
183.613	1951.12
183.69	1939.32
183.766	1930.81
183.842	1941.37
183.918	1947.12
183.995	1961.52
184.071	1965.38
184.147	1958.81
184.223	1947.41
184.299	1957.21
184.375	1945.22
184.452	1957.97
184.528	2014.48
184.604	2024.42
184.68	2033.55
184.756	2043.77
184.832	2049.57
184.908	2050.33
184.985	2051.24
185.061	2036.93
185.137	2047.72
185.213	2038.83
185.289	2038.93
185.365	2031.27
185.441	2028.66
185.517	2043.26
185.593	2038.5
185.669	2036.74
185.745	2048.16
185.822	2066.17
185.898	2058.75
185.974	2068.07
186.05	2054.33
186.126	2014.89
186.202	2005.81
186.278	2005.47
186.354	1995.34
186.43	1998.53
186.506	1998.06
186.582	1997.11
186.658	2005
186.734	1987.31
186.81	1988.21
186.886	1992.68
186.962	2006.47
187.038	2003.57
187.114	1993.44
187.19	2000.95
187.266	1990.3
187.341	1989.87
187.417	1980.89
187.493	1980.17
187.569	1983.36
187.645	1979.98
187.721	1968
187.797	1977.08
187.873	1978.79
187.949	1972.71
188.025	1967.9
188.101	1971.23
188.176	1975.98
188.252	1970.99
188.328	1976.41
188.404	1974.46
188.48	1971.61
188.556	1964.14
188.632	1960.67
188.707	1961.19
188.783	1958.82
188.859	1956.87
188.935	1944.88
189.011	1955.96
189.086	1950.64
189.162	1940.75
189.238	1938.42
189.314	1935.61
189.39	1931.67
189.465	1925.58
189.541	1941.13
189.617	1926.72
189.693	1924.54
189.768	1930.1
189.844	1954.55
189.92	1946.57
189.996	1959.5
190.071	1965.59
190.147	1964.54
190.223	1975.1
190.298	1971.06
190.374	1960.17
190.45	1971.96
190.526	1980.42
190.601	1973.1
190.677	1973.67
190.753	2001.21
190.828	2004.4
190.904	2019.05
190.98	2032.74
191.055	2041.68
191.131	2034.6
191.207	2054.85
191.282	2061.65
191.358	2049.53
191.433	2033.78
191.509	2047.94
191.585	2040.86
191.66	2044.66
191.736	2052.18
191.811	2044.99
191.887	2059.69
191.963	2081.24
192.038	2082.48
192.114	2082.57
192.189	2086.61
192.265	2086.42
192.34	2062.54
192.416	2063.73
192.491	2061.11
192.567	2063.11
192.642	2066.63
192.718	2064.01
192.793	2052.84
192.869	2049.27
192.944	2052.69
193.02	2062.02
193.095	2066.82
193.171	2074.43
193.246	2073.76
193.322	2072.24
193.397	2075.05
193.473	2061.58
193.548	2045.41
193.624	2053.45
193.699	2053.4
193.775	2068.01
193.85	2069.15
193.925	2079.76
194.001	2074.67
194.076	2067.87
194.152	2055.55
194.227	2047.46
194.302	2042.85
194.378	2044.8
194.453	2042.33
194.529	2054.79
194.604	2040.38
194.679	2035.95
194.755	2017.7
194.83	2028.45
194.905	2025.83
194.981	2031.83
195.056	2024.46
195.131	2030.45
195.207	2028.4
195.282	2020.79
195.357	2001.72
195.433	2012.85
195.508	2001.1
195.583	2012.27
195.659	2025.07
195.734	2032.35
195.809	2030.78
195.884	2034.58
195.96	2036.15
196.035	2051.22
196.11	2047.66
196.185	2057.64
196.261	2056.5
196.336	2085.99
196.411	2072.34
196.486	2075.62
196.561	2069.86
196.637	2080.23
196.712	2094.26
196.787	2095.55
196.862	2108.58
196.937	2118.42
197.013	2127.13
197.088	2137.74
197.163	2156.15
197.238	2172.63
197.313	2175.96
197.388	2190.66
197.464	2220.07
197.539	2235.72
197.614	2227.25
197.689	2238.43
197.764	2254.47
197.839	2275.26
197.914	2269.41
197.989	2293.82
198.065	2307.76
198.14	2352.43
198.215	2377.23
198.29	2388.13
198.365	2401.27
198.44	2411.36
198.515	2439.78
198.59	2451.59
198.665	2478.92
198.74	2490.44
198.815	2491.11
198.89	2510.06
198.965	2538.11
199.04	2534.97
199.115	2544.87
199.19	2587.53
199.265	2591.01
199.34	2601.06
199.415	2632.79
199.49	2654.6
199.565	2663.32
199.64	2687.66
199.715	2687.66
199.79	2693.61
199.865	2699.9
199.94	2698.71
200.015	2730.2
200.09	2735.87
200.165	2741.97
200.24	2744.12
200.315	2780.6
200.39	2792.8
200.464	2800.9
200.539	2804.19
200.614	2821.43
200.689	2842.92
200.764	2850.55
200.839	2868.6
200.914	2871.89
200.989	2862.88
201.063	2875.75
201.138	2860.79
201.213	2862.13
201.288	2841.54
201.363	2844.98
201.438	2844.64
201.512	2861.41
201.587	2845.3
201.662	2848.68
201.737	2863.98
201.812	2871.7
201.886	2840.13
201.961	2853.19
202.036	2840.47
202.111	2836.85
202.186	2807.04
202.26	2791.69
202.335	2770.86
202.41	2762.81
202.485	2754.14
202.559	2736.99
202.634	2710.35
202.709	2717.78
202.784	2698.15
202.858	2699.77
202.933	2680.25
203.008	2674.15
203.082	2657.09
203.157	2654.43
203.232	2613.95
203.306	2593.22
203.381	2565.55
203.456	2541.54
203.53	2516.81
203.605	2497.05
203.68	2473.52
203.754	2470.33
203.829	2456.43
203.904	2438.57
203.978	2426.53
204.053	2425
204.127	2409.96
204.202	2407.1
204.277	2388.68
204.351	2381.4
204.426	2374.26
204.5	2368.35
204.575	2334.09
204.65	2340.38
204.724	2332.33
204.799	2341.46
204.873	2334.84
204.948	2334.8
205.022	2325.14
205.097	2317.9
205.171	2332.27
205.246	2339.51
205.32	2338.22
205.395	2335.84
205.469	2322.62
205.544	2331.71
205.618	2313.77
205.693	2326.05
205.767	2317.1
205.842	2339.91
205.916	2336.34
205.991	2324.77
206.065	2331.63
206.14	2351.27
206.214	2346.56
206.289	2340.51
206.363	2348.98
206.438	2353.89
206.512	2361.74
206.586	2380.4
206.661	2387.5
206.735	2369.03
206.81	2371.37
206.884	2387.17
206.958	2376.51
207.033	2394.35
207.107	2400.07
207.181	2431.21
207.256	2424.45
207.33	2441.82
207.405	2452.59
207.479	2467.3
207.553	2479.05
207.628	2462.11
207.702	2472.06
207.776	2471.83
207.851	2475.59
207.925	2492.21
207.999	2487.88
208.073	2482.31
208.148	2482.78
208.222	2474.4
208.296	2503.44
208.371	2519.45
208.445	2531.54
208.519	2559.3
208.593	2576.01
208.668	2573.49
208.742	2575.44
208.816	2578.59
208.89	2594.21
208.965	2596.21
209.039	2608.17
209.113	2624.22
209.187	2648.78
209.261	2648.54
209.336	2665.79
209.41	2688.27
209.484	2692.28
209.558	2720.63
209.632	2739.87
209.707	2760.17
209.781	2790.14
209.855	2813.49
209.929	2835.48
210.003	2845.59
210.077	2856.5
210.151	2911.71
210.226	2956.63
210.3	2995.75
210.374	3037.55
210.448	3056.2
210.522	3078.85
210.596	3109.9
210.67	3145.25
210.744	3214.19
210.818	3268.89
210.892	3315.32
210.966	3336.93
211.041	3383.36
211.115	3413.38
211.189	3472.61
211.263	3521.58
211.337	3565.55
211.411	3621.58
211.485	3660.56
211.559	3725.45
211.633	3784.65
211.707	3808.51
211.781	3870.86
211.855	3901.16
211.929	3955.44
212.003	4005.21
212.077	4088.18
212.151	4172.64
212.225	4252.95
212.299	4320.25
212.373	4390.56
212.447	4474.56
212.52	4597.26
212.594	4692.82
212.668	4798.42
212.742	4887.2
212.816	4988.26
212.89	5095.46
212.964	5203.53
213.038	5326.53
213.112	5448.63
213.186	5578.87
213.26	5686.05
213.333	5772.66
213.407	5909.13
213.481	6049.38
213.555	6202.18
213.629	6334.07
213.703	6463.56
213.777	6610.17
213.85	6743.6
213.924	6934.05
213.998	7087.14
214.072	7232.35
214.146	7384.38
214.219	7544.41
214.293	7702.04
214.367	7869.18
214.441	8040.64
214.515	8198.28
214.588	8342.32
214.662	8487.28
214.736	8643.47
214.81	8829.3
214.883	9013.89
214.957	9179.47
215.031	9341.89
215.105	9497.19
215.178	9659.47
215.252	9827.4
215.326	9983.93
215.4	10141.91
215.473	10268.47
215.547	10437.43
215.621	10606.74
215.694	10779.96
215.768	10938.3
215.842	11107.82
215.915	11268.82
215.989	11423.43
216.063	11588.73
216.136	11768.74
216.21	11943.45
216.284	12124.38
216.357	12294.73
216.431	12460.29
216.504	12639.51
216.578	12831.59
216.652	13005.17
216.725	13174.61
216.799	13353.06
216.873	13516.95
216.946	13683.4
217.02	13850.77
217.093	13995.68
217.167	14140.96
217.24	14294.64
217.314	14439.59
217.387	14582.52
217.461	14730.94
217.535	14886.97
217.608	15024.88
217.682	15174.17
217.755	15333.38
217.829	15464.29
217.902	15594.77
217.976	15734.8
218.049	15861.95
218.123	15977.77
218.196	16114.46
218.27	16236.4
218.343	16356.9
218.417	16487.56
218.49	16614.27
218.563	16752.21
218.637	16884.07
218.71	17017.71
218.784	17138.39
218.857	17264.56
218.931	17391.56
219.004	17512.91
219.077	17630.21
219.151	17744.47
219.224	17844.13
219.298	17946.73
219.371	18064.13
219.444	18154.87
219.518	18257.47
219.591	18365.13
219.665	18492.02
219.738	18587.48
219.811	18677.74
219.885	18762.75
219.958	18856.48
220.031	18948.62
220.105	19030.01
220.178	19125.96
220.251	19202.34
220.325	19292.65
220.398	19389.03
220.471	19459.82
220.544	19543.63
220.618	19604.2
220.691	19687.23
220.764	19766.84
220.838	19844.96
220.911	19912.38
220.984	20013.73
221.057	20089.24
221.131	20152.57
221.204	20181.63
221.277	20265.82
221.35	20359.99
221.424	20424.27
221.497	20491.07
221.57	20546.39
221.643	20616.52
221.716	20672.04
221.79	20723.85
221.863	20766.84
221.936	20802.84
222.009	20858.36
222.082	20896.67
222.155	20944.67
222.229	20999.23
222.302	21036.48
222.375	21069.4
222.448	21116.01
222.521	21147.19
222.594	21188.16
222.667	21220.64
222.74	21276.36
222.814	21317.14
222.887	21340.71
222.96	21385.19
223.033	21423.18
223.106	21462.12
223.179	21482.85
223.252	21503.43
223.325	21534.08
223.398	21569.89
223.471	21600.21
223.544	21619.44
223.617	21648.27
223.69	21677.47
223.763	21688.95
223.837	21715.31
223.91	21738.21
223.983	21741.92
224.056	21744.23
224.129	21753.92
224.202	21787.95
224.275	21784.96
224.348	21779.9
224.42	21775.37
224.493	21767.9
224.566	21762.45
224.639	21761.78
224.712	21767.75
224.785	21777.73
224.858	21775.27
224.931	21769.68
225.004	21771.95
225.077	21790.75
225.15	21771.61
225.223	21774.02
225.296	21803.28
225.369	21791.38
225.442	21784.15
225.514	21784.58
225.587	21795.47
225.66	21807.57
225.733	21789.79
225.806	21802.12
225.879	21797.83
225.952	21803.43
226.025	21819.33
226.097	21836.54
226.17	21844.16
226.243	21821.36
226.316	21814.85
226.389	21819.43
226.461	21823.58
226.534	21816.92
226.607	21805.64
226.68	21824.39
226.753	21827.96
226.825	21789.64
226.898	21797.54
226.971	21803.28
227.044	21802.51
227.117	21799.86
227.189	21780.63
227.262	21788.92
227.335	21782.17
227.407	21767.13
227.48	21753.44
227.553	21744.67
227.626	21731.07
227.698	21712.42
227.771	21706.35
227.844	21679.98
227.916	21664.56
227.989	21639.64
228.062	21635.83
228.134	21643.25
228.207	21629.95
228.28	21599.53
228.352	21584.69
228.425	21573.8
228.498	21557.6
228.57	21537.79
228.643	21543.24
228.716	21537.65
228.788	21517.11
228.861	21501.01
228.934	21512.58
229.006	21500.77
229.079	21479.56
229.151	21453.73
229.224	21444.23
229.296	21436.33
229.369	21471.52
229.442	21477.49
229.514	21454.07
229.587	21446.65
229.659	21416.86
229.732	21407.89
229.804	21417.87
229.877	21433.97
229.949	21434.93
230.022	21442.65
230.094	21430.6
230.167	21410.74
230.239	21385.34
230.312	21366.54
230.384	21374.06
230.457	21350.34
230.529	21344.13
230.602	21333.96
230.674	21327.35
230.747	21319.93
230.819	21319.88
230.892	21258.86
230.964	21242.96
231.037	21234.28
231.109	21220.6
231.181	21203.24
231.254	21171.24
231.326	21137.6
231.399	21118.32
231.471	21091.23
231.544	21052.77
231.616	21049.5
231.688	21025.49
231.761	21003.03
231.833	20981.59
231.905	20935.7
231.978	20922.26
232.05	20879.94
232.122	20851.03
232.195	20817
232.267	20810.06
232.339	20787.12
232.412	20780.9
232.484	20751.84
232.556	20718.49
232.629	20707.94
232.701	20685.43
232.773	20669.96
232.846	20652.13
232.918	20611.45
232.99	20581.23
233.062	20553.57
233.135	20525.91
233.207	20478.25
233.279	20460.9
233.351	20444.75
233.424	20416.12
233.496	20380.08
233.568	20382.15
233.64	20354.49
233.713	20335.55
233.785	20293.09
233.857	20268.8
233.929	20227.64
234.001	20217.52
234.074	20216.61
234.146	20165.38
234.218	20147.98
234.29	20119.89
234.362	20079.45
234.434	20051.07
234.507	20017.48
234.579	19979.75
234.651	19952.86
234.723	19937.05
234.795	19913.63
234.867	19880.81
234.939	19866.88
235.012	19845.34
235.084	19819.17
235.156	19797.49
235.228	19759.51
235.3	19733.73
235.372	19706.75
235.444	19686.07
235.516	19633.79
235.588	19595.96
235.66	19578.99
235.732	19535.43
235.804	19552.92
235.876	19541.26
235.948	19527.91
236.02	19498.23
236.092	19474.23
236.164	19440.69
236.236	19407.44
236.308	19364.02
236.38	19345.13
236.452	19309.03
236.524	19279.06
236.596	19269.28
236.668	19247.16
236.74	19230
236.812	19196.7
236.884	19177.52
236.956	19154.68
237.028	19109.48
237.1	19072.23
237.172	19051.03
237.244	19037.97
237.316	18971.85
237.388	18929.88
237.46	18884.34
237.532	18862.27
237.604	18827.86
237.675	18811.18
237.747	18786.41
237.819	18760.1
237.891	18720.3
237.963	18683.43
238.035	18637.03
238.107	18568.64
238.178	18547.92
238.25	18510.24
238.322	18509.61
238.394	18453.61
238.466	18416.8
238.538	18402.73
238.609	18383.59
238.681	18335.84
238.753	18295.79
238.825	18263.36
238.897	18237.14
238.968	18237.29
239.04	18203.02
239.112	18195.94
239.184	18151.65
239.255	18129.1
239.327	18102.79
239.399	18073.3
239.471	18050.4
239.542	18036.72
239.614	18021.01
239.686	17967.85
239.758	17945.69
239.829	17893.4
239.901	17869.64
239.973	17845.93
240.044	17820.48
240.116	17787.96
240.188	17756.53
240.259	17726.37
240.331	17693.84
240.403	17665.64
240.474	17607.04
240.546	17571.72
240.618	17519.62
240.689	17488.06
240.761	17455.57
240.833	17433.98
240.904	17397.69
240.976	17369.16
241.048	17334.9
241.119	17312.92
241.191	17282.42
241.262	17265.5
241.334	17241.55
241.405	17216.2
241.477	17179.04
241.549	17141.21
241.62	17114.94
241.692	17086.94
241.763	17071.47
241.835	17045.3
241.906	17013.98
241.978	16968.72
242.049	16944.67
242.121	16925.78
242.192	16904.91
242.264	16856.52
242.335	16815.51
242.407	16803.46
242.478	16766.98
242.55	16731.46
242.621	16688.61
242.693	16663.16
242.764	16622.49
242.836	16580.36
242.907	16557.95
242.979	16531.54
243.05	16508.84
243.122	16480.07
243.193	16453.85
243.264	16406.52
243.336	16374.37
243.407	16359.77
243.479	16348.15
243.55	16327.91
243.622	16304.73
243.693	16279.09
243.764	16277.64
243.836	16235.9
243.907	16192.14
243.978	16161.63
244.05	16148.28
244.121	16102.05
244.192	16082.68
244.264	16042.72
244.335	16018.77
244.407	15967.1
244.478	15940.2
244.549	15898.51
244.62	15867.18
244.692	15834.5
244.763	15809.15
244.834	15773.67
244.906	15733.95
244.977	15714.05
245.048	15696.36
245.119	15661.61
245.191	15615.24
245.262	15564
245.333	15547.37
245.405	15525.78
245.476	15502.83
245.547	15471.02
245.618	15460.75
245.689	15425.23
245.761	15406
245.832	15381.42
245.903	15364.59
245.974	15343.91
246.045	15313.69
246.117	15295.04
246.188	15265.25
246.259	15224.76
246.33	15193.96
246.401	15169.76
246.473	15127.82
246.544	15096.01
246.615	15078.03
246.686	15047.32
246.757	15030.16
246.828	14999.22
246.899	14986.39
246.97	14934.96
247.042	14898.33
247.113	14881.12
247.184	14873.07
247.255	14838.31
247.326	14805.97
247.397	14777.58
247.468	14748.03
247.539	14734.58
247.61	14690.52
247.681	14663.86
247.752	14655.86
247.823	14624.82
247.894	14597.97
247.965	14552.8
248.037	14518.52
248.108	14473.79
248.179	14450.51
248.25	14422.69
248.321	14403.07
248.392	14358.63
248.463	14360.41
248.534	14334.81
248.605	14311.1
248.675	14282.46
248.746	14263.57
248.817	14244.38
248.888	14218.35
248.959	14175.59
249.03	14156.46
249.101	14132.59
249.172	14106.42
249.243	14062.4
249.314	14053.82
249.385	14030.35
249.456	14022.01
249.527	13990.05
249.598	13973.99
249.669	13949.12
249.739	13927.43
249.81	13908.92
249.881	13868.66
249.952	13853.67
250.023	13833.57
250.094	13796.55
250.165	13766.71
250.235	13741.35
250.306	13713.87
250.377	13694.69
250.448	13678.06
250.519	13632.55
250.59	13617.8
250.66	13590.75
250.731	13584.78
250.802	13562.12
250.873	13541.25
250.944	13530.59
251.014	13508.71
251.085	13500.66
251.156	13486.1
251.227	13475.01
251.297	13468.45
251.368	13465.03
251.439	13441.36
251.51	13426.22
251.58	13393.59
251.651	13365.39
251.722	13355.26
251.792	13325.67
251.863	13291.15
251.934	13288.45
252.005	13301.32
252.075	13286.86
252.146	13277.65
252.217	13265.5
252.287	13247.57
252.358	13227.28
252.429	13223.52
252.499	13202.79
252.57	13189
252.641	13174.1
252.711	13149.66
252.782	13112.11
252.852	13105.36
252.923	13081.93
252.994	13062.55
253.064	13051.42
253.135	13023.46
253.205	12992.66
253.276	12988.27
253.347	12984.17
253.417	12950.57
253.488	12916.83
253.558	12894.36
253.629	12875.85
253.699	12857
253.77	12846.78
253.841	12820.75
253.911	12798.19
253.982	12778.09
254.052	12761.22
254.123	12753.99
254.193	12732.97
254.264	12745.7
254.334	12717.74
254.405	12690.45
254.475	12664.91
254.546	12642.3
254.616	12643.02
254.687	12635.55
254.757	12617.66
254.827	12597.47
254.898	12588.6
254.968	12570.57
255.039	12547.53
255.109	12533.4
255.18	12506.02
255.25	12463.7
255.321	12456.66
255.391	12423.93
255.461	12426.15
255.532	12382.48
255.602	12353.99
255.673	12321.88
255.743	12297.2
255.813	12258.69
255.884	12252.76
255.954	12242.2
256.024	12241.92
256.095	12211.84
256.165	12180.89
256.235	12166.57
256.306	12147.44
256.376	12139.39
256.446	12127.77
256.517	12117.36
256.587	12110.27
256.657	12095.81
256.728	12083.33
256.798	12063.66
256.868	12043.95
256.938	12009.05
257.009	12006.54
257.079	12002.4
257.149	12017.87
257.219	11983.55
257.29	11976.9
257.36	11941.95
257.43	11931.64
257.5	11893.42
257.571	11877.99
257.641	11864.5
257.711	11840.97
257.781	11829.02
257.852	11808.34
257.922	11773.06
257.992	11745.83
258.062	11728.52
258.132	11718.55
258.202	11697.58
258.273	11679.03
258.343	11673.29
258.413	11654.01
258.483	11634.78
258.553	11594
258.623	11559.11
258.693	11540.31
258.764	11535.78
258.834	11539.54
258.904	11526.53
258.974	11505.42
259.044	11485.7
259.114	11479
259.184	11464.5
259.254	11441.46
259.324	11406.76
259.394	11399.53
259.464	11401.46
259.535	11379.09
259.605	11359.67
259.675	11339.77
259.745	11327.09
259.815	11299.62
259.885	11280.87
259.955	11295.82
260.025	11271.24
260.095	11255.62
260.165	11241.65
260.235	11240.54
260.305	11204.25
260.375	11179.09
260.445	11182.9
260.515	11181.94
260.585	11171.29
260.655	11153.65
260.725	11148.2
260.795	11142.32
260.865	11144.97
260.934	11117.99
261.004	11107.53
261.074	11090.27
261.144	11089.36
261.214	11088.01
261.284	11069.7
261.354	11056.69
261.424	11025.02
261.494	11025.41
261.564	11012.16
261.634	11007.72
261.703	10971.29
261.773	10971.53
261.843	10961.07
261.913	10946.95
261.983	10913.37
262.053	10904.35
262.123	10883.78
262.192	10856.02
262.262	10857.47
262.332	10826.1
262.402	10821.09
262.472	10803.93
262.541	10767.6
262.611	10760.52
262.681	10731.37
262.751	10728.52
262.821	10716.33
262.89	10684.53
262.96	10679.81
263.03	10677.88
263.1	10667.42
263.169	10653.93
263.239	10642.85
263.309	10646.46
263.379	10636.83
263.448	10627.86
263.518	10611.53
263.588	10603.34
263.657	10608.59
263.727	10599.05
263.797	10585.75
263.867	10568.16
263.936	10541.09
264.006	10538.05
264.076	10524.51
264.145	10509.62
264.215	10485.82
264.285	10484.86
264.354	10452.63
264.424	10431.86
264.494	10405.08
264.563	10383.1
264.633	10394.67
264.702	10381.37
264.772	10339.21
264.842	10319.17
264.911	10315.07
264.981	10284.87
265.05	10272.58
265.12	10253.12
265.19	10231.19
265.259	10223.58
265.329	10216.69
265.398	10204.31
265.468	10215.34
265.537	10190.49
265.607	10177.77
265.676	10177.91
265.746	10159.27
265.815	10166.01
265.885	10149.63
265.955	10126.08
266.024	10114.85
266.094	10070.78
266.163	10072.56
266.232	10077.62
266.302	10066.44
266.371	10051.65
266.441	10039.27
266.51	10027.81
266.58	10010.95
266.649	9989.75
266.719	9989.7
266.788	9977.51
266.858	9983.92
266.927	9953.57
266.996	9954.49
267.066	9949.38
267.135	9925.3
267.205	9922.6
267.274	9910.85
267.343	9906.27
267.413	9895.73
267.482	9890.47
267.552	9894.04
267.621	9861.04
267.69	9830.55
267.76	9820.05
267.829	9808.01
267.898	9799.92
267.968	9780.9
268.037	9780.22
268.106	9777.96
268.176	9754.55
268.245	9744.91
268.314	9728.06
268.384	9729.4
268.453	9713.7
268.522	9703.78
268.592	9704.07
268.661	9689.62
268.73	9680.71
268.799	9664.87
268.869	9675.27
268.938	9648.78
269.007	9634.09
269.076	9633.18
269.146	9635.82
269.215	9622.53
269.284	9624.65
269.353	9611.17
269.422	9596.1
269.492	9572.31
269.561	9540.09
269.63	9531.52
269.699	9515.24
269.768	9502.96
269.838	9496.89
269.907	9495.25
269.976	9468.86
270.045	9437.13
270.114	9433.08
270.183	9420.03
270.253	9412.86
270.322	9376.22
270.391	9366.54
270.46	9370.2
270.529	9357.44
270.598	9355.17
270.667	9346.31
270.736	9323.25
270.806	9316.02
270.875	9320.45
270.944	9309.91
271.013	9326.76
271.082	9320.41
271.151	9313.66
271.22	9287.47
271.289	9269.66
271.358	9253.91
271.427	9250.73
271.496	9246.78
271.565	9227.19
271.634	9219.63
271.703	9238.7
271.772	9250.4
271.841	9239.32
271.91	9214.67
271.979	9208.65
272.048	9175.96
272.117	9172.25
272.186	9162.29
272.255	9164.21
272.324	9157.37
272.393	9154.49
272.462	9138.64
272.531	9133.15
272.6	9122.03
272.669	9133.68
272.738	9119.58
272.807	9115
272.876	9097.62
272.945	9120.69
273.013	9117.08
273.082	9121.31
273.151	9079.57
273.22	9065.08
273.289	9057.76
273.358	9060.07
273.427	9046.21
273.496	9048.95
273.564	9048.32
273.633	9048.76
273.702	9027.62
273.771	9018.72
273.84	9015.15
273.909	9012.75
273.977	9003.07
274.046	8991.9
274.115	8991.61
274.184	8979.19
274.253	8963.4
274.322	8971.15
274.39	8937.94
274.459	8930.52
274.528	8907.37
274.597	8908.86
274.665	8905.68
274.734	8914.01
274.803	8905.34
274.872	8905.3
274.94	8898.85
275.009	8922.92
275.078	8904.1
275.147	8901.12
275.215	8894.67
275.284	8893.8
275.353	8877.77
275.421	8859.67
275.49	8876.52
275.559	8861.5
275.627	8853.99
275.696	8852.16
275.765	8851.06
275.833	8841.53
275.902	8835.85
275.971	8843.31
276.039	8846.78
276.108	8853.47
276.177	8847.26
276.245	8840.47
276.314	8833.25
276.383	8832.72
276.451	8796.95
276.52	8807.05
276.588	8817.98
276.657	8823.85
276.725	8814.56
276.794	8816.92
276.863	8827.32
276.931	8805.8
277	8814.03
277.068	8822.36
277.137	8833.23
277.205	8835.11
277.274	8854.22
277.342	8865.05
277.411	8838.87
277.48	8831.7
277.548	8817.45
277.617	8814.75
277.685	8806.72
277.754	8810.52
277.822	8797.09
277.89	8804.26
277.959	8795.79
278.027	8776.83
278.096	8764.75
278.164	8790.94
278.233	8779.19
278.301	8764.37
278.37	8764.85
278.438	8747.62
278.507	8748.39
278.575	8735.44
278.643	8725.52
278.712	8707.23
278.78	8693.9
278.849	8712.76
278.917	8719.74
278.985	8716.23
279.054	8710.7
279.122	8720.61
279.191	8717.91
279.259	8718.11
279.327	8704.2
279.396	8717
279.464	8713.01
279.532	8721.04
279.601	8714.35
279.669	8716.61
279.737	8733.6
279.806	8732.78
279.874	8741.64
279.942	8740.82
280.011	8729.9
280.079	8741.02
280.147	8757.91
280.215	8761.47
280.284	8748.19
280.352	8734.42
280.42	8743.04
280.488	8740.15
280.557	8731.34
280.625	8731.97
280.693	8733.7
280.761	8729.66
280.83	8711.37
280.898	8728.12
280.966	8706.12
281.034	8675.32
281.102	8657.8
281.171	8645.82
281.239	8653.37
281.307	8648.22
281.375	8640.91
281.443	8661.89
281.512	8647.79
281.58	8651.26
281.648	8630.61
281.716	8631.04
281.784	8629.98
281.852	8625.12
281.92	8624.59
281.989	8633.79
282.057	8613
282.125	8639.52
282.193	8641.16
282.261	8642.02
282.329	8625.99
282.397	8635.19
282.465	8636.87
282.533	8648.03
282.601	8632.68
282.67	8616.8
282.738	8606.65
282.806	8615.12
282.874	8606.45
282.942	8613.14
283.01	8605.58
283.078	8615.83
283.146	8619.83
283.214	8630.51
283.282	8631.14
283.35	8642.59
283.418	8637.4
283.486	8643.99
283.554	8616.55
283.622	8618.14
283.69	8617.03
283.758	8620.69
283.826	8621.51
283.894	8627.14
283.962	8649.52
284.03	8671.85
284.098	8670.21
284.165	8669.11
284.233	8664.78
284.301	8652.7
284.369	8640.62
284.437	8629.06
284.505	8623.1
284.573	8628.87
284.641	8614.82
284.709	8614.48
284.777	8595.95
284.845	8600.53
284.912	8610.25
284.98	8616.31
285.048	8608.75
285.116	8612.6
285.184	8625.6
285.252	8626.51
285.319	8608.85
285.387	8599.71
285.455	8576.32
285.523	8580.65
285.591	8576.99
285.659	8576.42
285.726	8588.11
285.794	8577.48
285.862	8582.05
285.93	8577.62
285.997	8575.79
286.065	8572.23
286.133	8565.01
286.201	8565.06
286.269	8551.3
286.336	8536.86
286.404	8530.84
286.472	8536.72
286.539	8510.88
286.607	8492.49
286.675	8488.02
286.743	8502.36
286.81	8491.29
286.878	8506.49
286.946	8498.79
287.013	8500
287.081	8496
287.149	8484.31
287.216	8506.35
287.284	8496
287.352	8497.2
287.419	8488.78
287.487	8505.43
287.555	8503.89
287.622	8497.01
287.69	8503.08
287.758	8518.57
287.825	8512.7
287.893	8503.22
287.96	8515.54
288.028	8519.53
288.096	8521.94
288.163	8520.4
288.231	8512.89
288.298	8509.76
288.366	8517.32
288.433	8506.64
288.501	8500.24
288.569	8500.81
288.636	8485.51
288.704	8498.84
288.771	8507.41
288.839	8500.91
288.906	8492.78
288.974	8506.59
289.041	8506.16
289.109	8498.79
289.176	8505.87
289.244	8509.19
289.311	8519.05
289.379	8527.33
289.446	8528.44
289.514	8524.01
289.581	8520.83
289.649	8519.97
289.716	8523.53
289.783	8520.02
289.851	8540.13
289.918	8544.99
289.986	8557.45
290.053	8563.32
290.121	8559.38
290.188	8559.23
290.255	8581.42
290.323	8572.61
290.39	8565.49
290.458	8571.99
290.525	8582
290.592	8569.96
290.66	8562.17
290.727	8550.57
290.794	8562.07
290.862	8564.67
290.929	8569.82
290.996	8566.5
291.064	8579.97
291.131	8592.83
291.198	8599.37
291.266	8602.5
291.333	8607.99
291.4	8606.54
291.468	8623.82
291.535	8622.33
291.602	8628.68
291.669	8622.57
291.737	8624.88
291.804	8621.7
291.871	8639.7
291.938	8644.13
292.006	8673.88
292.073	8697.32
292.14	8716.23
292.207	8706.27
292.275	8702.71
292.342	8715.27
292.409	8745.35
292.476	8764.12
292.543	8751.37
292.611	8758.11
292.678	8772.93
292.745	8791.99
292.812	8802.58
292.879	8790.69
292.946	8795.02
293.014	8802.05
293.081	8809.22
293.148	8819.57
293.215	8837.43
293.282	8825.25
293.349	8833.39
293.416	8812.93
293.484	8820.87
293.551	8828.09
293.618	8842.14
293.685	8867.22
293.752	8860.15
293.819	8854.51
293.886	8839.16
293.953	8847.82
294.02	8851.14
294.087	8856.68
294.154	8847.68
294.221	8857.98
294.288	8864.19
294.356	8876.32
294.423	8889.7
294.49	8885.37
294.557	8902.12
294.624	8896.87
294.691	8920.94
294.758	8924.17
294.825	8932.4
294.892	8920.17
294.959	8920.17
295.026	8928.02
295.093	8920.27
295.16	8918.2
295.226	8918.2
295.293	8945.64
295.36	8947.37
295.427	8962.1
295.494	8965.33
295.561	8976.83
295.628	8997.54
295.695	9016.07
295.762	9018.48
295.829	9022.57
295.896	9038.07
295.963	9046.35
296.03	9053.72
296.096	9053.48
296.163	9067.25
296.23	9076.69
296.297	9092.23
296.364	9087.71
296.431	9096.23
296.498	9085.78
296.564	9111.06
296.631	9110.34
296.698	9093.53
296.765	9111.87
296.832	9095.36
296.899	9085.06
296.965	9101.29
297.032	9078.27
297.099	9091.13
297.166	9095.7
297.233	9087.27
297.299	9080.24
297.366	9079.47
297.433	9080.68
297.5	9088.04
297.566	9086.46
297.633	9084.24
297.7	9088.04
297.767	9085.35
297.833	9084.72
297.9	9098.44
297.967	9077.93
298.033	9093.24
298.1	9124.4
298.167	9116.55
298.234	9125.79
298.3	9135.71
298.367	9123.48
298.434	9136.33
298.5	9122.85
298.567	9122.71
298.634	9122.85
298.7	9136.33
298.767	9139.75
298.834	9145.43
298.9	9142.11
298.967	9127.43
299.033	9134.02
299.1	9150.54
299.167	9164.69
299.233	9161.27
299.3	9169.89
299.366	9186.88
299.433	9198.15
299.5	9169.65
299.566	9169.89
299.633	9179.52
299.699	9183.56
299.766	9180.82
299.832	9179.13
299.899	9185.82
299.965	9191.74
300.032	9192.56
300.099	9195.98
300.165	9198.34
300.232	9198.73
300.298	9195.36
300.365	9207.78
300.431	9213.12
300.498	9202.34
300.564	9210.18
300.631	9222.85
300.697	9232.62
300.763	9231.47
300.83	9235.7
300.896	9248.27
300.963	9258.81
301.029	9266.57
301.096	9274.51
301.162	9282.22
301.229	9274.99
301.295	9262.43
301.361	9261.8
301.428	9260.84
301.494	9252.56
301.561	9249.04
301.627	9247.31
301.693	9257.42
301.76	9260.6
301.826	9253.57
301.892	9264.59
301.959	9269.07
302.025	9259.68
302.092	9254.63
302.158	9261.27
302.224	9257.37
302.291	9249.91
302.357	9243.31
302.423	9235.46
302.49	9224.63
302.556	9235.94
302.622	9241.82
302.688	9256.31
302.755	9272.59
302.821	9273.07
302.887	9281.45
302.954	9283.95
303.02	9295.94
303.086	9294.21
303.152	9286.74
303.219	9279.95
303.285	9274.51
303.351	9275.04
303.417	9274.85
303.483	9263.34
303.55	9255.93
303.616	9245.57
303.682	9241.48
303.748	9236.67
303.815	9246.15
303.881	9251.69
303.947	9235.99
304.013	9230.55
304.079	9220.3
304.145	9194.1
304.212	9193.62
304.278	9175.28
304.344	9167.77
304.41	9153.71
304.476	9147.06
304.542	9148.65
304.608	9152.79
304.674	9138.01
304.741	9129.88
304.807	9135.7
304.873	9145.76
304.939	9152.6
305.005	9137.87
305.071	9132.38
305.137	9129.88
305.203	9104.46
305.269	9098.05
305.335	9104.94
305.401	9097.71
305.467	9097.33
305.533	9106.38
305.599	9119.43
305.666	9131.85
305.732	9132.43
305.798	9140.47
305.864	9162.71
305.93	9164.54
305.996	9164.25
306.062	9168.3
306.128	9167.19
306.194	9151.83
306.259	9140.95
306.325	9130.22
306.391	9139.03
306.457	9150.77
306.523	9149.38
306.589	9173.06
306.655	9169.5
306.721	9155.64
306.787	9147.26
306.853	9160.5
306.919	9147.17
306.985	9131.08
307.051	9122.47
307.117	9112.12
307.183	9109.61
307.248	9074.37
307.314	9076.15
307.38	9077.5
307.446	9077.5
307.512	9062.72
307.578	9059.54
307.644	9056.51
307.709	9057.23
307.775	9051.89
307.841	9046.93
307.907	9051.64
307.973	9031.18
308.039	9025.31
308.104	9029.06
308.17	9025.98
308.236	9002.49
308.302	9004.41
308.368	8996.37
308.433	8996.61
308.499	8986.65
308.565	8971.2
308.631	8974.95
308.696	8949.44
308.762	8938.61
308.828	8934.42
308.894	8920.6
308.959	8906.98
309.025	8898.7
309.091	8893.84
309.156	8884.69
309.222	8881.47
309.288	8864.72
309.354	8842
309.419	8841.08
309.485	8821.4
309.551	8829.48
309.616	8812.64
309.682	8805.13
309.748	8797.38
309.813	8787.27
309.879	8778.99
309.945	8766.09
310.01	8758.2
310.076	8759.21
310.141	8748.86
310.207	8733.7
310.273	8729.56
310.338	8728.84
310.404	8707.81
310.469	8691.15
310.535	8680.47
310.601	8654.86
310.666	8660.4
310.732	8665.21
310.797	8648.7
310.863	8643.94
310.928	8631.42
310.994	8636.23
311.059	8630.07
311.125	8622.18
311.191	8628.15
311.256	8624.59
311.322	8624.25
311.387	8609.48
311.453	8944.54
311.518	8916.3
311.584	8911
311.649	8918.51
311.715	8908.74
311.78	8911.29
311.846	8901.67
311.911	8905.86
311.976	8909.13
312.042	8886.65
312.107	8873.81
312.173	8862.21
312.238	8859.27
312.304	8856.24
312.369	8846.18
312.434	8828.86
312.5	8821.59
312.565	8789.4
312.631	8786.08
312.696	8779.77
312.761	8777.61
312.827	8435.51
312.892	8472.18
312.958	8468.96
313.023	8461.55
313.088	8453.13
313.154	8440.47
313.219	8436.58
313.284	8421.37
313.35	8412.52
313.415	8400.78
313.48	8398.47
313.546	8401.55
313.611	8400.97
313.676	8385.57
313.741	8374.46
313.807	8386.34
313.872	8392.21
313.937	8398.9
314.003	8407.75
314.068	8404.1
314.133	8402.94
314.198	8389.61
314.264	8367.09
314.329	8353.04
314.394	8346.35
314.459	8346.25
314.525	8364.2
314.59	8362.42
314.655	8355.2
314.72	8364.44
314.785	8369.83
314.851	8356.84
314.916	8344.76
314.981	8328.41
315.046	8320.47
315.111	8311.76
315.176	8302.57
315.242	8300.12
315.307	8295.69
315.372	8274.66
315.437	8267.16
315.502	8256.86
315.567	8259.89
315.632	8241.47
315.698	8244.79
315.763	8241.47
315.828	8233.96
315.893	8229.49
315.958	8219.82
316.023	8206.78
316.088	8180.99
316.153	8160.5
316.218	8160.26
316.283	8140.59
316.348	8130.15
316.413	8127.41
316.479	8114.86
316.544	8079.7
316.609	8050.69
316.674	8015.34
316.739	7985.04
316.804	7953.4
316.869	7921.51
316.934	7892.22
316.999	7864.04
317.064	7813.16
317.129	7770.6
317.194	7739.44
317.259	7695.43
317.324	7649.32
317.389	7608.99
317.454	7579.08
317.518	7551.01
317.583	7525.86
317.648	7505.52
317.713	7469.56
317.778	7412.98
317.843	7382.93
317.908	7346.6
317.973	7316.07
318.038	7296.8
318.103	7258.84
318.168	7227.75
318.233	7202.61
318.297	7153.45
318.362	7122.26
318.427	7086.52
318.492	7067.59
318.557	7020.6
318.622	6993.93
318.687	6974.86
318.751	6942.63
318.816	6907.94
318.881	6874.13
318.946	6822.29
319.011	6780.45
319.075	6741.45
319.14	6708.56
319.205	6669.94
319.27	6642.62
319.335	6595.9
319.399	6557.96
319.464	6533.14
319.529	6487.43
319.594	6447.34
319.658	6421.41
319.723	6381.57
319.788	6356.09
319.853	6300.93
319.917	6273.33
319.982	6219.14
320.047	6183
320.112	6155.07
320.176	6107.37
320.241	6071.57
320.306	6043.31
320.37	6003.3
320.435	5974.46
320.5	5957.62
320.564	5916.23
320.629	5874.21
320.694	5850.08
320.758	5807.83
320.823	5770.94
320.888	5745.39
320.952	5703.14
321.017	5663.15
321.082	5627
321.146	5598.13
321.211	5566.97
321.275	5527.57
321.34	5489.42
321.405	5449.16
321.469	5406.88
321.534	5371.67
321.598	5324.23
321.663	5292.98
321.727	5263.36
321.792	5217.8
321.857	5169.54
321.921	5137.64
321.986	5101.67
322.05	5040.75
322.115	5005.45
322.179	4960.1
322.244	4905.57
322.308	4876.26
322.373	4831.02
322.437	4791.86
322.502	4764.17
322.566	4721.62
322.631	4692.51
322.695	4653.47
322.76	4609.63
322.824	4578.76
322.889	4534.56
322.953	4497.87
323.018	4433.96
323.082	4374.84
323.146	4327.55
323.211	4279.86
323.275	4234.86
323.34	4187.63
323.404	4157.56
323.468	4114.19
323.533	4072.66
323.597	4034.48
323.662	3984.95
323.726	3949.83
323.79	3908.63
323.855	3844.82
323.919	3802.2
323.983	3753.89
324.048	3692.69
324.112	3843.2
324.177	3720.43
324.241	3531.11
324.305	3340.89
324.37	3159.36
324.434	2981.7
324.498	2941.8
324.562	2893.89
324.627	2841.21
324.691	2794.49
324.755	2734.79
324.82	2665.79
324.884	2598.82
324.948	2532.04
325.012	2443.43
325.077	2335.43
