Data from 20250625_urea_1M_1_MAYP1162681_10-15-05-433.txt Node
Date: Thu Jun 26 10:15:05 BST 2025
User: adleo
Spectrometer: MAYP116268
Trigger mode: 0
Integration Time (sec): 1.000000E0
Scans to average: 1
Electric dark correction enabled: true
Nonlinearity correction enabled: true
Boxcar width: 10
XAxis mode: Wavelengths
Number of Pixels in Spectrum: 2068
>>>>>Begin Spectral Data<<<<<
179.565	1124.34
179.642	1175.38
179.718	1212.66
179.795	1251.17
179.871	1283.68
179.948	1301.27
180.024	1321.78
180.101	1342.85
180.177	1354.92
180.254	1376.71
180.33	1397.08
180.407	1446.6
180.483	1535.25
180.56	1618.48
180.636	1697.91
180.712	1687.26
180.789	1694.63
180.865	1704.08
180.942	1712.91
181.018	1722.94
181.095	1735.35
181.171	1741.95
181.248	1743.8
181.324	1762.39
181.4	1767.33
181.477	1776.6
181.553	1788.62
181.63	1807.59
181.706	1822.42
181.782	1831.73
181.859	1834.39
181.935	1842.09
182.011	1836.62
182.088	1854.16
182.164	1871.61
182.24	1883.97
182.317	1893.81
182.393	1891
182.469	1904.88
182.546	1919.62
182.622	1922.62
182.698	1920.05
182.775	1930.55
182.851	1945.05
182.927	1936.78
183.003	1932.88
183.08	1926.85
183.156	1936.36
183.232	1931.74
183.308	1921.33
183.385	1929.22
183.461	1941.35
183.537	1939.02
183.613	1953.66
183.69	1942.92
183.766	1935.88
183.842	1944.1
183.918	1949.71
183.995	1962.55
184.071	1966.35
184.147	1957.51
184.223	1947.72
184.299	1960.46
184.375	1951.43
184.452	1955.81
184.528	2010.66
184.604	2020.83
184.68	2032.38
184.756	2037.33
184.832	2044.41
184.908	2049.59
184.985	2048.74
185.061	2035.66
185.137	2045.75
185.213	2035.24
185.289	2035.09
185.365	2028.1
185.441	2026.82
185.517	2040.43
185.593	2037.86
185.669	2033.06
185.745	2044.52
185.822	2061.25
185.898	2051.31
185.974	2060.34
186.05	2053.97
186.126	2013.81
186.202	2008.39
186.278	2003.69
186.354	1998.88
186.43	2002.88
186.506	2001.17
186.582	2000.83
186.658	2006.49
186.734	1988.61
186.81	1987.28
186.886	1993.84
186.962	2003.4
187.038	1998.6
187.114	1988.04
187.19	1994.89
187.266	1988.66
187.341	1988.32
187.417	1981.48
187.493	1983
187.569	1987.8
187.645	1981.48
187.721	1969.49
187.797	1976.82
187.873	1981.24
187.949	1972.97
188.025	1968.78
188.101	1972.11
188.176	1977
188.252	1974.15
188.328	1982.28
188.404	1983.94
188.48	1978.43
188.556	1971.77
188.632	1970.58
188.707	1971.53
188.783	1970.58
188.859	1965.54
188.935	1956.22
189.011	1964.4
189.086	1960.79
189.162	1950.57
189.238	1949.09
189.314	1946.43
189.39	1942.67
189.465	1935.68
189.541	1948.57
189.617	1934.5
189.693	1929.65
189.768	1934.45
189.844	1955.57
189.92	1944.92
189.996	1953.15
190.071	1964.04
190.147	1964.52
190.223	1973.22
190.298	1967.27
190.374	1950.87
190.45	1961.33
190.526	1971.6
190.601	1964.7
190.677	1963.99
190.753	1989.78
190.828	1994.62
190.904	2009.56
190.98	2020.02
191.055	2032.29
191.131	2026.01
191.207	2043.7
191.282	2050.36
191.358	2038.56
191.433	2023.96
191.509	2038.12
191.585	2033.18
191.66	2033.18
191.736	2041.98
191.811	2031.56
191.887	2044.69
191.963	2069.89
192.038	2074.51
192.114	2073.56
192.189	2075.36
192.265	2069.99
192.34	2048.01
192.416	2044.54
192.491	2041.45
192.567	2045.21
192.642	2049.87
192.718	2049.92
192.793	2039.55
192.869	2037.12
192.944	2039.6
193.02	2048.44
193.095	2049.54
193.171	2058.48
193.246	2057.15
193.322	2054.1
193.397	2055.77
193.473	2044.49
193.548	2027.22
193.624	2036.07
193.699	2031.89
193.775	2049.82
193.85	2052.63
193.925	2060.14
194.001	2057
194.076	2047.44
194.152	2036.84
194.227	2026.28
194.302	2017.81
194.378	2022.66
194.453	2019.72
194.529	2032.89
194.604	2018.15
194.679	2014.25
194.755	1996.47
194.83	2011.84
194.905	2008.22
194.981	2015.21
195.056	2008.22
195.131	2015.26
195.207	2011.07
195.282	2005.32
195.357	1984.72
195.433	1997.18
195.508	1986.96
195.583	1999.51
195.659	2014.78
195.734	2024.29
195.809	2025.62
195.884	2032.99
195.96	2031.18
196.035	2047.54
196.11	2045.31
196.185	2055.82
196.261	2059
196.336	2085.3
196.411	2070.5
196.486	2075.4
196.561	2073.21
196.637	2081.25
196.712	2094.91
196.787	2098.09
196.862	2111.6
196.937	2122.35
197.013	2131.67
197.088	2142.04
197.163	2159.84
197.238	2174.79
197.313	2171.79
197.388	2184.68
197.464	2217.28
197.539	2231.79
197.614	2223.9
197.689	2233.75
197.764	2251.36
197.839	2270.96
197.914	2267.87
197.989	2287.66
198.065	2299.61
198.14	2346.18
198.215	2372.92
198.29	2379.69
198.365	2391.49
198.44	2403.53
198.515	2429.62
198.59	2445.24
198.665	2469.61
198.74	2477.47
198.815	2478.8
198.89	2504.22
198.965	2530.13
199.04	2524.08
199.115	2535.32
199.19	2578.65
199.265	2582.79
199.34	2590.32
199.415	2620.43
199.49	2642.29
199.565	2652.34
199.64	2681.82
199.715	2681.87
199.79	2687.82
199.865	2696.44
199.94	2696.35
200.015	2724.03
200.09	2732.27
200.165	2734.56
200.24	2743.9
200.315	2784.24
200.39	2799.73
200.464	2802.68
200.539	2806.97
200.614	2822.65
200.689	2844.38
200.764	2848.48
200.839	2865.1
200.914	2870.77
200.989	2861.38
201.063	2872.2
201.138	2856.81
201.213	2849.9
201.288	2831.32
201.363	2834.18
201.438	2835.37
201.512	2850.04
201.587	2834.83
201.662	2836.07
201.737	2851.13
201.812	2859
201.886	2824.52
201.961	2835.53
202.036	2821.86
202.111	2814.81
202.186	2784.95
202.26	2770.22
202.335	2751.25
202.41	2745.06
202.485	2728.77
202.559	2708.57
202.634	2683.37
202.709	2689.51
202.784	2673.36
202.858	2672.55
202.933	2655.84
203.008	2649.83
203.082	2633.5
203.157	2631.88
203.232	2592.83
203.306	2570.3
203.381	2536.81
203.456	2516.38
203.53	2490.73
203.605	2474.22
203.68	2451.17
203.754	2448.03
203.829	2432.17
203.904	2411.75
203.978	2399.03
204.053	2404.74
204.127	2395.84
204.202	2395.42
204.277	2381.71
204.351	2377.99
204.426	2366.8
204.5	2360.81
204.575	2327.73
204.65	2335.59
204.724	2329.4
204.799	2336.63
204.873	2333.87
204.948	2332.01
205.022	2320.4
205.097	2312.88
205.171	2328.2
205.246	2338.06
205.32	2337.63
205.395	2337.92
205.469	2329.26
205.544	2335.83
205.618	2315.27
205.693	2325.5
205.767	2312.18
205.842	2331.32
205.916	2324.37
205.991	2318.8
206.065	2319.94
206.14	2335.97
206.214	2331.4
206.289	2324.11
206.363	2336.96
206.438	2339.3
206.512	2350.67
206.586	2366.95
206.661	2373.85
206.735	2351.21
206.81	2351.49
206.884	2365.91
206.958	2353.68
207.033	2368.57
207.107	2373.77
207.181	2407.09
207.256	2401.19
207.33	2419.37
207.405	2431.81
207.479	2447.76
207.553	2453.23
207.628	2441
207.702	2452
207.776	2443.86
207.851	2446.38
207.925	2459.34
207.999	2458.34
208.073	2453.15
208.148	2457.24
208.222	2447.48
208.296	2479.75
208.371	2496.04
208.445	2505.57
208.519	2531.56
208.593	2544.7
208.668	2542.03
208.742	2544.27
208.816	2546.94
208.89	2561.04
208.965	2556.84
209.039	2566.37
209.113	2583.9
209.187	2605.17
209.261	2605.5
209.336	2627.94
209.41	2647.7
209.484	2647.85
209.558	2667.71
209.632	2683.1
209.707	2696.96
209.781	2720.3
209.855	2736.65
209.929	2757.25
210.003	2768.45
210.077	2774.5
210.151	2824
210.226	2864.25
210.3	2898.16
210.374	2929.9
210.448	2939.52
210.522	2957.02
210.596	2978.24
210.67	3000.65
210.744	3055.2
210.818	3094.91
210.892	3126.1
210.966	3135.4
211.041	3163.82
211.115	3177.69
211.189	3218.52
211.263	3253.25
211.337	3282.82
211.411	3313.03
211.485	3330.02
211.559	3362.65
211.633	3389.64
211.707	3388.02
211.781	3422.03
211.855	3416.3
211.929	3435.63
212.003	3452.8
212.077	3499.07
212.151	3541.29
212.225	3586.9
212.299	3615.95
212.373	3646.32
212.447	3686.79
212.52	3758.97
212.594	3812.78
212.668	3873.31
212.742	3909.24
212.816	3957.62
212.89	4003.02
212.964	4059.63
213.038	4114.43
213.112	4183.63
213.186	4258.64
213.26	4302.95
213.333	4325.86
213.407	4400.07
213.481	4477.4
213.555	4558.73
213.629	4620.68
213.703	4682.95
213.777	4754.73
213.85	4814.25
213.924	4926.62
213.998	5006.19
214.072	5081.28
214.146	5146.77
214.219	5224.97
214.293	5307.71
214.367	5392.01
214.441	5492.92
214.515	5576.88
214.588	5651.38
214.662	5716.31
214.736	5791.59
214.81	5894.29
214.883	6002.04
214.957	6084.73
215.031	6167.58
215.105	6245.29
215.178	6321.55
215.252	6411.16
215.326	6490.33
215.4	6571.21
215.473	6618.09
215.547	6698.74
215.621	6785.65
215.694	6891.82
215.768	6971.24
215.842	7057.61
215.915	7144.36
215.989	7221.7
216.063	7308.61
216.136	7411.62
216.21	7504.92
216.284	7615.41
216.357	7713.4
216.431	7798.9
216.504	7904.89
216.578	8030.58
216.652	8139.89
216.725	8249.48
216.799	8361.64
216.873	8460.18
216.946	8572.53
217.02	8669.71
217.093	8766.78
217.167	8846.2
217.24	8931.75
217.314	9028.3
217.387	9120.62
217.461	9220.57
217.535	9323.12
217.608	9411.53
217.682	9503.41
217.755	9622.84
217.829	9712.14
217.902	9804.03
217.976	9904.98
218.049	9993.65
218.123	10063.94
218.196	10165.68
218.27	10251.14
218.343	10325.29
218.417	10423.86
218.49	10507.11
218.563	10616.29
218.637	10707.4
218.71	10821.02
218.784	10916.72
218.857	11015.6
218.931	11111.78
219.004	11191.49
219.077	11290.96
219.151	11382.38
219.224	11469.76
219.298	11543.55
219.371	11635.12
219.444	11706.89
219.518	11789.54
219.591	11879.68
219.665	11986.97
219.738	12064.96
219.811	12137.93
219.885	12234.05
219.958	12321.68
220.031	12407.05
220.105	12489.86
220.178	12578.6
220.251	12646.24
220.325	12729.53
220.398	12812.64
220.471	12895.6
220.544	12987.86
220.618	13054.05
220.691	13132.19
220.764	13210.82
220.838	13290.55
220.911	13365.32
220.984	13462.07
221.057	13537.94
221.131	13610.88
221.204	13659.86
221.277	13757.33
221.35	13862.76
221.424	13928.36
221.497	13995.56
221.57	14062.38
221.643	14132.08
221.716	14201.35
221.79	14265.71
221.863	14329.44
221.936	14394.76
222.009	14452.89
222.082	14513
222.155	14567.23
222.229	14649.37
222.302	14714.02
222.375	14772.29
222.448	14834.82
222.521	14896.42
222.594	14953.25
222.667	15006.28
222.74	15077.14
222.814	15123.02
222.887	15165.49
222.96	15234.37
223.033	15294.72
223.106	15350.01
223.179	15415.37
223.252	15468
223.325	15518.13
223.398	15574.87
223.471	15622.83
223.544	15682.07
223.617	15737.59
223.69	15787.96
223.763	15809.99
223.837	15855.49
223.91	15907.35
223.983	15932.75
224.056	15962.83
224.129	16006.74
224.202	16050.8
224.275	16087.47
224.348	16110.51
224.42	16141.55
224.493	16154.23
224.566	16187.68
224.639	16228.98
224.712	16250.87
224.785	16277.86
224.858	16315.4
224.931	16338.34
225.004	16361.58
225.077	16392.66
225.15	16396.28
225.223	16430.45
225.296	16488
225.369	16502.74
225.442	16530.07
225.514	16568.53
225.587	16599.52
225.66	16639.28
225.733	16669.41
225.806	16703.67
225.879	16739.29
225.952	16766.91
226.025	16815.78
226.097	16866.28
226.17	16892.36
226.243	16898.96
226.316	16928.94
226.389	16960.6
226.461	16993.18
226.534	17031.64
226.607	17052.8
226.68	17100.08
226.753	17135.06
226.825	17147.64
226.898	17196.8
226.971	17218.05
227.044	17249.19
227.117	17280.46
227.189	17311.12
227.262	17355.02
227.335	17375.65
227.407	17396.71
227.48	17420.13
227.553	17434.73
227.626	17430.73
227.698	17450.2
227.771	17485.72
227.844	17494.49
227.916	17515.74
227.989	17527.6
228.062	17540.95
228.134	17580.56
228.207	17596.8
228.28	17600.8
228.352	17607.5
228.425	17623.02
228.498	17646.44
228.57	17646.92
228.643	17676.32
228.716	17679.74
228.788	17676.13
228.861	17680.08
228.934	17712.13
229.006	17724.56
229.079	17741.43
229.151	17755.74
229.224	17766.68
229.296	17783.74
229.369	17824.41
229.442	17854.29
229.514	17860.56
229.587	17887.06
229.659	17883.06
229.732	17896.12
229.804	17922.43
229.877	17972.74
229.949	17995.39
230.022	18024.26
230.094	18048.74
230.167	18069.66
230.239	18075.92
230.312	18090.86
230.384	18138.52
230.457	18141.08
230.529	18154.95
230.602	18161.46
230.674	18175.53
230.747	18190.71
230.819	18219.14
230.892	18201.8
230.964	18209.89
231.037	18221.36
231.109	18221.31
231.181	18241.75
231.254	18246.23
231.326	18248.4
231.399	18238.9
231.471	18232.45
231.544	18214.61
231.616	18223.77
231.688	18222.86
231.761	18222.47
231.833	18225.84
231.905	18197.46
231.978	18201.8
232.05	18210.09
232.122	18219.15
232.195	18216.74
232.267	18225.46
232.339	18210.47
232.412	18229.27
232.484	18221.36
232.556	18216.49
232.629	18247.1
232.701	18250.76
232.773	18256.2
232.846	18257.5
232.918	18253.12
232.99	18259.05
233.062	18266.18
233.135	18259.82
233.207	18244.11
233.279	18251.38
233.351	18252.11
233.424	18250.32
233.496	18237.12
233.568	18247.91
233.64	18228.93
233.713	18225.89
233.785	18215.53
233.857	18219.53
233.929	18200.06
234.001	18207.53
234.074	18219
234.146	18181.17
234.218	18173.12
234.29	18167.29
234.362	18151.39
234.434	18132.88
234.507	18111.01
234.579	18088.4
234.651	18081.27
234.723	18077.08
234.795	18069.27
234.867	18058.14
234.939	18061.47
235.012	18053.61
235.084	18041.76
235.156	18038.04
235.228	18020.02
235.3	18011.97
235.372	18000.46
235.444	18003.4
235.516	17965.04
235.588	17952.89
235.66	17937.95
235.732	17905.28
235.804	17942.14
235.876	17940.22
235.948	17940.22
236.02	17921.08
236.092	17910.63
236.164	17899.35
236.236	17881.52
236.308	17868.6
236.38	17855.35
236.452	17823.21
236.524	17810.73
236.596	17812.12
236.668	17795.3
236.74	17784.94
236.812	17766
236.884	17754.77
236.956	17738.05
237.028	17715.93
237.1	17691.84
237.172	17704.41
237.244	17708.46
237.316	17659.16
237.388	17626.97
237.46	17598.59
237.532	17592.51
237.604	17571.45
237.675	17560.22
237.747	17545.81
237.819	17516.27
237.891	17500.42
237.963	17487.07
238.035	17469.52
238.107	17408.75
238.178	17414.54
238.25	17384.42
238.322	17387.84
238.394	17342.1
238.466	17317.43
238.538	17306.15
238.609	17289.48
238.681	17247.69
238.753	17219.26
238.825	17190.2
238.897	17172.41
238.968	17175.45
239.04	17150.1
239.112	17156.41
239.184	17130.78
239.255	17109.43
239.327	17093.04
239.399	17068.99
239.471	17048.46
239.542	17022.29
239.614	17012.84
239.686	16963.16
239.758	16956.65
239.829	16924.22
239.901	16918.24
239.973	16897.32
240.044	16882.14
240.116	16859.83
240.188	16833.37
240.259	16808.69
240.331	16778.62
240.403	16773.41
240.474	16728.06
240.546	16697.46
240.618	16643.09
240.689	16611.28
240.761	16590.41
240.833	16591.43
240.904	16570.56
240.976	16549.93
241.048	16535.52
241.119	16528.58
241.191	16505.88
241.262	16496.86
241.334	16464.86
241.405	16438.55
241.477	16405.39
241.549	16379.84
241.62	16355.74
241.692	16342.2
241.763	16332.61
241.835	16305.62
241.906	16278.15
241.978	16238.67
242.049	16222.28
242.121	16213.95
242.192	16201.7
242.264	16159.43
242.335	16114.03
242.407	16088.34
242.478	16058.41
242.55	16027.22
242.621	15984.04
242.693	15959.26
242.764	15920.03
242.836	15895.02
242.907	15873.42
242.979	15855.01
243.05	15832.12
243.122	15811.44
243.193	15771.14
243.264	15722.36
243.336	15702.51
243.407	15678.36
243.479	15676.48
243.55	15651.9
243.622	15626.3
243.693	15601.33
243.764	15599.98
243.836	15562
243.907	15536.41
243.978	15512.4
244.05	15492.06
244.121	15452.54
244.192	15435.38
244.264	15402.99
244.335	15376.23
244.407	15334.25
244.478	15315.35
244.549	15285.85
244.62	15250.33
244.692	15225.75
244.763	15206.9
244.834	15171.71
244.906	15137.68
244.977	15111.84
245.048	15101.19
245.119	15067.45
245.191	15033.66
245.262	14976.88
245.333	14971.62
245.405	14948.68
245.476	14919.22
245.547	14894.45
245.618	14882.49
245.689	14856.17
245.761	14831.88
245.832	14809.51
245.903	14799.2
245.974	14777.7
246.045	14751.09
246.117	14741.93
246.188	14703.32
246.259	14673.29
246.33	14649.52
246.401	14618.91
246.473	14575.09
246.544	14540
246.615	14519.71
246.686	14489.87
246.757	14481.53
246.828	14438.05
246.899	14418.77
246.97	14378.42
247.042	14347.42
247.113	14325.92
247.184	14320.62
247.255	14294.49
247.326	14264.85
247.397	14237.08
247.468	14206.9
247.539	14179.86
247.61	14137.68
247.681	14124.81
247.752	14110.83
247.823	14081.81
247.894	14065.13
247.965	14029.79
248.037	14002.03
248.108	13967.56
248.179	13941.91
248.25	13913.91
248.321	13897.66
248.392	13860.49
248.463	13861.07
248.534	13835.33
248.605	13816.96
248.675	13787.46
248.746	13766.39
248.817	13751.98
248.888	13735.35
248.959	13696.4
249.03	13674.13
249.101	13660.2
249.172	13631.9
249.243	13593.24
249.314	13582.1
249.385	13559.93
249.456	13552.55
249.527	13530.23
249.598	13516.49
249.669	13492.05
249.739	13474.65
249.81	13455.41
249.881	13421.48
249.952	13393.47
250.023	13375.05
250.094	13336.39
250.165	13300.81
250.235	13275.6
250.306	13251.02
250.377	13218.91
250.448	13207.63
250.519	13165.6
250.59	13155.42
250.66	13139.32
250.731	13135.61
250.802	13113.2
250.873	13091.65
250.944	13074.53
251.014	13045.37
251.085	13045.03
251.156	13025.36
251.227	13017.99
251.297	13010.9
251.368	12997.65
251.439	12988.05
251.51	12972.72
251.58	12951.42
251.651	12928.04
251.722	12919.99
251.792	12879.44
251.863	12852.93
251.934	12840.45
252.005	12847.39
252.075	12816.97
252.146	12805.16
252.217	12790.02
252.287	12778.41
252.358	12756.42
252.429	12743.94
252.499	12720.94
252.57	12698.48
252.641	12695.15
252.711	12671.1
252.782	12636.83
252.852	12640.78
252.923	12620.68
252.994	12604.53
253.064	12590.07
253.135	12559.26
253.205	12532.41
253.276	12534.87
253.347	12529.19
253.417	12506.1
253.488	12487.01
253.558	12473.41
253.629	12448.97
253.699	12429.59
253.77	12410.12
253.841	12385.49
253.911	12369.44
253.982	12347.07
254.052	12332.85
254.123	12316.51
254.193	12292.79
254.264	12310.24
254.334	12283.39
254.405	12253.12
254.475	12228.15
254.546	12214.61
254.616	12217.21
254.687	12206.32
254.757	12195.09
254.827	12176.67
254.898	12154.79
254.968	12139.8
255.039	12108.95
255.109	12099.65
255.18	12072.22
255.25	12035.25
255.321	12027.63
255.391	12003
255.461	12013.03
255.532	11971.96
255.602	11944.2
255.673	11910.99
255.743	11884.09
255.813	11840.9
255.884	11837.53
255.954	11823.65
256.024	11824.56
256.095	11804.99
256.165	11769.52
256.235	11753.37
256.306	11726.19
256.376	11719.87
256.446	11704.5
256.517	11689.17
256.587	11679.34
256.657	11661.31
256.728	11644.25
256.798	11623.67
256.868	11603.33
256.938	11574.17
257.009	11571.09
257.079	11566.31
257.149	11576.19
257.219	11532
257.29	11525.06
257.36	11484.91
257.43	11477.15
257.5	11430.98
257.571	11408.76
257.641	11407.03
257.711	11378.97
257.781	11371.75
257.852	11366.35
257.922	11328.42
257.992	11310.59
258.062	11294.39
258.132	11290.49
258.202	11275.31
258.273	11258.97
258.343	11256.42
258.413	11228.51
258.483	11206.15
258.553	11166.97
258.623	11135.55
258.693	11127.93
258.764	11123.79
258.834	11123.5
258.904	11108.71
258.974	11088.61
259.044	11069.48
259.114	11054.3
259.184	11037.05
259.254	11018.64
259.324	10974.49
259.394	10971.31
259.464	10975.94
259.535	10949.05
259.605	10927.51
259.675	10901.49
259.745	10891.85
259.815	10863.71
259.885	10846.46
259.955	10851.13
260.025	10834.41
260.095	10818.32
260.165	10799.96
260.235	10792.01
260.305	10770.13
260.375	10735.29
260.445	10747.05
260.515	10740.35
260.585	10737.17
260.655	10729.75
260.725	10717.85
260.795	10718.52
260.865	10719.25
260.934	10688.6
261.004	10681.71
261.074	10656.12
261.144	10666.53
261.214	10660.8
261.284	10643.02
261.354	10638.87
261.424	10621.43
261.494	10620.85
261.564	10605.72
261.634	10607.5
261.703	10583.32
261.773	10568.72
261.843	10568.19
261.913	10543.23
261.983	10521.88
262.053	10510.32
262.123	10488.83
262.192	10462.09
262.262	10446.67
262.332	10418.34
262.402	10416.99
262.472	10400.76
262.541	10373.11
262.611	10362.7
262.681	10338.56
262.751	10333.12
262.821	10311.97
262.89	10275.11
262.96	10271.69
263.03	10279.78
263.1	10266.29
263.169	10249.43
263.239	10244.81
263.309	10247.99
263.379	10241.15
263.448	10229.78
263.518	10212.24
263.588	10203.81
263.657	10216.29
263.727	10216.67
263.797	10204.1
263.867	10190.66
263.936	10169.27
264.006	10176.11
264.076	10159.39
264.145	10145.04
264.215	10122.44
264.285	10122.73
264.354	10101.97
264.424	10080.05
264.494	10050.38
264.563	10030.96
264.633	10034.96
264.702	10022.44
264.772	9982.74
264.842	9968.05
264.911	9961.55
264.981	9934.33
265.05	9917.67
265.12	9896.04
265.19	9886.83
265.259	9883.27
265.329	9873.68
265.398	9860.97
265.468	9867.57
265.537	9853.98
265.607	9846.57
265.676	9852.2
265.746	9841.22
265.815	9841.32
265.885	9825.52
265.955	9801.73
266.024	9782.46
266.094	9746.92
266.163	9747.26
266.232	9751.2
266.302	9735.07
266.371	9717.97
266.441	9705.4
266.51	9699.38
266.58	9675.4
266.649	9650.79
266.719	9645.15
266.788	9635.61
266.858	9642.07
266.927	9609.32
266.996	9596.7
267.066	9586.3
267.135	9554.85
267.205	9548.3
267.274	9539.2
267.343	9534.57
267.413	9525.52
267.482	9528.89
267.552	9538.14
267.621	9505.87
267.69	9479.58
267.76	9466.87
267.829	9459.31
267.898	9450.16
267.968	9427.91
268.037	9427.57
268.106	9422.76
268.176	9397.28
268.245	9379.8
268.314	9358.75
268.384	9360.15
268.453	9350.47
268.522	9340.65
268.592	9342.05
268.661	9322.45
268.73	9310.02
268.799	9293.12
268.869	9304.34
268.938	9277.52
269.007	9254.31
269.076	9250.46
269.146	9252.15
269.215	9248.01
269.284	9258.21
269.353	9248.63
269.422	9237.42
269.492	9224.8
269.561	9187.54
269.63	9185.56
269.699	9172.8
269.768	9169.96
269.838	9160.77
269.907	9161.54
269.976	9142.04
270.045	9114.65
270.114	9112.29
270.183	9096.93
270.253	9091.25
270.322	9060.1
270.391	9049.46
270.46	9053.46
270.529	9054.08
270.598	9050.71
270.667	9036.51
270.736	9008.78
270.806	8996.26
270.875	8999.77
270.944	8986.44
271.013	9011.47
271.082	9002.52
271.151	8993.71
271.22	8960.21
271.289	8941.53
271.358	8925.16
271.427	8919.05
271.496	8915.72
271.565	8901.96
271.634	8901.43
271.703	8917.94
271.772	8921.84
271.841	8913.03
271.91	8892.77
271.979	8883.91
272.048	8859.02
272.117	8862.2
272.186	8849.58
272.255	8855.65
272.324	8850.69
272.393	8845.78
272.462	8820.46
272.531	8808.28
272.6	8798.32
272.669	8809.87
272.738	8804.62
272.807	8798.8
272.876	8781.18
272.945	8800.1
273.013	8804.96
273.082	8805.4
273.151	8770.74
273.22	8760.34
273.289	8754.23
273.358	8761.98
273.427	8752.83
273.496	8753.55
273.564	8745.42
273.633	8747.49
273.702	8724.58
273.771	8715.72
273.84	8712.11
273.909	8718.03
273.977	8718.42
274.046	8712.79
274.115	8715.05
274.184	8699.6
274.253	8689.16
274.322	8700.18
274.39	8671.54
274.459	8651.47
274.528	8628.99
274.597	8623.89
274.665	8620.28
274.734	8628.99
274.803	8617.78
274.872	8604.11
274.94	8587.7
275.009	8638.07
275.078	8628.73
275.147	8630.99
275.215	8624.98
275.284	8630.37
275.353	8618.19
275.421	8596.05
275.49	8609.87
275.559	8599.32
275.627	8594.51
275.696	8591.82
275.765	8586.43
275.833	8585.51
275.902	8586.86
275.971	8594.27
276.039	8603.7
276.108	8612.61
276.177	8608.37
276.245	8603.03
276.314	8600.1
276.383	8611.98
276.451	8551.7
276.52	8552.28
276.588	8563.35
276.657	8566.09
276.725	8558.25
276.794	8557.14
276.863	8570.04
276.931	8550.3
277	8556.8
277.068	8565.66
277.137	8580.53
277.205	8576.2
277.274	8585.29
277.342	8594.05
277.411	8571.58
277.48	8562.29
277.548	8550.07
277.617	8541.79
277.685	8530.34
277.754	8536.93
277.822	8523.99
277.89	8540.88
277.959	8526.98
278.027	8509.65
278.096	8503.06
278.164	8530.69
278.233	8521.78
278.301	8508.26
278.37	8508.5
278.438	8498.25
278.507	8499.41
278.575	8469.96
278.643	8470.24
278.712	8461.15
278.78	8453.55
278.849	8463.74
278.917	8468.17
278.985	8462.59
279.054	8466.05
279.122	8477.27
279.191	8475.05
279.259	8470.63
279.327	8448.68
279.396	8467.69
279.464	8462.49
279.532	8471.06
279.601	8458.83
279.669	8457.43
279.737	8471.34
279.806	8469.9
279.874	8473.89
279.942	8469.7
280.011	8468.5
280.079	8473.03
280.147	8482.99
280.215	8480.15
280.284	8479.67
280.352	8470.09
280.42	8478.17
280.488	8476.78
280.557	8469.71
280.625	8469.56
280.693	8472.45
280.761	8477.21
280.83	8461.43
280.898	8473.84
280.966	8450.75
281.034	8423.8
281.102	8412.25
281.171	8402.62
281.239	8412.3
281.307	8406.09
281.375	8397.91
281.443	8422.45
281.512	8424.28
281.58	8427.7
281.648	8413.31
281.716	8415.57
281.784	8413.6
281.852	8407.05
281.92	8407.54
281.989	8417.11
282.057	8405.71
282.125	8430.88
282.193	8428.38
282.261	8426.31
282.329	8412.3
282.397	8421.35
282.465	8419.04
282.533	8427.46
282.601	8418.51
282.67	8395.7
282.738	8385.02
282.806	8398.88
282.874	8383.29
282.942	8378.47
283.01	8370.05
283.078	8377.56
283.146	8376.02
283.214	8383.72
283.282	8385.83
283.35	8393.82
283.418	8386.94
283.486	8386.27
283.554	8358.12
283.622	8355.37
283.69	8357.68
283.758	8358.5
283.826	8359.27
283.894	8366.15
283.962	8381.89
284.03	8394.68
284.098	8401.9
284.165	8400.94
284.233	8390.79
284.301	8386.5
284.369	8380.78
284.437	8369.71
284.505	8360.67
284.573	8373.32
284.641	8367.11
284.709	8376.88
284.777	8360.42
284.845	8368.03
284.912	8377.84
284.98	8384
285.048	8379.62
285.116	8382.94
285.184	8397.09
285.252	8397.91
285.319	8385.93
285.387	8383.04
285.455	8365.67
285.523	8374.14
285.591	8372.51
285.659	8379.34
285.726	8391.61
285.794	8378.62
285.862	8384.1
285.93	8383.62
285.997	8376.84
286.065	8370.49
286.133	8360.19
286.201	8354.13
286.269	8345.17
286.336	8331.66
286.404	8328.09
286.472	8339.02
286.539	8321.75
286.607	8302.55
286.675	8305.43
286.743	8314.29
286.81	8308.18
286.878	8328.38
286.946	8315.68
287.013	8311.26
287.081	8308.66
287.149	8294.22
287.216	8312.99
287.284	8309.47
287.352	8316.98
287.419	8313.85
287.487	8330.31
287.555	8330.55
287.622	8330.31
287.69	8331.61
287.758	8349.12
287.825	8342.67
287.893	8329.2
287.96	8336.51
288.028	8349.41
288.096	8340.07
288.163	8341.52
288.231	8334.59
288.298	8324.91
288.366	8340.17
288.433	8338.97
288.501	8330.06
288.569	8330.35
288.636	8321.02
288.704	8329.63
288.771	8335.6
288.839	8325.35
288.906	8312.17
288.974	8318.18
289.041	8314.28
289.109	8301.29
289.176	8305.53
289.244	8314.28
289.311	8325.74
289.379	8331.41
289.446	8331.32
289.514	8339.5
289.581	8341.86
289.649	8337.62
289.716	8340.51
289.783	8330.4
289.851	8352.54
289.918	8360.62
289.986	8367.4
290.053	8377.55
290.121	8376.64
290.188	8374.67
290.255	8402
290.323	8402.91
290.39	8401.32
290.458	8409.89
290.525	8424.76
290.592	8416.48
290.66	8411.86
290.727	8403.87
290.794	8416.14
290.862	8415.85
290.929	8420.86
290.996	8414.03
291.064	8425.62
291.131	8437.03
291.198	8450.89
291.266	8448.19
291.333	8445.02
291.4	8452.67
291.468	8468.69
291.535	8463.35
291.602	8465.71
291.669	8456.81
291.737	8464.12
291.804	8461.14
291.871	8475.57
291.938	8484.38
292.006	8516.29
292.073	8532.46
292.14	8549.35
292.207	8539.44
292.275	8543.67
292.342	8551.61
292.409	8578.03
292.476	8595.55
292.543	8589.73
292.611	8589.58
292.678	8607.73
292.745	8626.16
292.812	8633.52
292.879	8625.29
292.946	8630.34
293.014	8642.86
293.081	8652
293.148	8659.99
293.215	8674.04
293.282	8669.13
293.349	8678.66
293.416	8654.74
293.484	8664.37
293.551	8668.6
293.618	8685.01
293.685	8709.22
293.752	8698.39
293.819	8695.75
293.886	8687.32
293.953	8688.29
294.02	8701.09
294.087	8701.33
294.154	8696.52
294.221	8711.25
294.288	8711.3
294.356	8731.85
294.423	8736.42
294.49	8727.13
294.557	8736.9
294.624	8729.1
294.691	8750.81
294.758	8747.3
294.825	8752.59
294.892	8747.54
294.959	8744.79
295.026	8745.08
295.093	8737.67
295.16	8738.68
295.226	8742.92
295.293	8762.75
295.36	8770.5
295.427	8777.91
295.494	8790.09
295.561	8798.75
295.628	8817.96
295.695	8833.7
295.762	8829.66
295.829	8836.54
295.896	8854.74
295.963	8864.85
296.03	8877.41
296.096	8870.77
296.163	8884.87
296.23	8902.73
296.297	8913.66
296.364	8913.08
296.431	8927.47
296.498	8921.65
296.564	8948.99
296.631	8942.87
296.698	8932.62
296.765	8957.12
296.832	8946.72
296.899	8929.35
296.965	8948.12
297.032	8927.03
297.099	8941.91
297.166	8951.15
297.233	8951.78
297.299	8949.76
297.366	8949.18
297.433	8946.1
297.5	8961.98
297.566	8956.25
297.633	8950.04
297.7	8950.72
297.767	8948.36
297.833	8957.56
297.9	8955.58
297.967	8938.25
298.033	8960.45
298.1	8986.54
298.167	8970.08
298.234	8973.49
298.3	8987.4
298.367	8983.17
298.434	8995.83
298.5	8982.88
298.567	8980.9
298.634	8979.56
298.7	8993.61
298.767	8993.85
298.834	9011.38
298.9	9005.74
298.967	8996.17
299.033	9004.93
299.1	9015.33
299.167	9033.62
299.233	9024.71
299.3	9039.49
299.366	9050.7
299.433	9061.35
299.5	9036.07
299.566	9043.1
299.633	9055.9
299.699	9061.58
299.766	9060.14
299.832	9058.45
299.899	9067.31
299.965	9074.53
300.032	9064.52
300.099	9064.62
300.165	9071.46
300.232	9066.5
300.298	9067.12
300.365	9086.47
300.431	9088.02
300.498	9083.97
300.564	9084.31
300.631	9089.99
300.697	9108.72
300.763	9107.18
300.83	9108.57
300.896	9120.23
300.963	9133.08
301.029	9137.51
301.096	9147.57
301.162	9152.19
301.229	9148.73
301.295	9140.83
301.361	9150.8
301.428	9163.8
301.494	9149.45
301.561	9148.1
301.627	9150.51
301.693	9151.33
301.76	9150.32
301.826	9145.69
301.892	9154.36
301.959	9165.24
302.025	9162.16
302.092	9148.63
302.158	9158.69
302.224	9153.39
302.291	9140.93
302.357	9130.62
302.423	9126.72
302.49	9112.9
302.556	9125.95
302.622	9124.6
302.688	9130.53
302.755	9133.7
302.821	9140.64
302.887	9150.12
302.954	9146.12
303.02	9148.92
303.086	9155.8
303.152	9157.44
303.219	9155.03
303.285	9158.64
303.351	9167.07
303.417	9170.44
303.483	9157.3
303.55	9150.94
303.616	9149.98
303.682	9155.18
303.748	9149.31
303.815	9162.16
303.881	9163.65
303.947	9148.73
304.013	9144.68
304.079	9136.98
304.145	9115.89
304.212	9108.14
304.278	9100.49
304.344	9095.53
304.41	9078.87
304.476	9069.44
304.542	9059.81
304.608	9063.32
304.674	9048.11
304.741	9032.51
304.807	9030
304.873	9041.94
304.939	9054.75
305.005	9034.53
305.071	9023.5
305.137	9019.99
305.203	8991.06
305.269	8992.55
305.335	9006.08
305.401	9006.66
305.467	9007.91
305.533	9024.81
305.599	9033.18
305.666	9038.77
305.732	9040.79
305.798	9057.45
305.864	9076.8
305.93	9081.66
305.996	9078.53
306.062	9074.35
306.128	9072.08
306.194	9059.71
306.259	9052.01
306.325	9043.78
306.391	9051.04
306.457	9059.66
306.523	9070.54
306.589	9091.19
306.655	9086.96
306.721	9059.85
306.787	9045.36
306.853	9054.27
306.919	9024.9
306.985	9012.44
307.051	9004.25
307.117	8991.98
307.183	8987.02
307.248	8954.04
307.314	8955.44
307.38	8951.54
307.446	8963.67
307.512	8953.9
307.578	8956.64
307.644	8956.4
307.709	8957.12
307.775	8951.92
307.841	8953.37
307.907	8948.94
307.973	8930.26
308.039	8926.45
308.104	8932.04
308.17	8932.95
308.236	8912.54
308.302	8917.83
308.368	8908.69
308.433	8908.69
308.499	8907.77
308.565	8896.7
308.631	8901.56
308.696	8877.4
308.762	8870.56
308.828	8860.98
308.894	8840.34
308.959	8820.99
309.025	8805.39
309.091	8790.23
309.156	8783.35
309.222	8777.19
309.288	8757.45
309.354	8735.65
309.419	8736.18
309.485	8720.54
309.551	8728.29
309.616	8717.26
309.682	8711.73
309.748	8700.27
309.813	8696.04
309.879	8686.61
309.945	8668.32
310.01	8664.56
310.076	8661.53
310.141	8647.67
310.207	8634.34
310.273	8635.49
310.338	8636.79
310.404	8621.49
310.469	8612.54
310.535	8601.8
310.601	8583.56
310.666	8585.2
310.732	8596.8
310.797	8581.15
310.863	8578.56
310.928	8563.92
310.994	8567.39
311.059	8561.04
311.125	8563.25
311.191	8566.76
311.256	8550.12
311.322	8552.28
311.387	8530.1
311.453	8773.13
311.518	8758.21
311.584	8754.46
311.649	8759.17
311.715	8746.23
311.78	8752.68
311.846	8741.8
311.911	8746.42
311.976	8746.86
312.042	8735.5
312.107	8713.85
312.173	8702.63
312.238	8692.29
312.304	8688
312.369	8668.95
312.434	8658.56
312.5	8649.99
312.565	8617.65
312.631	8624.39
312.696	8612.84
312.761	8614.77
312.827	8368.61
312.892	8398.73
312.958	8390.26
313.023	8386.07
313.088	8382.56
313.154	8365.05
313.219	8358.94
313.284	8343.73
313.35	8336.13
313.415	8324.73
313.48	8325.31
313.546	8324.44
313.611	8328.58
313.676	8319.29
313.741	8313.85
313.807	8318.18
313.872	8316.79
313.937	8322.95
314.003	8332.04
314.068	8336.37
314.133	8338.63
314.198	8321.51
314.264	8300.67
314.329	8287
314.394	8277.28
314.459	8276.18
314.525	8295.18
314.59	8287.68
314.655	8278.44
314.72	8283.92
314.785	8283.3
314.851	8272.81
314.916	8255.49
314.981	8237.74
315.046	8224.94
315.111	8219.51
315.176	8206.71
315.242	8211.09
315.307	8212.15
315.372	8188.91
315.437	8176.54
315.502	8166.39
315.567	8173.61
315.632	8159.22
315.698	8165.62
315.763	8168.56
315.828	8159.46
315.893	8157.15
315.958	8152.54
316.023	8138.16
316.088	8120.55
316.153	8099.15
316.218	8093.66
316.283	8073.37
316.348	8061.44
316.413	8060.86
316.479	8041.53
316.544	8012.1
316.609	7986.89
316.674	7952.65
316.739	7921.82
316.804	7894.85
316.869	7862
316.934	7833.09
316.999	7806.12
317.064	7760
317.129	7713.44
317.194	7683.83
317.259	7634.24
317.324	7587.23
317.389	7549.59
317.454	7517.52
317.518	7486.99
317.583	7463
317.648	7444.54
317.713	7414.02
317.778	7355.28
317.843	7330.67
317.908	7297.99
317.973	7260.2
318.038	7230.89
318.103	7197.49
318.168	7167.94
318.233	7142.47
318.297	7094.22
318.362	7060.01
318.427	7025.75
318.492	7006.1
318.557	6962.87
318.622	6935.96
318.687	6919.96
318.751	6888.7
318.816	6854.06
318.881	6829.32
318.946	6780.76
319.011	6739.21
319.075	6705.2
319.14	6673.52
319.205	6632.27
319.27	6601.1
319.335	6553.81
319.399	6518.23
319.464	6495.57
319.529	6446.41
319.594	6407.42
319.658	6380.35
319.723	6336.24
319.788	6308.3
319.853	6253.77
319.917	6223.54
319.982	6174.25
320.047	6133.7
320.112	6108.26
320.176	6065.22
320.241	6030.23
320.306	5998.52
320.37	5961.58
320.435	5925.21
320.5	5901.57
320.564	5867.37
320.629	5829.14
320.694	5801.85
320.758	5762.62
320.823	5720.04
320.888	5697.12
320.952	5655.93
321.017	5621.83
321.082	5586.36
321.146	5551.93
321.211	5521.59
321.275	5485.55
321.34	5452.24
321.405	5412.03
321.469	5368.66
321.534	5325.91
321.598	5278.24
321.663	5253.46
321.727	5225.28
321.792	5181.44
321.857	5141.44
321.921	5104.79
321.986	5063.94
322.05	5010.89
322.115	4975.35
322.179	4932.59
322.244	4878.07
322.308	4842.68
322.373	4792.32
322.437	4755.6
322.502	4735.29
322.566	4693.12
322.631	4658.71
322.695	4616.88
322.76	4575.59
322.824	4542.53
322.889	4500.72
322.953	4459.3
323.018	4394.62
323.082	4333.54
323.146	4287.2
323.211	4238.71
323.275	4199.4
323.34	4159.62
323.404	4127.55
323.468	4083.52
323.533	4042.56
323.597	4004.15
323.662	3959.51
323.726	3927.11
323.79	3886.01
323.855	3821.66
323.919	3774.18
323.983	3731.94
324.048	3669.31
324.112	3825.62
324.177	3707
324.241	3518.55
324.305	3332.29
324.37	3150.43
324.434	2974.39
324.498	2934.81
324.562	2889.53
324.627	2832.98
324.691	2782.29
324.755	2724.45
324.82	2658.69
324.884	2594
324.948	2529.91
325.012	2442.87
325.077	2336.9
