Data from 20250625_urea_1M_1_MAYP1162681_04-25-06-094.txt Node
Date: Thu Jun 26 04:25:06 BST 2025
User: adleo
Spectrometer: MAYP116268
Trigger mode: 0
Integration Time (sec): 1.000000E0
Scans to average: 1
Electric dark correction enabled: true
Nonlinearity correction enabled: true
Boxcar width: 10
XAxis mode: Wavelengths
Number of Pixels in Spectrum: 2068
>>>>>Begin Spectral Data<<<<<
179.565	1102.15
179.642	1155.02
179.718	1195
179.795	1230.63
179.871	1259.77
179.948	1275.61
180.024	1293.58
180.101	1312.48
180.177	1322.68
180.254	1344.17
180.33	1365.24
180.407	1412.32
180.483	1501.5
180.56	1583.92
180.636	1661.16
180.712	1645.81
180.789	1655.93
180.865	1668.52
180.942	1678.78
181.018	1690.85
181.095	1704.72
181.171	1707.34
181.248	1706.67
181.324	1719.46
181.4	1727.58
181.477	1738.99
181.553	1750.06
181.63	1768.21
181.706	1783.94
181.782	1796.53
181.859	1796.77
181.935	1801.81
182.011	1800.43
182.088	1814.16
182.164	1832.56
182.24	1844.73
182.317	1853.09
182.393	1851.1
182.469	1864.45
182.546	1877.81
182.622	1879.9
182.698	1877.86
182.775	1891.21
182.851	1905.81
182.927	1898.44
183.003	1892.93
183.08	1886.08
183.156	1895.73
183.232	1895.35
183.308	1885.46
183.385	1890.12
183.461	1906.81
183.537	1906.81
183.613	1915.51
183.69	1906.81
183.766	1895.59
183.842	1901.91
183.918	1909.85
183.995	1920.64
184.071	1923.68
184.147	1915.65
184.223	1906.95
184.299	1914.89
184.375	1902.11
184.452	1905.82
184.528	1958.31
184.604	1968.11
184.68	1978.66
184.756	1983.22
184.832	1986.22
184.908	1986.84
184.985	1988.26
185.061	1972.48
185.137	1983.13
185.213	1972.34
185.289	1974
185.365	1968.49
185.441	1966.21
185.517	1977.81
185.593	1975.24
185.669	1972.68
185.745	1982.8
185.822	1998.06
185.898	1993.4
185.974	2002.19
186.05	1998.1
186.126	1962.34
186.202	1955.69
186.278	1953.12
186.354	1946.6
186.43	1954.4
186.506	1955.36
186.582	1954.83
186.658	1960.63
186.734	1942.76
186.81	1945.27
186.886	1949.22
186.962	1959.06
187.038	1955.11
187.114	1944.74
187.19	1950.4
187.266	1940.56
187.341	1942.04
187.417	1935.19
187.493	1933.72
187.569	1937.76
187.645	1930.91
187.721	1920.21
187.797	1926.82
187.873	1929.67
187.949	1922.78
188.025	1913.93
188.101	1919.88
188.176	1922.11
188.252	1919.5
188.328	1926.77
188.404	1926.91
188.48	1920.83
188.556	1913.98
188.632	1916.31
188.707	1917.55
188.783	1915.64
188.859	1912.65
188.935	1900.81
189.011	1909.22
189.086	1903.52
189.162	1898
189.238	1896.15
189.314	1890.54
189.39	1886.64
189.465	1880.89
189.541	1897.06
189.617	1884.6
189.693	1876.85
189.768	1882.23
189.844	1903.58
189.92	1892.08
189.996	1901.21
190.071	1911.05
190.147	1913.29
190.223	1920.28
190.298	1916.42
190.374	1904.59
190.45	1913.71
190.526	1921.84
190.601	1916.9
190.677	1917.75
190.753	1941.68
190.828	1942.73
190.904	1960.46
190.98	1972.45
191.055	1980.25
191.131	1975.77
191.207	1994.46
191.282	2003.58
191.358	1992.7
191.433	1978.47
191.509	1992.16
191.585	1987.12
191.66	1989.02
191.736	1994.06
191.811	1984.22
191.887	1994.78
191.963	2018.13
192.038	2021.88
192.114	2023.6
192.189	2029.06
192.265	2026.12
192.34	2006.66
192.416	2007.85
192.491	1999.43
192.567	2003.9
192.642	2007.37
192.718	2003.09
192.793	1991.54
192.869	1987.35
192.944	1989.16
193.02	1998.43
193.095	2003
193.171	2010.23
193.246	2008.66
193.322	2008.28
193.397	2009.66
193.473	1998.29
193.548	1981.45
193.624	1987.68
193.699	1984.35
193.775	1997.82
193.85	1998.81
193.925	2005.24
194.001	2003.52
194.076	2000.81
194.152	1988.83
194.227	1982.46
194.302	1974.33
194.378	1978.84
194.453	1977.85
194.529	1991.02
194.604	1975.56
194.679	1969.95
194.755	1949.42
194.83	1961.88
194.905	1959.27
194.981	1968.54
195.056	1965.26
195.131	1968.25
195.207	1964.92
195.282	1957.41
195.357	1938.72
195.433	1953.89
195.508	1943.66
195.583	1951.7
195.659	1966.73
195.734	1973.91
195.809	1974.38
195.884	1982.89
195.96	1980.66
196.035	1996.35
196.11	1992.26
196.185	2003.96
196.261	2005.91
196.336	2037.29
196.411	2023.68
196.486	2026.54
196.561	2019.88
196.637	2030.1
196.712	2047.23
196.787	2052.27
196.862	2067.72
196.937	2074.76
197.013	2082.61
197.088	2091.46
197.163	2109.35
197.238	2121.82
197.313	2124.01
197.388	2137.61
197.464	2165.44
197.539	2178.57
197.614	2168.44
197.689	2178.96
197.764	2193.8
197.839	2214.16
197.914	2208.64
197.989	2232.34
198.065	2248.18
198.14	2297.7
198.215	2317.55
198.29	2328.02
198.365	2342.25
198.44	2352.15
198.515	2377.32
198.59	2388.37
198.665	2412.93
198.74	2421.55
198.815	2421.69
198.89	2442.07
198.965	2465.26
199.04	2460.83
199.115	2473.77
199.19	2517.43
199.265	2523.9
199.34	2530.9
199.415	2562.44
199.49	2584.1
199.565	2589.48
199.64	2612.92
199.715	2609.25
199.79	2617.96
199.865	2622.39
199.94	2620.3
200.015	2647.73
200.09	2656.02
200.165	2662.22
200.24	2670.31
200.315	2708.17
200.39	2722.27
200.464	2724.46
200.539	2731.18
200.614	2750.57
200.689	2774.25
200.764	2779.16
200.839	2793.78
200.914	2802.16
200.989	2790.39
201.063	2800.63
201.138	2784.92
201.213	2783.63
201.288	2766.24
201.363	2769.34
201.438	2771.06
201.512	2785.82
201.587	2768.57
201.662	2773.15
201.737	2783.29
201.812	2789.54
201.886	2760.16
201.961	2770.65
202.036	2762.89
202.111	2757.65
202.186	2726.65
202.26	2709.4
202.335	2694.91
202.41	2689.76
202.485	2676.47
202.559	2660.23
202.634	2639.8
202.709	2650.36
202.784	2630.6
202.858	2629.41
202.933	2612.26
203.008	2608.74
203.082	2590.59
203.157	2592.88
203.232	2552.41
203.306	2532.6
203.381	2502.21
203.456	2479.11
203.53	2459.14
203.605	2440.16
203.68	2415.77
203.754	2412.97
203.829	2398.83
203.904	2375.78
203.978	2363.83
204.053	2365.17
204.127	2351.94
204.202	2347.22
204.277	2330.52
204.351	2323.66
204.426	2316.76
204.5	2309.24
204.575	2275.03
204.65	2282.41
204.724	2274.03
204.799	2281.45
204.873	2277.02
204.948	2274.97
205.022	2264.27
205.097	2254.32
205.171	2270.45
205.246	2281.49
205.32	2280.68
205.395	2280.97
205.469	2271.22
205.544	2274.5
205.618	2257.42
205.693	2268.98
205.767	2257.75
205.842	2275.12
205.916	2272.41
205.991	2262.99
206.065	2264.8
206.14	2278.26
206.214	2275.49
206.289	2268.16
206.363	2280.78
206.438	2286.06
206.512	2294.34
206.586	2312.66
206.661	2319.61
206.735	2297.63
206.81	2297.97
206.884	2311.62
206.958	2300.16
207.033	2312.81
207.107	2321.19
207.181	2351.04
207.256	2346.09
207.33	2362.37
207.405	2375.42
207.479	2392.74
207.553	2403.21
207.628	2391.94
207.702	2406.07
207.776	2398.98
207.851	2402.74
207.925	2416.55
207.999	2411.94
208.073	2406.84
208.148	2409.94
208.222	2402.46
208.296	2432.68
208.371	2448.12
208.445	2455.59
208.519	2483.77
208.593	2498.53
208.668	2499.86
208.742	2500.96
208.816	2500.86
208.89	2516.72
208.965	2519.3
209.039	2529.68
209.113	2541.83
209.187	2564.52
209.261	2559.29
209.336	2582.15
209.41	2604.77
209.484	2609.54
209.558	2637.4
209.632	2658.45
209.707	2669.55
209.781	2693.08
209.855	2713.86
209.929	2736.94
210.003	2752.62
210.077	2759.48
210.151	2811.89
210.226	2849.75
210.3	2888
210.374	2923.83
210.448	2940.61
210.522	2959.26
210.596	2978.23
210.67	3004.5
210.744	3065.07
210.818	3116.07
210.892	3153.28
210.966	3167.72
211.041	3200.44
211.115	3217.52
211.189	3265.23
211.263	3313.79
211.337	3349.81
211.411	3391.29
211.485	3420.09
211.559	3468.29
211.633	3509.89
211.707	3522.55
211.781	3572.72
211.855	3585.62
211.929	3625.24
212.003	3660.33
212.077	3723.73
212.151	3791.48
212.225	3860.15
212.299	3911.32
212.373	3964.46
212.447	4030.69
212.52	4127.26
212.594	4205.36
212.668	4296.46
212.742	4357.63
212.816	4430.88
212.89	4504.12
212.964	4591.49
213.038	4681.74
213.112	4780.66
213.186	4887.03
213.26	4962.32
213.333	5015.82
213.407	5120.88
213.481	5228.59
213.555	5346.22
213.629	5450.65
213.703	5547.54
213.777	5659.57
213.85	5751.27
213.924	5898.17
213.998	6010.65
214.072	6123.68
214.146	6233.35
214.219	6349
214.293	6471.87
214.367	6600.26
214.441	6738.36
214.515	6853.5
214.588	6958.13
214.662	7063.78
214.736	7182.18
214.81	7322.41
214.883	7470.78
214.957	7596.61
215.031	7718.42
215.105	7831
215.178	7948.16
215.252	8083.94
215.326	8204.36
215.4	8329.27
215.473	8418.83
215.547	8547.08
215.621	8675.21
215.694	8815.04
215.768	8935.86
215.842	9071.37
215.915	9202.82
215.989	9327.09
216.063	9457.59
216.136	9607.74
216.21	9743.11
216.284	9890.69
216.357	10034.03
216.431	10159.65
216.504	10301.76
216.578	10463.44
216.652	10614.36
216.725	10753.22
216.799	10893.69
216.873	11024.94
216.946	11164.2
217.02	11303.17
217.093	11426.25
217.167	11537.53
217.24	11662.41
217.314	11788.73
217.387	11906.47
217.461	12024.47
217.535	12153.69
217.608	12269.61
217.682	12383.61
217.755	12525.04
217.829	12628.68
217.902	12752.03
217.976	12874.66
218.049	12984.61
218.123	13084.02
218.196	13201.15
218.27	13314.2
218.343	13413.55
218.417	13529
218.49	13640.98
218.563	13767.57
218.637	13883.94
218.71	14015.88
218.784	14131.04
218.857	14250.93
218.931	14361.46
219.004	14461.58
219.077	14581.76
219.151	14693.88
219.224	14795.59
219.298	14883.71
219.371	14992.98
219.444	15066.98
219.518	15165.02
219.591	15266.97
219.665	15390.94
219.738	15487.49
219.811	15567.6
219.885	15672.44
219.958	15772.55
220.031	15856.13
220.105	15946.7
220.178	16033.02
220.251	16114.62
220.325	16199.21
220.398	16284.37
220.471	16374.26
220.544	16468.15
220.618	16527.09
220.691	16603.29
220.764	16680.26
220.838	16765.76
220.911	16846.88
220.984	16943.36
221.057	17023.85
221.131	17093.2
221.204	17126.55
221.277	17205.35
221.35	17304.2
221.424	17364.68
221.497	17421.88
221.57	17494.41
221.643	17560.49
221.716	17633.54
221.79	17693.16
221.863	17745.01
221.936	17802.7
222.009	17847.81
222.082	17903.76
222.155	17966.36
222.229	18028.23
222.302	18085.25
222.375	18123.22
222.448	18170.11
222.521	18210.25
222.594	18246.73
222.667	18285.09
222.74	18343.16
222.814	18389.04
222.887	18433.76
222.96	18497.42
223.033	18554.24
223.106	18594.28
223.179	18629.8
223.252	18665.41
223.325	18700.11
223.398	18741.74
223.471	18778.27
223.544	18822.94
223.617	18856.39
223.69	18885.88
223.763	18911.47
223.837	18952.72
223.91	18994.79
223.983	19010.11
224.056	19043.36
224.129	19087.02
224.202	19126.68
224.275	19156.85
224.348	19169.52
224.42	19176.94
224.493	19182
224.566	19192.94
224.639	19222.72
224.712	19241.18
224.785	19258.38
224.858	19271.78
224.931	19281.23
225.004	19285.03
225.077	19304.94
225.15	19305.32
225.223	19335.34
225.296	19369.7
225.369	19368.21
225.442	19375.05
225.514	19402.57
225.587	19414.91
225.66	19430.04
225.733	19451.58
225.806	19465.31
225.879	19480.93
225.952	19484.2
226.025	19504.2
226.097	19540.78
226.17	19556.68
226.243	19551.33
226.316	19561.69
226.389	19575.09
226.461	19597.74
226.534	19614.99
226.607	19620.05
226.68	19657.11
226.753	19658.12
226.825	19647.86
226.898	19679.08
226.971	19694.36
227.044	19713.4
227.117	19732.38
227.189	19755.13
227.262	19766.31
227.335	19782.74
227.407	19790.98
227.48	19802.4
227.553	19811.61
227.626	19802.69
227.698	19794.89
227.771	19812.28
227.844	19810.26
227.916	19818.35
227.989	19817.82
228.062	19829.97
228.134	19859.36
228.207	19856.76
228.28	19851.32
228.352	19858.69
228.425	19854.74
228.498	19855.94
228.57	19836.28
228.643	19845.97
228.716	19838.31
228.788	19826.98
228.861	19819.08
228.934	19829.29
229.006	19828.81
229.079	19818.4
229.151	19815.41
229.224	19802.5
229.296	19805.78
229.369	19826.64
229.442	19846.93
229.514	19830.6
229.587	19831.03
229.659	19802.31
229.732	19800.57
229.804	19810.6
229.877	19834.02
229.949	19839.66
230.022	19859.22
230.094	19856.47
230.167	19849.39
230.239	19837.54
230.312	19832.09
230.384	19849.44
230.457	19845.2
230.529	19851.22
230.602	19848.19
230.674	19848.52
230.747	19863.37
230.819	19867.22
230.892	19842.84
230.964	19832.57
231.037	19840.81
231.109	19836.23
231.181	19841.87
231.254	19819.99
231.326	19807.7
231.399	19790.16
231.471	19772.04
231.544	19743.13
231.616	19750.55
231.688	19734.89
231.761	19712.91
231.833	19712.67
231.905	19678.36
231.978	19669.2
232.05	19649.25
232.122	19645.11
232.195	19625.35
232.267	19627.18
232.339	19608.39
232.412	19604.58
232.484	19585.59
232.556	19568.2
232.629	19576.25
232.701	19578.8
232.773	19582.94
232.846	19563.67
232.918	19549.79
232.99	19542.9
233.062	19539.77
233.135	19526.37
233.207	19523.04
233.279	19521.41
233.351	19510.76
233.424	19497.5
233.496	19468.64
233.568	19475.38
233.64	19440.35
233.713	19426.57
233.785	19410.76
233.857	19398.28
233.929	19375.49
234.001	19371.39
234.074	19362.33
234.146	19320.79
234.218	19291.3
234.29	19263.59
234.362	19243.06
234.434	19211.93
234.507	19177.47
234.579	19139.21
234.651	19115.12
234.723	19097
234.795	19080.81
234.867	19050.11
234.939	19044.18
235.012	19025.1
235.084	18998.79
235.156	18986.59
235.228	18957.49
235.3	18926.89
235.372	18905.68
235.444	18892.24
235.516	18849.69
235.588	18836.15
235.66	18819.42
235.732	18788.49
235.804	18811.33
235.876	18799.04
235.948	18793.11
236.02	18775.23
236.092	18748.49
236.164	18723.72
236.236	18689.26
236.308	18661.7
236.38	18645.75
236.452	18611.39
236.524	18600.5
236.596	18597.41
236.668	18592.02
236.74	18563.54
236.812	18539.3
236.884	18522.38
236.956	18500.36
237.028	18475.54
237.1	18445.81
237.172	18439.74
237.244	18429.86
237.316	18378.73
237.388	18343.84
237.46	18305.82
237.532	18290.2
237.604	18267.65
237.675	18257.34
237.747	18237.29
237.819	18207.02
237.891	18180.81
237.963	18143.32
238.035	18104.38
238.107	18048.96
238.178	18025.92
238.25	18003.47
238.322	18005.88
238.394	17960.19
238.466	17923.66
238.538	17905.16
238.609	17877.54
238.681	17831.52
238.753	17798.46
238.825	17773.84
238.897	17753.93
238.968	17739.09
239.04	17712.78
239.112	17720.92
239.184	17686.75
239.255	17656.2
239.327	17633.26
239.399	17601.55
239.471	17587.38
239.542	17564.44
239.614	17548.87
239.686	17497.16
239.758	17484.01
239.829	17434.75
239.901	17426.56
239.973	17407.86
240.044	17376.34
240.116	17338.08
240.188	17302.13
240.259	17274.37
240.331	17236.01
240.403	17209.64
240.474	17174.32
240.546	17125.93
240.618	17068.82
240.689	17032.87
240.761	17014.03
240.833	17005.54
240.904	16982.99
240.976	16955.9
241.048	16925.3
241.119	16900.96
241.191	16878.5
241.262	16862.55
241.334	16830.31
241.405	16790.59
241.477	16746.93
241.549	16713.19
241.62	16693.82
241.692	16679.07
241.763	16659.45
241.835	16635.79
241.906	16612.46
241.978	16571.59
242.049	16558.15
242.121	16543.4
242.192	16533.47
242.264	16485.9
242.335	16436.16
242.407	16416.06
242.478	16385.02
242.55	16363.82
242.621	16325.98
242.693	16294.27
242.764	16261.06
242.836	16233.3
242.907	16206.84
242.979	16190.31
243.05	16174.54
243.122	16148.47
243.193	16118.15
243.264	16074.29
243.336	16043.06
243.407	16020.41
243.479	16015.97
243.55	15994.81
243.622	15961.17
243.693	15925.26
243.764	15918.37
243.836	15884.73
243.907	15850.65
243.978	15811.37
244.05	15789.34
244.121	15746.63
244.192	15725.91
244.264	15675.73
244.335	15651.34
244.407	15609.79
244.478	15585.55
244.549	15552.24
244.62	15511.36
244.692	15476.23
244.763	15454.15
244.834	15420.65
244.906	15384.98
244.977	15351.24
245.048	15335.14
245.119	15302.94
245.191	15265.1
245.262	15203.21
245.333	15182.24
245.405	15151.49
245.476	15140.89
245.547	15124.3
245.618	15110.57
245.689	15085.74
245.761	15064.77
245.832	15032.04
245.903	15017
245.974	14991.94
246.045	14970.73
246.117	14963.4
246.188	14927.73
246.259	14886.81
246.33	14853.93
246.401	14825.2
246.473	14787.17
246.544	14747.74
246.615	14727.06
246.686	14695.92
246.757	14696.69
246.828	14654.65
246.899	14642.94
246.97	14589.39
247.042	14547.69
247.113	14529.23
247.184	14522.96
247.255	14502.81
247.326	14480.68
247.397	14456.44
247.468	14428.77
247.539	14389
247.61	14347.45
247.681	14332.79
247.752	14320.74
247.823	14290.66
247.894	14268.2
247.965	14235.85
248.037	14213
248.108	14183.59
248.179	14166
248.25	14131.15
248.321	14121.22
248.392	14087.95
248.463	14094.8
248.534	14068.91
248.605	14045.73
248.675	14018.15
248.746	13990.53
248.817	13967.92
248.888	13944.69
248.959	13902.36
249.03	13890.65
249.101	13875.17
249.172	13841.96
249.243	13801.46
249.314	13796.4
249.385	13775.63
249.456	13753.02
249.527	13727.37
249.598	13700.71
249.669	13677.38
249.739	13673.09
249.81	13660.03
249.881	13620.06
249.952	13596.59
250.023	13572.1
250.094	13537.44
250.165	13498.58
250.235	13468.69
250.306	13453.03
250.377	13421.98
250.448	13411.52
250.519	13375.7
250.59	13364.13
250.66	13337.67
250.731	13337.33
250.802	13317.18
250.873	13295.49
250.944	13277.75
251.014	13248.29
251.085	13252.3
251.156	13231.33
251.227	13215.18
251.297	13199.46
251.368	13187.36
251.439	13171.21
251.51	13160.75
251.58	13131.39
251.651	13109.99
251.722	13113.32
251.792	13070.8
251.863	13044.91
251.934	13044.86
252.005	13049.54
252.075	13024.42
252.146	13015.6
252.217	13005.53
252.287	12983.3
252.358	12959.54
252.429	12954.72
252.499	12925.02
252.57	12906.08
252.641	12898.56
252.711	12875.52
252.782	12839.84
252.852	12845.53
252.923	12823.79
252.994	12800.31
253.064	12796.17
253.135	12765.66
253.205	12733.55
253.276	12736.64
253.347	12738.32
253.417	12699.81
253.488	12669.87
253.558	12648.81
253.629	12633.33
253.699	12606.39
253.77	12596.6
253.841	12579.82
253.911	12563.15
253.982	12552.59
254.052	12538.42
254.123	12520.72
254.193	12496.91
254.264	12516.87
254.334	12482.55
254.405	12451.55
254.475	12420.85
254.546	12393.9
254.616	12388.79
254.687	12372.74
254.757	12350.37
254.827	12327.76
254.898	12318.75
254.968	12290.94
255.039	12266.45
255.109	12247.56
255.18	12219.98
255.25	12174.91
255.321	12158.29
255.391	12129.36
255.461	12128.74
255.532	12087.57
255.602	12061.78
255.673	12026.84
255.743	11995.99
255.813	11952.85
255.884	11947.64
255.954	11946.82
256.024	11951.02
256.095	11939.45
256.165	11904.98
256.235	11902.04
256.306	11872.93
256.376	11855.82
256.446	11860.5
256.517	11848.73
256.587	11849.8
256.657	11840.69
256.728	11832.15
256.798	11817.55
256.868	11792.2
256.938	11767.09
257.009	11756.72
257.079	11743.52
257.149	11753.59
257.219	11721.34
257.29	11714.64
257.36	11674.11
257.43	11658.54
257.5	11616.08
257.571	11588.17
257.641	11580.61
257.711	11543.45
257.781	11536.22
257.852	11528.41
257.922	11483.58
257.992	11465.41
258.062	11443.63
258.132	11437.41
258.202	11413.84
258.273	11399.34
258.343	11402.61
258.413	11376.06
258.483	11357.02
258.553	11326.95
258.623	11297.55
258.693	11275.77
258.764	11283.09
258.834	11286.32
258.904	11265.79
258.974	11241.89
259.044	11225.07
259.114	11220.39
259.184	11207.04
259.254	11184.54
259.324	11141.36
259.394	11139.09
259.464	11135.14
259.535	11111.04
259.605	11080.78
259.675	11058.03
259.745	11042.08
259.815	11013.41
259.885	10994.13
259.955	11007
260.025	10986.38
260.095	10971.58
260.165	10966.86
260.235	10958.62
260.305	10935.1
260.375	10916.65
260.445	10927.92
260.515	10928.07
260.585	10921.71
260.655	10906.28
260.725	10901.51
260.795	10904.02
260.865	10903.54
260.934	10878.62
261.004	10868.31
261.074	10852.03
261.144	10854.29
261.214	10849.76
261.284	10835.4
261.354	10833.71
261.424	10800.03
261.494	10802.15
261.564	10786.01
261.634	10779.84
261.703	10744.13
261.773	10731.65
261.843	10717.29
261.913	10695.32
261.983	10664.48
262.053	10646.56
262.123	10629.84
262.192	10603.38
262.262	10591.58
262.332	10550.91
262.402	10541.9
262.472	10528.94
262.541	10496.57
262.611	10489.82
262.681	10465.06
262.751	10457.59
262.821	10433.02
262.89	10406.76
262.96	10395.77
263.03	10401.17
263.1	10388.35
263.169	10373.32
263.239	10365.37
263.309	10367.97
263.379	10358.91
263.448	10347.3
263.518	10340.61
263.588	10329.91
263.657	10333.19
263.727	10330.87
263.797	10326.88
263.867	10310.69
263.936	10285.78
264.006	10293.83
264.076	10276.67
264.145	10262.75
264.215	10241.84
264.285	10245.41
264.354	10222.96
264.424	10210.15
264.494	10177.34
264.563	10156.57
264.633	10164.42
264.702	10157.87
264.772	10131.76
264.842	10113.12
264.911	10099.15
264.981	10067.74
265.05	10047.75
265.12	10031.27
265.19	10019.81
265.259	10014.41
265.329	10011.14
265.398	10000.88
265.468	10003.57
265.537	9994.32
265.607	9986.86
265.676	9986.28
265.746	9969.76
265.815	9962.92
265.885	9944.52
265.955	9922.46
266.024	9905.26
266.094	9867.02
266.163	9865.57
266.232	9864.37
266.302	9853.72
266.371	9849.87
266.441	9838.94
266.51	9842.45
266.58	9823.04
266.649	9799.54
266.719	9801.56
266.788	9791.49
266.858	9794.53
266.927	9760.47
266.996	9738.66
267.066	9732.01
267.135	9709.61
267.205	9705.14
267.274	9698.06
267.343	9694.54
267.413	9687.8
267.482	9688.57
267.552	9697.43
267.621	9666.36
267.69	9634.14
267.76	9621.72
267.829	9612.76
267.898	9598.22
267.968	9572.12
268.037	9564.65
268.106	9565.52
268.176	9533.39
268.245	9514.47
268.314	9498.53
268.384	9504.21
268.453	9504.55
268.522	9488.94
268.592	9488.22
268.661	9468.72
268.73	9462.17
268.799	9443.24
268.869	9447.86
268.938	9417.62
269.007	9395.52
269.076	9389.02
269.146	9386.32
269.215	9374.43
269.284	9372.21
269.353	9355.94
269.422	9341.83
269.492	9324.31
269.561	9284.87
269.63	9282.94
269.699	9268.55
269.768	9256.51
269.838	9244.62
269.907	9237.97
269.976	9215.44
270.045	9188.57
270.114	9184.38
270.183	9171.67
270.253	9164.93
270.322	9136.62
270.391	9125.59
270.46	9124.15
270.529	9121.41
270.598	9126.56
270.667	9118.71
270.736	9099.79
270.806	9100.51
270.875	9103.98
270.944	9097.96
271.013	9114.86
271.082	9108.6
271.151	9106.43
271.22	9080.68
271.289	9065.13
271.358	9048.76
271.427	9048.61
271.496	9036.53
271.565	9023.24
271.634	9014.14
271.703	9040.77
271.772	9044.09
271.841	9036.1
271.91	9009.92
271.979	9000.87
272.048	8975.83
272.117	8975.73
272.186	8959.32
272.255	8962.64
272.324	8958.07
272.393	8951.62
272.462	8934.86
272.531	8924.46
272.6	8907.33
272.669	8914.07
272.738	8905.31
272.807	8901.6
272.876	8879.89
272.945	8905.69
273.013	8905.07
273.082	8903.19
273.151	8857.6
273.22	8848.69
273.289	8836.42
273.358	8859.86
273.427	8844.75
273.496	8847.25
273.564	8840.08
273.633	8840.41
273.702	8821.64
273.771	8815.86
273.84	8816.97
273.909	8818.32
273.977	8816.39
274.046	8813.07
274.115	8816.3
274.184	8803.06
274.253	8799.45
274.322	8802.68
274.39	8776.59
274.459	8763.2
274.528	8742.08
274.597	8737.46
274.665	8735.24
274.734	8746.41
274.803	8726.67
274.872	8719.07
274.94	8705.44
275.009	8754.13
275.078	8748.16
275.147	8743.88
275.215	8734.2
275.284	8738.73
275.353	8724.62
275.421	8700.03
275.49	8706.53
275.559	8690.6
275.627	8681.36
275.696	8670.58
275.765	8673.46
275.833	8661.24
275.902	8660.09
275.971	8669.71
276.039	8679.1
276.108	8686.41
276.177	8683.81
276.245	8679.67
276.314	8675.68
276.383	8679.63
276.451	8623.77
276.52	8620.6
276.588	8627.86
276.657	8633.49
276.725	8623.43
276.794	8622.57
276.863	8636.19
276.931	8620.74
277	8625.65
277.068	8636.62
277.137	8651.63
277.205	8653.66
277.274	8664.15
277.342	8671.13
277.411	8648.32
277.48	8635.32
277.548	8622.42
277.617	8623.53
277.685	8617.95
277.754	8623.63
277.822	8610.54
277.89	8619.06
277.959	8611.55
278.027	8597.11
278.096	8583.2
278.164	8600.15
278.233	8592.59
278.301	8583.11
278.37	8586.24
278.438	8579.31
278.507	8581.33
278.575	8558.85
278.643	8552.31
278.712	8540.62
278.78	8534.84
278.849	8547.98
278.917	8557.5
278.985	8555.34
279.054	8555.96
279.122	8559.43
279.191	8555.92
279.259	8552.31
279.327	8531.9
279.396	8547.54
279.464	8542.63
279.532	8558.61
279.601	8558.03
279.669	8555.92
279.737	8566.98
279.806	8571.03
279.874	8576.27
279.942	8575.41
280.011	8574.25
280.079	8582
280.147	8597.88
280.215	8591.05
280.284	8585.42
280.352	8575.6
280.42	8579.55
280.488	8572.71
280.557	8563.33
280.625	8563.67
280.693	8570.59
280.761	8573.14
280.83	8557.26
280.898	8567.9
280.966	8544.08
281.034	8512.12
281.102	8496.44
281.171	8489.99
281.239	8493.4
281.307	8483.78
281.375	8472.18
281.443	8489.56
281.512	8482.58
281.58	8483.97
281.648	8475.31
281.716	8480.99
281.784	8481.42
281.852	8470.88
281.92	8470.88
281.989	8482.1
282.057	8467.76
282.125	8486.62
282.193	8481.28
282.261	8476.33
282.329	8468.63
282.397	8468.39
282.465	8472.57
282.533	8485.8
282.601	8475.17
282.67	8454.62
282.738	8452.84
282.806	8461.84
282.874	8448.07
282.942	8447.88
283.01	8443.36
283.078	8440.9
283.146	8432.87
283.214	8440.38
283.282	8444.22
283.35	8450.77
283.418	8448.99
283.486	8450.48
283.554	8425.36
283.622	8426.47
283.69	8431.13
283.758	8424.73
283.826	8433.54
283.894	8442.97
283.962	8464.15
284.03	8480.46
284.098	8479.16
284.165	8470.12
284.233	8467.23
284.301	8459
284.369	8456.11
284.437	8447.69
284.505	8453.95
284.573	8464.82
284.641	8452.02
284.709	8459.62
284.777	8439.8
284.845	8443.74
284.912	8449.76
284.98	8456.5
285.048	8447.83
285.116	8448.65
285.184	8464.1
285.252	8462.22
285.319	8444.52
285.387	8433.11
285.455	8412.75
285.523	8421.22
285.591	8420.4
285.659	8419.39
285.726	8433.01
285.794	8412.85
285.862	8409.58
285.93	8400.87
285.997	8396.06
286.065	8386.44
286.133	8373.3
286.201	8377.1
286.269	8361.7
286.336	8355.54
286.404	8346.93
286.472	8360.02
286.539	8337.17
286.607	8320.52
286.675	8320.76
286.743	8326.15
286.81	8323.16
286.878	8335.53
286.946	8326.15
287.013	8323.45
287.081	8324.56
287.149	8311.47
287.216	8334.32
287.284	8327.35
287.352	8334.32
287.419	8330.09
287.487	8344.19
287.555	8348.04
287.622	8342.89
287.69	8346.5
287.758	8358.09
287.825	8351.17
287.893	8339.18
287.96	8348.61
288.028	8356.41
288.096	8362.57
288.163	8368.1
288.231	8355.3
288.298	8350.06
288.366	8370.12
288.433	8372
288.501	8367.86
288.569	8373.68
288.636	8370.46
288.704	8385.76
288.771	8387.83
288.839	8384.99
288.906	8378.11
288.974	8389.56
289.041	8389.66
289.109	8380.37
289.176	8389.81
289.244	8396.93
289.311	8409.58
289.379	8422.57
289.446	8427.34
289.514	8418.77
289.581	8415.16
289.649	8415.88
289.716	8417.62
289.783	8406.4
289.851	8416.94
289.918	8411.74
289.986	8416.41
290.053	8414.58
290.121	8417.04
290.188	8420.21
290.255	8441.96
290.323	8435.8
290.39	8427.91
290.458	8430.94
290.525	8451.68
290.592	8434.26
290.66	8439.94
290.727	8428.97
290.794	8437.97
290.862	8433.3
290.929	8439.17
290.996	8438.4
291.064	8447.06
291.131	8459.19
291.198	8468.24
291.266	8468.14
291.333	8473.62
291.4	8480.55
291.468	8495.95
291.535	8484.16
291.602	8490.32
291.669	8482.53
291.737	8493.26
291.804	8494.03
291.871	8506.54
291.938	8509.81
292.006	8546.1
292.073	8551.54
292.14	8564.82
292.207	8556.5
292.275	8561.84
292.342	8573.87
292.409	8598.12
292.476	8621.8
292.543	8613.48
292.611	8609.15
292.678	8623.92
292.745	8646.73
292.812	8655.35
292.879	8651.79
292.946	8660.35
293.014	8669.88
293.081	8680.28
293.148	8692.26
293.215	8704.39
293.282	8702.46
293.349	8709.44
293.416	8688.65
293.484	8703.38
293.551	8713.48
293.618	8731.19
293.685	8750.98
293.752	8738.8
293.819	8740.68
293.886	8730.81
293.953	8739.66
294.02	8757.76
294.087	8770.85
294.154	8759.93
294.221	8770.81
294.288	8769.7
294.356	8782.79
294.423	8783.9
294.49	8779.47
294.557	8791.55
294.624	8785.78
294.691	8805.37
294.758	8803.92
294.825	8809.31
294.892	8802.19
294.959	8801.23
295.026	8804.16
295.093	8800.17
295.16	8808.16
295.226	8802.62
295.293	8821.93
295.36	8820.63
295.427	8822.74
295.494	8828.81
295.561	8843.92
295.628	8868.53
295.695	8888.26
295.762	8886.92
295.829	8899.67
295.896	8908
295.963	8908.82
296.03	8920.52
296.096	8927.35
296.163	8933.66
296.23	8949.26
296.297	8958.45
296.364	8958.79
296.431	8964.71
296.498	8960.61
296.564	8981.27
296.631	8991.57
296.698	8974.62
296.765	8997.73
296.832	8989.4
296.899	8973.13
296.965	8979.34
297.032	8950.64
297.099	8958.2
297.166	8969.61
297.233	8962.92
297.299	8955.75
297.366	8960.32
297.433	8955.22
297.5	8958.01
297.566	8963.21
297.633	8956.81
297.7	8957.72
297.767	8953.44
297.833	8959.02
297.9	8964.03
297.967	8948.72
298.033	8952.04
298.1	8982.13
298.167	8973.56
298.234	8977.08
298.3	8981.94
298.367	8982.32
298.434	8990.17
298.5	8979.1
298.567	8976.98
298.634	8973.66
298.7	8990.7
298.767	8992.67
298.834	9006.78
298.9	9002.78
298.967	8995.56
299.033	9007.79
299.1	9019.77
299.167	9035.27
299.233	9033.16
299.3	9043.75
299.366	9052.41
299.433	9071.05
299.5	9039.7
299.566	9045.43
299.633	9063.49
299.699	9077.45
299.766	9073.26
299.832	9076.15
299.899	9086.88
299.965	9095.31
300.032	9091.84
300.099	9097.19
300.165	9097.57
300.232	9093.24
300.298	9090.16
300.365	9099.4
300.431	9097.19
300.498	9094.01
300.564	9101.33
300.631	9110.91
300.697	9115.53
300.763	9119.96
300.83	9118.56
300.896	9133.15
300.963	9135.75
301.029	9142.25
301.096	9147.31
301.162	9160.69
301.229	9153.81
301.295	9142.59
301.361	9145.67
301.428	9150
301.494	9136.33
301.561	9135.61
301.627	9138.69
301.693	9146.58
301.76	9149.66
301.826	9139.22
301.892	9146.44
301.959	9149.42
302.025	9147.45
302.092	9141.19
302.158	9142.97
302.224	9133.44
302.291	9127.13
302.357	9120.83
302.423	9108.79
302.49	9098.53
302.556	9097.76
302.622	9100.94
302.688	9111.29
302.755	9118.56
302.821	9125.78
302.887	9137.38
302.954	9135.03
303.02	9139.6
303.086	9141.67
303.152	9134.88
303.219	9135.65
303.285	9140.42
303.351	9147.5
303.417	9136.42
303.483	9135.41
303.55	9129.83
303.616	9127.23
303.682	9128.53
303.748	9124.53
303.815	9137.87
303.881	9142.15
303.947	9135.7
304.013	9134.07
304.079	9122.42
304.145	9094.73
304.212	9089.73
304.278	9080.77
304.344	9079.47
304.41	9070.71
304.476	9056.94
304.542	9051.69
304.608	9057.57
304.674	9039.85
304.741	9029.16
304.807	9033.2
304.873	9033.01
304.939	9046.83
305.005	9028.01
305.071	9022.28
305.137	9023.62
305.203	8996.62
305.269	8995.65
305.335	9007.45
305.401	9002.25
305.467	9000.9
305.533	9012.07
305.599	9015.15
305.666	9019.63
305.732	9015.63
305.798	9021.75
305.864	9046.73
305.93	9051.11
305.996	9044.76
306.062	9051.98
306.128	9040.48
306.194	9029.64
306.259	9027.62
306.325	9015.06
306.391	9026.51
306.457	9033.78
306.523	9035.8
306.589	9060.69
306.655	9051.02
306.721	9029.06
306.787	9020.59
306.853	9030.46
306.919	9021.12
306.985	9021.07
307.051	9012.26
307.117	9007.55
307.183	8999.7
307.248	8964.46
307.314	8965.71
307.38	8970.57
307.446	8970.14
307.512	8968.98
307.578	8970.77
307.644	8964.7
307.709	8968.74
307.775	8958.97
307.841	8953.2
307.907	8947.37
307.973	8926.76
308.039	8927.68
308.104	8925.08
308.17	8925.08
308.236	8913.77
308.302	8910.54
308.368	8891.82
308.433	8888.45
308.499	8877.28
308.565	8868.76
308.631	8877.14
308.696	8857.11
308.762	8843.15
308.828	8837.18
308.894	8822.36
308.959	8806.47
309.025	8798.96
309.091	8790.11
309.156	8782.45
309.222	8779.9
309.288	8767
309.354	8742.7
309.419	8739.38
309.485	8726.43
309.551	8730.71
309.616	8708.38
309.682	8702.03
309.748	8697.89
309.813	8690.38
309.879	8688.55
309.945	8672.29
310.01	8665.07
310.076	8664.3
310.141	8652.31
310.207	8637.73
310.273	8633.25
310.338	8637.78
310.404	8613.47
310.469	8596.29
310.535	8591.19
310.601	8568.72
310.666	8573.14
310.732	8581.85
310.797	8564.38
310.863	8558.9
310.928	8542.63
310.994	8547.78
311.059	8545.56
311.125	8538.92
311.191	8548.26
311.256	8535.99
311.322	8539.6
311.387	8519.53
311.453	8848.71
311.518	8826.68
311.584	8823.89
311.649	8827.16
311.715	8810.08
311.78	8816.81
311.846	8809.69
311.911	8808.97
311.976	8810.75
312.042	8792.17
312.107	8779.76
312.173	8776.25
312.238	8770.09
312.304	8768.4
312.369	8762.63
312.434	8749.97
312.5	8735.87
312.565	8702.38
312.631	8695.94
312.696	8688.04
312.761	8685.74
312.827	8349.43
312.892	8385.76
312.958	8373.73
313.023	8366.13
313.088	8357.95
313.154	8340.39
313.219	8329.71
313.284	8322.93
313.35	8316.14
313.415	8303.87
313.48	8294.78
313.546	8293.1
313.611	8297.67
313.676	8288.24
313.741	8278.52
313.807	8286.65
313.872	8295.5
313.937	8302.43
314.003	8320.14
314.068	8318.36
314.133	8323.36
314.198	8310.61
314.264	8284.72
314.329	8280.63
314.394	8273.03
314.459	8277.79
314.525	8295.3
314.59	8290.54
314.655	8275.72
314.72	8281.4
314.785	8286.45
314.851	8279.52
314.916	8259.12
314.981	8246.57
315.046	8233.43
315.111	8220.44
315.176	8203.6
315.242	8204.57
315.307	8202.4
315.372	8178.68
315.437	8170.94
315.502	8156.36
315.567	8159.58
315.632	8146.64
315.698	8140.15
315.763	8135.58
315.828	8123.65
315.893	8117.39
315.958	8111.52
316.023	8107.82
316.088	8084.83
316.153	8061.5
316.218	8055.68
316.283	8038.32
316.348	8020.09
316.413	8019.22
316.479	8010.33
316.544	7981.04
316.609	7948.77
316.674	7915.05
316.739	7888.6
316.804	7859.99
316.869	7830.99
316.934	7806.85
316.999	7778.43
317.064	7730.88
317.129	7690.92
317.194	7655.48
317.259	7610.81
317.324	7566.39
317.389	7522.45
317.454	7490.14
317.518	7460.63
317.583	7437.98
317.648	7416.59
317.713	7386.98
317.778	7331.99
317.843	7305.31
317.908	7267.78
317.973	7233.17
318.038	7205.78
318.103	7174.45
318.168	7144.17
318.233	7118.27
318.297	7062.96
318.362	7031.25
318.427	7004.78
318.492	6985.99
318.557	6949.24
318.622	6920.7
318.687	6899.81
318.751	6863.17
318.816	6829.25
318.881	6800.72
318.946	6747.65
319.011	6714.12
319.075	6675.03
319.14	6643.91
319.205	6591.9
319.27	6565.21
319.335	6526.18
319.399	6489.49
319.464	6455.89
319.529	6407.11
319.594	6368.17
319.658	6343.79
319.723	6303.28
319.788	6271.51
319.853	6217.55
319.917	6185.64
319.982	6139.19
320.047	6105.21
320.112	6084.82
320.176	6038.18
320.241	6008.05
320.306	5980.41
320.37	5938.48
320.435	5907.44
320.5	5880.29
320.564	5846.91
320.629	5808.26
320.694	5783.61
320.758	5744.23
320.823	5704.77
320.888	5682.28
320.952	5641.48
321.017	5601.1
321.082	5564.14
321.146	5533.56
321.211	5504.99
321.275	5464.73
321.34	5426.54
321.405	5383.79
321.469	5336.43
321.534	5302.66
321.598	5248.95
321.663	5219.9
321.727	5187.42
321.792	5142.29
321.857	5100.03
321.921	5063.3
321.986	5025.04
322.05	4965.99
322.115	4931.89
322.179	4887.94
322.244	4830.45
322.308	4798.94
322.373	4756.91
322.437	4718.33
322.502	4690.98
322.566	4647.09
322.631	4614.41
322.695	4576.85
322.76	4535.51
322.824	4503.69
322.889	4462.74
322.953	4423.72
323.018	4362.34
323.082	4303.48
323.146	4254.28
323.211	4206.55
323.275	4168.3
323.34	4124.94
323.404	4094.45
323.468	4049.56
323.533	4011.52
323.597	3970.72
323.662	3921.92
323.726	3886.46
323.79	3843.89
323.855	3779.65
323.919	3729.6
323.983	3686.99
324.048	3626.22
324.112	3763.98
324.177	3642.46
324.241	3454.01
324.305	3269.43
324.37	3087.75
324.434	2913.54
324.498	2875.39
324.562	2829.1
324.627	2773.39
324.691	2721.68
324.755	2661.06
324.82	2593.36
324.884	2523.08
324.948	2458.64
325.012	2369.69
325.077	2257.63
