Data from 20250625_urea_1M_1_MAYP1162681_11-05-06-178.txt Node
Date: Thu Jun 26 11:05:06 BST 2025
User: adleo
Spectrometer: MAYP116268
Trigger mode: 0
Integration Time (sec): 1.000000E0
Scans to average: 1
Electric dark correction enabled: true
Nonlinearity correction enabled: true
Boxcar width: 10
XAxis mode: Wavelengths
Number of Pixels in Spectrum: 2068
>>>>>Begin Spectral Data<<<<<
179.565	1134.73
179.642	1189.77
179.718	1229.58
179.795	1263.85
179.871	1291.56
179.948	1305.95
180.024	1326.34
180.101	1344.84
180.177	1356.84
180.254	1377.06
180.33	1398.68
180.407	1444.81
180.483	1534.65
180.56	1620.45
180.636	1700.69
180.712	1689.28
180.789	1698.5
180.865	1709.66
180.942	1716.22
181.018	1726.91
181.095	1740.31
181.171	1743.21
181.248	1741.93
181.324	1756.09
181.4	1765.55
181.477	1779.52
181.553	1793.21
181.63	1812.36
181.706	1829
181.782	1838.26
181.859	1840.49
181.935	1846.06
182.011	1846.44
182.088	1861.03
182.164	1877.25
182.24	1887.04
182.317	1896.3
182.393	1893.69
182.469	1905.91
182.546	1922.07
182.622	1925.78
182.698	1923.07
182.775	1936.52
182.851	1947.41
182.927	1941.8
183.003	1937.23
183.08	1928.58
183.156	1935.95
183.232	1932.29
183.308	1921.26
183.385	1928.86
183.461	1942.37
183.537	1940.28
183.613	1951.92
183.69	1941.94
183.766	1933.19
183.842	1943.75
183.918	1949.36
183.995	1961.19
184.071	1965.81
184.147	1956.11
184.223	1947.17
184.299	1956.3
184.375	1944.27
184.452	1955.07
184.528	2007.77
184.604	2016.71
184.68	2030.26
184.756	2037.63
184.832	2042.82
184.908	2046.86
184.985	2048
185.061	2034.07
185.137	2043.29
185.213	2032.69
185.289	2036.06
185.365	2026.37
185.441	2022.42
185.517	2033.79
185.593	2030.13
185.669	2027.51
185.745	2040.3
185.822	2055.13
185.898	2045.43
185.974	2053.37
186.05	2044.05
186.126	2007.09
186.202	1999.34
186.278	1995.1
186.354	1988.16
186.43	1992.49
186.506	1992.11
186.582	1990.16
186.658	1996.86
186.734	1979.51
186.81	1982.55
186.886	1982.32
186.962	1996.86
187.038	1991.21
187.114	1982.83
187.19	1991.25
187.266	1982.5
187.341	1985.64
187.417	1978.27
187.493	1981.51
187.569	1985.64
187.645	1980.41
187.721	1965.53
187.797	1973.18
187.873	1976.75
187.949	1968.48
188.025	1964.91
188.101	1968
188.176	1972.75
188.252	1968.71
188.328	1975.94
188.404	1973.89
188.48	1970.66
188.556	1961.34
188.632	1964.71
188.707	1967.24
188.783	1963.81
188.859	1958.87
188.935	1944.03
189.011	1948.64
189.086	1940.37
189.162	1931.62
189.238	1927.29
189.314	1925.68
189.39	1921.26
189.465	1912.56
189.541	1928.72
189.617	1911.94
189.693	1905.57
189.768	1904.86
189.844	1925.88
189.92	1916.42
189.996	1926.36
190.071	1936.87
190.147	1937.72
190.223	1947.76
190.298	1939.77
190.374	1927.79
190.45	1938.01
190.526	1946.66
190.601	1942.62
190.677	1947.09
190.753	1974.21
190.828	1978.82
190.904	1994.7
190.98	2007.88
191.055	2020.05
191.131	2013.06
191.207	2033.93
191.282	2044.63
191.358	2037.31
191.433	2027.17
191.509	2040.72
191.585	2034.44
191.66	2035.34
191.736	2043.62
191.811	2034.01
191.887	2050.71
191.963	2073.73
192.038	2081.38
192.114	2080.24
192.189	2085.28
192.265	2080.43
192.34	2059.12
192.416	2058.5
192.491	2053.93
192.567	2058.36
192.642	2059.83
192.718	2060.07
192.793	2052.36
192.869	2046.13
192.944	2050.93
193.02	2055.03
193.095	2059.83
193.171	2066.58
193.246	2068.15
193.322	2062.68
193.397	2063.02
193.473	2052.5
193.548	2035.61
193.624	2040.18
193.699	2041.09
193.775	2058.31
193.85	2060.54
193.925	2066.2
194.001	2066.77
194.076	2060.02
194.152	2047.84
194.227	2040.09
194.302	2032.62
194.378	2032.01
194.453	2032.53
194.529	2042.23
194.604	2028.82
194.679	2022.16
194.755	2007
194.83	2018.32
194.905	2018.22
194.981	2023.6
195.056	2013.57
195.131	2019.61
195.207	2017.27
195.282	2007.62
195.357	1987.74
195.433	2002.86
195.508	1993.44
195.583	2000.1
195.659	2015.18
195.734	2023.41
195.809	2025.12
195.884	2028.73
195.96	2029.59
196.035	2042.62
196.11	2041.05
196.185	2053.98
196.261	2057.03
196.336	2084.8
196.411	2069.01
196.486	2075.81
196.561	2069.63
196.637	2079.14
196.712	2093.79
196.787	2095.6
196.862	2109.39
196.937	2118.52
197.013	2121.8
197.088	2133.03
197.163	2154.35
197.238	2168.3
197.313	2167.77
197.388	2179.38
197.464	2210.79
197.539	2223.06
197.614	2215.69
197.689	2225.82
197.764	2241.34
197.839	2261.04
197.914	2253.42
197.989	2279.55
198.065	2292.06
198.14	2342.25
198.215	2366.62
198.29	2378.48
198.365	2391.04
198.44	2403.89
198.515	2428.27
198.59	2444.12
198.665	2467.11
198.74	2472.11
198.815	2474.35
198.89	2493.92
198.965	2523.92
199.04	2520.07
199.115	2531.11
199.19	2574.25
199.265	2577.15
199.34	2584.68
199.415	2616.84
199.49	2640.21
199.565	2644.88
199.64	2667.89
199.715	2664.5
199.79	2674.22
199.865	2680.46
199.94	2680.84
200.015	2710.05
200.09	2717.63
200.165	2725.11
200.24	2734.45
200.315	2772.54
200.39	2787.93
200.464	2794.46
200.539	2795.22
200.614	2811.85
200.689	2835.77
200.764	2839.39
200.839	2856.3
200.914	2860.35
200.989	2848.91
201.063	2859.53
201.138	2844.35
201.213	2844.73
201.288	2826.86
201.363	2829.24
201.438	2827.14
201.512	2839.43
201.587	2821.47
201.662	2828.04
201.737	2840.63
201.812	2846.54
201.886	2815.87
201.961	2824.65
202.036	2813.6
202.111	2810.12
202.186	2781.3
202.26	2763.1
202.335	2746.04
202.41	2744.18
202.485	2729.75
202.559	2713.6
202.634	2687.26
202.709	2694.4
202.784	2673.68
202.858	2672.39
202.933	2651.96
203.008	2647.72
203.082	2631.81
203.157	2633.76
203.232	2591.95
203.306	2568.84
203.381	2539.07
203.456	2517.73
203.53	2495.09
203.605	2475.77
203.68	2452.62
203.754	2448.24
203.829	2436.34
203.904	2416.39
203.978	2402.96
204.053	2406.44
204.127	2395.11
204.202	2395.2
204.277	2384.16
204.351	2377.83
204.426	2370.45
204.5	2364.26
204.575	2328.67
204.65	2336.52
204.724	2324.43
204.799	2331.13
204.873	2326.28
204.948	2323.76
205.022	2310.86
205.097	2301.72
205.171	2317.18
205.246	2325.75
205.32	2326.37
205.395	2324.94
205.469	2315.57
205.544	2318.62
205.618	2301.82
205.693	2312.53
205.767	2300.68
205.842	2316.77
205.916	2313.63
205.991	2306.02
206.065	2312.49
206.14	2329.9
206.214	2326.94
206.289	2323.75
206.363	2332.94
206.438	2341.18
206.512	2349.41
206.586	2371.45
206.661	2381.69
206.735	2360.99
206.81	2360.42
206.884	2369.7
206.958	2356.38
207.033	2371.22
207.107	2379.32
207.181	2411.6
207.256	2405.08
207.33	2425.64
207.405	2437.93
207.479	2455.64
207.553	2460.92
207.628	2445.22
207.702	2456.55
207.776	2449.93
207.851	2456.45
207.925	2473.07
207.999	2464.55
208.073	2460.7
208.148	2460.84
208.222	2446.93
208.296	2476.39
208.371	2493.92
208.445	2505.26
208.519	2538.06
208.593	2553.58
208.668	2553.06
208.742	2553.77
208.816	2555.29
208.89	2568.54
208.965	2567.35
209.039	2573.92
209.113	2591.45
209.187	2613.53
209.261	2611.05
209.336	2629.01
209.41	2644.59
209.484	2648.45
209.558	2673.46
209.632	2686.08
209.707	2698.7
209.781	2723.28
209.855	2742.2
209.929	2761.47
210.003	2773.47
210.077	2773
210.151	2819.98
210.226	2855.74
210.3	2888.56
210.374	2916.24
210.448	2924.77
210.522	2942.98
210.596	2963.58
210.67	2985.17
210.744	3038.59
210.818	3077.05
210.892	3110.43
210.966	3116.25
211.041	3141.76
211.115	3152.44
211.189	3196.56
211.263	3233.29
211.337	3254.37
211.411	3286.82
211.485	3298.37
211.559	3332
211.633	3358.03
211.707	3354.88
211.781	3386.88
211.855	3380.87
211.929	3404.77
212.003	3417.93
212.077	3459.62
212.151	3503.17
212.225	3544.24
212.299	3565.93
212.373	3597.73
212.447	3635.04
212.52	3708.5
212.594	3755.27
212.668	3814.32
212.742	3846.43
212.816	3886.67
212.89	3935.59
212.964	3986.42
213.038	4046.9
213.112	4116.48
213.186	4190.81
213.26	4228.85
213.333	4245.39
213.407	4311.65
213.481	4380.12
213.555	4456.21
213.629	4514.22
213.703	4568.21
213.777	4639.53
213.85	4699.03
213.924	4806.17
213.998	4881.6
214.072	4950.83
214.146	5015.73
214.219	5093.77
214.293	5169.83
214.367	5257.24
214.441	5356.06
214.515	5428.87
214.588	5495.7
214.662	5545.27
214.736	5613.92
214.81	5710.68
214.883	5810.28
214.957	5891.11
215.031	5968.75
215.105	6046.14
215.178	6124.93
215.252	6218.94
215.326	6283.97
215.4	6356.76
215.473	6404.64
215.547	6479.84
215.621	6563.46
215.694	6671.11
215.768	6741.66
215.842	6824.99
215.915	6900.9
215.989	6968.17
216.063	7054.09
216.136	7146.65
216.21	7249.48
216.284	7353.97
216.357	7454.29
216.431	7553.28
216.504	7658.61
216.578	7778.97
216.652	7877.77
216.725	7979.49
216.799	8078.55
216.873	8189.71
216.946	8302.65
217.02	8397.9
217.093	8492.92
217.167	8565.97
217.24	8637.92
217.314	8727.81
217.387	8824.2
217.461	8924.08
217.535	9029.7
217.608	9117.02
217.682	9209.46
217.755	9309.36
217.829	9392.96
217.902	9485.51
217.976	9570.55
218.049	9651.41
218.123	9724.33
218.196	9824.7
218.27	9907.16
218.343	9977.73
218.417	10063.19
218.49	10144.45
218.563	10247.02
218.637	10336.96
218.71	10452.11
218.784	10553.15
218.857	10659.43
218.931	10752.81
219.004	10835.4
219.077	10933.47
219.151	11025.17
219.224	11111.18
219.298	11194.8
219.371	11294.7
219.444	11372.24
219.518	11460.24
219.591	11551.91
219.665	11659.53
219.738	11747.11
219.811	11822.34
219.885	11915.03
219.958	12001.79
220.031	12079.39
220.105	12164.56
220.178	12249.2
220.251	12315.58
220.325	12394.54
220.398	12465.35
220.471	12539.68
220.544	12617
220.618	12676.82
220.691	12754.72
220.764	12835.75
220.838	12916.64
220.911	12979.11
220.984	13071.43
221.057	13151.59
221.131	13223.32
221.204	13267.29
221.277	13351.99
221.35	13455.97
221.424	13519.55
221.497	13587.57
221.57	13657.42
221.643	13730.55
221.716	13806.09
221.79	13871.17
221.863	13930.17
221.936	13995.78
222.009	14061.82
222.082	14139.44
222.155	14198.1
222.229	14281.64
222.302	14335.63
222.375	14395.36
222.448	14471.57
222.521	14520.88
222.594	14571.11
222.667	14622.45
222.74	14690.28
222.814	14739.06
222.887	14783.21
222.96	14851.08
223.033	14916.93
223.106	14974.24
223.179	15030.88
223.252	15076.19
223.325	15126.76
223.398	15179.83
223.471	15232.47
223.544	15282.74
223.617	15330.66
223.69	15380.21
223.763	15412.5
223.837	15470.39
223.91	15519.03
223.983	15544.38
224.056	15579.33
224.129	15629.55
224.202	15682
224.275	15724.32
224.348	15758.49
224.42	15780.42
224.493	15802.21
224.566	15826.16
224.639	15873.21
224.712	15897.4
224.785	15932.73
224.858	15977.22
224.931	16012.4
225.004	16034.29
225.077	16069.04
225.15	16071.59
225.223	16107.79
225.296	16161.48
225.369	16177.68
225.442	16204.38
225.514	16238.5
225.587	16275.76
225.66	16319.47
225.733	16353.74
225.806	16384.06
225.879	16410.42
225.952	16436.93
226.025	16485.03
226.097	16530.82
226.17	16553.32
226.243	16561.52
226.316	16589.04
226.389	16610.58
226.461	16635.16
226.534	16669.77
226.607	16692.42
226.68	16748.86
226.753	16784.71
226.825	16784.18
226.898	16831.27
226.971	16855.95
227.044	16886.79
227.117	16912.62
227.189	16931.13
227.262	16963.81
227.335	16997.45
227.407	17024
227.48	17055.91
227.553	17081.45
227.626	17095.09
227.698	17127.14
227.771	17165.07
227.844	17181.55
227.916	17208.73
227.989	17224.49
228.062	17248.01
228.134	17291.38
228.207	17311.72
228.28	17319.09
228.352	17342.9
228.425	17357.26
228.498	17384.59
228.57	17400.35
228.643	17437.98
228.716	17458.47
228.788	17468.15
228.861	17475.29
228.934	17501.84
229.006	17525.65
229.079	17532.63
229.151	17549.36
229.224	17546.71
229.296	17557.07
229.369	17594.32
229.442	17625.36
229.514	17634.85
229.587	17664.58
229.659	17666.8
229.732	17686.27
229.804	17714.95
229.877	17757.55
229.949	17778.99
230.022	17810.51
230.094	17816.82
230.167	17825.93
230.239	17822.6
230.312	17828.72
230.384	17865.45
230.457	17874.8
230.529	17892.77
230.602	17918.75
230.674	17934.89
230.747	17960.67
230.819	17994.74
230.892	17977.59
230.964	17985.2
231.037	17999.61
231.109	18003.18
231.181	18010.07
231.254	18000.09
231.326	18007.56
231.399	18004.86
231.471	18009.49
231.544	17988.43
231.616	18011.9
231.688	18010.12
231.761	18018.94
231.833	18024.72
231.905	18006.41
231.978	18014.55
232.05	18002.7
232.122	18003.03
232.195	17998.6
232.267	18014.99
232.339	18015.18
232.412	18033.59
232.484	18021.35
232.556	18022.12
232.629	18049.92
232.701	18068.04
232.773	18073.25
232.846	18066.55
232.918	18052.86
232.99	18051.22
233.062	18064.04
233.135	18060.91
233.207	18055.27
233.279	18060.62
233.351	18069.49
233.424	18062.45
233.496	18055.9
233.568	18078.45
233.64	18063.22
233.713	18069.44
233.785	18063.03
233.857	18061.49
233.929	18046.26
234.001	18061.97
234.074	18080.43
234.146	18052.82
234.218	18040.72
234.29	18039.61
234.362	18024.19
234.434	18008.43
234.507	17990.36
234.579	17969.11
234.651	17953.64
234.723	17954.84
234.795	17948.1
234.867	17937.3
234.939	17949.49
235.012	17941.2
235.084	17927.08
235.156	17920.72
235.228	17897.69
235.3	17873.78
235.372	17851.91
235.444	17857.26
235.516	17827.96
235.588	17808.58
235.66	17793.45
235.732	17782.03
235.804	17820
235.876	17825.01
235.948	17838.03
236.02	17826.32
236.092	17810.17
236.164	17797.69
236.236	17776.87
236.308	17762.65
236.38	17747.14
236.452	17721.74
236.524	17711.57
236.596	17716.44
236.668	17706.8
236.74	17695.14
236.812	17690.85
236.884	17692.87
236.956	17673.07
237.028	17651.72
237.1	17628.01
237.172	17630.03
237.244	17618.95
237.316	17564.78
237.388	17534.56
237.46	17497.6
237.532	17493.79
237.604	17480.63
237.675	17487.43
237.747	17477.02
237.819	17453.36
237.891	17436.73
237.963	17411.91
238.035	17387.38
238.107	17324.49
238.178	17329.36
238.25	17305.4
238.322	17304.15
238.394	17257.21
238.466	17234.32
238.538	17217.11
238.609	17209.11
238.681	17166.94
238.753	17139.52
238.825	17118.41
238.897	17111.67
238.968	17112.15
239.04	17080.77
239.112	17077.83
239.184	17038.94
239.255	17014.36
239.327	16995.62
239.399	16971.9
239.471	16962.31
239.542	16941.64
239.614	16945.11
239.686	16884.38
239.758	16873.88
239.829	16839.56
239.901	16839.22
239.973	16822.5
240.044	16803.17
240.116	16781.97
240.188	16763.89
240.259	16733.05
240.331	16702.11
240.403	16672.08
240.474	16628.13
240.546	16596.03
240.618	16549.18
240.689	16521.28
240.761	16497.47
240.833	16489.03
240.904	16461.08
240.976	16429.56
241.048	16409.17
241.119	16392.06
241.191	16378.76
241.262	16375.82
241.334	16344.88
241.405	16311.76
241.477	16272.24
241.549	16243.76
241.62	16215.85
241.692	16199.27
241.763	16194.6
241.835	16181
241.906	16160.52
241.978	16123.84
242.049	16123.7
242.121	16113.91
242.192	16102.78
242.264	16067.64
242.335	16017.8
242.407	16009.95
242.478	15981.36
242.55	15955.09
242.621	15915.91
242.693	15888.15
242.764	15844.53
242.836	15815.51
242.907	15793.29
242.979	15778.88
243.05	15764.37
243.122	15742.05
243.193	15707.59
243.264	15655.58
243.336	15620.3
243.407	15602.8
243.479	15603.72
243.55	15576.49
243.622	15553.25
243.693	15528.91
243.764	15520.67
243.836	15492.66
243.907	15462.35
243.978	15439.84
244.05	15421.23
244.121	15380.16
244.192	15371.29
244.264	15338.56
244.335	15316.87
244.407	15281.83
244.478	15265.83
244.549	15223.89
244.62	15192.03
244.692	15166.24
244.763	15157.71
244.834	15125.07
244.906	15090.37
244.977	15063.95
245.048	15050.65
245.119	15010.79
245.191	14971.07
245.262	14926.19
245.333	14917.95
245.405	14885.41
245.476	14861.74
245.547	14836.48
245.618	14819.51
245.689	14788.47
245.761	14770.68
245.832	14741.04
245.903	14718
245.974	14697.65
246.045	14680.98
246.117	14664.49
246.188	14626.79
246.259	14582.54
246.33	14559.35
246.401	14532.75
246.473	14494.62
246.544	14461.6
246.615	14456.92
246.686	14425.39
246.757	14415.61
246.828	14382.59
246.899	14376.18
246.97	14332.45
247.042	14299.67
247.113	14285.6
247.184	14285.45
247.255	14246.12
247.326	14224.86
247.397	14197.67
247.468	14167.01
247.539	14143.63
247.61	14109.89
247.681	14099.19
247.752	14101.6
247.823	14063.51
247.894	14040.9
247.965	14006.48
248.037	13982.72
248.108	13936.73
248.179	13915.23
248.25	13892.04
248.321	13874.5
248.392	13833.81
248.463	13835.21
248.534	13814.77
248.605	13795.1
248.675	13757.36
248.746	13744
248.817	13724.29
248.888	13711.56
248.959	13668.08
249.03	13653.08
249.101	13631.54
249.172	13604.97
249.243	13555.9
249.314	13552.19
249.385	13526.78
249.456	13517.48
249.527	13489.38
249.598	13475.44
249.669	13455.87
249.739	13432.64
249.81	13416.15
249.881	13387.51
249.952	13365.1
250.023	13339.4
250.094	13307.49
250.165	13274.95
250.235	13245.16
250.306	13231.08
250.377	13204.72
250.448	13195.7
250.519	13154.92
250.59	13141.95
250.66	13108.74
250.731	13105.22
250.802	13087.91
250.873	13072.92
250.944	13051.8
251.014	13019.31
251.085	13023.22
251.156	13004.42
251.227	12995.5
251.297	12985.04
251.368	12970.72
251.439	12952.64
251.51	12941.36
251.58	12909.55
251.651	12884.58
251.722	12880.58
251.792	12838.73
251.863	12804.51
251.934	12787.69
252.005	12794.24
252.075	12778.86
252.146	12774.33
252.217	12762.76
252.287	12747.58
252.358	12725.36
252.429	12718.46
252.499	12696.05
252.57	12672.47
252.641	12659.51
252.711	12637.28
252.782	12601.61
252.852	12603.78
252.923	12588.36
252.994	12571.1
253.064	12568.4
253.135	12538.03
253.205	12510.55
253.276	12510.02
253.347	12510.55
253.417	12493.73
253.488	12465.24
253.558	12433.96
253.629	12412.6
253.699	12395.92
253.77	12382.72
253.841	12362.23
253.911	12345.65
253.982	12328.87
254.052	12311.18
254.123	12298.22
254.193	12278.36
254.264	12295.18
254.334	12264.42
254.405	12225.62
254.475	12199.79
254.546	12179.44
254.616	12174.53
254.687	12160.6
254.757	12142.62
254.827	12120.93
254.898	12100.92
254.968	12082.46
255.039	12064
255.109	12058.55
255.18	12030.98
255.25	11990.88
255.321	11980.71
255.391	11953.67
255.461	11960.08
255.532	11926.87
255.602	11896.12
255.673	11857.27
255.743	11828.83
255.813	11788
255.884	11789.21
255.954	11777.35
256.024	11769.69
256.095	11754.6
256.165	11724.67
256.235	11714.07
256.306	11691.17
256.376	11684.28
256.446	11673.48
256.517	11660.28
256.587	11655.6
256.657	11638.54
256.728	11625.67
256.798	11601.76
256.868	11577.95
256.938	11547.35
257.009	11539.68
257.079	11539.01
257.149	11547.73
257.219	11510.19
257.29	11504.16
257.36	11464.64
257.43	11453.03
257.5	11415.44
257.571	11402.37
257.641	11391.87
257.711	11362.57
257.781	11352.4
257.852	11339.91
257.922	11304.68
257.992	11279.96
258.062	11250.56
258.132	11240.97
258.202	11226.42
258.273	11218.8
258.343	11213.02
258.413	11186.17
258.483	11158.9
258.553	11122.08
258.623	11099.96
258.693	11082.9
258.764	11080.97
258.834	11082.66
258.904	11073.07
258.974	11049.7
259.044	11028.97
259.114	11017.84
259.184	11001.07
259.254	10982.23
259.324	10942.18
259.394	10933.32
259.464	10938.91
259.535	10920.5
259.605	10894.67
259.675	10863.78
259.745	10847.01
259.815	10822.05
259.885	10800.46
259.955	10822.68
260.025	10808.23
260.095	10788.57
260.165	10778.74
260.235	10773.24
260.305	10756.14
260.375	10722.89
260.445	10735.17
260.515	10735.61
260.585	10732.81
260.655	10721.68
260.725	10715.85
260.795	10709.92
260.865	10718.84
260.934	10690.41
261.004	10679.47
261.074	10669.06
261.144	10673.78
261.214	10673.5
261.284	10659.38
261.354	10662.08
261.424	10633.21
261.494	10632.53
261.564	10611.38
261.634	10605.75
261.703	10570.38
261.773	10556.12
261.843	10552.89
261.913	10533.57
261.983	10500.27
262.053	10487.75
262.123	10466.64
262.192	10441.45
262.262	10433.74
262.332	10397.75
262.402	10391.58
262.472	10385.75
262.541	10354.77
262.611	10346.63
262.681	10315.31
262.751	10308.42
262.821	10286.22
262.89	10253.11
262.96	10243.67
263.03	10256.15
263.1	10239.96
263.169	10232.3
263.239	10223.39
263.309	10220.5
263.379	10208.84
263.448	10200.51
263.518	10187.93
263.588	10175.26
263.657	10178.06
263.727	10174.06
263.797	10162.93
263.867	10144.67
263.936	10114.08
264.006	10116.15
264.076	10104.78
264.145	10090.62
264.215	10069.72
264.285	10069.67
264.354	10042.7
264.424	10022.32
264.494	9994.18
264.563	9975.11
264.633	9976.46
264.702	9971.01
264.772	9939.51
264.842	9924.58
264.911	9920.19
264.981	9900.06
265.05	9890.42
265.12	9870
265.19	9863.02
265.259	9860.75
265.329	9859.55
265.398	9850.16
265.468	9864.22
265.537	9846.79
265.607	9842.35
265.676	9841.73
265.746	9830.26
265.815	9833.88
265.885	9818.8
265.955	9796.94
266.024	9789.57
266.094	9761.44
266.163	9754.45
266.232	9761.29
266.302	9747.37
266.371	9732.35
266.441	9718.09
266.51	9715.25
266.58	9699.36
266.649	9674.5
266.719	9674.6
266.788	9664.48
266.858	9665.3
266.927	9618.44
266.996	9609
267.066	9599.08
267.135	9573.41
267.205	9565.52
267.274	9556.22
267.343	9556.17
267.413	9546.78
267.482	9546.3
267.552	9544.57
267.621	9520.39
267.69	9493.18
267.76	9483.79
267.829	9477.34
267.898	9470.21
267.968	9446.18
268.037	9442.72
268.106	9443.2
268.176	9414.78
268.245	9400
268.314	9383.24
268.384	9387.81
268.453	9370.24
268.522	9361.96
268.592	9361.38
268.661	9344.72
268.73	9329.26
268.799	9309.18
268.869	9315.49
268.938	9285.54
269.007	9266.09
269.076	9251.74
269.146	9244.9
269.215	9236.62
269.284	9232.62
269.353	9211.1
269.422	9204.7
269.492	9180.58
269.561	9140.47
269.63	9133.73
269.699	9117.31
269.768	9110.09
269.838	9102.2
269.907	9106.58
269.976	9084.82
270.045	9059.88
270.114	9055.93
270.183	9043.32
270.253	9039.32
270.322	9004.28
270.391	8998.35
270.46	9001.82
270.529	9003.84
270.598	9007.89
270.667	8992.05
270.736	8972.45
270.806	8966.34
270.875	8965.04
270.944	8965.28
271.013	8986.9
271.082	8980.73
271.151	8972.93
271.22	8948.24
271.289	8935.87
271.358	8916.9
271.427	8912.71
271.496	8907.03
271.565	8887.54
271.634	8880.61
271.703	8902.71
271.772	8914.5
271.841	8904.68
271.91	8882.59
271.979	8869.78
272.048	8839.5
272.117	8844.07
272.186	8828.57
272.255	8830.07
272.324	8828.96
272.393	8825.88
272.462	8806.19
272.531	8798.2
272.6	8787.9
272.669	8788.91
272.738	8772.98
272.807	8769.51
272.876	8752.57
272.945	8781.36
273.013	8784.34
273.082	8783.86
273.151	8746.6
273.22	8736.49
273.289	8727.73
273.358	8735.96
273.427	8728.93
273.496	8733.27
273.564	8725.08
273.633	8730.96
273.702	8716.37
273.771	8706.55
273.84	8690.67
273.909	8687.69
273.977	8687.69
274.046	8680.18
274.115	8688.7
274.184	8680.13
274.253	8672.43
274.322	8680.23
274.39	8640.47
274.459	8628.15
274.528	8609.77
274.597	8602.31
274.665	8606.21
274.734	8614.1
274.803	8601.54
274.872	8596.39
274.94	8582.38
275.009	8640.89
275.078	8620.87
275.147	8619.09
275.215	8612.88
275.284	8621.01
275.353	8613.02
275.421	8581.79
275.49	8600.37
275.559	8590.65
275.627	8582.32
275.696	8578.76
275.765	8577.75
275.833	8575.78
275.902	8575.78
275.971	8583.24
276.039	8595.32
276.108	8589.11
276.177	8586.9
276.245	8582.85
276.314	8575.54
276.383	8585.55
276.451	8519.59
276.52	8526.37
276.588	8535.37
276.657	8538.06
276.725	8536.57
276.794	8538.83
276.863	8558.51
276.931	8532.86
277	8539.22
277.068	8550.04
277.137	8566.31
277.205	8563.76
277.274	8580.46
277.342	8589.36
277.411	8567.28
277.48	8554.33
277.548	8546.97
277.617	8543.07
277.685	8534.94
277.754	8542.93
277.822	8526.47
277.89	8539.8
277.959	8533.54
278.027	8513.33
278.096	8507.03
278.164	8524.79
278.233	8516.56
278.301	8496.54
278.37	8505.69
278.438	8488.31
278.507	8493.32
278.575	8467.33
278.643	8460.55
278.712	8441.73
278.78	8427.01
278.849	8447.07
278.917	8453.56
278.985	8446.2
279.054	8445.77
279.122	8453.66
279.191	8449.19
279.259	8443.08
279.327	8421.56
279.396	8435.66
279.464	8431.67
279.532	8436.96
279.601	8433.5
279.669	8430.32
279.737	8446.83
279.806	8445
279.874	8451.06
279.942	8448.99
280.011	8447.07
280.079	8456.31
280.147	8467.9
280.215	8476.71
280.284	8468.14
280.352	8455.29
280.42	8462.37
280.488	8455.2
280.557	8448.94
280.625	8454.14
280.693	8458.95
280.761	8464.39
280.83	8448.85
280.898	8466.41
280.966	8447.93
281.034	8413.38
281.102	8400.77
281.171	8393.56
281.239	8399.76
281.307	8393.03
281.375	8373.93
281.443	8398.52
281.512	8392.21
281.58	8400.3
281.648	8377.01
281.716	8374.56
281.784	8376
281.852	8373.98
281.92	8375.37
281.989	8387.21
282.057	8371.38
282.125	8398.67
282.193	8394.29
282.261	8397.22
282.329	8386.25
282.397	8386.78
282.465	8395.25
282.533	8407.8
282.601	8403.19
282.67	8384.27
282.738	8377.49
282.806	8394.76
282.874	8378.74
282.942	8381.43
283.01	8380.08
283.078	8391.82
283.146	8391.87
283.214	8401.3
283.282	8401.69
283.35	8414.83
283.418	8406.65
283.486	8408.33
283.554	8380.42
283.622	8382.73
283.69	8381.14
283.758	8375.65
283.826	8384.94
283.894	8396.1
283.962	8419.11
284.03	8430.75
284.098	8433.16
284.165	8430.46
284.233	8428.83
284.301	8422.33
284.369	8411.51
284.437	8399.09
284.505	8394.76
284.573	8407.13
284.641	8394.57
284.709	8401.64
284.777	8378.4
284.845	8387.78
284.912	8393.36
284.98	8396.68
285.048	8389.61
285.116	8388.46
285.184	8402.51
285.252	8401.01
285.319	8382.01
285.387	8362.61
285.455	8346.11
285.523	8345.73
285.591	8346.64
285.659	8342.89
285.726	8359.78
285.794	8349.43
285.862	8346.26
285.93	8345.87
285.997	8339.76
286.065	8332.06
286.133	8318.78
286.201	8320.13
286.269	8308.53
286.336	8300.93
286.404	8301.07
286.472	8305.12
286.539	8289.34
286.607	8278.7
286.675	8278.17
286.743	8287.36
286.81	8289.72
286.878	8302.81
286.946	8302.04
287.013	8301.03
287.081	8299.3
287.149	8279.18
287.216	8301.12
287.284	8295.16
287.352	8287.89
287.419	8287.7
287.487	8306.8
287.555	8310.89
287.622	8306.32
287.69	8307.57
287.758	8316.67
287.825	8308.54
287.893	8300.88
287.96	8309.3
288.028	8313.2
288.096	8313.34
288.163	8313.15
288.231	8299.49
288.298	8298
288.366	8309.83
288.433	8303.82
288.501	8303.39
288.569	8305.31
288.636	8294.92
288.704	8308.05
288.771	8326.05
288.839	8318.88
288.906	8311.66
288.974	8318.98
289.041	8317.24
289.109	8309.98
289.176	8316.57
289.244	8324.89
289.311	8340.2
289.379	8347.56
289.446	8346.98
289.514	8351.5
289.581	8352.85
289.649	8357.13
289.716	8361.89
289.783	8349.58
289.851	8366.61
289.918	8363.38
289.986	8372.77
290.053	8377.67
290.121	8376.13
290.188	8368.53
290.255	8393.22
290.323	8381.67
290.39	8378.88
290.458	8385.28
290.525	8395.86
290.592	8387.25
290.66	8389.51
290.727	8381.09
290.794	8393.7
290.862	8395.72
290.929	8396.78
290.996	8391.72
291.064	8399.81
291.131	8410.97
291.198	8430.41
291.266	8430.37
291.333	8434.99
291.4	8440.66
291.468	8459.05
291.535	8455.68
291.602	8463.52
291.669	8457.8
291.737	8466.98
291.804	8464.39
291.871	8481.23
291.938	8491.96
292.006	8521.75
292.073	8529.64
292.14	8538.59
292.207	8531.47
292.275	8536.91
292.342	8538.26
292.409	8571.42
292.476	8595.43
292.543	8583.45
292.611	8577
292.678	8594.28
292.745	8615.16
292.812	8619.93
292.879	8610.69
292.946	8616.17
293.014	8627.1
293.081	8637.4
293.148	8652.7
293.215	8669.25
293.282	8666.22
293.349	8671.28
293.416	8654.04
293.484	8665.02
293.551	8676.18
293.618	8691.1
293.685	8712.71
293.752	8714.4
293.819	8702.08
293.886	8686.53
293.953	8694.23
294.02	8709.82
294.087	8712.57
294.154	8711.41
294.221	8733.51
294.288	8735.38
294.356	8754.01
294.423	8760.55
294.49	8747.75
294.557	8761.18
294.624	8752.09
294.691	8769.22
294.758	8764.84
294.825	8771.87
294.892	8770.18
294.959	8768.83
295.026	8769.65
295.093	8761.33
295.16	8757.81
295.226	8757.81
295.293	8783.08
295.36	8789.82
295.427	8794.11
295.494	8805.47
295.561	8810.09
295.628	8827.28
295.695	8846.2
295.762	8843.45
295.829	8847.35
295.896	8862.51
295.963	8865.88
296.03	8878.64
296.096	8880.8
296.163	8897.17
296.23	8914.69
296.297	8923.89
296.364	8921.91
296.431	8928.84
296.498	8925.52
296.564	8948.63
296.631	8955.36
296.698	8937.22
296.765	8953.68
296.832	8951.03
296.899	8940.1
296.965	8958.78
297.032	8929.32
297.099	8938.13
297.166	8945.73
297.233	8945.3
297.299	8941.59
297.366	8941.35
297.433	8938.08
297.5	8944.19
297.566	8940.58
297.633	8931.68
297.7	8931.53
297.767	8929.03
297.833	8933.46
297.9	8935.09
297.967	8923.83
298.033	8939.57
298.1	8968.94
298.167	8961.09
298.234	8959.75
298.3	8964.27
298.367	8958.44
298.434	8972.26
298.5	8964.12
298.567	8961.33
298.634	8961.19
298.7	8976.69
298.767	8979
298.834	8991.76
298.9	8989.78
298.967	8983.91
299.033	8994.45
299.1	9012.6
299.167	9031.42
299.233	9030.37
299.3	9040.43
299.366	9045.38
299.433	9055.35
299.5	9033.49
299.566	9033.78
299.633	9049.14
299.699	9060.89
299.766	9055.93
299.832	9059.97
299.899	9071.09
299.965	9088.14
300.032	9083.18
300.099	9085.2
300.165	9089.29
300.232	9087.46
300.298	9086.26
300.365	9099.64
300.431	9102.53
300.498	9091.12
300.564	9093.91
300.631	9104.7
300.697	9123.09
300.763	9130.02
300.83	9131.61
300.896	9137.77
300.963	9156.07
301.029	9156.36
301.096	9159.68
301.162	9171.14
301.229	9163.92
301.295	9147.55
301.361	9146.97
301.428	9153.9
301.494	9142.68
301.561	9145.09
301.627	9144.32
301.693	9142.97
301.76	9145.77
301.826	9140.81
301.892	9148.41
301.959	9157.03
302.025	9149.91
302.092	9131.75
302.158	9137.2
302.224	9126.41
302.291	9123.67
302.357	9111.92
302.423	9106.19
302.49	9100.36
302.556	9104.6
302.622	9101.42
302.688	9114.71
302.755	9118.85
302.821	9119.09
302.887	9125.83
302.954	9122.17
303.02	9132.19
303.086	9140.66
303.152	9137.53
303.219	9128.33
303.285	9132.81
303.351	9135.51
303.417	9142.44
303.483	9143.64
303.55	9138.78
303.616	9141.38
303.682	9138.54
303.748	9132.09
303.815	9149.33
303.881	9154.48
303.947	9140.23
304.013	9141.63
304.079	9131.13
304.145	9104.31
304.212	9106.58
304.278	9099.84
304.344	9096.47
304.41	9079.91
304.476	9072.2
304.542	9062.29
304.608	9065.08
304.674	9045.05
304.741	9037.73
304.807	9029.84
304.873	9031.62
304.939	9044.62
305.005	9023.43
305.071	9014.43
305.137	9009.57
305.203	8983.81
305.269	8979.77
305.335	8993.34
305.401	8994.4
305.467	8994.11
305.533	9009.66
305.599	9010.53
305.666	9021.65
305.732	9023.72
305.798	9032.63
305.864	9051.02
305.93	9061.61
305.996	9061.32
306.062	9062.48
306.128	9056.84
306.194	9050.97
306.259	9044.95
306.325	9034.12
306.391	9047.31
306.457	9056.17
306.523	9060.88
306.589	9077.93
306.655	9073.26
306.721	9049.91
306.787	9037.01
306.853	9043.99
306.919	9025.79
306.985	9016.65
307.051	9001.38
307.117	8989.74
307.183	8986.17
307.248	8957.43
307.314	8959.31
307.38	8960.42
307.446	8965.71
307.512	8955.07
307.578	8953.53
307.644	8952.18
307.709	8944.29
307.775	8937.55
307.841	8934.71
307.907	8930.95
307.973	8910.06
308.039	8901.68
308.104	8906.83
308.17	8907.56
308.236	8894.03
308.302	8902.89
308.368	8892.49
308.433	8895.43
308.499	8889.5
308.565	8883.97
308.631	8888.01
308.696	8856.48
308.762	8840.74
308.828	8835.78
308.894	8818.03
308.959	8798
309.025	8782.46
309.091	8781.01
309.156	8769.46
309.222	8773.94
309.288	8761.47
309.354	8737.31
309.419	8738.85
309.485	8728.94
309.551	8729.95
309.616	8712.48
309.682	8699.05
309.748	8692.7
309.813	8682.83
309.879	8669.4
309.945	8655.64
310.01	8650.05
310.076	8654.53
310.141	8647.55
310.207	8627.43
310.273	8630.51
310.338	8638.6
310.404	8623.01
310.469	8607.41
310.535	8598.36
310.601	8569.63
310.666	8572.04
310.732	8588.74
310.797	8575.64
310.863	8562.02
310.928	8553.79
310.994	8563.9
311.059	8563.8
311.125	8561.3
311.191	8567.32
311.256	8560.05
311.322	8560.1
311.387	8538.01
311.453	8926.24
311.518	8896.89
311.584	8900.59
311.649	8897.42
311.715	8879.23
311.78	8885.15
311.846	8876.87
311.911	8876.87
311.976	8879.08
312.042	8864.5
312.107	8846.89
312.173	8835.1
312.238	8825.72
312.304	8821.34
312.369	8805.22
312.434	8790.01
312.5	8785.25
312.565	8762.77
312.631	8767.3
312.696	8758.35
312.761	8762.15
312.827	8364.01
312.892	8409.67
312.958	8406.16
313.023	8405.82
313.088	8409.87
313.154	8396.35
313.219	8387.25
313.284	8386.63
313.35	8378.4
313.415	8367
313.48	8361.03
313.546	8358.67
313.611	8369.89
313.676	8355.83
313.741	8349.58
313.807	8359.4
313.872	8359.35
313.937	8355.79
314.003	8362.76
314.068	8355.69
314.133	8356.17
314.198	8345.25
314.264	8321.09
314.329	8312.72
314.394	8305.84
314.459	8294.39
314.525	8309.25
314.59	8304.49
314.655	8287.07
314.72	8296.31
314.785	8298.24
314.851	8290.44
314.916	8274.57
314.981	8253.88
315.046	8244.88
315.111	8229.97
315.176	8212.56
315.242	8213.61
315.307	8210.05
315.372	8188.02
315.437	8181.14
315.502	8173.73
315.567	8185.81
315.632	8168.53
315.698	8162.18
315.763	8159.06
315.828	8153.62
315.893	8150.3
315.958	8145.49
316.023	8136.5
316.088	8117.35
316.153	8094.21
316.218	8093.25
316.283	8082.53
316.348	8071.08
316.413	8073.58
316.479	8064.83
316.544	8034.87
316.609	8003.99
316.674	7972.15
316.739	7942.34
316.804	7918.29
316.869	7883.47
316.934	7842.11
316.999	7813.59
317.064	7770.17
317.129	7725.3
317.194	7695.35
317.259	7642.59
317.324	7596.64
317.389	7556.88
317.454	7516.49
317.518	7490
317.583	7464.95
317.648	7440.58
317.713	7411.06
317.778	7351.21
317.843	7319.43
317.908	7284.45
317.973	7248.45
318.038	7227.35
318.103	7193.62
318.168	7159.69
318.233	7131.34
318.297	7088.24
318.362	7054.46
318.427	7019.63
318.492	6997
318.557	6949.83
318.622	6927.82
318.687	6906.35
318.751	6871.19
318.816	6840.21
318.881	6807.55
318.946	6756.58
319.011	6713.01
319.075	6671.95
319.14	6640.4
319.205	6601.17
319.27	6574.81
319.335	6535.25
319.399	6494.76
319.464	6465.48
319.529	6415.99
319.594	6379.5
319.658	6346.43
319.723	6309.52
319.788	6284.99
319.853	6238.09
319.917	6213.67
319.982	6166.01
320.047	6131.41
320.112	6105.35
320.176	6062.7
320.241	6034.67
320.306	6001.95
320.37	5966.35
320.435	5936.94
320.5	5914.88
320.564	5879.62
320.629	5840.43
320.694	5811.75
320.758	5771.32
320.823	5730.95
320.888	5709.76
320.952	5666.07
321.017	5631.75
321.082	5592.48
321.146	5552.07
321.211	5520.43
321.275	5479.78
321.34	5441.73
321.405	5400.85
321.469	5358
321.534	5316.56
321.598	5261.51
321.663	5233.47
321.727	5203.33
321.792	5158.2
321.857	5112.92
321.921	5075.55
321.986	5038.82
322.05	4983.32
322.115	4951.47
322.179	4915.46
322.244	4863.32
322.308	4826.84
322.373	4783.47
322.437	4748.52
322.502	4727.17
322.566	4680.64
322.631	4647.76
322.695	4610.06
322.76	4572.78
322.824	4539.04
322.889	4503.84
322.953	4463.76
323.018	4401
323.082	4344.89
323.146	4298.18
323.211	4249.06
323.275	4208.46
323.34	4164.19
323.404	4132.4
323.468	4085.88
323.533	4042.67
323.597	4002.29
323.662	3955.99
323.726	3924.73
323.79	3881.58
323.855	3824.88
323.919	3780.22
323.983	3736.65
324.048	3673.83
324.112	3828.53
324.177	3709.68
324.241	3517.36
324.305	3333.21
324.37	3152.39
324.434	2972.39
324.498	2933.99
324.562	2889.28
324.627	2834.19
324.691	2783.31
324.755	2725.68
324.82	2659.71
324.884	2591.97
324.948	2525.92
325.012	2448.03
325.077	2337.02
