Data from 20250625_urea_1M_1_MAYP1162681_22-05-05-924.txt Node
Date: Wed Jun 25 22:05:05 BST 2025
User: adleo
Spectrometer: MAYP116268
Trigger mode: 0
Integration Time (sec): 1.000000E0
Scans to average: 1
Electric dark correction enabled: true
Nonlinearity correction enabled: true
Boxcar width: 10
XAxis mode: Wavelengths
Number of Pixels in Spectrum: 2068
>>>>>Begin Spectral Data<<<<<
179.565	1168.98
179.642	1222.78
179.718	1261.31
179.795	1302.96
179.871	1334.33
179.948	1350.87
180.024	1369.34
180.101	1389.96
180.177	1403.38
180.254	1425.88
180.33	1443.96
180.407	1495.51
180.483	1587.63
180.56	1673.72
180.636	1756.52
180.712	1742.59
180.789	1751.48
180.865	1763.54
180.942	1768.82
181.018	1778.04
181.095	1793.96
181.171	1796.29
181.248	1796.2
181.324	1811.93
181.4	1814.31
181.477	1824.96
181.553	1839.36
181.63	1861.41
181.706	1876.2
181.782	1886.18
181.859	1885.89
181.935	1893.83
182.011	1890.65
182.088	1907.9
182.164	1927.97
182.24	1938.53
182.317	1947.79
182.393	1942.9
182.469	1954.93
182.546	1971.19
182.622	1974.99
182.698	1971.19
182.775	1981.88
182.851	1996.86
182.927	1992.25
183.003	1988.83
183.08	1980.93
183.156	1988.68
183.232	1982.5
183.308	1974.28
183.385	1979.22
183.461	1995.53
183.537	1994.44
183.613	2005.18
183.69	1994.58
183.766	1983.69
183.842	1990.91
183.918	1999.66
183.995	2013.78
184.071	2019.16
184.147	2010.41
184.223	1999.48
184.299	2007.99
184.375	1998.72
184.452	2005.09
184.528	2059.62
184.604	2071.79
184.68	2081.73
184.756	2088.39
184.832	2097.66
184.908	2101.42
184.985	2103.89
185.061	2087.44
185.137	2097.57
185.213	2087.82
185.289	2088.44
185.365	2080.4
185.441	2080.12
185.517	2092.39
185.593	2090.54
185.669	2086.45
185.745	2097.53
185.822	2113.31
185.898	2106.37
185.974	2116.07
186.05	2108.45
186.126	2068.48
186.202	2060.11
186.278	2058.45
186.354	2049.6
186.43	2052.41
186.506	2049.61
186.582	2048.13
186.658	2054.55
186.734	2038.62
186.81	2038.81
186.886	2042.76
186.962	2054.64
187.038	2049.32
187.114	2040.75
187.19	2046.46
187.266	2035.43
187.341	2036.86
187.417	2030.72
187.493	2030.58
187.569	2033.91
187.645	2027.2
187.721	2014.6
187.797	2024.3
187.873	2029.48
187.949	2023.59
188.025	2017.54
188.101	2021.21
188.176	2025.06
188.252	2022.59
188.328	2028
188.404	2030.29
188.48	2025.82
188.556	2017.92
188.632	2017.35
188.707	2018.16
188.783	2016.07
188.859	2016.02
188.935	2005.41
189.011	2014.45
189.086	2013.12
189.162	2005.46
189.238	2004.7
189.314	2002.18
189.39	1995.33
189.465	1990.1
189.541	2006.65
189.617	1993.57
189.693	1992.2
189.768	1997.14
189.844	2019.03
189.92	2011.18
189.996	2020.65
190.071	2030.54
190.147	2033.34
190.223	2044.67
190.298	2036.44
190.374	2024.93
190.45	2035.91
190.526	2044.09
190.601	2036.67
190.677	2033.72
190.753	2060.33
190.828	2061.37
190.904	2075.45
190.98	2091.01
191.055	2098.43
191.131	2090
191.207	2108.17
191.282	2112.88
191.358	2100.23
191.433	2086.91
191.509	2096.94
191.585	2092.27
191.66	2096.22
191.736	2102.17
191.811	2094.37
191.887	2107.31
191.963	2128.28
192.038	2132.09
192.114	2133.47
192.189	2137.84
192.265	2134.52
192.34	2111.1
192.416	2111.53
192.491	2108.06
192.567	2112.58
192.642	2117.34
192.718	2116.19
192.793	2104.68
192.869	2102.83
192.944	2106.49
193.02	2113.96
193.095	2121.71
193.171	2128.66
193.246	2126.9
193.322	2123.99
193.397	2123.47
193.473	2115.24
193.548	2099.02
193.624	2103.39
193.699	2098.4
193.775	2115.63
193.85	2116.43
193.925	2123.05
194.001	2122.95
194.076	2115.1
194.152	2098.78
194.227	2089.32
194.302	2080.9
194.378	2080.85
194.453	2079.04
194.529	2094.6
194.604	2078.76
194.679	2074.58
194.755	2054.79
194.83	2065.74
194.905	2066.45
194.981	2074.44
195.056	2066.17
195.131	2073.83
195.207	2073.97
195.282	2065.65
195.357	2045.38
195.433	2060.65
195.508	2051.42
195.583	2060.41
195.659	2074.06
195.734	2082.24
195.809	2082.53
195.884	2092.08
195.96	2095.84
196.035	2110.97
196.11	2104.88
196.185	2120.57
196.261	2117.67
196.336	2148.12
196.411	2131.46
196.486	2131.46
196.561	2126.13
196.637	2133.93
196.712	2147.31
196.787	2148.54
196.862	2167.71
196.937	2175.99
197.013	2182.84
197.088	2192.54
197.163	2210.63
197.238	2228.77
197.313	2230.82
197.388	2247.24
197.464	2277.94
197.539	2291.12
197.614	2282.93
197.689	2296.36
197.764	2309.11
197.839	2332
197.914	2325.19
197.989	2349.9
198.065	2364.36
198.14	2410.51
198.215	2436.69
198.29	2447.69
198.365	2460.5
198.44	2465.78
198.515	2495.68
198.59	2513.92
198.665	2537.3
198.74	2544.92
198.815	2544.82
198.89	2565.54
198.965	2589.78
199.04	2583.12
199.115	2595.4
199.19	2637.17
199.265	2638.45
199.34	2646.45
199.415	2676.19
199.49	2696.95
199.565	2706.24
199.64	2731.73
199.715	2728.29
199.79	2732.53
199.865	2737.82
199.94	2738.58
200.015	2769.46
200.09	2772.7
200.165	2775.89
200.24	2787
200.315	2825.77
200.39	2842.26
200.464	2848.17
200.539	2850.17
200.614	2868.32
200.689	2891.63
200.764	2899.74
200.839	2914.12
200.914	2923.03
200.989	2916.41
201.063	2932.37
201.138	2917.99
201.213	2918.42
201.288	2900.74
201.363	2908.94
201.438	2909.46
201.512	2922.04
201.587	2907.97
201.662	2912.31
201.737	2923.04
201.812	2931.05
201.886	2897.13
201.961	2904.86
202.036	2894.43
202.111	2892.81
202.186	2862.84
202.26	2848.45
202.335	2827.57
202.41	2826.52
202.485	2809.99
202.559	2791.02
202.634	2764.91
202.709	2771
202.784	2750.8
202.858	2755.33
202.933	2735.84
203.008	2729.69
203.082	2712.97
203.157	2712.21
203.232	2672.59
203.306	2649.62
203.381	2619.6
203.456	2599.74
203.53	2576.67
203.605	2556.53
203.68	2534.76
203.754	2529.62
203.829	2514.71
203.904	2490.76
203.978	2479.09
204.053	2482.62
204.127	2470.24
204.202	2468.48
204.277	2452.72
204.351	2447.81
204.426	2436.1
204.5	2432.81
204.575	2401.73
204.65	2409.64
204.724	2401.01
204.799	2410.72
204.873	2412.48
204.948	2407.58
205.022	2397.25
205.097	2390.25
205.171	2404.34
205.246	2410.58
205.32	2410.2
205.395	2407.96
205.469	2401.68
205.544	2408.25
205.618	2388.97
205.693	2398.97
205.767	2384.36
205.842	2402.45
205.916	2396.5
205.991	2387.93
206.065	2386.46
206.14	2401.06
206.214	2394.35
206.289	2389.11
206.363	2398.34
206.438	2399.06
206.512	2411.15
206.586	2428.76
206.661	2437.67
206.735	2416.02
206.81	2418.59
206.884	2433.3
206.958	2421.83
207.033	2438.58
207.107	2441.35
207.181	2476.73
207.256	2470.59
207.33	2491.25
207.405	2503.73
207.479	2521.78
207.553	2530.4
207.628	2519.07
207.702	2529.54
207.776	2530.35
207.851	2533.07
207.925	2546.98
207.999	2541.93
208.073	2536.74
208.148	2538.74
208.222	2524.74
208.296	2555.91
208.371	2575.26
208.445	2587.55
208.519	2616.6
208.593	2632.41
208.668	2630.36
208.742	2630.98
208.816	2633.79
208.89	2647.23
208.965	2649.61
209.039	2662.24
209.113	2682.53
209.187	2703.67
209.261	2705.15
209.336	2726.97
209.41	2752.61
209.484	2756.56
209.558	2786.87
209.632	2802.4
209.707	2820.84
209.781	2854.15
209.855	2878.41
209.929	2902.42
210.003	2916.05
210.077	2925.2
210.151	2978.5
210.226	3025.58
210.3	3067.77
210.374	3110.1
210.448	3134.42
210.522	3163.81
210.596	3189.52
210.67	3219.82
210.744	3292.54
210.818	3350.4
210.892	3399.14
210.966	3421.75
211.041	3471.49
211.115	3498.88
211.189	3566.77
211.263	3630.09
211.337	3679.08
211.411	3738.37
211.485	3778.22
211.559	3848.25
211.633	3908.99
211.707	3942.08
211.781	4019.78
211.855	4050.47
211.929	4110.78
212.003	4168.32
212.077	4256.54
212.151	4351.69
212.225	4441.73
212.299	4516.09
212.373	4598.21
212.447	4690.25
212.52	4817.07
212.594	4928
212.668	5053.71
212.742	5146.89
212.816	5253.67
212.89	5365.08
212.964	5487.35
213.038	5622.5
213.112	5760.89
213.186	5910.37
213.26	6028.78
213.333	6115.26
213.407	6264.03
213.481	6417.53
213.555	6580.32
213.629	6730.11
213.703	6872.25
213.777	7032.67
213.85	7183.13
213.924	7377.08
213.998	7545.3
214.072	7713.62
214.146	7874.49
214.219	8045.19
214.293	8224.83
214.367	8409.97
214.441	8603.49
214.515	8780.94
214.588	8936.21
214.662	9088.08
214.736	9256.48
214.81	9451.58
214.883	9651.84
214.957	9831.15
215.031	10006.78
215.105	10169.89
215.178	10336.86
215.252	10525.8
215.326	10692.79
215.4	10861.8
215.473	11008.58
215.547	11186.02
215.621	11360.28
215.694	11556.1
215.768	11723.67
215.842	11896.89
215.915	12067.18
215.989	12236.7
216.063	12412.49
216.136	12610.06
216.21	12797.23
216.284	12996.5
216.357	13181.99
216.431	13366.03
216.504	13557.16
216.578	13767.33
216.652	13967.28
216.725	14155.27
216.799	14332.14
216.873	14512.03
216.946	14698.39
217.02	14870.77
217.093	15038.37
217.167	15186.01
217.24	15334.09
217.314	15494.12
217.387	15648.08
217.461	15799.38
217.535	15962
217.608	16103.95
217.682	16248.16
217.755	16410.59
217.829	16545.01
217.902	16694.56
217.976	16847.53
218.049	16981.95
218.123	17102.29
218.196	17240.46
218.27	17364.95
218.343	17494.3
218.417	17642.49
218.49	17766.39
218.563	17915.98
218.637	18041.81
218.71	18199.97
218.784	18331.73
218.857	18463.97
218.931	18593.12
219.004	18711.67
219.077	18832.63
219.151	18952.09
219.224	19065.96
219.298	19174.68
219.371	19292.51
219.444	19383.63
219.518	19476.5
219.591	19577.65
219.665	19705.84
219.738	19803.28
219.811	19896.82
219.885	20002.94
219.958	20086.55
220.031	20186.45
220.105	20275.32
220.178	20365.78
220.251	20434.4
220.325	20521.3
220.398	20603.08
220.471	20694.65
220.544	20785.01
220.618	20859.57
220.691	20938.32
220.764	21005.84
220.838	21081.9
220.911	21139.59
220.984	21219.98
221.057	21298.11
221.131	21373.34
221.204	21400
221.277	21475.14
221.35	21561.37
221.424	21599.74
221.497	21656.47
221.57	21694.5
221.643	21746.6
221.716	21808.45
221.79	21854.58
221.863	21902.69
221.936	21954.55
222.009	21997.21
222.082	22047.39
222.155	22079.21
222.229	22137.01
222.302	22191.77
222.375	22224.5
222.448	22284.86
222.521	22320.34
222.594	22340.78
222.667	22363.82
222.74	22413.47
222.814	22438.3
222.887	22458.4
222.96	22510.28
223.033	22547.54
223.106	22583.26
223.179	22607.08
223.252	22616.34
223.325	22642.37
223.398	22660.45
223.471	22670.53
223.544	22680.41
223.617	22695.69
223.69	22724.91
223.763	22722.84
223.837	22736
223.91	22757.36
223.983	22746.8
224.056	22748.39
224.129	22767.48
224.202	22788.5
224.275	22790.09
224.348	22788.31
224.42	22784.06
224.493	22760.73
224.566	22759.62
224.639	22765.98
224.712	22767.24
224.785	22767.87
224.858	22766.37
224.931	22752
225.004	22746.56
225.077	22746.56
225.15	22715.07
225.223	22701.48
225.296	22723.42
225.369	22702.39
225.442	22679.93
225.514	22676.36
225.587	22677.57
225.66	22673.32
225.733	22657.12
225.806	22650.33
225.879	22642.32
225.952	22629.02
226.025	22638.85
226.097	22639.57
226.17	22635.91
226.243	22603.37
226.316	22602.98
226.389	22592.52
226.461	22597.82
226.534	22601.49
226.607	22588.86
226.68	22597.87
226.753	22584.18
226.825	22552.41
226.898	22551.78
226.971	22545.22
227.044	22534.23
227.117	22523.1
227.189	22516.44
227.262	22521.5
227.335	22521.07
227.407	22512.49
227.48	22498.89
227.553	22483.9
227.626	22452.27
227.698	22432.75
227.771	22428.27
227.844	22397.75
227.916	22380.4
227.989	22350.51
228.062	22329.05
228.134	22338.5
228.207	22323.37
228.28	22302.3
228.352	22277.09
228.425	22262.09
228.498	22252.89
228.57	22228.11
228.643	22220.59
228.716	22190.51
228.788	22151.65
228.861	22112.85
228.934	22101.13
229.006	22081.61
229.079	22054.42
229.151	22036.78
229.224	21997.21
229.296	21981.06
229.369	22006.66
229.442	22007.76
229.514	21983.76
229.587	21966.5
229.659	21924.03
229.732	21910.58
229.804	21908.56
229.877	21918.73
229.949	21913.24
230.022	21903.07
230.094	21888.46
230.167	21869.66
230.239	21845.22
230.312	21829.12
230.384	21829.03
230.457	21810.42
230.529	21796.39
230.602	21787.28
230.674	21773.5
230.747	21775.28
230.819	21768.39
230.892	21695.36
230.964	21671.69
231.037	21656.75
231.109	21635.45
231.181	21618.24
231.254	21572.26
231.326	21544.74
231.399	21508.25
231.471	21469.49
231.544	21432.14
231.616	21409.15
231.688	21389.96
231.761	21362.15
231.833	21333.14
231.905	21300.17
231.978	21271.49
232.05	21242.28
232.122	21222.19
232.195	21187.58
232.267	21174.71
232.339	21142.85
232.412	21145.55
232.484	21110.46
232.556	21072.44
232.629	21062.89
232.701	21049.16
232.773	21037.35
232.846	21007.81
232.918	20979.03
232.99	20953.44
233.062	20935.17
233.135	20919.46
233.207	20869.24
233.279	20852.33
233.351	20832.18
233.424	20791.89
233.496	20761.43
233.568	20748.71
233.64	20701.91
233.713	20682.83
233.785	20652.51
233.857	20624.56
233.929	20571.02
234.001	20558.58
234.074	20553.38
234.146	20509.09
234.218	20476.41
234.29	20444.65
234.362	20404.94
234.434	20369.04
234.507	20336.8
234.579	20288.85
234.651	20244.75
234.723	20228.56
234.795	20209.86
234.867	20176.95
234.939	20160.71
235.012	20125.62
235.084	20099.21
235.156	20073.24
235.228	20022.59
235.3	19979.36
235.372	19952.28
235.444	19935.8
235.516	19879.32
235.588	19849.82
235.66	19822.6
235.732	19780
235.804	19801.83
235.876	19781.3
235.948	19763.51
236.02	19726.5
236.092	19697.98
236.164	19670.89
236.236	19626.75
236.308	19588.01
236.38	19565.65
236.452	19524.01
236.524	19491.82
236.596	19479.19
236.668	19459.29
236.74	19439.48
236.812	19412.02
236.884	19391.58
236.956	19368.6
237.028	19333.71
237.1	19291.97
237.172	19276.17
237.244	19264.75
237.316	19193.18
237.388	19153.77
237.46	19118.15
237.532	19101.48
237.604	19066.16
237.675	19049.24
237.747	19033.1
237.819	18989.73
237.891	18953.15
237.963	18916.67
238.035	18879.81
238.107	18812.82
238.178	18790.75
238.25	18759.57
238.322	18745.07
238.394	18688.11
238.466	18639
238.538	18617.41
238.609	18593.03
238.681	18543.1
238.753	18497.85
238.825	18469.42
238.897	18440.02
238.968	18426.05
239.04	18381.57
239.112	18379.88
239.184	18331.65
239.255	18292.32
239.327	18270.11
239.399	18244.47
239.471	18213.72
239.542	18197.96
239.614	18175.36
239.686	18116.57
239.758	18097.92
239.829	18053.63
239.901	18042.45
239.973	18019.27
240.044	17990.36
240.116	17963.47
240.188	17929.11
240.259	17902.26
240.331	17864.34
240.403	17839.66
240.474	17781.55
240.546	17741.45
240.618	17687.33
240.689	17651.04
240.761	17630.27
240.833	17613.64
240.904	17575.91
240.976	17552.63
241.048	17517.4
241.119	17496.83
241.191	17481.02
241.262	17461.69
241.334	17426.03
241.405	17390.8
241.477	17355.77
241.549	17320.92
241.62	17286.22
241.692	17253.65
241.763	17233.6
241.835	17201.4
241.906	17173.55
241.978	17137.59
242.049	17126.12
242.121	17109.45
242.192	17095.38
242.264	17045.4
242.335	16994.7
242.407	16972
242.478	16945.73
242.55	16917.54
242.621	16876.48
242.693	16837.97
242.764	16805.73
242.836	16776.09
242.907	16742.88
242.979	16715.79
243.05	16684.13
243.122	16655.65
243.193	16626.58
243.264	16577.23
243.336	16550.43
243.407	16521.71
243.479	16507.88
243.55	16475.06
243.622	16435.63
243.693	16401.8
243.764	16396.69
243.836	16359.19
243.907	16328.05
243.978	16286.7
244.05	16263.9
244.121	16217.73
244.192	16192.91
244.264	16141.72
244.335	16117.77
244.407	16080.65
244.478	16056.31
244.549	16025.51
244.62	15978.13
244.692	15952.44
244.763	15926.99
244.834	15887.66
244.906	15851.23
244.977	15817.1
245.048	15810.06
245.119	15773.19
245.191	15743.31
245.262	15691.01
245.333	15677.85
245.405	15654.86
245.476	15633.7
245.547	15610.52
245.618	15593.65
245.689	15571.04
245.761	15553.83
245.832	15528.33
245.903	15497.53
245.974	15463.84
246.045	15440.9
246.117	15436.27
246.188	15400.94
246.259	15365.94
246.33	15342.03
246.401	15310.99
246.473	15277.54
246.544	15243.36
246.615	15235.85
246.686	15200.46
246.757	15187.06
246.828	15140.02
246.899	15112.69
246.97	15067.57
247.042	15026.93
247.113	15009.39
247.184	15007.27
247.255	14972.85
247.326	14942.34
247.397	14920.98
247.468	14904.26
247.539	14883.62
247.61	14841.16
247.681	14824.82
247.752	14808.76
247.823	14774.3
247.894	14758.39
247.965	14723.68
248.037	14685.99
248.108	14637.25
248.179	14611.13
248.25	14583.41
248.321	14579.17
248.392	14548.51
248.463	14548.85
248.534	14524.41
248.605	14513.46
248.675	14480.64
248.746	14456.78
248.817	14434.36
248.888	14412.96
248.959	14367.84
249.03	14341.28
249.101	14317.03
249.172	14289.41
249.243	14245.25
249.314	14237.63
249.385	14214.01
249.456	14198.92
249.527	14170.14
249.598	14154.96
249.669	14133.46
249.739	14111.04
249.81	14086.8
249.881	14050.06
249.952	14024.47
250.023	13997.04
250.094	13947.48
250.165	13910.27
250.235	13885.78
250.306	13865.82
250.377	13836.9
250.448	13821.33
250.519	13783.53
250.59	13777.6
250.66	13740.44
250.731	13734.36
250.802	13710.21
250.873	13689.34
250.944	13670.34
251.014	13643.11
251.085	13645.23
251.156	13628.74
251.227	13614.33
251.297	13610.47
251.368	13606.52
251.439	13601.36
251.51	13593.89
251.58	13560.19
251.651	13533.92
251.722	13530.35
251.792	13489.23
251.863	13461.42
251.934	13454.71
252.005	13456.59
252.075	13434.76
252.146	13429.6
252.217	13418.61
252.287	13404.53
252.358	13378.11
252.429	13375.66
252.499	13353.1
252.57	13329.33
252.641	13319.69
252.711	13300.89
252.782	13257.41
252.852	13247.57
252.923	13223.13
252.994	13205.63
253.064	13199.22
253.135	13167.16
253.205	13134.86
253.276	13134.19
253.347	13131.1
253.417	13100.16
253.488	13075.28
253.558	13053.2
253.629	13040.57
253.699	13020.9
253.77	13013.24
253.841	12997.72
253.911	12978.43
253.982	12965.32
254.052	12956.98
254.123	12940.11
254.193	12922.03
254.264	12947.39
254.334	12922.56
254.405	12887.23
254.475	12858.16
254.546	12847.32
254.616	12851.32
254.687	12834.3
254.757	12821.28
254.827	12803.01
254.898	12787.64
254.968	12770.57
255.039	12740.3
255.109	12724.3
255.18	12698.26
255.25	12650.69
255.321	12633.33
255.391	12598.19
255.461	12603.49
255.532	12558.08
255.602	12532.97
255.673	12500.19
255.743	12468.37
255.813	12426.39
255.884	12420.17
255.954	12410.63
256.024	12406.34
256.095	12385.75
256.165	12355.05
256.235	12340.63
256.306	12313.11
256.376	12312.68
256.446	12298.46
256.517	12289.73
256.587	12282.45
256.657	12271.27
256.728	12266.5
256.798	12250.5
256.868	12230.39
256.938	12195.21
257.009	12188.31
257.079	12171.06
257.149	12171.1
257.219	12129.12
257.29	12120.06
257.36	12080.44
257.43	12067.47
257.5	12025.63
257.571	12000.13
257.641	11990.4
257.711	11963.11
257.781	11948.08
257.852	11932.84
257.922	11899.39
257.992	11886.81
258.062	11865.12
258.132	11854.47
258.202	11822.47
258.273	11804.87
258.343	11807.23
258.413	11784.24
258.483	11768.72
258.553	11741.97
258.623	11713.87
258.693	11702.11
258.764	11699.89
258.834	11701.34
258.904	11683.65
258.974	11661.91
259.044	11641.24
259.114	11626.1
259.184	11611.07
259.254	11597.47
259.324	11555.98
259.394	11546.96
259.464	11540.79
259.535	11516.45
259.605	11494.47
259.675	11476.07
259.745	11468.11
259.815	11435.43
259.885	11414.57
259.955	11421.12
260.025	11396.54
260.095	11381.99
260.165	11371.43
260.235	11369.8
260.305	11350.47
260.375	11323.82
260.445	11330.13
260.515	11331
260.585	11334.71
260.655	11319.43
260.725	11310.37
260.795	11306.27
260.865	11306.03
260.934	11285.07
261.004	11281.94
261.074	11266.37
261.144	11265.5
261.214	11263.53
261.284	11247.86
261.354	11240.2
261.424	11206.66
261.494	11214.41
261.564	11200.2
261.634	11194.85
261.703	11156.2
261.773	11139.96
261.843	11131.72
261.913	11117.98
261.983	11088.2
262.053	11073.31
262.123	11054.56
262.192	11027
262.262	11021.46
262.332	10981.22
262.402	10967.34
262.472	10951.29
262.541	10907.73
262.611	10906.91
262.681	10879.44
262.751	10870.53
262.821	10857.71
262.89	10833.43
262.96	10823.5
263.03	10824.32
263.1	10811.02
263.169	10800.37
263.239	10798.01
263.309	10804.08
263.379	10788.66
263.448	10772.23
263.518	10763.65
263.588	10750.64
263.657	10754.88
263.727	10746.64
263.797	10741.2
263.867	10725.44
263.936	10689.74
264.006	10695.76
264.076	10680.24
264.145	10658.27
264.215	10640.15
264.285	10635.53
264.354	10607.97
264.424	10590.72
264.494	10563.64
264.563	10540.65
264.633	10545.28
264.702	10533.96
264.772	10493.38
264.842	10474.74
264.911	10472.14
264.981	10439.42
265.05	10416.63
265.12	10393.55
265.19	10380.59
265.259	10374.28
265.329	10364.84
265.398	10362.52
265.468	10380.21
265.537	10358.04
265.607	10343.83
265.676	10339.02
265.746	10322.54
265.815	10319.79
265.885	10297.97
265.955	10274.6
266.024	10250.08
266.094	10212.55
266.163	10213.32
266.232	10217.95
266.302	10202
266.371	10187.79
266.441	10178.69
266.51	10183.65
266.58	10173.73
266.649	10151.42
266.719	10149.06
266.788	10144.63
266.858	10149.88
266.927	10108.78
266.996	10099.1
267.066	10097.51
267.135	10071.21
267.205	10070.58
267.274	10062.44
267.343	10062.06
267.413	10051.51
267.482	10059.31
267.552	10066.97
267.621	10034.07
267.69	10005.84
267.76	9993.17
267.829	9985.42
267.898	9971.54
267.968	9951.94
268.037	9941.97
268.106	9936.53
268.176	9911.86
268.245	9894.95
268.314	9866.82
268.384	9876.17
268.453	9859.6
268.522	9844.43
268.592	9847.22
268.661	9826.27
268.73	9820.05
268.799	9800.88
268.869	9810.95
268.938	9779.21
269.007	9758.21
269.076	9743.13
269.146	9735.76
269.215	9736.1
269.284	9744.15
269.353	9728.4
269.422	9714.62
269.492	9698.2
269.561	9658.81
269.63	9658.08
269.699	9641.66
269.768	9634.19
269.838	9614.16
269.907	9619.74
269.976	9601.88
270.045	9571.83
270.114	9565.47
270.183	9550.73
270.253	9551.79
270.322	9520.3
270.391	9511.63
270.46	9512.16
270.529	9515.72
270.598	9517.6
270.667	9499.35
270.736	9471.51
270.806	9467.61
270.875	9463.08
270.944	9450.03
271.013	9473.29
271.082	9459.42
271.151	9452.59
271.22	9424.03
271.289	9411.08
271.358	9388.35
271.427	9385.07
271.496	9375.69
271.565	9365.09
271.634	9353.73
271.703	9368.85
271.772	9366.3
271.841	9353.59
271.91	9332.31
271.979	9323.4
272.048	9303.61
272.117	9303.36
272.186	9286.75
272.255	9285.55
272.324	9292.48
272.393	9282.9
272.462	9260.75
272.531	9251.75
272.6	9239.08
272.669	9256.61
272.738	9245.49
272.807	9247.7
272.876	9229.41
272.945	9258.25
273.013	9261.62
273.082	9266.77
273.151	9220.73
273.22	9215.68
273.289	9213.8
273.358	9219.96
273.427	9204.27
273.496	9200.37
273.564	9199.12
273.633	9206.1
273.702	9186.55
273.771	9165.94
273.84	9162.57
273.909	9162.43
273.977	9163.25
274.046	9150.58
274.115	9143.89
274.184	9127.77
274.253	9113.23
274.322	9118.23
274.39	9081.59
274.459	9056.07
274.528	9028.1
274.597	9024.93
274.665	9020.64
274.734	9025.22
274.803	9009.76
274.872	9009.33
274.94	8992.58
275.009	9011.5
275.078	8989.88
275.147	8990.56
275.215	8986.13
275.284	8993.83
275.353	8985.31
275.421	8960.62
275.49	8977.23
275.559	8968.46
275.627	8965.67
275.696	8957.54
275.765	8955.95
275.833	8953.83
275.902	8958.79
275.971	8971.5
276.039	8986.32
276.108	8988.78
276.177	8983.82
276.245	8975.69
276.314	8966.25
276.383	8975.25
276.451	8943.23
276.52	8949.06
276.588	8954.93
276.657	8959.98
276.725	8952.57
276.794	8948.04
276.863	8963.01
276.931	8942.36
277	8950.11
277.068	8960.22
277.137	8983.09
277.205	8977.26
277.274	8987.81
277.342	8992.67
277.411	8969.71
277.48	8955.94
277.548	8946.94
277.617	8941.11
277.685	8938.08
277.754	8942.75
277.822	8934.81
277.89	8940.63
277.959	8931.01
278.027	8913.24
278.096	8898.71
278.164	8918.97
278.233	8913.01
278.301	8900.44
278.37	8905.4
278.438	8891.78
278.507	8887.97
278.575	8854.18
278.643	8850.23
278.712	8831.03
278.78	8824.67
278.849	8839.64
278.917	8846.86
278.985	8842.48
279.054	8847.87
279.122	8850.47
279.191	8855.48
279.259	8850.09
279.327	8836.66
279.396	8854.08
279.464	8849.9
279.532	8859.19
279.601	8853.94
279.669	8851.48
279.737	8866.02
279.806	8869.44
279.874	8877.67
279.942	8874.83
280.011	8875.94
280.079	8879.93
280.147	8893.55
280.215	8888.36
280.284	8879.5
280.352	8860.34
280.42	8868.04
280.488	8856.92
280.557	8851.72
280.625	8842.82
280.693	8845.18
280.761	8843.88
280.83	8822.94
280.898	8836.37
280.966	8811
281.034	8779.18
281.102	8768.31
281.171	8754.49
281.239	8752.71
281.307	8739.86
281.375	8731.82
281.443	8751.7
281.512	8755.41
281.58	8764.51
281.648	8753.1
281.716	8749.59
281.784	8748.29
281.852	8737.84
281.92	8741.21
281.989	8758.25
282.057	8735.49
282.125	8761.24
282.193	8762.64
282.261	8762.06
282.329	8751.52
282.397	8758.21
282.465	8764.75
282.533	8772.69
282.601	8760.57
282.67	8745.74
282.738	8740.78
282.806	8752
282.874	8744.1
282.942	8739.91
283.01	8735.39
283.078	8740.39
283.146	8738.76
283.214	8749.11
283.282	8751.18
283.35	8764.61
283.418	8753.92
283.486	8768.16
283.554	8737.26
283.622	8728.69
283.69	8729.8
283.758	8725.37
283.826	8726.91
283.894	8729.65
283.962	8748.86
284.03	8762.53
284.098	8762.96
284.165	8756.95
284.233	8754.88
284.301	8742.22
284.369	8734.32
284.437	8725.8
284.505	8716.32
284.573	8727.73
284.641	8715.99
284.709	8717.81
284.777	8694.81
284.845	8696.78
284.912	8701.54
284.98	8706.6
285.048	8709.87
285.116	8714.15
285.184	8730.52
285.252	8734.95
285.319	8723.59
285.387	8710.5
285.455	8698.61
285.523	8700.68
285.591	8698.32
285.659	8699.67
285.726	8712.42
285.794	8700.2
285.862	8697.31
285.93	8695.58
285.997	8693.12
286.065	8686.82
286.133	8677.05
286.201	8672.24
286.269	8658.42
286.336	8649.66
286.404	8646.44
286.472	8646.97
286.539	8620.36
286.607	8598.94
286.675	8600.34
286.743	8609.19
286.81	8605.29
286.878	8617.52
286.946	8606.4
287.013	8603.95
287.081	8592.88
287.149	8580.99
287.216	8597.98
287.284	8592.68
287.352	8596.1
287.419	8583.54
287.487	8599.52
287.555	8604.91
287.622	8601.73
287.69	8607.79
287.758	8617.37
287.825	8606.45
287.893	8598.7
287.96	8611.26
288.028	8619.01
288.096	8617.51
288.163	8611.98
288.231	8600.38
288.298	8594.03
288.366	8606.49
288.433	8604.04
288.501	8600.43
288.569	8598.79
288.636	8590.08
288.704	8596.67
288.771	8606.35
288.839	8602.11
288.906	8590.9
288.974	8601.59
289.041	8600
289.109	8591.67
289.176	8593.16
289.244	8599.47
289.311	8609.86
289.379	8620.45
289.446	8623.29
289.514	8619.68
289.581	8626.9
289.649	8630.51
289.716	8632
289.783	8618.77
289.851	8636.91
289.918	8632.92
289.986	8638.5
290.053	8645.28
290.121	8644.56
290.188	8640.66
290.255	8666.08
290.323	8663
290.39	8653.13
290.458	8662.17
290.525	8672.43
290.592	8670.31
290.66	8672.95
290.727	8663.52
290.794	8668.67
290.862	8670.12
290.929	8678.68
290.996	8673.73
291.064	8683.83
291.131	8691.87
291.198	8711.46
291.266	8705.92
291.333	8707.61
291.4	8711.94
291.468	8726.53
291.535	8722.1
291.602	8725.8
291.669	8723.54
291.737	8730.13
291.804	8738.37
291.871	8755.36
291.938	8759.21
292.006	8780.77
292.073	8790.35
292.14	8802.1
292.207	8796.42
292.275	8798.63
292.342	8801.28
292.409	8821.88
292.476	8846
292.543	8838.88
292.611	8841.81
292.678	8861.4
292.745	8890.52
292.812	8903.52
292.879	8899.09
292.946	8904.67
293.014	8916.42
293.081	8919.31
293.148	8929.95
293.215	8941.4
293.282	8932.06
293.349	8941.98
293.416	8922
293.484	8936.01
293.551	8945.11
293.618	8961.81
293.685	8982.95
293.752	8978.23
293.819	8976.35
293.886	8958.49
293.953	8966
294.02	8973.51
294.087	8972.79
294.154	8966.77
294.221	8977.89
294.288	8976.4
294.356	8992.86
294.423	9000.13
294.49	8991.42
294.557	9002.78
294.624	8990.75
294.691	9006.53
294.758	9005.76
294.825	9016.55
294.892	9004.42
294.959	9004.7
295.026	9014.86
295.093	9008.03
295.16	9009.81
295.226	9007.79
295.293	9031.81
295.36	9035.28
295.427	9045.63
295.494	9062.38
295.561	9070.23
295.628	9087.23
295.695	9098.83
295.762	9100.9
295.829	9108.41
295.896	9130.65
295.963	9145.15
296.03	9157.42
296.096	9163.44
296.163	9175.96
296.23	9188.72
296.297	9203.35
296.364	9206.96
296.431	9212.21
296.498	9206.53
296.564	9228.39
296.631	9233.44
296.698	9214.86
296.765	9236.96
296.832	9225.11
296.899	9208.69
296.965	9225.31
297.032	9211.29
297.099	9224.49
297.166	9228.87
297.233	9218.9
297.299	9208.17
297.366	9200.61
297.433	9199.55
297.5	9207.68
297.566	9207.64
297.633	9204.89
297.7	9204.41
297.767	9200.75
297.833	9197.72
297.9	9198.39
297.967	9182.79
298.033	9195.41
298.1	9228.87
298.167	9216.55
298.234	9221.75
298.3	9232.1
298.367	9223.24
298.434	9226.9
298.5	9214.62
298.567	9213.32
298.634	9209.42
298.7	9226.94
298.767	9231.37
298.834	9242.74
298.9	9233.35
298.967	9224.39
299.033	9231.18
299.1	9250.68
299.167	9260.17
299.233	9254.73
299.3	9269.99
299.366	9278.56
299.433	9294.36
299.5	9263.92
299.566	9270.76
299.633	9284.1
299.699	9288.24
299.766	9284.77
299.832	9285.06
299.899	9298.74
299.965	9301.43
300.032	9301.62
300.099	9302.59
300.165	9302.3
300.232	9296.81
300.298	9298.25
300.365	9315.3
300.431	9320.45
300.498	9307.11
300.564	9313.71
300.631	9327.82
300.697	9333.84
300.763	9338.8
300.83	9340.43
300.896	9347.85
300.963	9357.24
301.029	9355.46
301.096	9359.21
301.162	9364.17
301.229	9360.75
301.295	9347.17
301.361	9351.03
301.428	9357.96
301.494	9345.78
301.561	9347.99
301.627	9351.22
301.693	9351.6
301.76	9346.16
301.826	9334.51
301.892	9341.06
301.959	9346.45
302.025	9343.32
302.092	9338.55
302.158	9340.05
302.224	9333.21
302.291	9334.84
302.357	9326.27
302.423	9318.23
302.49	9306.72
302.556	9322.76
302.622	9320.4
302.688	9329.69
302.755	9342.31
302.821	9350.64
302.887	9361.28
302.954	9358.15
303.02	9366.77
303.086	9373.8
303.152	9370
303.219	9363.59
303.285	9368.94
303.351	9373.18
303.417	9371.88
303.483	9360.18
303.55	9352.57
303.616	9340.53
303.682	9336.77
303.748	9332.83
303.815	9352.38
303.881	9361.91
303.947	9342.46
304.013	9338.75
304.079	9327.43
304.145	9307.84
304.212	9298.83
304.278	9286.84
304.344	9281.98
304.41	9265.61
304.476	9253.86
304.542	9247.74
304.608	9255.06
304.674	9235.75
304.741	9224.44
304.807	9220.15
304.873	9229.01
304.939	9243.21
305.005	9233.15
305.071	9227.42
305.137	9221.02
305.203	9189.53
305.269	9182.45
305.335	9188.81
305.401	9187.17
305.467	9189.14
305.533	9192.22
305.599	9196.75
305.666	9205.37
305.732	9203.11
305.798	9214.95
305.864	9242.98
305.93	9251.59
305.996	9245.19
306.062	9247.94
306.128	9245.24
306.194	9229.5
306.259	9223
306.325	9208.12
306.391	9217.22
306.457	9220.15
306.523	9224.58
306.589	9249.62
306.655	9245
306.721	9227.96
306.787	9214.19
306.853	9226.51
306.919	9209.37
306.985	9201.24
307.051	9189.49
307.117	9182.08
307.183	9172.73
307.248	9133.97
307.314	9132.34
307.38	9129.01
307.446	9128.1
307.512	9113.17
307.578	9117.89
307.644	9113.61
307.709	9121.45
307.775	9109.51
307.841	9106.82
307.907	9107.64
307.973	9081.78
308.039	9079.37
308.104	9088.71
308.17	9086.84
308.236	9067.91
308.302	9071.47
308.368	9062.47
308.433	9057.18
308.499	9049.43
308.565	9037.49
308.631	9039.17
308.696	9012.79
308.762	9005.04
308.828	9001.57
308.894	8984.1
308.959	8962.83
309.025	8951.71
309.091	8943.47
309.156	8939.33
309.222	8943.23
309.288	8929.37
309.354	8908.72
309.419	8904.92
309.485	8887.58
309.551	8894.95
309.616	8877.33
309.682	8870.06
309.748	8862.41
309.813	8856.44
309.879	8844.31
309.945	8828.28
310.01	8820.25
310.076	8823.47
310.141	8813.84
310.207	8791.6
310.273	8790.55
310.338	8794.49
310.404	8774.81
310.469	8760.22
310.535	8747.37
310.601	8718.78
310.666	8718.49
310.732	8726.48
310.797	8711.17
310.863	8700.44
310.928	8685.8
310.994	8692.78
311.059	8691.24
311.125	8689.94
311.191	8699.76
311.256	8690.62
311.322	8694.62
311.387	8674.74
311.453	8913.02
311.518	8888.29
311.584	8892.28
311.649	8905.56
311.715	8893
311.78	8894.88
311.846	8883.62
311.911	8888.38
311.976	8887.18
312.042	8871.97
312.107	8856.57
312.173	8850.51
312.238	8842.13
312.304	8834.29
312.369	8822.79
312.434	8810.9
312.5	8796.99
312.565	8764.94
312.631	8770.86
312.696	8760.46
312.761	8766.57
312.827	8515.73
312.892	8553.65
312.958	8548.5
313.023	8542.58
313.088	8543.35
313.154	8528.25
313.219	8520.4
313.284	8515.16
313.35	8516.07
313.415	8497.31
313.48	8491
313.546	8493.65
313.611	8501.2
313.676	8496.3
313.741	8482.1
313.807	8484.8
313.872	8487.54
313.937	8490.91
314.003	8498.03
314.068	8499.28
314.133	8501.74
314.198	8494.9
314.264	8470.31
314.329	8456.64
314.394	8450.67
314.459	8442.59
314.525	8463.42
314.59	8453.42
314.655	8435.08
314.72	8439.61
314.785	8450.05
314.851	8444.56
314.916	8419.54
314.981	8403.61
315.046	8391.3
315.111	8382.45
315.176	8370.46
315.242	8369.36
315.307	8370.61
315.372	8350.3
315.437	8338.46
315.502	8331.73
315.567	8336.49
315.632	8325.66
315.698	8325.33
315.763	8316.95
315.828	8310.8
315.893	8300.02
315.958	8300.21
316.023	8291.94
316.088	8265.52
316.153	8239.49
316.218	8240.07
316.283	8225.31
316.348	8206.88
316.413	8207.12
316.479	8194.86
316.544	8162.97
316.609	8139.83
316.674	8099.23
316.739	8067.78
316.804	8042.96
316.869	8006.4
316.934	7974.36
316.999	7943.73
317.064	7899.15
317.129	7855.86
317.194	7821.28
317.259	7780.26
317.324	7730.3
317.389	7689.48
317.454	7655.19
317.518	7629.28
317.583	7599.03
317.648	7584.89
317.713	7555.47
317.778	7495.57
317.843	7469.8
317.908	7437.02
317.973	7395.72
318.038	7376.59
318.103	7337.09
318.168	7302.24
318.233	7275.76
318.297	7224.14
318.362	7190.16
318.427	7153.46
318.492	7131.49
318.557	7087.15
318.622	7054.81
318.687	7037.47
318.751	6998.41
318.816	6965.89
318.881	6935.28
318.946	6883.88
319.011	6834.15
319.075	6792.65
319.14	6764.32
319.205	6719.7
319.27	6690.16
319.335	6647.61
319.399	6605.45
319.464	6584.99
319.529	6538.85
319.594	6500.62
319.658	6477.39
319.723	6437.16
319.788	6409.51
319.853	6358.04
319.917	6328.72
319.982	6287.29
320.047	6248.84
320.112	6229.64
320.176	6181.75
320.241	6147.82
320.306	6120.7
320.37	6085.39
320.435	6054.58
320.5	6030.54
320.564	5993.08
320.629	5952.54
320.694	5923.62
320.758	5885.58
320.823	5840.25
320.888	5814.31
320.952	5766.78
321.017	5724.87
321.082	5686.7
321.146	5655
321.211	5618.76
321.275	5585.49
321.34	5540.48
321.405	5498.78
321.469	5449.36
321.534	5411.74
321.598	5358.45
321.663	5327.72
321.727	5299.29
321.792	5257.61
321.857	5216.91
321.921	5179.69
321.986	5137.73
322.05	5082.99
322.115	5047.59
322.179	5006.46
322.244	4954.31
322.308	4924.24
322.373	4881.81
322.437	4842.08
322.502	4816.26
322.566	4774.94
322.631	4738.08
322.695	4701.24
322.76	4658.36
322.824	4625.1
322.889	4584.1
322.953	4540.71
323.018	4477.74
323.082	4413.35
323.146	4366.86
323.211	4313.24
323.275	4272.58
323.34	4230.36
323.404	4199.1
323.468	4156.78
323.533	4114
323.597	4073.57
323.662	4024.09
323.726	3993.06
323.79	3952.68
323.855	3893.97
323.919	3848.1
323.983	3803.56
324.048	3744.55
324.112	3898.76
324.177	3779.84
324.241	3587.28
324.305	3399.83
324.37	3213.57
324.434	3034.48
324.498	2992.49
324.562	2946.67
324.627	2891.85
324.691	2841.68
324.755	2782.67
324.82	2712.38
324.884	2647.31
324.948	2579.4
325.012	2494.66
325.077	2376.36
