Data from 20250626_standard_h2o_MAYP1162681_15-28-23-931.txt Node
Date: Thu Jun 26 15:28:23 BST 2025
User: adleo
Spectrometer: MAYP116268
Trigger mode: 0
Integration Time (sec): 1.000000E0
Scans to average: 1
Electric dark correction enabled: true
Nonlinearity correction enabled: true
Boxcar width: 10
XAxis mode: Wavelengths
Number of Pixels in Spectrum: 2068
>>>>>Begin Spectral Data<<<<<
179.565	1166.5
179.642	1216.54
179.718	1260.18
179.795	1298.44
179.871	1327.21
179.948	1344.22
180.024	1362.45
180.101	1381.92
180.177	1395.57
180.254	1415.78
180.33	1438.21
180.407	1487.34
180.483	1577.51
180.56	1663.6
180.636	1744.11
180.712	1733.85
180.789	1739.07
180.865	1748.62
180.942	1756.84
181.018	1765.49
181.095	1778.9
181.171	1780.23
181.248	1784.41
181.324	1798.53
181.4	1802.05
181.477	1813.46
181.553	1824
181.63	1842.83
181.706	1858.89
181.782	1868.35
181.859	1869.35
181.935	1872.34
182.011	1869.97
182.088	1887.94
182.164	1907.53
182.24	1919.75
182.317	1930.16
182.393	1931.34
182.469	1946.18
182.546	1958.97
182.622	1963.72
182.698	1958.92
182.775	1972.8
182.851	1984.64
182.927	1976.84
183.003	1975.98
183.08	1970.33
183.156	1980.5
183.232	1981.55
183.308	1969.47
183.385	1976.27
183.461	1994.53
183.537	1997.53
183.613	2009.41
183.69	2000.05
183.766	1991.1
183.842	1999.57
183.918	2005.51
183.995	2016.64
184.071	2018.3
184.147	2012.79
184.223	2002.05
184.299	2012.56
184.375	2001.67
184.452	2007.81
184.528	2062.28
184.604	2072.07
184.68	2084.72
184.756	2094.38
184.832	2098.09
184.908	2105.41
184.985	2105.84
185.061	2090.66
185.137	2097.51
185.213	2085.34
185.289	2089.9
185.365	2083.2
185.441	2082.72
185.517	2093.95
185.593	2094.33
185.669	2097.43
185.745	2110.55
185.822	2128.95
185.898	2125.58
185.974	2136.99
186.05	2131.56
186.126	2095.07
186.202	2093.98
186.278	2096.17
186.354	2091.74
186.43	2102.35
186.506	2107.35
186.582	2112.15
186.658	2127.03
186.734	2119.42
186.81	2135.97
186.886	2149.91
186.962	2173.65
187.038	2181.84
187.114	2182.26
187.19	2200.59
187.266	2200.78
187.341	2215.11
187.417	2222.34
187.493	2236.9
187.569	2256.17
187.645	2270.54
187.721	2279.3
187.797	2306.48
187.873	2328.14
187.949	2344.42
188.025	2361.32
188.101	2393.12
188.176	2427.54
188.252	2455.07
188.328	2496.44
188.404	2531.87
188.48	2560.26
188.556	2590.32
188.632	2631.25
188.707	2677.62
188.783	2716.18
188.859	2754
188.935	2785.65
189.011	2833.72
189.086	2869.46
189.162	2906.21
189.238	2943.72
189.314	2982.66
189.39	3015.89
189.465	3051.84
189.541	3108.68
189.617	3138.06
189.693	3171.58
189.768	3217.86
189.844	3277.57
189.92	3312.97
189.996	3362.71
190.071	3424.58
190.147	3476.1
190.223	3540.45
190.298	3591.91
190.374	3641.78
190.45	3723.71
190.526	3800.7
190.601	3876.13
190.677	3950.58
190.753	4054.6
190.828	4139.45
190.904	4231.64
190.98	4327.96
191.055	4421.99
191.131	4498.44
191.207	4600.32
191.282	4688.18
191.358	4754.87
191.433	4820.3
191.509	4906.18
191.585	4971.9
191.66	5039.41
191.736	5109.51
191.811	5159.46
191.887	5234.82
191.963	5316.02
192.038	5382.01
192.114	5440.3
192.189	5498.87
192.265	5562.99
192.34	5610.25
192.416	5682.85
192.491	5758.13
192.567	5840.04
192.642	5921.91
192.718	6005.6
192.793	6086.14
192.869	6174.97
192.944	6273.16
193.02	6379.89
193.095	6478.68
193.171	6590.02
193.246	6690.25
193.322	6789.41
193.397	6892.4
193.473	6979.45
193.548	7058.8
193.624	7154.27
193.699	7247.62
193.775	7345.74
193.85	7429.33
193.925	7512.91
194.001	7585.48
194.076	7649.61
194.152	7705.33
194.227	7773.57
194.302	7830.16
194.378	7892.87
194.453	7954.95
194.529	8031.77
194.604	8083.49
194.679	8153.73
194.755	8205.64
194.83	8297.85
194.905	8372.2
194.981	8454.92
195.056	8524.02
195.131	8613.83
195.207	8699.47
195.282	8776.57
195.357	8854.51
195.433	8958.72
195.508	9038.59
195.583	9136.22
195.659	9243.83
195.734	9339.74
195.809	9421.6
195.884	9522.28
195.96	9607.51
196.035	9714.13
196.11	9794.6
196.185	9893.43
196.261	9970.79
196.336	10077.19
196.411	10125.12
196.486	10197.71
196.561	10260.38
196.637	10341.51
196.712	10422.93
196.787	10487.64
196.862	10566.31
196.937	10637
197.013	10708.26
197.088	10789.65
197.163	10877.74
197.238	10958.8
197.313	11027.85
197.388	11105.34
197.464	11195.22
197.539	11277.97
197.614	11331.46
197.689	11410.31
197.764	11494.99
197.839	11583.48
197.914	11648.83
197.989	11748.03
198.065	11830.64
198.14	11955.33
198.215	12051.83
198.29	12131.99
198.365	12222.94
198.44	12304.89
198.515	12407.03
198.59	12499.72
198.665	12584.85
198.74	12657.83
198.815	12725.85
198.89	12817.24
198.965	12910.71
199.04	12975.6
199.115	13062.66
199.19	13177.39
199.265	13258.76
199.34	13328.27
199.415	13429.89
199.49	13516.13
199.565	13591.14
199.64	13688.66
199.715	13749.93
199.79	13823.06
199.865	13904.62
199.94	13971.24
200.015	14072.28
200.09	14147.15
200.165	14209.96
200.24	14294.9
200.315	14405.19
200.39	14484.77
200.464	14557.03
200.539	14629.05
200.614	14716.25
200.689	14802.3
200.764	14872.72
200.839	14949.8
200.914	15023.31
200.989	15085.73
201.063	15165.22
201.138	15215.59
201.213	15283.99
201.288	15338.61
201.363	15414.52
201.438	15480.51
201.512	15559.9
201.587	15612.1
201.662	15682.62
201.737	15768.61
201.812	15837.29
201.886	15872.23
201.961	15957.59
202.036	16021.27
202.111	16093.42
202.186	16130.05
202.26	16180.03
202.335	16229.39
202.41	16292.43
202.485	16346.94
202.559	16390.17
202.634	16437.99
202.709	16513.99
202.784	16567.01
202.858	16633.28
202.933	16693.72
203.008	16758.88
203.082	16801.92
203.157	16870.5
203.232	16896.77
203.306	16942.94
203.381	16984
203.456	17028.67
203.53	17068.38
203.605	17118.65
203.68	17161.74
203.754	17230.65
203.829	17292.92
203.904	17349.45
203.978	17408.2
204.053	17476.05
204.127	17537.55
204.202	17601.06
204.277	17650.12
204.351	17712.58
204.426	17779.71
204.5	17828.1
204.575	17857.68
204.65	17941.97
204.724	17996.57
204.799	18072.09
204.873	18137.68
204.948	18205.14
205.022	18263.07
205.097	18329.91
205.171	18412.51
205.246	18487.88
205.32	18546.81
205.395	18607.82
205.469	18661.79
205.544	18733.16
205.618	18784.97
205.693	18862.75
205.767	18930.65
205.842	19018.88
205.916	19076.85
205.991	19131.21
206.065	19198.87
206.14	19288.02
206.214	19349.9
206.289	19409.37
206.363	19486.71
206.438	19559.24
206.512	19625.4
206.586	19712
206.661	19786.46
206.735	19830.99
206.81	19901.97
206.884	19990.55
206.958	20053.15
207.033	20134.06
207.107	20204.08
207.181	20305.19
207.256	20363.46
207.33	20445.29
207.405	20520.09
207.479	20601.63
207.553	20668.43
207.628	20717.97
207.702	20789.78
207.776	20848.38
207.851	20926.61
207.925	21007.91
207.999	21071.97
208.073	21140.65
208.148	21211.83
208.222	21259.74
208.296	21355.85
208.371	21437.99
208.445	21508.79
208.519	21590.92
208.593	21667.42
208.668	21730.66
208.742	21796.8
208.816	21857.14
208.89	21931.19
208.965	22000.41
209.039	22079.52
209.113	22163.11
209.187	22254.21
209.261	22306.51
209.336	22397.53
209.41	22481.66
209.484	22544.87
209.558	22622.82
209.632	22705.94
209.707	22780.05
209.781	22877.58
209.855	22959.12
209.929	23038.83
210.003	23117.33
210.077	23181.6
210.151	23295.32
210.226	23385.88
210.3	23478.14
210.374	23574.77
210.448	23639.11
210.522	23712.51
210.596	23782.97
210.67	23850.39
210.744	23961.03
210.818	24065.49
210.892	24144.5
210.966	24205.08
211.041	24279.56
211.115	24334.01
211.189	24411.43
211.263	24479.45
211.337	24537.87
211.411	24606.85
211.485	24652.93
211.559	24725.39
211.633	24788.58
211.707	24812.08
211.781	24889.96
211.855	24916.6
211.929	24956.4
212.003	24999.82
212.077	25066.75
212.151	25132.18
212.225	25203.79
212.299	25246.6
212.373	25297.32
212.447	25341.38
212.52	25415.27
212.594	25480.57
212.668	25550.88
212.742	25601.46
212.816	25650.69
212.89	25687.27
212.964	25727.87
213.038	25792.79
213.112	25848.06
213.186	25914.77
213.26	25938.85
213.333	25951.64
213.407	26002.18
213.481	26072.36
213.555	26127.87
213.629	26168.09
213.703	26210.67
213.777	26254.94
213.85	26284.78
213.924	26366.58
213.998	26424.86
214.072	26473.11
214.146	26497.59
214.219	26541.96
214.293	26571.8
214.367	26609.9
214.441	26675.08
214.515	26712.02
214.588	26733.9
214.662	26737.86
214.736	26768.77
214.81	26831.63
214.883	26876.54
214.957	26897.88
215.031	26911.11
215.105	26922.56
215.178	26941.92
215.252	26963.8
215.326	26975.73
215.4	26990.22
215.473	26961.82
215.547	26958.87
215.621	26960.32
215.694	26999.64
215.768	27005.82
215.842	27020.84
215.915	27041.51
215.989	27030.11
216.063	27045.81
216.136	27061.8
216.21	27089.66
216.284	27119.81
216.357	27129.56
216.431	27131.83
216.504	27171.83
216.578	27210.42
216.652	27241.28
216.725	27260.7
216.799	27283.99
216.873	27299.3
216.946	27329.05
217.02	27349.53
217.093	27364.22
217.167	27361.47
217.24	27355.72
217.314	27361.75
217.387	27366.1
217.461	27374.02
217.535	27407.45
217.608	27408.9
217.682	27415.62
217.755	27434.84
217.829	27425.9
217.902	27443.54
217.976	27467.89
218.049	27454.02
218.123	27448.95
218.196	27467.21
218.27	27475.13
218.343	27474.36
218.417	27488.85
218.49	27479.58
218.563	27490.49
218.637	27494.12
218.71	27512.48
218.784	27529.53
218.857	27545.04
218.931	27555.62
219.004	27559.19
219.077	27562.33
219.151	27564.55
219.224	27570.25
219.298	27570.64
219.371	27583.3
219.444	27570.64
219.518	27559.53
219.591	27568.95
219.665	27594.94
219.738	27589.58
219.811	27569.53
219.885	27567.65
219.958	27572.58
220.031	27559.15
220.105	27554.56
220.178	27565.86
220.251	27559.83
220.325	27558.86
220.398	27553.5
220.471	27559.25
220.544	27569.44
220.618	27549.92
220.691	27547.94
220.764	27541.61
220.838	27544.61
220.911	27525.28
220.984	27529.63
221.057	27529.2
221.131	27514.17
221.204	27469.43
221.277	27478.9
221.35	27500.69
221.424	27483.15
221.497	27474.89
221.57	27480.79
221.643	27474.7
221.716	27468.08
221.79	27450.4
221.863	27437.36
221.936	27425.04
222.009	27399.44
222.082	27376.68
222.155	27366.01
222.229	27362
222.302	27341.23
222.375	27304.47
222.448	27299.73
222.521	27278.77
222.594	27256.6
222.667	27229.55
222.74	27223.56
222.814	27191.29
222.887	27167.24
222.96	27160.09
223.033	27140.96
223.106	27110.39
223.179	27092.51
223.252	27056.05
223.325	27024.12
223.398	26991.76
223.471	26966.17
223.544	26935.26
223.617	26911.21
223.69	26876.63
223.763	26840.17
223.837	26816.75
223.91	26795.45
223.983	26749.86
224.056	26705.39
224.129	26669.71
224.202	26648.9
224.275	26607.95
224.348	26576.22
224.42	26524.31
224.493	26468.59
224.566	26411.56
224.639	26388
224.712	26350.34
224.785	26313.55
224.858	26286.61
224.931	26249.62
225.004	26200.33
225.077	26170.84
225.15	26102.82
225.223	26077.76
225.296	26058.4
225.369	25996.67
225.442	25952.06
225.514	25909.2
225.587	25885.74
225.66	25851.37
225.733	25822.94
225.806	25792.43
225.879	25747.78
225.952	25706.22
226.025	25685.66
226.097	25671.81
226.17	25625.43
226.243	25562.83
226.316	25526.44
226.389	25485.27
226.461	25448.78
226.534	25422.53
226.607	25376.4
226.68	25373.74
226.753	25320.42
226.825	25258.93
226.898	25243.11
226.971	25209.42
227.044	25183.8
227.117	25144.18
227.189	25121.65
227.262	25083
227.335	25045.74
227.407	24993.01
227.48	24961.94
227.553	24915.03
227.626	24860.56
227.698	24815.54
227.771	24780.47
227.844	24726.1
227.916	24698.02
227.989	24642.11
228.062	24593.24
228.134	24580.79
228.207	24531.97
228.28	24495.93
228.352	24459.9
228.425	24419.28
228.498	24381.36
228.57	24331.34
228.643	24305.43
228.716	24258.3
228.788	24210.01
228.861	24162.98
228.934	24138.91
229.006	24089.62
229.079	24058.41
229.151	24013.31
229.224	23974.73
229.296	23943.53
229.369	23931.23
229.442	23903.39
229.514	23860.71
229.587	23839.64
229.659	23778.15
229.732	23744.43
229.804	23704.98
229.877	23687
229.949	23661.24
230.022	23643.88
230.094	23609.78
230.167	23567.58
230.239	23515.6
230.312	23485.36
230.384	23477.6
230.457	23442.68
230.529	23411.82
230.602	23362.98
230.674	23334.53
230.747	23306.95
230.819	23283.41
230.892	23223.38
230.964	23184.56
231.037	23154.96
231.109	23113.01
231.181	23090.92
231.254	23043.14
231.326	23013.34
231.399	22975.11
231.471	22931.71
231.544	22868.83
231.616	22838.85
231.688	22798.39
231.761	22750.57
231.833	22691.95
231.905	22634.62
231.978	22599.37
232.05	22562.4
232.122	22533.85
232.195	22490.56
232.267	22472.53
232.339	22423.6
232.412	22401.42
232.484	22349.21
232.556	22300.14
232.629	22282.06
232.701	22243.88
232.773	22211.77
232.846	22170.51
232.918	22130.64
232.99	22098.73
233.062	22071.92
233.135	22036.35
233.207	21990.6
233.279	21972.14
233.351	21955.56
233.424	21906.1
233.496	21852.02
233.568	21827.2
233.64	21768.2
233.713	21726.65
233.785	21677.58
233.857	21649.62
233.929	21596.12
234.001	21580.84
234.074	21572.93
234.146	21510.27
234.218	21467.23
234.29	21418.26
234.362	21374.98
234.434	21311.16
234.507	21257.18
234.579	21203.2
234.651	21148.83
234.723	21119.24
234.795	21082.37
234.867	21034.27
234.939	21005.01
235.012	20971.9
235.084	20930.89
235.156	20914.41
235.228	20873.68
235.3	20837.24
235.372	20792.9
235.444	20776.33
235.516	20720.47
235.588	20674.97
235.66	20643.16
235.732	20603.16
235.804	20626.1
235.876	20594.83
235.948	20587.16
236.02	20553.33
236.092	20508.13
236.164	20480.71
236.236	20435.16
236.308	20390.97
236.38	20363.31
236.452	20317.04
236.524	20282.44
236.596	20270.35
236.668	20235.31
236.74	20201.62
236.812	20161.48
236.884	20132.47
236.956	20089.43
237.028	20037.44
237.1	19987.03
237.172	19960.57
237.244	19945.15
237.316	19862.69
237.388	19823.75
237.46	19772.29
237.532	19751.47
237.604	19716.19
237.675	19693.69
237.747	19663.09
237.819	19612.63
237.891	19569.45
237.963	19526.23
238.035	19480.45
238.107	19405.12
238.178	19379.78
238.25	19338.81
238.322	19321.23
238.394	19266.39
238.466	19225.23
238.538	19198.82
238.609	19168.27
238.681	19111.31
238.753	19059.31
238.825	19027.32
238.897	18987.03
238.968	18966.36
239.04	18918.21
239.112	18911.52
239.184	18860.19
239.255	18825.26
239.327	18803.81
239.399	18769.55
239.471	18747.72
239.542	18727.24
239.614	18699.38
239.686	18633.65
239.758	18607.15
239.829	18558.48
239.901	18532.26
239.973	18490.77
240.044	18457.61
240.116	18418.87
240.188	18374.92
240.259	18330.78
240.331	18289.04
240.403	18251.79
240.474	18196.13
240.546	18141.97
240.618	18078.45
240.689	18037.87
240.761	18003.8
240.833	17985.35
240.904	17944.62
240.976	17904.82
241.048	17862.41
241.119	17832.92
241.191	17805.16
241.262	17782.75
241.334	17745.69
241.405	17712.97
241.477	17677.74
241.549	17635.14
241.62	17604.44
241.692	17590.42
241.763	17567.19
241.835	17535.38
241.906	17516.1
241.978	17471.57
242.049	17456.78
242.121	17446.37
242.192	17419.96
242.264	17371.72
242.335	17313.36
242.407	17292.34
242.478	17257.55
242.55	17226.99
242.621	17188.92
242.693	17148.53
242.764	17104
242.836	17065.54
242.907	17038.46
242.979	17009.25
243.05	16982.99
243.122	16960.34
243.193	16927.03
243.264	16879.95
243.336	16849.97
243.407	16824.72
243.479	16817.87
243.55	16784.47
243.622	16748.28
243.693	16723.7
243.764	16706.83
243.836	16678.2
243.907	16642.88
243.978	16608.75
244.05	16585.96
244.121	16549.33
244.192	16534.96
244.264	16500.94
244.335	16474.72
244.407	16421.84
244.478	16397.31
244.549	16371.24
244.62	16325.45
244.692	16286.41
244.763	16268.77
244.834	16228.04
244.906	16191.12
244.977	16156.37
245.048	16150.45
245.119	16110.54
245.191	16068.56
245.262	16014.86
245.333	15995.92
245.405	15977.6
245.476	15952.35
245.547	15927.48
245.618	15898.41
245.689	15864.38
245.761	15833.34
245.832	15795.17
245.903	15784.37
245.974	15754.63
246.045	15720.36
246.117	15712.65
246.188	15676.45
246.259	15631.67
246.33	15606.8
246.401	15572.96
246.473	15530.16
246.544	15487.8
246.615	15471.02
246.686	15437.86
246.757	15428.89
246.828	15384.11
246.899	15355.77
246.97	15315.14
247.042	15275.66
247.113	15259.95
247.184	15252.86
247.255	15227.79
247.326	15202.54
247.397	15164.12
247.468	15132.98
247.539	15107.91
247.61	15060.39
247.681	15039.95
247.752	15030.12
247.823	14991.07
247.894	14964.7
247.965	14936.31
248.037	14897.7
248.108	14853.98
248.179	14828
248.25	14794.64
248.321	14779.46
248.392	14741.91
248.463	14739.98
248.534	14714.24
248.605	14697.27
248.675	14666.03
248.746	14641.98
248.817	14625.49
248.888	14612.14
248.959	14577.29
249.03	14558.97
249.101	14534.53
249.172	14506.96
249.243	14457.21
249.314	14449.06
249.385	14428.91
249.456	14413.39
249.527	14383.12
249.598	14365.96
249.669	14343.15
249.739	14320.26
249.81	14302.47
249.881	14259.9
249.952	14227.27
250.023	14193.52
250.094	14140.74
250.165	14102.51
250.235	14079.81
250.306	14058.26
250.377	14023.6
250.448	14010.58
250.519	13967.82
250.59	13962.28
250.66	13938.23
250.731	13933.74
250.802	13908.43
250.873	13891.8
250.944	13858.16
251.014	13839.93
251.085	13848.08
251.156	13835.55
251.227	13830.2
251.297	13824.89
251.368	13824.07
251.439	13817.18
251.51	13810.24
251.58	13790.67
251.651	13769.65
251.722	13757.31
251.792	13712.38
251.863	13685.48
251.934	13671.31
252.005	13674.39
252.075	13651.59
252.146	13635.1
252.217	13628.21
252.287	13615.87
252.358	13593.89
252.429	13599.96
252.499	13569.3
252.57	13543.22
252.641	13524.57
252.711	13502.15
252.782	13458.43
252.852	13456.31
252.923	13423.62
252.994	13407.57
253.064	13404.34
253.135	13376.19
253.205	13347.74
253.276	13348.03
253.347	13347.6
253.417	13319.45
253.488	13290.14
253.558	13268.44
253.629	13247.86
253.699	13224.87
253.77	13217.83
253.841	13187.65
253.911	13167.16
253.982	13155.4
254.052	13139.06
254.123	13118.23
254.193	13101.02
254.264	13120.64
254.334	13093.79
254.405	13076
254.475	13042.65
254.546	13014.59
254.616	13013
254.687	12998.87
254.757	12983.45
254.827	12956.26
254.898	12941.9
254.968	12928.11
255.039	12902.03
255.109	12895.28
255.18	12867.61
255.25	12816.71
255.321	12806.92
255.391	12773.46
255.461	12770.52
255.532	12718.22
255.602	12693.06
255.673	12651.51
255.743	12618.1
255.813	12572.35
255.884	12563.87
255.954	12560.01
256.024	12559
256.095	12535.09
256.165	12507.32
256.235	12493.88
256.306	12468.62
256.376	12460.81
256.446	12447.79
256.517	12433.67
256.587	12428.27
256.657	12418.19
256.728	12401.47
256.798	12383.1
256.868	12363.97
256.938	12338.56
257.009	12340.78
257.079	12337.41
257.149	12342.9
257.219	12303.18
257.29	12296.87
257.36	12258.69
257.43	12244.9
257.5	12211.84
257.571	12193.18
257.641	12184.46
257.711	12155.54
257.781	12140.69
257.852	12128.25
257.922	12088.92
257.992	12067.71
258.062	12046.45
258.132	12032.09
258.202	12021.63
258.273	11998.98
258.343	11994.11
258.413	11969.77
258.483	11953.42
258.553	11928.79
258.623	11905.99
258.693	11892.84
258.764	11887.92
258.834	11882.86
258.904	11868.88
258.974	11838.95
259.044	11821.12
259.114	11806.51
259.184	11795.23
259.254	11785.59
259.324	11742.5
259.394	11744.72
259.464	11743.9
259.535	11715.8
259.605	11692.23
259.675	11661.1
259.745	11651.12
259.815	11626.15
259.885	11601.23
259.955	11609.72
260.025	11577.28
260.095	11563.3
260.165	11552.22
260.235	11548.8
260.305	11527.64
260.375	11495.92
260.445	11501.9
260.515	11494.14
260.585	11485.22
260.655	11461.66
260.725	11449.85
260.795	11447.49
260.865	11438.52
260.934	11418.09
261.004	11411.48
261.074	11393.12
261.144	11393.46
261.214	11389.36
261.284	11371.05
261.354	11368.69
261.424	11338.27
261.494	11345.79
261.564	11322.51
261.634	11309.69
261.703	11275.43
261.773	11262.22
261.843	11259.86
261.913	11241.45
261.983	11212.73
262.053	11197.79
262.123	11185.02
262.192	11154.37
262.262	11148.05
262.332	11109.84
262.402	11093.26
262.472	11079.43
262.541	11046.71
262.611	11048.78
262.681	11017.94
262.751	11012.78
262.821	10996.3
262.89	10960.5
262.96	10941.56
263.03	10943.2
263.1	10939.05
263.169	10926.62
263.239	10916.55
263.309	10915.34
263.379	10904.55
263.448	10888.07
263.518	10880.02
263.588	10868.02
263.657	10878.43
263.727	10865.47
263.797	10865.23
263.867	10849.85
263.936	10821.09
264.006	10827.83
264.076	10805.67
264.145	10792.41
264.215	10765.58
264.285	10755.41
264.354	10729.97
264.424	10715.18
264.494	10684.19
264.563	10657.4
264.633	10658.85
264.702	10652.34
264.772	10618.27
264.842	10601.02
264.911	10594.9
264.981	10567.44
265.05	10550.38
265.12	10531.3
265.19	10518.19
265.259	10505.09
265.329	10494.68
265.398	10480.76
265.468	10486.01
265.537	10462.5
265.607	10452.86
265.676	10456.81
265.746	10447.42
265.815	10456.43
265.885	10436.82
265.955	10421.64
266.024	10402.66
266.094	10361.47
266.163	10356.5
266.232	10352.89
266.302	10339.69
266.371	10328.71
266.441	10315.65
266.51	10307.8
266.58	10288.09
266.649	10269.01
266.719	10267.47
266.788	10265.59
266.858	10272.77
266.927	10237.46
266.996	10227.77
267.066	10214.19
267.135	10185.09
267.205	10183.02
267.274	10161.97
267.343	10159.61
267.413	10148.58
267.482	10151.56
267.552	10158.21
267.621	10129.11
267.69	10099.82
267.76	10081.76
267.829	10067.84
267.898	10054.64
267.968	10033.54
268.037	10027.13
268.106	10026.7
268.176	9997.94
268.245	9970.72
268.314	9953.48
268.384	9951.02
268.453	9941
268.522	9939.56
268.592	9940.13
268.661	9918.6
268.73	9917.16
268.799	9901.5
268.869	9906.8
268.938	9879.73
269.007	9860.22
269.076	9851.94
269.146	9848.52
269.215	9844.66
269.284	9852.23
269.353	9831.9
269.422	9816.11
269.492	9791.25
269.561	9746.94
269.63	9742.51
269.699	9731.68
269.768	9715.11
269.838	9702.34
269.907	9700.61
269.976	9671.9
270.045	9638.29
270.114	9627.55
270.183	9612.96
270.253	9606.65
270.322	9573.66
270.391	9561.86
270.46	9564.89
270.529	9558.29
270.598	9557.62
270.667	9541.1
270.736	9515.53
270.806	9517.26
270.875	9522.51
270.944	9514.51
271.013	9540.04
271.082	9531.23
271.151	9525.83
271.22	9497.42
271.289	9486.25
271.358	9467.95
271.427	9464.96
271.496	9457.6
271.565	9446.28
271.634	9432.8
271.703	9451
271.772	9453.31
271.841	9442.43
271.91	9415.99
271.979	9405.26
272.048	9380.55
272.117	9378.96
272.186	9365.43
272.255	9358.59
272.324	9351.9
272.393	9350.31
272.462	9328.69
272.531	9324.64
272.6	9311.11
272.669	9319.92
272.738	9307.98
272.807	9305.57
272.876	9283.38
272.945	9308.03
273.013	9306.92
273.082	9311.31
273.151	9268.98
273.22	9258.67
273.289	9252.7
273.358	9260.6
273.427	9251.74
273.496	9252.85
273.564	9251.07
273.633	9247.98
273.702	9227.81
273.771	9216.64
273.84	9206.91
273.909	9199.02
273.977	9184.77
274.046	9173.16
274.115	9176
274.184	9156.84
274.253	9142.74
274.322	9148.27
274.39	9124.73
274.459	9110.28
274.528	9080.72
274.597	9072.01
274.665	9075.33
274.734	9078.89
274.803	9067.72
274.872	9060.84
274.94	9046.01
275.009	9096.97
275.078	9086.38
275.147	9088.11
275.215	9086.76
275.284	9095.33
275.353	9089.56
275.421	9070.4
275.49	9082.77
275.559	9068.66
275.627	9066.59
275.696	9062.84
275.765	9056.48
275.833	9040.07
275.902	9037.86
275.971	9054.32
276.039	9069.39
276.108	9069
276.177	9062.7
276.245	9053.65
276.314	9046.95
276.383	9047.48
276.451	8984.39
276.52	8987.71
276.588	8995.27
276.657	8990.02
276.725	8973.94
276.794	8968.89
276.863	8980.88
276.931	8959.84
277	8965.81
277.068	8971.25
277.137	8982.66
277.205	8987.28
277.274	8997.63
277.342	9010
277.411	8987.9
277.48	8975.87
277.548	8959.02
277.617	8959.26
277.685	8950.5
277.754	8951.12
277.822	8948.24
277.89	8960.23
277.959	8948.58
278.027	8919.45
278.096	8913.77
278.164	8936.59
278.233	8927.26
278.301	8909.06
278.37	8915.42
278.438	8902.18
278.507	8903.67
278.575	8875.32
278.643	8869.97
278.712	8854.14
278.78	8837.34
278.849	8838.97
278.917	8845.9
278.985	8842.58
279.054	8841.72
279.122	8849.13
279.191	8846.63
279.259	8833.82
279.327	8806.91
279.396	8821.07
279.464	8827.18
279.532	8831.65
279.601	8827.42
279.669	8826.74
279.737	8844.65
279.806	8840.56
279.874	8843.93
279.942	8840.12
280.011	8839.26
280.079	8845.66
280.147	8858.61
280.215	8858.37
280.284	8854.04
280.352	8836.85
280.42	8846.81
280.488	8834.49
280.557	8827.7
280.625	8831.65
280.693	8832.57
280.761	8831.84
280.83	8813.02
280.898	8823.32
280.966	8799.93
281.034	8769.03
281.102	8752.42
281.171	8741.83
281.239	8750.88
281.307	8741.69
281.375	8732.31
281.443	8752.18
281.512	8742.12
281.58	8746.99
281.648	8734.09
281.716	8738.66
281.784	8740.01
281.852	8724.8
281.92	8728.5
281.989	8740.49
282.057	8717.29
282.125	8745.98
282.193	8747.86
282.261	8752.72
282.329	8748.29
282.397	8754.11
282.465	8751.22
282.533	8763.26
282.601	8751.08
282.67	8727.69
282.738	8722.97
282.806	8730.29
282.874	8721.52
282.942	8720.71
283.01	8714.98
283.078	8720.9
283.146	8706.94
283.214	8708.67
283.282	8709.2
283.35	8718.93
283.418	8710.89
283.486	8718.64
283.554	8693.56
283.622	8692.11
283.69	8687.92
283.758	8676.66
283.826	8680.37
283.894	8692.98
283.962	8712.62
284.03	8724.94
284.098	8725.9
284.165	8718.39
284.233	8714.3
284.301	8705.64
284.369	8700.54
284.437	8687.59
284.505	8679.65
284.573	8690.04
284.641	8677.34
284.709	8686.24
284.777	8666.51
284.845	8665.59
284.912	8667.33
284.98	8665.74
285.048	8653.42
285.116	8652.84
285.184	8660.97
285.252	8659.34
285.319	8638.26
285.387	8623.53
285.455	8607.55
285.523	8611.69
285.591	8608.18
285.659	8607.94
285.726	8617.51
285.794	8601.73
285.862	8608.08
285.93	8606.01
285.997	8603.61
286.065	8600.05
286.133	8591.67
286.201	8585.46
286.269	8576.08
286.336	8562.36
286.404	8556.97
286.472	8573.72
286.539	8549.71
286.607	8533.11
286.675	8531.28
286.743	8540.23
286.81	8534.55
286.878	8545.62
286.946	8536.62
287.013	8537.77
287.081	8531.71
287.149	8517.46
287.216	8536.04
287.284	8524.73
287.352	8517.32
287.419	8511.02
287.487	8520.11
287.555	8520.54
287.622	8518.76
287.69	8523.72
287.758	8533.15
287.825	8525.02
287.893	8507.98
287.96	8518.09
288.028	8530.65
288.096	8532.14
288.163	8535.27
288.231	8525.55
288.298	8526.6
288.366	8539.98
288.433	8538.97
288.501	8537.72
288.569	8538.78
288.636	8532.09
288.704	8540.13
288.771	8548.02
288.839	8545.04
288.906	8538.73
288.974	8544.65
289.041	8540.51
289.109	8521.65
289.176	8529.93
289.244	8540.51
289.311	8550.96
289.379	8559.81
289.446	8555.82
289.514	8552.35
289.581	8552.93
289.649	8552.64
289.716	8552.5
289.783	8541.76
289.851	8551.68
289.918	8550.28
289.986	8560.1
290.053	8562.31
290.121	8562.12
290.188	8565.73
290.255	8597.06
290.323	8596.58
290.39	8589.65
290.458	8600.53
290.525	8614.14
290.592	8608.66
290.66	8602.83
290.727	8597.49
290.794	8601.58
290.862	8603.8
290.929	8606.93
290.996	8599.61
291.064	8608.71
291.131	8614.43
291.198	8624.25
291.266	8622.9
291.333	8621.46
291.4	8625.26
291.468	8638.5
291.535	8634.07
291.602	8634.79
291.669	8619.97
291.737	8623.48
291.804	8626.56
291.871	8636.81
291.938	8643.69
292.006	8669.74
292.073	8686.44
292.14	8696.88
292.207	8694.91
292.275	8695.05
292.342	8707.37
292.409	8736.25
292.476	8760.03
292.543	8751.8
292.611	8753.87
292.678	8772.26
292.745	8794.44
292.812	8798.34
292.879	8789.34
292.946	8790.98
293.014	8801.52
293.081	8807.39
293.148	8814.9
293.215	8826.64
293.282	8818.22
293.349	8828.96
293.416	8803.4
293.484	8807.1
293.551	8816.54
293.618	8830.01
293.685	8848.69
293.752	8834.44
293.819	8825.92
293.886	8805.85
293.953	8811.77
294.02	8817.06
294.087	8821.06
294.154	8811.58
294.221	8824.86
294.288	8825.97
294.356	8845.22
294.423	8850.62
294.49	8843.01
294.557	8855.67
294.624	8845.32
294.691	8863.9
294.758	8862.07
294.825	8872.71
294.892	8868.42
294.959	8865.78
295.026	8870.21
295.093	8868.86
295.16	8870.45
295.226	8865.83
295.293	8895.19
295.36	8893.84
295.427	8908.33
295.494	8915.12
295.561	8923.64
295.628	8943.82
295.695	8962.98
295.762	8958.98
295.829	8963.27
295.896	8975.44
295.963	8985.75
296.03	8992.1
296.096	8997.4
296.163	9002.5
296.23	9013.04
296.297	9025.51
296.364	9024.64
296.431	9025.9
296.498	9018.67
296.564	9040.24
296.631	9043.66
296.698	9023.29
296.765	9047.65
296.832	9027.29
296.899	9016.36
296.965	9036.82
297.032	9011.83
297.099	9025.6
297.166	9030.8
297.233	9029.98
297.299	9030.27
297.366	9024.25
297.433	9029.88
297.5	9034.26
297.566	9032.58
297.633	9033.98
297.7	9027.72
297.767	9024.01
297.833	9028.49
297.9	9030.32
297.967	9015.11
298.033	9028.44
298.1	9053.77
298.167	9043.41
298.234	9057.42
298.3	9059.64
298.367	9046.59
298.434	9052.85
298.5	9037.68
298.567	9034.79
298.634	9029.06
298.7	9037.39
298.767	9040.28
298.834	9046.06
298.9	9040.52
298.967	9036.33
299.033	9042.35
299.1	9062.86
299.167	9081.78
299.233	9083.61
299.3	9092.08
299.366	9105.03
299.433	9121.4
299.5	9097.04
299.566	9100.03
299.633	9111.63
299.699	9122.7
299.766	9121.69
299.832	9122.03
299.899	9128.43
299.965	9141.34
300.032	9138.26
300.099	9142.35
300.165	9142.83
300.232	9140.76
300.298	9142.44
300.365	9154.29
300.431	9159.73
300.498	9149.62
300.564	9148.46
300.631	9156.31
300.697	9173.4
300.763	9176.77
300.83	9172.25
300.896	9189.34
300.963	9198.15
301.029	9204.31
301.096	9209.13
301.162	9220.34
301.229	9217.31
301.295	9206.19
301.361	9202.43
301.428	9203.64
301.494	9191.07
301.561	9191.07
301.627	9194.54
301.693	9193.38
301.76	9199.06
301.826	9188.18
301.892	9196.75
301.959	9202.29
302.025	9193.82
302.092	9184.72
302.158	9185.2
302.224	9182.74
302.291	9170.99
302.357	9166.71
302.423	9151.88
302.49	9135.03
302.556	9149.33
302.622	9145.24
302.688	9154.58
302.755	9171.72
302.821	9181.73
302.887	9190.73
302.954	9193.33
303.02	9196.66
303.086	9203.16
303.152	9198.05
303.219	9191.41
303.285	9197.67
303.351	9200.85
303.417	9209.37
303.483	9201.95
303.55	9198.06
303.616	9194.54
303.682	9189.73
303.748	9175.91
303.815	9188.28
303.881	9202.92
303.947	9185.06
304.013	9191.8
304.079	9187.32
304.145	9159.06
304.212	9159.87
304.278	9147.69
304.344	9139.61
304.41	9130.94
304.476	9118.42
304.542	9106.63
304.608	9113.37
304.674	9091.46
304.741	9082.26
304.807	9074.8
304.873	9079.71
304.939	9090.25
305.005	9066.33
305.071	9067.1
305.137	9074.03
305.203	9048.99
305.269	9042.64
305.335	9053.71
305.401	9043.03
305.467	9039.7
305.533	9051.02
305.599	9055.45
305.666	9063.63
305.732	9064.59
305.798	9069.5
305.864	9092.52
305.93	9103.45
305.996	9098.54
306.062	9098.39
306.128	9097.04
306.194	9085.63
306.259	9077.26
306.325	9067.53
306.391	9086.74
306.457	9091.7
306.523	9090.64
306.589	9116.06
306.655	9105.9
306.721	9083.56
306.787	9077.26
306.853	9079.08
306.919	9064.11
306.985	9049.33
307.051	9041.34
307.117	9034.22
307.183	9028.44
307.248	8998.25
307.314	8999.41
307.38	9000.47
307.446	9005.43
307.512	8996.66
307.578	8998.59
307.644	8997.82
307.709	8992.19
307.775	8976.83
307.841	8969.46
307.907	8969.03
307.973	8943.66
308.039	8946.16
308.104	8951.65
308.17	8948.57
308.236	8941.73
308.302	8942.65
308.368	8930.9
308.433	8929.22
308.499	8926.67
308.565	8916.37
308.631	8918.58
308.696	8891.53
308.762	8875.93
308.828	8869.67
308.894	8847.72
308.959	8824.53
309.025	8813.31
309.091	8812.2
309.156	8809.07
309.222	8811.91
309.288	8793.82
309.354	8774.08
309.419	8762.87
309.485	8744.91
309.551	8742.27
309.616	8725.37
309.682	8720.61
309.748	8715.02
309.813	8708.05
309.879	8693.46
309.945	8679.6
310.01	8672.48
310.076	8676.04
310.141	8673.39
310.207	8659.34
310.273	8661.12
310.338	8667.71
310.404	8648.6
310.469	8639.94
310.535	8629.59
310.601	8601.82
310.666	8607.45
310.732	8617.9
310.797	8604.9
310.863	8595.28
310.928	8595.52
310.994	8593.88
311.059	8588.11
311.125	8582
311.191	8591.14
311.256	8580.12
311.322	8589.8
311.387	8567.28
311.453	8807.77
311.518	8779.62
311.584	8778.08
311.649	8779.76
311.715	8765.9
311.78	8771.97
311.846	8755.51
311.911	8761.72
311.976	8764.12
312.042	8748.63
312.107	8728.99
312.173	8722.98
312.238	8722.64
312.304	8713.35
312.369	8705.36
312.434	8698.1
312.5	8693.48
312.565	8656.95
312.631	8659.02
312.696	8645.07
312.761	8651.66
312.827	8398.27
312.892	8435.76
312.958	8424.21
313.023	8415.98
313.088	8417.85
313.154	8399.19
313.219	8387.02
313.284	8375.03
313.35	8374.45
313.415	8362.76
313.48	8362.86
313.546	8369.02
313.611	8374.07
313.676	8362.38
313.741	8355.64
313.807	8356.32
313.872	8361.56
313.937	8368.25
314.003	8375.08
314.068	8374.84
314.133	8377.82
314.198	8368.1
314.264	8348.32
314.329	8342.98
314.394	8342.98
314.459	8332.5
314.525	8349.05
314.59	8348.85
314.655	8335.24
314.72	8334.85
314.785	8340.14
314.851	8337.5
314.916	8314.6
314.981	8295.01
315.046	8284.72
315.111	8273.7
315.176	8257.06
315.242	8254.79
315.307	8252.82
315.372	8235.5
315.437	8225.16
315.502	8211.64
315.567	8220.44
315.632	8202.06
315.698	8197.44
315.763	8191
315.828	8186.38
315.893	8182.63
315.958	8180.32
316.023	8171.99
316.088	8158.28
316.153	8138.32
316.218	8125.86
316.283	8109.51
316.348	8092.48
316.413	8094.22
316.479	8082.1
316.544	8055.36
316.609	8025.82
316.674	7992.01
316.739	7965.99
316.804	7935.36
316.869	7908.23
316.934	7873.22
316.999	7842.83
317.064	7797.67
317.129	7757.32
317.194	7725.35
317.259	7686.44
317.324	7632.6
317.389	7593.51
317.454	7553.02
317.518	7522.83
317.583	7497.35
317.648	7475.52
317.713	7447.11
317.778	7388.08
317.843	7361.06
317.908	7330.45
317.973	7293.2
318.038	7270.32
318.103	7228.95
318.168	7200.35
318.233	7167.38
318.297	7118.13
318.362	7087.23
318.427	7054.85
318.492	7032.41
318.557	6989.99
318.622	6957.22
318.687	6937.38
318.751	6899.58
318.816	6868.36
318.881	6830.89
318.946	6781.75
319.011	6744.24
319.075	6702.6
319.14	6675.66
319.205	6631.18
319.27	6594.74
319.335	6555.8
319.399	6517.72
319.464	6492.85
319.529	6442.78
319.594	6408.78
319.658	6383.53
319.723	6344.84
319.788	6321.66
319.853	6270.05
319.917	6237.76
319.982	6188.56
320.047	6158.66
320.112	6133.28
320.176	6086.98
320.241	6057.37
320.306	6029.01
320.37	5991.73
320.435	5964.19
320.5	5936.85
320.564	5907.06
320.629	5867.01
320.694	5844.52
320.758	5803.41
320.823	5762.74
320.888	5740.02
320.952	5695.71
321.017	5659.98
321.082	5623.98
321.146	5589.93
321.211	5554.55
321.275	5517.46
321.34	5479.21
321.405	5440.48
321.469	5397.06
321.534	5361.03
321.598	5310.1
321.663	5283.4
321.727	5251.77
321.792	5208.69
321.857	5168.15
321.921	5130.16
321.986	5094.67
322.05	5032.32
322.115	4997.59
322.179	4957.61
322.244	4903.27
322.308	4874.78
322.373	4831.73
322.437	4796.16
322.502	4766.66
322.566	4728.03
322.631	4698.3
322.695	4661.74
322.76	4618.72
322.824	4589
322.889	4552.26
322.953	4516.63
323.018	4450.12
323.082	4393.82
323.146	4345.33
323.211	4294.2
323.275	4250.87
323.34	4208.41
323.404	4177.97
323.468	4137.75
323.533	4098.46
323.597	4056.61
323.662	4009.61
323.726	3975.2
323.79	3929.89
323.855	3868.04
323.919	3821.65
323.983	3774.58
324.048	3711.51
324.112	3832.34
324.177	3712.85
324.241	3517.61
324.305	3327.24
324.37	3145.67
324.434	2965.38
324.498	2923.84
324.562	2877.39
324.627	2819.93
324.691	2768.05
324.755	2708.18
324.82	2634.84
324.884	2559.55
324.948	2494.73
325.012	2399.31
325.077	2279.43
