Data from 20250625_urea_1M_1_MAYP1162681_23-55-05-416.txt Node
Date: Wed Jun 25 23:55:05 BST 2025
User: adleo
Spectrometer: MAYP116268
Trigger mode: 0
Integration Time (sec): 1.000000E0
Scans to average: 1
Electric dark correction enabled: true
Nonlinearity correction enabled: true
Boxcar width: 10
XAxis mode: Wavelengths
Number of Pixels in Spectrum: 2068
>>>>>Begin Spectral Data<<<<<
179.565	1132.2
179.642	1186.27
179.718	1224.35
179.795	1262.12
179.871	1292.39
179.948	1310.65
180.024	1330.45
180.101	1350.55
180.177	1361.5
180.254	1382.08
180.33	1401.84
180.407	1449.68
180.483	1538.52
180.56	1620.38
180.636	1701.85
180.712	1689.4
180.789	1698.52
180.865	1712.3
180.942	1718.47
181.018	1729.21
181.095	1744.37
181.171	1752.12
181.248	1752.4
181.324	1768.85
181.4	1773.13
181.477	1785.06
181.553	1797.03
181.63	1817.8
181.706	1832.73
181.782	1844.37
181.859	1842.94
181.935	1849.31
182.011	1846.89
182.088	1862.67
182.164	1886.3
182.24	1896.33
182.317	1908.21
182.393	1904.17
182.469	1915.73
182.546	1930.51
182.622	1933.36
182.698	1930.22
182.775	1942.06
182.851	1954.66
182.927	1948.24
183.003	1946.11
183.08	1938.64
183.156	1946.15
183.232	1944.49
183.308	1936.26
183.385	1941.21
183.461	1958.89
183.537	1961.08
183.613	1972.82
183.69	1966.79
183.766	1952.61
183.842	1958.79
183.918	1964.02
183.995	1975.91
184.071	1981.71
184.147	1973.91
184.223	1963.65
184.299	1974.06
184.375	1961.51
184.452	1966.93
184.528	2019.16
184.604	2029.19
184.68	2040.6
184.756	2048.59
184.832	2050.73
184.908	2054.34
184.985	2056.29
185.061	2041.46
185.137	2051.21
185.213	2041.79
185.289	2041.32
185.365	2036.9
185.441	2034.57
185.517	2047.65
185.593	2042.99
185.669	2035.9
185.745	2049.22
185.822	2067.09
185.898	2060.06
185.974	2070.99
186.05	2063.9
186.126	2025.9
186.202	2016.58
186.278	2015.25
186.354	2005.45
186.43	2008.78
186.506	2007.88
186.582	2005.69
186.658	2011.25
186.734	1990
186.81	1990.38
186.886	1993.85
186.962	2004.69
187.038	2002.5
187.114	1993.6
187.19	2001.36
187.266	1994.65
187.341	1994.6
187.417	1986.05
187.493	1982.72
187.569	1982.24
187.645	1978.53
187.721	1967.4
187.797	1978.48
187.873	1978.67
187.949	1971.78
188.025	1967.97
188.101	1970.02
188.176	1973.77
188.252	1972.06
188.328	1980.85
188.404	1982.99
188.48	1977.48
188.556	1969.92
188.632	1970.2
188.707	1969.35
188.783	1969.58
188.859	1964.88
188.935	1954.84
189.011	1962.97
189.086	1960.74
189.162	1956.08
189.238	1952.32
189.314	1949.52
189.39	1944.57
189.465	1939.58
189.541	1956.41
189.617	1943.58
189.693	1937.97
189.768	1942.68
189.844	1962.03
189.92	1952.81
189.996	1959.04
190.071	1970.12
190.147	1968.08
190.223	1977.92
190.298	1972.07
190.374	1959.09
190.45	1969.55
190.526	1974.02
190.601	1969.93
190.677	1969.98
190.753	1993.91
190.828	1996.81
190.904	2013.98
190.98	2029.58
191.055	2038.47
191.131	2033.34
191.207	2052.07
191.282	2062.25
191.358	2052.59
191.433	2043.41
191.509	2058.2
191.585	2056.53
191.66	2059.96
191.736	2069.66
191.811	2059.86
191.887	2073.37
191.963	2094.72
192.038	2100.19
192.114	2102.86
192.189	2107.42
192.265	2104.95
192.34	2084.44
192.416	2083.25
192.491	2077.07
192.567	2076.93
192.642	2080.02
192.718	2076.31
192.793	2064.27
192.869	2059
192.944	2061.42
193.02	2069.08
193.095	2071.7
193.171	2078.45
193.246	2075.74
193.322	2069.41
193.397	2070.13
193.473	2055.38
193.548	2040.21
193.624	2044.92
193.699	2042.25
193.775	2057.86
193.85	2059.19
193.925	2066.42
194.001	2066.18
194.076	2056.81
194.152	2046.44
194.227	2040.97
194.302	2034.13
194.378	2039.88
194.453	2035.41
194.529	2044.59
194.604	2028.71
194.679	2021.95
194.755	2001.79
194.83	2014.4
194.905	2015.5
194.981	2022.58
195.056	2018.97
195.131	2024.01
195.207	2022.15
195.282	2013.69
195.357	1990.76
195.433	2008.17
195.508	1996.18
195.583	2006.64
195.659	2024.48
195.734	2029.67
195.809	2027.34
195.884	2035.23
195.96	2033.09
196.035	2051.82
196.11	2051.44
196.185	2062.57
196.261	2064.95
196.336	2095.15
196.411	2077.74
196.486	2082.68
196.561	2077.36
196.637	2085.01
196.712	2100.19
196.787	2103.76
196.862	2118.83
196.937	2130.1
197.013	2132.77
197.088	2144.37
197.163	2160.79
197.238	2178.12
197.313	2179.22
197.388	2194.25
197.464	2221.09
197.539	2235.22
197.614	2224.14
197.689	2235.61
197.764	2251.27
197.839	2270.96
197.914	2264.25
197.989	2288.43
198.065	2304.65
198.14	2354.61
198.215	2382.79
198.29	2394.17
198.365	2409.68
198.44	2419.2
198.515	2445.01
198.59	2456.72
198.665	2483.14
198.74	2493.43
198.815	2489.81
198.89	2515.23
198.965	2544.48
199.04	2544.91
199.115	2555.33
199.19	2600.75
199.265	2607.52
199.34	2616.66
199.415	2648.97
199.49	2672.63
199.565	2682.16
199.64	2701.78
199.715	2699.59
199.79	2703.69
199.865	2708.5
199.94	2703.07
200.015	2735.04
200.09	2739.61
200.165	2750.33
200.24	2757.19
200.315	2796.87
200.39	2812.26
200.464	2814.12
200.539	2815.03
200.614	2828.89
200.689	2856.39
200.764	2862.35
200.839	2876.16
200.914	2880.5
200.989	2871.77
201.063	2884.98
201.138	2869.36
201.213	2872.55
201.288	2850.96
201.363	2857.63
201.438	2860.06
201.512	2880.07
201.587	2862.05
201.662	2868.11
201.737	2877.59
201.812	2885.84
201.886	2851.97
201.961	2862.56
202.036	2850.6
202.111	2846.36
202.186	2818.93
202.26	2799.67
202.335	2780.22
202.41	2773.84
202.485	2762.88
202.559	2744.73
202.634	2721.05
202.709	2727.33
202.784	2706.85
202.858	2704.56
202.933	2685.7
203.008	2681.6
203.082	2662.26
203.157	2663.83
203.232	2625.4
203.306	2606.72
203.381	2573.09
203.456	2553.04
203.53	2527.54
203.605	2513.35
203.68	2490.21
203.754	2485.73
203.829	2471.3
203.904	2453.11
203.978	2442.78
204.053	2443.21
204.127	2427.74
204.202	2421.69
204.277	2407.7
204.351	2400.98
204.426	2397.94
204.5	2389.18
204.575	2350.63
204.65	2356.82
204.724	2344.39
204.799	2350.1
204.873	2349.05
204.948	2346.48
205.022	2334.4
205.097	2329.68
205.171	2343.44
205.246	2352.82
205.32	2350.06
205.395	2348.25
205.469	2338.45
205.544	2343.02
205.618	2325.41
205.693	2338.5
205.767	2326.79
205.842	2344.74
205.916	2340.69
205.991	2331.32
206.065	2336.27
206.14	2354.81
206.214	2350.81
206.289	2347.96
206.363	2358.19
206.438	2356.48
206.512	2368.62
206.586	2386.23
206.661	2393.23
206.735	2366.34
206.81	2367.39
206.884	2383.57
206.958	2371.44
207.033	2386.76
207.107	2394.71
207.181	2425.52
207.256	2421.67
207.33	2441.18
207.405	2450.38
207.479	2468.85
207.553	2474.66
207.628	2464.57
207.702	2474.85
207.776	2469.04
207.851	2475.23
207.925	2489.66
207.999	2487.66
208.073	2480.85
208.148	2483.38
208.222	2472.85
208.296	2505.16
208.371	2520.79
208.445	2531.18
208.519	2559.98
208.593	2576.89
208.668	2572.6
208.742	2576.36
208.816	2578.46
208.89	2592.56
208.965	2594.61
209.039	2604
209.113	2622.19
209.187	2640.99
209.261	2639.66
209.336	2663.09
209.41	2683.82
209.484	2689.35
209.558	2716.79
209.632	2738.8
209.707	2757.76
209.781	2785.45
209.855	2811.8
209.929	2836.32
210.003	2851.29
210.077	2862.63
210.151	2915.07
210.226	2961.76
210.3	3000.03
210.374	3037.44
210.448	3059.66
210.522	3090.71
210.596	3119.81
210.67	3153.38
210.744	3219.36
210.818	3277.06
210.892	3324.31
210.966	3349.78
211.041	3394.88
211.115	3419.45
211.189	3477.54
211.263	3530.05
211.337	3572.82
211.411	3624.69
211.485	3664.44
211.559	3724.61
211.633	3777.07
211.707	3801.6
211.781	3865.53
211.855	3897.6
211.929	3955.5
212.003	4008.87
212.077	4087.35
212.151	4172.91
212.225	4259.48
212.299	4334.97
212.373	4405.48
212.447	4489.05
212.52	4609.29
212.594	4706.67
212.668	4822.31
212.742	4910.91
212.816	5009.77
212.89	5117.96
212.964	5232.89
213.038	5354.56
213.112	5485.3
213.186	5618.73
213.26	5724.18
213.333	5809.12
213.407	5942.52
213.481	6085.99
213.555	6228.16
213.629	6361.68
213.703	6491.36
213.777	6639.53
213.85	6759.08
213.924	6950.3
213.998	7107.73
214.072	7254.44
214.146	7399.25
214.219	7557.56
214.293	7720.25
214.367	7890.19
214.441	8063.42
214.515	8223
214.588	8371.62
214.662	8511.21
214.736	8671.87
214.81	8858.03
214.883	9047.34
214.957	9218.46
215.031	9378.09
215.105	9541.05
215.178	9703.33
215.252	9874.83
215.326	10022.6
215.4	10188.32
215.473	10317.44
215.547	10477.2
215.621	10645.31
215.694	10831.68
215.768	10992.86
215.842	11159.88
215.915	11326.15
215.989	11475.2
216.063	11643.26
216.136	11810.55
216.21	11986.95
216.284	12169.67
216.357	12338.13
216.431	12494.49
216.504	12667.3
216.578	12861.5
216.652	13037.63
216.725	13207.7
216.799	13384.66
216.873	13550.82
216.946	13733.41
217.02	13890.66
217.093	14043.9
217.167	14183.94
217.24	14326.96
217.314	14476.83
217.387	14622.75
217.461	14771.4
217.535	14944.21
217.608	15077.54
217.682	15231.26
217.755	15390.61
217.829	15525.87
217.902	15668.01
217.976	15823.7
218.049	15948.58
218.123	16057.66
218.196	16200.76
218.27	16335.71
218.343	16449.99
218.417	16593.52
218.49	16711.94
218.563	16864.47
218.637	16992.67
218.71	17134.56
218.784	17262.37
218.857	17397.55
218.931	17520.5
219.004	17634.42
219.077	17750.52
219.151	17866.57
219.224	17970.95
219.298	18067.77
219.371	18185.16
219.444	18278.84
219.518	18368.05
219.591	18481.87
219.665	18613.67
219.738	18707.45
219.811	18790.2
219.885	18892.02
219.958	18986.76
220.031	19081.6
220.105	19164.63
220.178	19254.41
220.251	19334.46
220.325	19422.6
220.398	19495.27
220.471	19573
220.544	19657.38
220.618	19727.16
220.691	19810.87
220.764	19885.27
220.838	19960.06
220.911	20024.26
220.984	20118.57
221.057	20204.83
221.131	20272.64
221.204	20305.02
221.277	20385.5
221.35	20470.85
221.424	20528.83
221.497	20576.44
221.57	20625.65
221.643	20680.2
221.716	20741.03
221.79	20790.23
221.863	20842.24
221.936	20895.1
222.009	20942.53
222.082	20992.84
222.155	21034.92
222.229	21094.11
222.302	21141.19
222.375	21187.9
222.448	21234.12
222.521	21269.2
222.594	21301.16
222.667	21325.26
222.74	21380.78
222.814	21408.5
222.887	21437.03
222.96	21478.43
223.033	21525.24
223.106	21557
223.179	21589.2
223.252	21618.55
223.325	21648
223.398	21671.23
223.471	21700.97
223.544	21725.12
223.617	21744.93
223.69	21768.36
223.763	21765.32
223.837	21789.52
223.91	21807.4
223.983	21809.57
224.056	21805.71
224.129	21822.15
224.202	21849.29
224.275	21850.11
224.348	21852.37
224.42	21850.06
224.493	21841
224.566	21841.82
224.639	21865.29
224.712	21863.8
224.785	21858.06
224.858	21854.45
224.931	21857.58
225.004	21858.54
225.077	21864.28
225.15	21841
225.223	21841.87
225.296	21868.57
225.369	21858.21
225.442	21848.23
225.514	21846.78
225.587	21861.34
225.66	21860.81
225.733	21855.51
225.806	21856.76
225.879	21855.17
225.952	21845.39
226.025	21858.83
226.097	21866.98
226.17	21858.69
226.243	21849.39
226.316	21845.82
226.389	21845.96
226.461	21841.72
226.534	21828.9
226.607	21832.47
226.68	21845.87
226.753	21835.17
226.825	21813.62
226.898	21814.39
226.971	21814.44
227.044	21812.61
227.117	21803.01
227.189	21795.01
227.262	21796.22
227.335	21793.23
227.407	21777.27
227.48	21781.56
227.553	21773.9
227.626	21757.66
227.698	21748.21
227.771	21735.05
227.844	21725.99
227.916	21722.13
227.989	21701.55
228.062	21694.61
228.134	21695.33
228.207	21690.9
228.28	21679.62
228.352	21673.93
228.425	21665.21
228.498	21670.36
228.57	21662.51
228.643	21664.43
228.716	21651.42
228.788	21628.91
228.861	21611.22
228.934	21611.37
229.006	21585.82
229.079	21560.8
229.151	21542.97
229.224	21515.74
229.296	21504.27
229.369	21506.05
229.442	21498.58
229.514	21480.89
229.587	21471.54
229.659	21438.81
229.732	21427.97
229.804	21419.05
229.877	21410.81
229.949	21405.41
230.022	21399.43
230.094	21374.23
230.167	21354.13
230.239	21331.28
230.312	21318.12
230.384	21324.92
230.457	21316.92
230.529	21306.65
230.602	21302.75
230.674	21297.3
230.747	21294.7
230.819	21292.67
230.892	21250.02
230.964	21229.63
231.037	21222.79
231.109	21207.51
231.181	21195.99
231.254	21162.88
231.326	21143.26
231.399	21122.97
231.471	21094.78
231.544	21048.99
231.616	21038.68
231.688	21019.93
231.761	20997.13
231.833	20971.78
231.905	20927.82
231.978	20900.45
232.05	20883.2
232.122	20855.15
232.195	20824.98
232.267	20815.63
232.339	20784.15
232.412	20777.02
232.484	20751.24
232.556	20716.73
232.629	20719.14
232.701	20708.54
232.773	20693.31
232.846	20658.8
232.918	20641.26
232.99	20627.57
233.062	20613.35
233.135	20597.5
233.207	20557.5
233.279	20539.91
233.351	20523.72
233.424	20496.73
233.496	20467.47
233.568	20454.32
233.64	20420.44
233.713	20385.4
233.785	20352.49
233.857	20335.96
233.929	20293.89
234.001	20280.44
234.074	20274.27
234.146	20220.78
234.218	20195.72
234.29	20167.72
234.362	20147.38
234.434	20097.69
234.507	20053.94
234.579	20017.6
234.651	19982.08
234.723	19968.25
234.795	19950.61
234.867	19929.89
234.939	19913.8
235.012	19890.09
235.084	19870.33
235.156	19846.09
235.228	19819.25
235.3	19786.28
235.372	19757.13
235.444	19749.51
235.516	19702.29
235.588	19665.23
235.66	19636.07
235.732	19596.17
235.804	19618.58
235.876	19593.28
235.948	19580.66
236.02	19551.26
236.092	19518.54
236.164	19483.65
236.236	19448.18
236.308	19410.69
236.38	19378.35
236.452	19340.62
236.524	19308.53
236.596	19292.14
236.668	19277.35
236.74	19250.22
236.812	19230.6
236.884	19210.56
236.956	19181.88
237.028	19141.31
237.1	19100.59
237.172	19089.36
237.244	19070.33
237.316	19007.77
237.388	18972.88
237.46	18937.56
237.532	18925.27
237.604	18882.48
237.675	18874.43
237.747	18845.71
237.819	18797.71
237.891	18759.31
237.963	18727.65
238.035	18699.36
238.107	18629.19
238.178	18607.32
238.25	18575.9
238.322	18560.81
238.394	18509.73
238.466	18465.06
238.538	18449.49
238.609	18432.96
238.681	18378.37
238.753	18334.13
238.825	18298.61
238.897	18272.54
238.968	18253.65
239.04	18209.41
239.112	18206.76
239.184	18160.35
239.255	18125.85
239.327	18111.34
239.399	18085.99
239.471	18059.49
239.542	18024.16
239.614	18009.32
239.686	17948.6
239.758	17931.54
239.829	17877.18
239.901	17858.29
239.973	17837.62
240.044	17808.56
240.116	17775.74
240.188	17738.1
240.259	17707.6
240.331	17666.97
240.403	17640.7
240.474	17603.55
240.546	17562.83
240.618	17512.27
240.689	17472.18
240.761	17448.9
240.833	17433.81
240.904	17401.67
240.976	17371.6
241.048	17342.2
241.119	17316.56
241.191	17294.78
241.262	17262.39
241.334	17228.85
241.405	17198.58
241.477	17161.33
241.549	17123.84
241.62	17096.61
241.692	17085.38
241.763	17063.98
241.835	17038.73
241.906	17014.77
241.978	16963.45
242.049	16946.48
242.121	16931.97
242.192	16911.83
242.264	16868.5
242.335	16815.1
242.407	16790.57
242.478	16760.69
242.55	16735.72
242.621	16696.78
242.693	16663.43
242.764	16640.06
242.836	16609.6
242.907	16583.23
242.979	16560.24
243.05	16538.26
243.122	16511.66
243.193	16478.31
243.264	16429.24
243.336	16391.65
243.407	16361.09
243.479	16346.68
243.55	16324.51
243.622	16294.77
243.693	16273.91
243.764	16260.51
243.836	16222.04
243.907	16194.04
243.978	16160.06
244.05	16138.32
244.121	16090.03
244.192	16068.72
244.264	16020.96
244.335	15992.33
244.407	15945.72
244.478	15918.49
244.549	15887.83
244.62	15844.94
244.692	15815.49
244.763	15801.85
244.834	15769.07
244.906	15732.05
244.977	15709.69
245.048	15698.75
245.119	15659.08
245.191	15612.47
245.262	15560.75
245.333	15557.95
245.405	15526.57
245.476	15503.77
245.547	15476.25
245.618	15470.95
245.689	15444.63
245.761	15425.74
245.832	15402.12
245.903	15376.76
245.974	15355.99
246.045	15322.97
246.117	15312.46
246.188	15268.6
246.259	15232.88
246.33	15201.98
246.401	15176
246.473	15131.36
246.544	15084.8
246.615	15073.67
246.686	15045.85
246.757	15038.14
246.828	14995.67
246.899	14982.32
246.97	14939.13
247.042	14902.11
247.113	14877.96
247.184	14871.74
247.255	14837.37
247.326	14804.88
247.397	14777.41
247.468	14741.3
247.539	14718.26
247.61	14680.13
247.681	14668.37
247.752	14649.28
247.823	14621.56
247.894	14592.74
247.965	14564.54
248.037	14540.72
248.108	14495.8
248.179	14469.81
248.25	14434.72
248.321	14418.28
248.392	14378.85
248.463	14376.1
248.534	14353.69
248.605	14335.66
248.675	14306.3
248.746	14290.35
248.817	14279.4
248.888	14264.27
248.959	14226.28
249.03	14202.71
249.101	14179.28
249.172	14147.85
249.243	14103.36
249.314	14095.84
249.385	14082.72
249.456	14059.92
249.527	14028.73
249.598	14010.9
249.669	13993.3
249.739	13983.76
249.81	13964.04
249.881	13925.96
249.952	13901.13
250.023	13872.01
250.094	13832.68
250.165	13799.51
250.235	13771.89
250.306	13746.2
250.377	13718.91
250.448	13700.98
250.519	13662.7
250.59	13652.24
250.66	13620.91
250.731	13613.82
250.802	13590.54
250.873	13572.31
250.944	13560.7
251.014	13532.4
251.085	13539.82
251.156	13518.56
251.227	13510.66
251.297	13503.23
251.368	13492.68
251.439	13479.18
251.51	13470.84
251.58	13440.13
251.651	13406.58
251.722	13396.75
251.792	13362.18
251.863	13332.73
251.934	13328.87
252.005	13330.32
252.075	13313.01
252.146	13305.49
252.217	13301.01
252.287	13286.69
252.358	13250.82
252.429	13245.43
252.499	13220.12
252.57	13191.63
252.641	13177.7
252.711	13150.89
252.782	13110.06
252.852	13116.38
252.923	13097.48
252.994	13082.2
253.064	13068.51
253.135	13040.16
253.205	13013.31
253.276	13012.83
253.347	13014.28
253.417	12987.23
253.488	12967.37
253.558	12937.97
253.629	12913.82
253.699	12893.18
253.77	12882.34
253.841	12862.09
253.911	12841.46
253.982	12830.03
254.052	12811.14
254.123	12802.75
254.193	12788.96
254.264	12811.62
254.334	12780.04
254.405	12743.22
254.475	12706.53
254.546	12687.68
254.616	12690.86
254.687	12673.8
254.757	12651.14
254.827	12627.04
254.898	12606.75
254.968	12593.44
255.039	12563.46
255.109	12561.68
255.18	12537.91
255.25	12494.67
255.321	12488.79
255.391	12456.25
255.461	12454.28
255.532	12415.76
255.602	12380.14
255.673	12338.92
255.743	12305.95
255.813	12255.29
255.884	12252.21
255.954	12244.3
256.024	12244.06
256.095	12220.97
256.165	12188.58
256.235	12173.35
256.306	12146.35
256.376	12146.59
256.446	12128.28
256.517	12120.9
256.587	12110.49
256.657	12089.33
256.728	12074.05
256.798	12054
256.868	12033.18
256.938	12007.05
257.009	12002.9
257.079	12001.31
257.149	12006.62
257.219	11966.99
257.29	11963.76
257.36	11924.92
257.43	11913.88
257.5	11878.26
257.571	11860.42
257.641	11852.9
257.711	11825.72
257.781	11815.36
257.852	11795.64
257.922	11763.49
257.992	11744.26
258.062	11717.8
258.132	11706.81
258.202	11695.58
258.273	11682.13
258.343	11688.83
258.413	11669.36
258.483	11648.06
258.553	11618.51
258.623	11588.29
258.693	11574.99
258.764	11574.07
258.834	11574.75
258.904	11560
258.974	11535.95
259.044	11514.5
259.114	11508.24
259.184	11497.58
259.254	11474.55
259.324	11438.06
259.394	11432.95
259.464	11434.35
259.535	11413.96
259.605	11398.88
259.675	11365.34
259.745	11352.03
259.815	11316.37
259.885	11285.82
259.955	11292.66
260.025	11268.03
260.095	11250.88
260.165	11236.8
260.235	11238.25
260.305	11214.49
260.375	11183.7
260.445	11193.09
260.515	11194.63
260.585	11186.01
260.655	11170.2
260.725	11170.88
260.795	11169.91
260.865	11165.19
260.934	11133.57
261.004	11128.08
261.074	11110.59
261.144	11116.22
261.214	11108.75
261.284	11092.85
261.354	11093.14
261.424	11067.84
261.494	11072.46
261.564	11063.98
261.634	11061.67
261.703	11017.19
261.773	11010.35
261.843	11001.14
261.913	10978.35
261.983	10944.57
262.053	10930.88
262.123	10911.56
262.192	10873.97
262.262	10867.81
262.332	10832.58
262.402	10833.21
262.472	10819.33
262.541	10777.36
262.611	10772.06
262.681	10747.92
262.751	10743.44
262.821	10725.85
262.89	10699.3
262.96	10692.99
263.03	10690.29
263.1	10673.86
263.169	10662.24
263.239	10649.57
263.309	10651.98
263.379	10638.87
263.448	10625.05
263.518	10615.31
263.588	10602.79
263.657	10608.81
263.727	10600.76
263.797	10589.05
263.867	10567.76
263.936	10537.3
264.006	10541.35
264.076	10521.64
264.145	10504.69
264.215	10479.39
264.285	10473.9
264.354	10444.03
264.424	10419.07
264.494	10391.9
264.563	10374.12
264.633	10379.95
264.702	10368.86
264.772	10337.21
264.842	10318.42
264.911	10318.76
264.981	10284.07
265.05	10269.09
265.12	10253.24
265.19	10234.83
265.259	10231.75
265.329	10225.58
265.398	10221.39
265.468	10239.45
265.537	10222.93
265.607	10218.45
265.676	10216.33
265.746	10206.89
265.815	10206.94
265.885	10192.92
265.955	10171.58
266.024	10151.97
266.094	10115.12
266.163	10116.03
266.232	10118.78
266.302	10108.33
266.371	10089.97
266.441	10079.09
266.51	10076.34
266.58	10059.15
266.649	10043.87
266.719	10042.57
266.788	10030.19
266.858	10025.9
266.927	9981.87
266.996	9971.33
267.066	9963.18
267.135	9938.28
267.205	9930.67
267.274	9925.32
267.343	9923.2
267.413	9910.01
267.482	9913.57
267.552	9921.42
267.621	9891.32
267.69	9860.44
267.76	9851.19
267.829	9844.16
267.898	9837.23
267.968	9816.47
268.037	9813.43
268.106	9804.57
268.176	9782.22
268.245	9769.02
268.314	9751.83
268.384	9752.36
268.453	9742.1
268.522	9727.5
268.592	9730.54
268.661	9705.44
268.73	9693.88
268.799	9669.71
268.869	9677.22
268.938	9646.64
269.007	9626.02
269.076	9616.68
269.146	9618.37
269.215	9610.47
269.284	9612.64
269.353	9594.43
269.422	9577.92
269.492	9553.5
269.561	9516.81
269.63	9506.6
269.699	9489.74
269.768	9485.31
269.838	9470.72
269.907	9472.07
269.976	9447.02
270.045	9416.93
270.114	9414.33
270.183	9402.24
270.253	9397.91
270.322	9366.8
270.391	9355.05
270.46	9358.18
270.529	9351.34
270.598	9345.66
270.667	9331.36
270.736	9307.33
270.806	9297.36
270.875	9299.34
270.944	9296.06
271.013	9315.18
271.082	9310.27
271.151	9304.34
271.22	9279.93
271.289	9278.49
271.358	9257.4
271.427	9256.19
271.496	9246.66
271.565	9236.55
271.634	9229.42
271.703	9231.78
271.772	9231.25
271.841	9223.84
271.91	9198.75
271.979	9195.24
272.048	9175.06
272.117	9176.22
272.186	9162.02
272.255	9169.29
272.324	9166.83
272.393	9163.27
272.462	9146.8
272.531	9138.09
272.6	9123.11
272.669	9123.59
272.738	9103.61
272.807	9098.75
272.876	9077.09
272.945	9106.6
273.013	9105.11
273.082	9107.04
273.151	9088.74
273.22	9090.67
273.289	9081.52
273.358	9083.98
273.427	9067.32
273.496	9066.64
273.564	9061.97
273.633	9057.45
273.702	9035.64
273.771	9029.72
273.84	9021.97
273.909	9015.32
273.977	9010.85
274.046	9009.06
274.115	9014.17
274.184	9004.3
274.253	8993.47
274.322	9004.39
274.39	8967.95
274.459	8952.55
274.528	8926.02
274.597	8913.65
274.665	8905.08
274.734	8911.53
274.803	8905.71
274.872	8899.21
274.94	8883.32
275.009	8907.78
275.078	8904.37
275.147	8905.52
275.215	8903.93
275.284	8906.87
275.353	8895.17
275.421	8871.3
275.49	8882.61
275.559	8866.82
275.627	8859.22
275.696	8855.13
275.765	8852.91
275.833	8845.74
275.902	8848.58
275.971	8862.54
276.039	8880.64
276.108	8883.77
276.177	8878.76
276.245	8864.51
276.314	8864.8
276.383	8873.23
276.451	8839.18
276.52	8839.47
276.588	8846.74
276.657	8842.27
276.725	8834.42
276.794	8833.75
276.863	8841.49
276.931	8820.22
277	8829.03
277.068	8839.47
277.137	8857.71
277.205	8854.54
277.274	8872.06
277.342	8882.36
277.411	8854.16
277.48	8839.52
277.548	8829.27
277.617	8830.23
277.685	8824.31
277.754	8828.26
277.822	8818.3
277.89	8831.39
277.959	8820.66
278.027	8801.89
278.096	8790.48
278.164	8813.54
278.233	8812.62
278.301	8801.89
278.37	8803.82
278.438	8785.19
278.507	8786.54
278.575	8760.59
278.643	8753.13
278.712	8732.63
278.78	8722.66
278.849	8736.66
278.917	8739.89
278.985	8734.4
279.054	8733.39
279.122	8744.75
279.191	8735.41
279.259	8728.48
279.327	8705.13
279.396	8725.78
279.464	8721.93
279.532	8728.63
279.601	8719.67
279.669	8712.11
279.737	8719.72
279.806	8722.56
279.874	8737
279.942	8728.14
280.011	8721.93
280.079	8732.76
280.147	8747.78
280.215	8743.06
280.284	8738.15
280.352	8722.03
280.42	8726.36
280.488	8722.03
280.557	8718.85
280.625	8724.72
280.693	8726.99
280.761	8731.75
280.83	8708.17
280.898	8721.69
280.966	8701.38
281.034	8674.57
281.102	8659.65
281.171	8660.66
281.239	8662.4
281.307	8650.89
281.375	8650.41
281.443	8674.14
281.512	8664.85
281.58	8672.26
281.648	8656.43
281.716	8653.69
281.784	8661.29
281.852	8658.26
281.92	8656.38
281.989	8668.37
282.057	8647.96
282.125	8673.95
282.193	8673.18
282.261	8673.04
282.329	8668.66
282.397	8674.15
282.465	8680.69
282.533	8691.23
282.601	8680.54
282.67	8666.97
282.738	8658.26
282.806	8659.22
282.874	8645.84
282.942	8652.68
283.01	8647.53
283.078	8650.22
283.146	8645.75
283.214	8653.64
283.282	8654.22
283.35	8663.51
283.418	8656.72
283.486	8661.19
283.554	8633.28
283.622	8628.56
283.69	8628.37
283.758	8615.42
283.826	8615.13
283.894	8618.84
283.962	8640.45
284.03	8653.44
284.098	8651.37
284.165	8643.29
284.233	8646.42
284.301	8637.95
284.369	8625.63
284.437	8609.55
284.505	8605.99
284.573	8621.63
284.641	8604.74
284.709	8609.94
284.777	8591.5
284.845	8593.14
284.912	8602.04
284.98	8609.6
285.048	8602.96
285.116	8606.37
285.184	8620.19
285.252	8621.25
285.319	8602.33
285.387	8593.67
285.455	8573.07
285.523	8570.57
285.591	8574.47
285.659	8572.78
285.726	8583.51
285.794	8573.79
285.862	8574.9
285.93	8577.88
285.997	8570.18
286.065	8569.65
286.133	8556.71
286.201	8552.62
286.269	8541.93
286.336	8531.73
286.404	8521.67
286.472	8527.69
286.539	8507.62
286.607	8489.53
286.675	8489.87
286.743	8498.05
286.81	8492.46
286.878	8506.95
286.946	8503.05
287.013	8497.61
287.081	8495.01
287.149	8480.05
287.216	8498.14
287.284	8494.15
287.352	8493.19
287.419	8491.93
287.487	8504.35
287.555	8509.55
287.622	8510.9
287.69	8510.7
287.758	8521.53
287.825	8516.24
287.893	8508.35
287.96	8517.63
288.028	8528.75
288.096	8527.16
288.163	8528.36
288.231	8515.85
288.298	8511.33
288.366	8521.58
288.433	8521.05
288.501	8511.09
288.569	8512.87
288.636	8507.76
288.704	8523.5
288.771	8532.16
288.839	8523.45
288.906	8517.39
288.974	8527.5
289.041	8524.66
289.109	8514.31
289.176	8520.14
289.244	8526.92
289.311	8539.24
289.379	8547.81
289.446	8550.02
289.514	8555.7
289.581	8558.88
289.649	8561.19
289.716	8564.84
289.783	8562.39
289.851	8583.13
289.918	8587.85
289.986	8598.63
290.053	8597.47
290.121	8589.87
290.188	8585.49
290.255	8611.67
290.323	8602.81
290.39	8594.63
290.458	8603.68
290.525	8619.36
290.592	8615.66
290.66	8612.48
290.727	8599.92
290.794	8609.02
290.862	8610.61
290.929	8603.87
290.996	8599.59
291.064	8607.96
291.131	8621
291.198	8630.72
291.266	8621.24
291.333	8619.85
291.4	8622.64
291.468	8637.08
291.535	8631.35
291.602	8637.85
291.669	8628.95
291.737	8629.62
291.804	8628.8
291.871	8639.58
291.938	8648.77
292.006	8668.42
292.073	8677.03
292.14	8694.79
292.207	8689.78
292.275	8688.44
292.342	8699.89
292.409	8731.8
292.476	8754.62
292.543	8745.47
292.611	8750.19
292.678	8769.68
292.745	8794.13
292.812	8801.16
292.879	8795.82
292.946	8798.37
293.014	8814.3
293.081	8822.87
293.148	8837.55
293.215	8850.74
293.282	8847.61
293.349	8850.5
293.416	8834.23
293.484	8856.61
293.551	8859.3
293.618	8874.27
293.685	8900.37
293.752	8892.57
293.819	8885.59
293.886	8871.63
293.953	8878.41
294.02	8883.03
294.087	8894.01
294.154	8886.94
294.221	8903.79
294.288	8908.21
294.356	8932.71
294.423	8928.53
294.49	8919.72
294.557	8930.74
294.624	8925.35
294.691	8943.74
294.758	8944.56
294.825	8947.2
294.892	8937.38
294.959	8935.02
295.026	8937
295.093	8928.48
295.16	8936.42
295.226	8935.74
295.293	8957.12
295.36	8957.6
295.427	8968.43
295.494	8979.8
295.561	8990.96
295.628	9010.03
295.695	9023.8
295.762	9021.39
295.829	9032.71
295.896	9048.35
295.963	9058.41
296.03	9068.76
296.096	9063.9
296.163	9074.88
296.23	9093.32
296.297	9105.11
296.364	9102.66
296.431	9109.49
296.498	9099.34
296.564	9118.59
296.631	9121.72
296.698	9110.46
296.765	9131.64
296.832	9122.59
296.899	9108.05
296.965	9118.64
297.032	9094.42
297.099	9104.34
297.166	9111.32
297.233	9109.01
297.299	9097.12
297.366	9095.86
297.433	9091.58
297.5	9105.69
297.566	9105.06
297.633	9103.57
297.7	9098.51
297.767	9102.22
297.833	9105.69
297.9	9106.02
297.967	9085.37
298.033	9094.42
298.1	9122.11
298.167	9114.07
298.234	9114.45
298.3	9117.1
298.367	9109.01
298.434	9115.18
298.5	9102.99
298.567	9102.18
298.634	9096.69
298.7	9111.61
298.767	9117.73
298.834	9130.82
298.9	9129.42
298.967	9121.24
299.033	9128.17
299.1	9147.19
299.167	9160.24
299.233	9152.87
299.3	9172.27
299.366	9195.77
299.433	9208.72
299.5	9181.61
299.566	9185.46
299.633	9204.1
299.699	9215.51
299.766	9216.9
299.832	9221.04
299.899	9229.57
299.965	9236.21
300.032	9232.89
300.099	9244.44
300.165	9243.63
300.232	9243.63
300.298	9237.85
300.365	9250.9
300.431	9253.45
300.498	9243.67
300.564	9247.57
300.631	9260.48
300.697	9269.72
300.763	9267.75
300.83	9266.16
300.896	9277.18
300.963	9284.65
301.029	9284.21
301.096	9284.07
301.162	9289.9
301.229	9284.74
301.295	9273.09
301.361	9273.62
301.428	9280.07
301.494	9263.85
301.561	9266.11
301.627	9263.12
301.693	9267.94
301.76	9266.11
301.826	9262.31
301.892	9269.96
301.959	9279.4
302.025	9272.47
302.092	9262.64
302.158	9267.12
302.224	9262.98
302.291	9250.8
302.357	9244.44
302.423	9233.56
302.49	9226
302.556	9233.9
302.622	9228.7
302.688	9240.73
302.755	9254.36
302.821	9257.4
302.887	9264.71
302.954	9264.47
303.02	9271.89
303.086	9271.17
303.152	9268.08
303.219	9261.3
303.285	9264.86
303.351	9266.74
303.417	9266.21
303.483	9256.34
303.55	9245.65
303.616	9239.44
303.682	9242.04
303.748	9235.44
303.815	9255.81
303.881	9261.06
303.947	9251.38
304.013	9251.38
304.079	9242.86
304.145	9217.39
304.212	9217
304.278	9209.25
304.344	9205.25
304.41	9188.83
304.476	9181.66
304.542	9181.95
304.608	9183.06
304.674	9164.23
304.741	9154.79
304.807	9154.84
304.873	9163.8
304.939	9174.97
305.005	9157.87
305.071	9153.83
305.137	9146.75
305.203	9119.31
305.269	9113.38
305.335	9116.47
305.401	9117.53
305.467	9110.01
305.533	9122.2
305.599	9123.59
305.666	9131.97
305.732	9125.95
305.798	9135.19
305.864	9157.49
305.93	9155.03
305.996	9153.3
306.062	9151.33
306.128	9143.38
306.194	9133.7
306.259	9130.53
306.325	9122.63
306.391	9132.6
306.457	9140.44
306.523	9144.2
306.589	9161.77
306.655	9157.01
306.721	9138.57
306.787	9124.99
306.853	9143.24
306.919	9121.67
306.985	9111.75
307.051	9098.13
307.117	9090.62
307.183	9090.19
307.248	9059.37
307.314	9062.5
307.38	9056.29
307.446	9066.02
307.512	9059.85
307.578	9062.74
307.644	9055.42
307.709	9055.76
307.775	9046.81
307.841	9038.48
307.907	9038.43
307.973	9019.03
308.039	9018.69
308.104	9025.86
308.17	9028.27
308.236	9008.91
308.302	9011.71
308.368	9001.5
308.433	9002.03
308.499	8998.61
308.565	8981.23
308.631	8985.61
308.696	8959.96
308.762	8951.82
308.828	8946.04
308.894	8926.31
308.959	8902.53
309.025	8894.49
309.091	8882.07
309.156	8877.69
309.222	8882.17
309.288	8872.16
309.354	8848.14
309.419	8842.65
309.485	8826.14
309.551	8827.63
309.616	8808.52
309.682	8802.65
309.748	8792.74
309.813	8786.24
309.879	8774.11
309.945	8763.81
310.01	8755.67
310.076	8756.35
310.141	8747.15
310.207	8728.57
310.273	8727.9
310.338	8736.51
310.404	8720.06
310.469	8709.27
310.535	8697.91
310.601	8668.7
310.666	8666
310.732	8671.54
310.797	8653.39
310.863	8641.17
310.928	8628.8
310.994	8631.78
311.059	8629.33
311.125	8627.88
311.191	8637.56
311.256	8626.01
311.322	8632.51
311.387	8610.71
311.453	8859.29
311.518	8837.88
311.584	8832.49
311.649	8838.6
311.715	8823.11
311.78	8822.05
311.846	8811.7
311.911	8818.58
311.976	8824.45
312.042	8811.99
312.107	8801.4
312.173	8792.02
312.238	8792.5
312.304	8788.41
312.369	8780.04
312.434	8765.45
312.5	8763.58
312.565	8725.13
312.631	8728.21
312.696	8710.26
312.761	8712.71
312.827	8453.92
312.892	8487.75
312.958	8483.18
313.023	8477.69
313.088	8468.65
313.154	8451.52
313.219	8440.65
313.284	8423.8
313.35	8415.72
313.415	8404.27
313.48	8399.84
313.546	8405.13
313.611	8414.37
313.676	8403.83
313.741	8396.18
313.807	8402.05
313.872	8399.26
313.937	8409.7
314.003	8418.89
314.068	8419.71
314.133	8420.87
314.198	8409.56
314.264	8385.54
314.329	8377.22
314.394	8374.19
314.459	8378.47
314.525	8399.78
314.59	8394.64
314.655	8387.37
314.72	8391.56
314.785	8391.75
314.851	8382.22
314.916	8358.7
314.981	8333.97
315.046	8320.64
315.111	8310.58
315.176	8296.34
315.242	8295.43
315.307	8290.66
315.372	8270.55
315.437	8264.25
315.502	8255.06
315.567	8263.14
315.632	8251.83
315.698	8252.65
315.763	8245.39
315.828	8232.69
315.893	8222
315.958	8217.24
316.023	8206.23
316.088	8184.14
316.153	8161.73
316.218	8152.64
316.283	8141.24
316.348	8126.33
316.413	8128.54
316.479	8115.22
316.544	8079.15
316.609	8054.95
316.674	8020.9
316.739	7987.38
316.804	7956.41
316.869	7925.82
316.934	7889.12
316.999	7858.34
317.064	7806.88
317.129	7765.62
317.194	7736.24
317.259	7694.64
317.324	7655.84
317.389	7616.36
317.454	7581.94
317.518	7553.96
317.583	7535.25
317.648	7514.19
317.713	7484.97
317.778	7426.7
317.843	7397.66
317.908	7369.36
317.973	7327.44
318.038	7299.47
318.103	7265.3
318.168	7237.91
318.233	7206.57
318.297	7160.1
318.362	7128.29
318.427	7095.19
318.492	7070.25
318.557	7021.2
318.622	6995.83
318.687	6970.37
318.751	6934.92
318.816	6902.11
318.881	6866.85
318.946	6815.83
319.011	6769.19
319.075	6725.72
319.14	6693.79
319.205	6648.45
319.27	6619.55
319.335	6582.23
319.399	6543.82
319.464	6517.94
319.529	6467.77
319.594	6433.44
319.658	6411.26
319.723	6371.22
319.788	6338.39
319.853	6288.08
319.917	6262.75
319.982	6211.15
320.047	6173.81
320.112	6145.59
320.176	6098.37
320.241	6068.52
320.306	6038.82
320.37	6003.99
320.435	5974.15
320.5	5950.02
320.564	5912.7
320.629	5869.25
320.694	5834.86
320.758	5797.55
320.823	5756.4
320.888	5730.36
320.952	5680.3
321.017	5641.6
321.082	5604.63
321.146	5577.45
321.211	5543.22
321.275	5507.7
321.34	5470.12
321.405	5429
321.469	5384.52
321.534	5348.11
321.598	5299.32
321.663	5269.56
321.727	5242.67
321.792	5201.28
321.857	5162.41
321.921	5130.8
321.986	5089.9
322.05	5034.88
322.115	5004.71
322.179	4962.57
322.244	4909.81
322.308	4884.28
322.373	4836.12
322.437	4795.76
322.502	4770.04
322.566	4728.87
322.631	4692.3
322.695	4655.02
322.76	4614.54
322.824	4581.38
322.889	4540.72
322.953	4499.97
323.018	4435.28
323.082	4369.61
323.146	4322.08
323.211	4267.65
323.275	4225.37
323.34	4186.88
323.404	4154.53
323.468	4109.96
323.533	4071.14
323.597	4031.1
323.662	3978.52
323.726	3948.03
323.79	3905.4
323.855	3842.3
323.919	3795.15
323.983	3750.62
324.048	3685.74
324.112	3842.98
324.177	3720.61
324.241	3529.72
324.305	3340.79
324.37	3159.21
324.434	2983.94
324.498	2944.57
324.562	2900
324.627	2844.52
324.691	2793.6
324.755	2739.13
324.82	2666.91
324.884	2594.54
324.948	2528.09
325.012	2445.46
325.077	2330.4
