Data from 20250625_urea_1M_1_MAYP1162681_05-05-05-897.txt Node
Date: Thu Jun 26 05:05:05 BST 2025
User: adleo
Spectrometer: MAYP116268
Trigger mode: 0
Integration Time (sec): 1.000000E0
Scans to average: 1
Electric dark correction enabled: true
Nonlinearity correction enabled: true
Boxcar width: 10
XAxis mode: Wavelengths
Number of Pixels in Spectrum: 2068
>>>>>Begin Spectral Data<<<<<
179.565	1108.01
179.642	1158.43
179.718	1193.8
179.795	1227.75
179.871	1254.45
179.948	1272.82
180.024	1293.14
180.101	1311.15
180.177	1322.95
180.254	1343.85
180.33	1364.43
180.407	1410.94
180.483	1499.69
180.56	1581.55
180.636	1657.93
180.712	1644.48
180.789	1650.66
180.865	1663.24
180.942	1669.7
181.018	1677.11
181.095	1689.76
181.171	1695.31
181.248	1695.22
181.324	1711.33
181.4	1717.17
181.477	1729.62
181.553	1740.27
181.63	1759.66
181.706	1776.96
181.782	1787.03
181.859	1786.74
181.935	1792.54
182.011	1789.74
182.088	1801.05
182.164	1817.02
182.24	1830.18
182.317	1837.22
182.393	1834.27
182.469	1847.01
182.546	1858.8
182.622	1861.88
182.698	1857.99
182.775	1871.58
182.851	1884.51
182.927	1876.62
183.003	1873.01
183.08	1868.59
183.156	1878
183.232	1872.77
183.308	1859.84
183.385	1865.07
183.461	1878.95
183.537	1878.9
183.613	1891.88
183.69	1885.32
183.766	1877.62
183.842	1884.04
183.918	1891.02
183.995	1904.24
184.071	1908.33
184.147	1905
184.223	1896.35
184.299	1906.95
184.375	1894.5
184.452	1899.45
184.528	1953.33
184.604	1964.21
184.68	1974.53
184.756	1980.47
184.832	1983.94
184.908	1991.59
184.985	1991.4
185.061	1979.8
185.137	1987.6
185.213	1976.81
185.289	1977.19
185.365	1971.44
185.441	1971.82
185.517	1983.09
185.593	1979.33
185.669	1977.15
185.745	1987.8
185.822	2002.86
185.898	1992.4
185.974	2000.01
186.05	1997.58
186.126	1959.96
186.202	1953.4
186.278	1950.03
186.354	1938.52
186.43	1944.42
186.506	1940.99
186.582	1942.13
186.658	1946.08
186.734	1926.5
186.81	1928.73
186.886	1932.44
186.962	1943.42
187.038	1937.48
187.114	1931.06
187.19	1936.33
187.266	1924.69
187.341	1923.88
187.417	1919.74
187.493	1920.41
187.569	1925.78
187.645	1915.8
187.721	1905.67
187.797	1912.7
187.873	1916.17
187.949	1913.32
188.025	1909.14
188.101	1911.23
188.176	1915.6
188.252	1911.66
188.328	1920.87
188.404	1919.31
188.48	1917.07
188.556	1909.61
188.632	1909.99
188.707	1910.7
188.783	1910.23
188.859	1907.85
188.935	1894.96
189.011	1902.1
189.086	1900.58
189.162	1894.68
189.238	1895.77
189.314	1892.83
189.39	1887.74
189.465	1881.42
189.541	1896.68
189.617	1882.23
189.693	1880.04
189.768	1882.18
189.844	1905.58
189.92	1896.93
189.996	1907.06
190.071	1914.09
190.147	1913.62
190.223	1923.7
190.298	1918.23
190.374	1904.87
190.45	1913.43
190.526	1921.84
190.601	1915.28
190.677	1914
190.753	1937.74
190.828	1939.4
190.904	1950.05
190.98	1963.7
191.055	1972.78
191.131	1965.26
191.207	1981.95
191.282	1989.37
191.358	1978.48
191.433	1969.11
191.509	1982.46
191.585	1977.14
191.66	1978.85
191.736	1987.74
191.811	1978.47
191.887	1989.17
191.963	2013.8
192.038	2021.5
192.114	2024.78
192.189	2029.73
192.265	2027.45
192.34	2006.99
192.416	2008.61
192.491	2008.99
192.567	2011.94
192.642	2013.74
192.718	2011.51
192.793	2003.38
192.869	1998.67
192.944	2002.71
193.02	2005.37
193.095	2008.32
193.171	2017.5
193.246	2016.64
193.322	2011.18
193.397	2010.37
193.473	2000.19
193.548	1983.02
193.624	1987.49
193.699	1984.64
193.775	1997.01
193.85	1998
193.925	2005.71
194.001	2002.14
194.076	1993.68
194.152	1980.89
194.227	1974.04
194.302	1965.15
194.378	1968.19
194.453	1966.48
194.529	1977.37
194.604	1965.2
194.679	1960.44
194.755	1939.62
194.83	1953.8
194.905	1954.08
194.981	1963.54
195.056	1956.65
195.131	1963.12
195.207	1960.79
195.282	1950.33
195.357	1933.4
195.433	1949.56
195.508	1935.49
195.583	1946.14
195.659	1963.45
195.734	1971.06
195.809	1969.78
195.884	1979.66
195.96	1981.09
196.035	1997.54
196.11	1994.93
196.185	2005.1
196.261	2006.1
196.336	2034.39
196.411	2018.31
196.486	2023.4
196.561	2016.46
196.637	2025.87
196.712	2041.14
196.787	2043
196.862	2060.92
196.937	2068.34
197.013	2072.77
197.088	2084.61
197.163	2102.69
197.238	2115.59
197.313	2116.26
197.388	2131.38
197.464	2157.45
197.539	2168.73
197.614	2159.26
197.689	2171.06
197.764	2184.05
197.839	2204.51
197.914	2200.46
197.989	2222.11
198.065	2233.86
198.14	2281.8
198.215	2306.12
198.29	2317.74
198.365	2331.64
198.44	2340.72
198.515	2366.23
198.59	2378.37
198.665	2403.5
198.74	2410.84
198.815	2411.36
198.89	2431.64
198.965	2459.11
199.04	2456.16
199.115	2470.78
199.19	2510.81
199.265	2515.85
199.34	2524.33
199.415	2555.25
199.49	2575.67
199.565	2584.2
199.64	2605.34
199.715	2601.43
199.79	2605.19
199.865	2608.72
199.94	2607
200.015	2632.72
200.09	2639.58
200.165	2646.01
200.24	2653.54
200.315	2689.25
200.39	2704.26
200.464	2708.54
200.539	2709.83
200.614	2726.6
200.689	2744.65
200.764	2751.14
200.839	2767.8
200.914	2774.19
200.989	2765.99
201.063	2779.86
201.138	2765.43
201.213	2766.76
201.288	2750.33
201.363	2757.81
201.438	2758.66
201.512	2772
201.587	2755.66
201.662	2757.99
201.737	2770.19
201.812	2777.53
201.886	2746.92
201.961	2750.78
202.036	2744.49
202.111	2738.58
202.186	2709.4
202.26	2693.77
202.335	2676.42
202.41	2667.85
202.485	2653.56
202.559	2634.08
202.634	2607.07
202.709	2614.45
202.784	2595.35
202.858	2595.35
202.933	2576.4
203.008	2571.49
203.082	2554.73
203.157	2557.11
203.232	2517.84
203.306	2495.88
203.381	2464.49
203.456	2442.16
203.53	2422.86
203.605	2400.74
203.68	2381.69
203.754	2376.22
203.829	2362.08
203.904	2344.99
203.978	2334.09
204.053	2336.7
204.127	2322.43
204.202	2321.14
204.277	2304.87
204.351	2298.06
204.426	2290.02
204.5	2283.45
204.575	2249.33
204.65	2258.19
204.724	2251.81
204.799	2259.99
204.873	2258.7
204.948	2257.37
205.022	2246.81
205.097	2240.14
205.171	2256.79
205.246	2264.98
205.32	2268.26
205.395	2269.36
205.469	2257.33
205.544	2262.37
205.618	2246.43
205.693	2260.61
205.767	2247.86
205.842	2266.9
205.916	2261.76
205.991	2252.81
206.065	2257.1
206.14	2270.27
206.214	2264.7
206.289	2255.75
206.363	2269.79
206.438	2270.6
206.512	2280.31
206.586	2298.39
206.661	2304.72
206.735	2281.6
206.81	2279.98
206.884	2294.02
206.958	2281.17
207.033	2296.4
207.107	2302.2
207.181	2332.67
207.256	2326.39
207.33	2343.28
207.405	2356.29
207.479	2377.85
207.553	2386.89
207.628	2374.28
207.702	2386.7
207.776	2380.71
207.851	2385.13
207.925	2396.28
207.999	2392.94
208.073	2388.09
208.148	2391.23
208.222	2381.66
208.296	2411.35
208.371	2428.74
208.445	2436.64
208.519	2466.01
208.593	2477.2
208.668	2476.1
208.742	2478.29
208.816	2481.2
208.89	2497.77
208.965	2494.82
209.039	2501.1
209.113	2514.58
209.187	2536.57
209.261	2536.28
209.336	2561.76
209.41	2585
209.484	2590.72
209.558	2617.11
209.632	2635.92
209.707	2649.78
209.781	2675.16
209.855	2696.65
209.929	2718.97
210.003	2730.45
210.077	2732.69
210.151	2785.82
210.226	2826.15
210.3	2864.07
210.374	2898.75
210.448	2912.39
210.522	2938.9
210.596	2962.69
210.67	2992.34
210.744	3049.24
210.818	3097.43
210.892	3134.87
210.966	3148.89
211.041	3184.52
211.115	3203.5
211.189	3249.25
211.263	3291.27
211.337	3324.57
211.411	3369.48
211.485	3392.45
211.559	3440.21
211.633	3483.57
211.707	3494.27
211.781	3541.95
211.855	3552.6
211.929	3589.41
212.003	3619.47
212.077	3675.28
212.151	3740.78
212.225	3800.17
212.299	3846.98
212.373	3895.72
212.447	3949.46
212.52	4043.92
212.594	4115.6
212.668	4201.9
212.742	4261.4
212.816	4334.68
212.89	4405.99
212.964	4485.25
213.038	4573.27
213.112	4668.11
213.186	4768.9
213.26	4841.68
213.333	4889.23
213.407	4990.2
213.481	5087.63
213.555	5202.45
213.629	5297.97
213.703	5387.23
213.777	5493.52
213.85	5588.65
213.924	5727.35
213.998	5839.49
214.072	5948.2
214.146	6045.98
214.219	6160.4
214.293	6280.7
214.367	6405.71
214.441	6543.74
214.515	6656.6
214.588	6764.32
214.662	6863.27
214.736	6978.18
214.81	7111.5
214.883	7259.6
214.957	7378.09
215.031	7503.51
215.105	7618.76
215.178	7735.31
215.252	7865.62
215.326	7982.83
215.4	8097.77
215.473	8187.64
215.547	8308.74
215.621	8427.08
215.694	8569.56
215.768	8681.36
215.842	8804.13
215.915	8927.47
215.989	9037.96
216.063	9162.08
216.136	9291.21
216.21	9422.36
216.284	9564.04
216.357	9702.06
216.431	9832.53
216.504	9976.26
216.578	10126.45
216.652	10263.1
216.725	10399.72
216.799	10535.54
216.873	10671.46
216.946	10810.51
217.02	10937.12
217.093	11066.22
217.167	11174.79
217.24	11285.19
217.314	11410.3
217.387	11529.81
217.461	11642.11
217.535	11767.56
217.608	11877.26
217.682	11996.45
217.755	12135.51
217.829	12240.16
217.902	12348.8
217.976	12459.62
218.049	12563.98
218.123	12663.52
218.196	12779.17
218.27	12887.58
218.343	12991.61
218.417	13099.3
218.49	13203.37
218.563	13330.25
218.637	13441.27
218.71	13569.69
218.784	13693.29
218.857	13807.44
218.931	13909.97
219.004	14015.45
219.077	14139.53
219.151	14249.48
219.224	14344.45
219.298	14434.93
219.371	14539.82
219.444	14627.84
219.518	14726.47
219.591	14821.82
219.665	14945.02
219.738	15051.51
219.811	15134.22
219.885	15228.22
219.958	15316.04
220.031	15401.79
220.105	15485.04
220.178	15570.55
220.251	15644.87
220.325	15721.75
220.398	15803.11
220.471	15893.34
220.544	15982.8
220.618	16032.83
220.691	16115.2
220.764	16203.69
220.838	16278.69
220.911	16348.67
220.984	16444.2
221.057	16517.75
221.131	16594.62
221.204	16630.87
221.277	16707.69
221.35	16812.32
221.424	16868.13
221.497	16939.36
221.57	17015.95
221.643	17089.11
221.716	17148.34
221.79	17201.35
221.863	17267.52
221.936	17322.8
222.009	17375.14
222.082	17440.68
222.155	17503.09
222.229	17567.43
222.302	17623.86
222.375	17671.86
222.448	17740.82
222.521	17799.28
222.594	17845.11
222.667	17881.49
222.74	17950.84
222.814	17986.31
222.887	18016.04
222.96	18074.64
223.033	18120.14
223.106	18157.82
223.179	18207.51
223.252	18253.72
223.325	18305.38
223.398	18339.55
223.471	18378.68
223.544	18419.98
223.617	18454.34
223.69	18498.14
223.763	18523.44
223.837	18558.91
223.91	18599.53
223.983	18613.65
224.056	18631.15
224.129	18663
224.202	18701.65
224.275	18720.68
224.348	18732.39
224.42	18745.02
224.493	18744.92
224.566	18756.59
224.639	18779.43
224.712	18791.23
224.785	18815.18
224.858	18840.15
224.931	18855.81
225.004	18876.34
225.077	18898.79
225.15	18888.67
225.223	18903.18
225.296	18944.28
225.369	18953.73
225.442	18965.44
225.514	18983.75
225.587	19002.16
225.66	19034.01
225.733	19056.47
225.806	19073.34
225.879	19096.71
225.952	19108.51
226.025	19151.69
226.097	19196.41
226.17	19221.95
226.243	19226.63
226.316	19234.39
226.389	19252.46
226.461	19277.42
226.534	19305.13
226.607	19317.8
226.68	19360.6
226.753	19374.43
226.825	19362.14
226.898	19379.92
226.971	19391.15
227.044	19414.86
227.117	19432.11
227.189	19433.65
227.262	19451.77
227.335	19472.69
227.407	19483.91
227.48	19496.06
227.553	19508.25
227.626	19502.32
227.698	19513.69
227.771	19524.01
227.844	19525.79
227.916	19525.02
227.989	19519.38
228.062	19509.07
228.134	19535.91
228.207	19531.86
228.28	19526.95
228.352	19537.5
228.425	19537.6
228.498	19553.6
228.57	19544.44
228.643	19553.31
228.716	19555.23
228.788	19546.27
228.861	19537.98
228.934	19546.99
229.006	19547.77
229.079	19542.56
229.151	19542.99
229.224	19514.85
229.296	19524.44
229.369	19553.98
229.442	19570.13
229.514	19567.62
229.587	19581.21
229.659	19552.87
229.732	19565.11
229.804	19577.26
229.877	19594.27
229.949	19611.76
230.022	19625.16
230.094	19621.16
230.167	19624.48
230.239	19613.21
230.312	19613.5
230.384	19632.15
230.457	19639.13
230.529	19654.56
230.602	19656.72
230.674	19653.5
230.747	19675.47
230.819	19669.78
230.892	19639.57
230.964	19630.75
231.037	19637.25
231.109	19626.65
231.181	19637.5
231.254	19613.55
231.326	19604.68
231.399	19592.49
231.471	19572.44
231.544	19544.39
231.616	19549.79
231.688	19542.27
231.761	19544.49
231.833	19535.43
231.905	19505.55
231.978	19494.71
232.05	19475.48
232.122	19458.04
232.195	19437.94
232.267	19437.22
232.339	19426.33
232.412	19431
232.484	19418.33
232.556	19400.21
232.629	19407.63
232.701	19407.87
232.773	19408.26
232.846	19398.91
232.918	19392.21
232.99	19387.2
233.062	19389.85
233.135	19382.04
233.207	19360.93
233.279	19352.79
233.351	19344.16
233.424	19323.92
233.496	19301.51
233.568	19303.83
233.64	19282
233.713	19268.99
233.785	19247.4
233.857	19234.53
233.929	19199.02
234.001	19196.32
234.074	19200.8
234.146	19166.58
234.218	19144.56
234.29	19117.53
234.362	19103.07
234.434	19060.71
234.507	19034.06
234.579	18991.17
234.651	18964.57
234.723	18952.43
234.795	18939.95
234.867	18918.17
234.939	18917.39
235.012	18902.6
235.084	18886.65
235.156	18881.59
235.228	18863.23
235.3	18844.19
235.372	18828.77
235.444	18833.88
235.516	18782.8
235.588	18756.68
235.66	18742.32
235.732	18713.17
235.804	18745.65
235.876	18724.88
235.948	18725.12
236.02	18706.32
236.092	18688.88
236.164	18674.86
236.236	18638.28
236.308	18605.46
236.38	18589.17
236.452	18551.05
236.524	18528.31
236.596	18516.02
236.668	18489.66
236.74	18468.22
236.812	18447.98
236.884	18430.58
236.956	18393.33
237.028	18372.94
237.1	18337.04
237.172	18323.21
237.244	18314.39
237.316	18257.29
237.388	18224.33
237.46	18194.35
237.532	18185.34
237.604	18157.24
237.675	18148.86
237.747	18135.22
237.819	18101.25
237.891	18081.49
237.963	18060.96
238.035	18028.57
238.107	17967.03
238.178	17963.56
238.25	17937.35
238.322	17931.52
238.394	17891.57
238.466	17877.01
238.538	17865.45
238.609	17849.06
238.681	17807.33
238.753	17777.83
238.825	17751.38
238.897	17730.51
238.968	17715.86
239.04	17679.86
239.112	17683.81
239.184	17637.89
239.255	17610.32
239.327	17597.6
239.399	17568.06
239.471	17541.84
239.542	17524.63
239.614	17512.06
239.686	17456.2
239.758	17444.39
239.829	17399.48
239.901	17381.94
239.973	17343.04
240.044	17312.97
240.116	17280.87
240.188	17258.85
240.259	17220.68
240.331	17184.29
240.403	17159.76
240.474	17108.58
240.546	17075.62
240.618	17017.74
240.689	16986.94
240.761	16957.59
240.833	16944.14
240.904	16911.85
240.976	16883.42
241.048	16855.32
241.119	16840.14
241.191	16816.72
241.262	16794.69
241.334	16769.39
241.405	16737.19
241.477	16707.07
241.549	16685.77
241.62	16662.2
241.692	16635.6
241.763	16620.71
241.835	16596.66
241.906	16566.24
241.978	16533.95
242.049	16511.35
242.121	16503.49
242.192	16497.8
242.264	16453.9
242.335	16404.69
242.407	16376.01
242.478	16348.63
242.55	16320.68
242.621	16276.1
242.693	16242.07
242.764	16211.08
242.836	16180.38
242.907	16162.69
242.979	16149.67
243.05	16119.74
243.122	16096.99
243.193	16067.69
243.264	16022.91
243.336	15997.37
243.407	15979.05
243.479	15973.36
243.55	15949.84
243.622	15923.19
243.693	15881.4
243.764	15878.99
243.836	15843.66
243.907	15819.22
243.978	15784.66
244.05	15762.64
244.121	15724.22
244.192	15711.35
244.264	15672.26
244.335	15648.54
244.407	15599.77
244.478	15568.44
244.549	15531.46
244.62	15484.47
244.692	15450.92
244.763	15430
244.834	15395.01
244.906	15361.65
244.977	15330.03
245.048	15316.58
245.119	15285.98
245.191	15243.94
245.262	15198.3
245.333	15185.09
245.405	15153.47
245.476	15137.61
245.547	15106.76
245.618	15086.61
245.689	15057.88
245.761	15029.15
245.832	14996.81
245.903	14982.54
245.974	14954.15
246.045	14929.71
246.117	14924.7
246.188	14894.37
246.259	14858.75
246.33	14829.35
246.401	14801.44
246.473	14766.2
246.544	14727.64
246.615	14702.96
246.686	14677.07
246.757	14666.56
246.828	14629.93
246.899	14623.23
246.97	14575.6
247.042	14537.95
247.113	14524.74
247.184	14522.91
247.255	14495.19
247.326	14465.64
247.397	14441.25
247.468	14414.26
247.539	14385.43
247.61	14338.09
247.681	14320.84
247.752	14310.47
247.823	14275.43
247.894	14252
247.965	14216.57
248.037	14185.81
248.108	14143.68
248.179	14124.83
248.25	14096.87
248.321	14079.28
248.392	14038.83
248.463	14040.62
248.534	14017.77
248.605	13995.59
248.675	13961.08
248.746	13940.88
248.817	13932.25
248.888	13914.17
248.959	13870.79
249.03	13860.13
249.101	13838.97
249.172	13808.26
249.243	13759.86
249.314	13755.86
249.385	13739.33
249.456	13722.36
249.527	13695.6
249.598	13670.87
249.669	13639.2
249.739	13617.94
249.81	13596.25
249.881	13562.17
249.952	13535.75
250.023	13512.51
250.094	13476.17
250.165	13445.07
250.235	13420.1
250.306	13388.86
250.377	13347.17
250.448	13341.48
250.519	13294.91
250.59	13294.86
250.66	13263.72
250.731	13263.62
250.802	13235.42
250.873	13212.96
250.944	13198.79
251.014	13172.8
251.085	13180.95
251.156	13168.51
251.227	13150.72
251.297	13146.63
251.368	13137.61
251.439	13126.28
251.51	13121.51
251.58	13091.96
251.651	13056.24
251.722	13044.62
251.792	13006.88
251.863	12981.57
251.934	12966.72
252.005	12982
252.075	12955.63
252.146	12953.8
252.217	12933.27
252.287	12926.32
252.358	12903.38
252.429	12898.41
252.499	12869.88
252.57	12847.46
252.641	12835.46
252.711	12820.18
252.782	12778.77
252.852	12775.97
252.923	12749.41
252.994	12731.72
253.064	12725.4
253.135	12701.73
253.205	12676.96
253.276	12671.37
253.347	12679.08
253.417	12658.01
253.488	12627.16
253.558	12611.59
253.629	12589.27
253.699	12580.69
253.77	12559.92
253.841	12541.84
253.911	12526.51
253.982	12515.76
254.052	12510.46
254.123	12491.8
254.193	12467.27
254.264	12482.11
254.334	12457.34
254.405	12433.09
254.475	12402.05
254.546	12381.66
254.616	12379.73
254.687	12364.5
254.757	12351.72
254.827	12320.15
254.898	12304.39
254.968	12281.3
255.039	12248.62
255.109	12238.64
255.18	12206.05
255.25	12167.01
255.321	12148.31
255.391	12110.76
255.461	12115.91
255.532	12066.12
255.602	12047.13
255.673	12009.15
255.743	11983.79
255.813	11941.04
255.884	11937.52
255.954	11928.12
256.024	11924.99
256.095	11908.6
256.165	11883.63
256.235	11865.6
256.306	11849.75
256.376	11841.55
256.446	11834.61
256.517	11819.52
256.587	11812.97
256.657	11796.05
256.728	11783.09
256.798	11765.2
256.868	11744.58
256.938	11712.19
257.009	11708.23
257.079	11691.22
257.149	11700.18
257.219	11672.18
257.29	11664.23
257.36	11623.98
257.43	11615.35
257.5	11577.81
257.571	11551.73
257.641	11535.68
257.711	11509.75
257.781	11490.48
257.852	11475.49
257.922	11443.44
257.992	11426.57
258.062	11403.09
258.132	11401.22
258.202	11385.41
258.273	11373.5
258.343	11377.6
258.413	11350.95
258.483	11332.68
258.553	11313.12
258.623	11288.25
258.693	11270.56
258.764	11264.68
258.834	11263.23
258.904	11243.57
258.974	11218.08
259.044	11202.51
259.114	11193.69
259.184	11180.1
259.254	11156.3
259.324	11124.92
259.394	11114.32
259.464	11119.48
259.535	11093.89
259.605	11067.53
259.675	11037.26
259.745	11023.39
259.815	10991.19
259.885	10969.22
259.955	10972.74
260.025	10942.33
260.095	10924.7
260.165	10906.09
260.235	10900.84
260.305	10876.36
260.375	10852.8
260.445	10860.51
260.515	10856.6
260.585	10856.75
260.655	10845.04
260.725	10853.9
260.795	10841.62
260.865	10848.89
260.934	10819.02
261.004	10814.44
261.074	10798.05
261.144	10807.84
261.214	10801.96
261.284	10789.04
261.354	10787.26
261.424	10761.77
261.494	10768.27
261.564	10753.91
261.634	10753
261.703	10719.61
261.773	10715.41
261.843	10710.06
261.913	10690.84
261.983	10661.11
262.053	10651.38
262.123	10630.8
262.192	10598.91
262.262	10592.59
262.332	10562.62
262.402	10562.38
262.472	10542.87
262.541	10511.65
262.611	10500.18
262.681	10476.47
262.751	10468.57
262.821	10453.4
262.89	10429.06
262.96	10414.13
263.03	10418.66
263.1	10405.84
263.169	10398.23
263.239	10386.33
263.309	10387.34
263.379	10374.67
263.448	10362.92
263.518	10344.41
263.588	10335.31
263.657	10332.8
263.727	10327.45
263.797	10306.74
263.867	10283.56
263.936	10264.44
264.006	10264.01
264.076	10247.29
264.145	10229.08
264.215	10206.39
264.285	10200.7
264.354	10172.67
264.424	10155.52
264.494	10121.46
264.563	10098.04
264.633	10095.06
264.702	10081.71
264.772	10049.48
264.842	10039.61
264.911	10034.93
264.981	10004.58
265.05	9987
265.12	9975.2
265.19	9955.5
265.259	9953.72
265.329	9939.46
265.398	9926.98
265.468	9940.32
265.537	9920.82
265.607	9914.8
265.676	9913.78
265.746	9909.11
265.815	9910.22
265.885	9895.82
265.955	9879.59
266.024	9862.1
266.094	9831.37
266.163	9833.06
266.232	9824.53
266.302	9806.09
266.371	9793.42
266.441	9784.17
266.51	9783.64
266.58	9763.61
266.649	9741.55
266.719	9734.95
266.788	9727.19
266.858	9733.55
266.927	9701.33
266.996	9692.61
267.066	9683.46
267.135	9654.27
267.205	9646.95
267.274	9636.89
267.343	9633.23
267.413	9622.34
267.482	9627.98
267.552	9632.99
267.621	9601.3
267.69	9575.87
267.76	9570.81
267.829	9562.58
267.898	9548.23
267.968	9528.34
268.037	9523.81
268.106	9523.23
268.176	9495.83
268.245	9489.04
268.314	9466.98
268.384	9462.99
268.453	9454.75
268.522	9437.08
268.592	9444.73
268.661	9418.1
268.73	9409.68
268.799	9389.45
268.869	9391.28
268.938	9358.92
269.007	9335.76
269.076	9331.14
269.146	9331.96
269.215	9319.73
269.284	9320.79
269.353	9308.75
269.422	9294.45
269.492	9274.66
269.561	9246.25
269.63	9244.18
269.699	9226.75
269.768	9220.39
269.838	9212.26
269.907	9209.22
269.976	9195.5
270.045	9163.24
270.114	9160.84
270.183	9148.08
270.253	9142.49
270.322	9113.56
270.391	9103.45
270.46	9110.09
270.529	9103.26
270.598	9103.45
270.667	9092.57
270.736	9067.48
270.806	9065.89
270.875	9072.44
270.944	9063.87
271.013	9078.8
271.082	9073.65
271.151	9069.22
271.22	9044.95
271.289	9027.67
271.358	9012.51
271.427	9006.54
271.496	9003.36
271.565	8989.16
271.634	8980.83
271.703	9006.98
271.772	9016.03
271.841	9006.06
271.91	8980.4
271.979	8972.22
272.048	8950.6
272.117	8946.08
272.186	8935.25
272.255	8939.15
272.324	8924.95
272.393	8920.76
272.462	8899
272.531	8892.45
272.6	8878.54
272.669	8882.2
272.738	8871.7
272.807	8868.24
272.876	8846.87
272.945	8869.2
273.013	8869.54
273.082	8869.78
273.151	8824.24
273.22	8812.93
273.289	8807.01
273.358	8822.31
273.427	8809.8
273.496	8805.52
273.564	8808.02
273.633	8811.73
273.702	8785.25
273.771	8778.75
273.84	8773.22
273.909	8779.14
273.977	8774.61
274.046	8768.07
274.115	8769.7
274.184	8762.29
274.253	8751.46
274.322	8759.93
274.39	8726.09
274.459	8712.09
274.528	8689.81
274.597	8689.47
274.665	8688.31
274.734	8689.23
274.803	8674.35
274.872	8668.19
274.94	8657.56
275.009	8677.39
275.078	8668.73
275.147	8667
275.215	8663.39
275.284	8670.99
275.353	8660.02
275.421	8632.73
275.49	8643.13
275.559	8629.94
275.627	8622.62
275.696	8622.72
275.765	8623.88
275.833	8620.94
275.902	8623.73
275.971	8633.69
276.039	8639.66
276.108	8639.23
276.177	8644.14
276.245	8635.71
276.314	8634.61
276.383	8637.25
276.451	8605.87
276.52	8605.1
276.588	8614.58
276.657	8619.82
276.725	8607.07
276.794	8608.08
276.863	8623.91
276.931	8602.54
277	8611.35
277.068	8616.6
277.137	8628.68
277.205	8626.9
277.274	8638.93
277.342	8646.24
277.411	8629.35
277.48	8626.95
277.548	8623.43
277.617	8623.63
277.685	8615.16
277.754	8615.06
277.822	8608.42
277.89	8617.85
277.959	8608.61
278.027	8590.9
278.096	8575.41
278.164	8602.41
278.233	8586.39
278.301	8575.27
278.37	8582.34
278.438	8570.41
278.507	8575.08
278.575	8550.39
278.643	8544.8
278.712	8528.59
278.78	8515.26
278.849	8527.14
278.917	8526.03
278.985	8518.14
279.054	8514.77
279.122	8524.93
279.191	8522.52
279.259	8517.71
279.327	8496.29
279.396	8509.67
279.464	8510.92
279.532	8515.93
279.601	8508.18
279.669	8510.82
279.737	8520.64
279.806	8523.19
279.874	8532.62
279.942	8525.69
280.011	8521.65
280.079	8527.04
280.147	8546
280.215	8553.75
280.284	8538.21
280.352	8529.21
280.42	8539.27
280.488	8531.18
280.557	8520.5
280.625	8525.74
280.693	8522.57
280.761	8527.96
280.83	8514.87
280.898	8520.07
280.966	8501.45
281.034	8469.97
281.102	8454.72
281.171	8443.89
281.239	8445.77
281.307	8433.35
281.375	8426.33
281.443	8439.9
281.512	8430.08
281.58	8427.19
281.648	8408.14
281.716	8414.87
281.784	8412.56
281.852	8397.45
281.92	8398.08
281.989	8410.21
282.057	8391.05
282.125	8426.72
282.193	8420.08
282.261	8417.04
282.329	8415.22
282.397	8429.7
282.465	8435.42
282.533	8446.73
282.601	8434.7
282.67	8417.67
282.738	8413.62
282.806	8425.8
282.874	8421.8
282.942	8427.24
283.01	8422.19
283.078	8425.03
283.146	8417.33
283.214	8421.85
283.282	8427.63
283.35	8440.86
283.418	8440.14
283.486	8445.34
283.554	8411.5
283.622	8411.74
283.69	8414.05
283.758	8405.87
283.826	8400.72
283.894	8410.68
283.962	8432.53
284.03	8455.53
284.098	8456.5
284.165	8447.21
284.233	8444.9
284.301	8435.37
284.369	8425.89
284.437	8420.02
284.505	8417.81
284.573	8432.77
284.641	8424.21
284.709	8432.92
284.777	8408.43
284.845	8404.19
284.912	8407.08
284.98	8410.69
285.048	8400.68
285.116	8403.42
285.184	8419.64
285.252	8422.57
285.319	8405.88
285.387	8393.36
285.455	8375.85
285.523	8374.45
285.591	8378.16
285.659	8374.02
285.726	8386
285.794	8377.58
285.862	8377.96
285.93	8377.96
285.997	8374.98
286.065	8374.64
286.133	8363.87
286.201	8368.05
286.269	8360.11
286.336	8353.47
286.404	8353.71
286.472	8363.24
286.539	8336.59
286.607	8314.07
286.675	8310.17
286.743	8321.33
286.81	8317.96
286.878	8325.28
286.946	8324.56
287.013	8324.22
287.081	8327.3
287.149	8310.02
287.216	8332.78
287.284	8322.87
287.352	8321.24
287.419	8313.92
287.487	8323.74
287.555	8327.11
287.622	8321.82
287.69	8326.92
287.758	8337.26
287.825	8324.51
287.893	8319.22
287.96	8330.71
288.028	8342.02
288.096	8345.58
288.163	8339.13
288.231	8328.4
288.298	8327.15
288.366	8337.4
288.433	8330.19
288.501	8321.48
288.569	8328.12
288.636	8312.72
288.704	8324.55
288.771	8335.77
288.839	8332.01
288.906	8325.95
288.974	8331.29
289.041	8332.54
289.109	8321.38
289.176	8328.5
289.244	8340.1
289.311	8351.93
289.379	8361.99
289.446	8363.53
289.514	8367.19
289.581	8365.07
289.649	8368.63
289.716	8374.36
289.783	8365.36
289.851	8386.96
289.918	8385.23
289.986	8394.27
290.053	8405.25
290.121	8404.23
290.188	8400.29
290.255	8427.04
290.323	8421.03
290.39	8416.6
290.458	8423.53
290.525	8435.8
290.592	8431.9
290.66	8425.21
290.727	8419.1
290.794	8427.04
290.862	8426.32
290.929	8425.79
290.996	8432.62
291.064	8440.9
291.131	8444.37
291.198	8456.4
291.266	8453.03
291.333	8454.18
291.4	8457.36
291.468	8473.96
291.535	8474.2
291.602	8480.36
291.669	8469.92
291.737	8474.49
291.804	8477.91
291.871	8493.5
291.938	8500.24
292.006	8525.84
292.073	8540.66
292.14	8549.42
292.207	8549.71
292.275	8551.97
292.342	8563.91
292.409	8587.44
292.476	8609.34
292.543	8601.3
292.611	8598.37
292.678	8612.95
292.745	8639.03
292.812	8649.57
292.879	8635.76
292.946	8631.28
293.014	8642.07
293.081	8648.23
293.148	8658.43
293.215	8672.14
293.282	8663.43
293.349	8673.2
293.416	8654.29
293.484	8665.84
293.551	8674.26
293.618	8687.88
293.685	8710.74
293.752	8703.96
293.819	8702.9
293.886	8691.83
293.953	8705.69
294.02	8723.64
294.087	8725.37
294.154	8716.42
294.221	8724.22
294.288	8730.81
294.356	8752.52
294.423	8756.99
294.49	8750.06
294.557	8767.15
294.624	8755.45
294.691	8769.36
294.758	8769.46
294.825	8770.08
294.892	8761.56
294.959	8761.28
295.026	8762.19
295.093	8755.4
295.16	8758.15
295.226	8756.56
295.293	8774.56
295.36	8767.87
295.427	8772.88
295.494	8787.13
295.561	8794.78
295.628	8818.9
295.695	8829.68
295.762	8830.12
295.829	8837.96
295.896	8854.81
295.963	8857.26
296.03	8871.17
296.096	8876.04
296.163	8884.36
296.23	8905.93
296.297	8923.83
296.364	8925.42
296.431	8932.11
296.498	8929.71
296.564	8946.89
296.631	8947.28
296.698	8933.75
296.765	8961.62
296.832	8950.4
296.899	8942.22
296.965	8964.65
297.032	8942.31
297.099	8956.42
297.166	8965.28
297.233	8959.07
297.299	8949.15
297.366	8949.97
297.433	8948.29
297.5	8956.04
297.566	8959.79
297.633	8955.27
297.7	8949.2
297.767	8947.56
297.833	8952.04
297.9	8953.48
297.967	8942.41
298.033	8953.05
298.1	8977.46
298.167	8969.28
298.234	8977.12
298.3	8978.81
298.367	8963.02
298.434	8970.86
298.5	8960.75
298.567	8952.09
298.634	8955.12
298.7	8972.02
298.767	8968.89
298.834	8979.86
298.9	8971.1
298.967	8957.48
299.033	8963.06
299.1	8981.07
299.167	8993.54
299.233	8985.26
299.3	8999.07
299.366	9012.21
299.433	9026.27
299.5	9004.51
299.566	9007.79
299.633	9021.17
299.699	9029.79
299.766	9024.11
299.832	9022.86
299.899	9029.21
299.965	9036.24
300.032	9027.91
300.099	9031.18
300.165	9039.75
300.232	9035.13
300.298	9039.32
300.365	9057.32
300.431	9060.36
300.498	9053.76
300.564	9059.11
300.631	9073.26
300.697	9078.6
300.763	9079.04
300.83	9077.5
300.896	9090.4
300.963	9097.62
301.029	9102.19
301.096	9108.55
301.162	9122.7
301.229	9119.81
301.295	9108.93
301.361	9117.94
301.428	9124.63
301.494	9110.19
301.561	9111.82
301.627	9117.94
301.693	9122.8
301.76	9122.65
301.826	9113.51
301.892	9120.05
301.959	9127.08
302.025	9123.23
302.092	9118.85
302.158	9120.63
302.224	9114.18
302.291	9106.33
302.357	9098.92
302.423	9087.32
302.49	9074.75
302.556	9086.45
302.622	9086.21
302.688	9103.97
302.755	9115.29
302.821	9125.3
302.887	9138.44
302.954	9138.64
303.02	9138.64
303.086	9141.19
303.152	9136.76
303.219	9132.86
303.285	9133.78
303.351	9143.5
303.417	9140.42
303.483	9136.04
303.55	9127.66
303.616	9128.39
303.682	9124.53
303.748	9115.05
303.815	9127.43
303.881	9133.97
303.947	9123.28
304.013	9123.14
304.079	9109.27
304.145	9081.06
304.212	9080.77
304.278	9067.68
304.344	9062.62
304.41	9049.43
304.476	9047.46
304.542	9048.13
304.608	9051.36
304.674	9032.1
304.741	9016.31
304.807	9016.26
304.873	9014.33
304.939	9030.7
305.005	9013.23
305.071	9012.26
305.137	9016.16
305.203	8993.34
305.269	8983.95
305.335	8985.64
305.401	8983.81
305.467	8976.4
305.533	8995.41
305.599	8994.4
305.666	9007.21
305.732	9004.94
305.798	9013.46
305.864	9030.85
305.93	9027.48
305.996	9027.91
306.062	9033.45
306.128	9029.69
306.194	9018.38
306.259	9017.37
306.325	9005.86
306.391	9014.62
306.457	9022.23
306.523	9028.1
306.589	9048.9
306.655	9051.5
306.721	9035.8
306.787	9021.22
306.853	9041.29
306.919	9014.63
306.985	9007.74
307.051	8995.85
307.117	8988.05
307.183	8981.31
307.248	8949.35
307.314	8957.77
307.38	8954.59
307.446	8955.85
307.512	8941.98
307.578	8947.76
307.644	8945.78
307.709	8942.61
307.775	8931.63
307.841	8924.55
307.907	8912.86
307.973	8888.21
308.039	8879.45
308.104	8879.35
308.17	8880.12
308.236	8858.36
308.302	8865.63
308.368	8852.05
308.433	8850.32
308.499	8844.69
308.565	8834.92
308.631	8840.84
308.696	8812.39
308.762	8805.56
308.828	8804.21
308.894	8786.45
308.959	8760.7
309.025	8743.04
309.091	8737.84
309.156	8724.02
309.222	8722.1
309.288	8708.62
309.354	8695.24
309.419	8697.36
309.485	8685.81
309.551	8686.05
309.616	8672.57
309.682	8667.18
309.748	8663.48
309.813	8653.61
309.879	8642.54
309.945	8629.6
310.01	8615.93
310.076	8618.09
310.141	8608.18
310.207	8587.92
310.273	8594.7
310.338	8601.05
310.404	8586.91
310.469	8570.93
310.535	8565.97
310.601	8544.51
310.666	8550.91
310.732	8555.67
310.797	8541.14
310.863	8530.55
310.928	8527.71
310.994	8529.25
311.059	8529.01
311.125	8520.4
311.191	8533.05
311.256	8522.37
311.322	8528.77
311.387	8507.84
311.453	8797.88
311.518	8771.08
311.584	8770.36
311.649	8772.05
311.715	8759.58
311.78	8757.37
311.846	8747.94
311.911	8758.67
311.976	8756.55
312.042	8742.74
312.107	8729.56
312.173	8718.78
312.238	8711.03
312.304	8696.98
312.369	8686.35
312.434	8669.7
312.5	8659.64
312.565	8621.77
312.631	8625.19
312.696	8617.25
312.761	8622.01
312.827	8319.22
312.892	8356.07
312.958	8349.53
313.023	8342.5
313.088	8336.83
313.154	8331.97
313.219	8321.77
313.284	8304.06
313.35	8298.82
313.415	8290.25
313.48	8290.45
313.546	8294.92
313.611	8307.38
313.676	8299.88
313.741	8290.88
313.807	8293.86
313.872	8296.08
313.937	8304.35
314.003	8311.33
314.068	8304.06
314.133	8304.25
314.198	8289.34
314.264	8266.87
314.329	8262.58
314.394	8255.56
314.459	8260.42
314.525	8272.11
314.59	8269.08
314.655	8260.08
314.72	8262.39
314.785	8263.88
314.851	8253.35
314.916	8231.6
314.981	8214.96
315.046	8204.66
315.111	8201.05
315.176	8188.21
315.242	8192.3
315.307	8189.94
315.372	8166.51
315.437	8159.2
315.502	8147.56
315.567	8155.11
315.632	8142.65
315.698	8138.17
315.763	8134.18
315.828	8123.6
315.893	8117.44
315.958	8115.13
316.023	8106.62
316.088	8086.8
316.153	8060.01
316.218	8045.43
316.283	8028.7
316.348	8010.81
316.413	8010.71
316.479	7986.95
316.544	7955.26
316.609	7920.25
316.674	7883.51
316.739	7856.05
316.804	7828.35
316.869	7800.32
316.934	7769.35
316.999	7738.28
317.064	7689.38
317.129	7648.8
317.194	7614.03
317.259	7573.35
317.324	7524.7
317.389	7482.73
317.454	7454.03
317.518	7424.76
317.583	7403.46
317.648	7382.36
317.713	7354.53
317.778	7299.39
317.843	7271.28
317.908	7240.19
317.973	7209.62
318.038	7189.2
318.103	7158.59
318.168	7126.58
318.233	7096.21
318.297	7047.88
318.362	7016.17
318.427	6984.03
318.492	6958.42
318.557	6914.56
318.622	6887.32
318.687	6865.47
318.751	6833.48
318.816	6796.88
318.881	6768.25
318.946	6719.36
319.011	6679.3
319.075	6640.06
319.14	6609.67
319.205	6572.93
319.27	6543.12
319.335	6498.76
319.399	6459.1
319.464	6429.38
319.529	6382.96
319.594	6349.11
319.658	6325.74
319.723	6279.23
319.788	6251.54
319.853	6204.93
319.917	6175.81
319.982	6124.5
320.047	6093.36
320.112	6070.47
320.176	6024.56
320.241	5997.49
320.306	5968.42
320.37	5932.01
320.435	5897.08
320.5	5870.08
320.564	5835.83
320.629	5795.26
320.694	5768.69
320.758	5730.42
320.823	5689.33
320.888	5665.79
320.952	5621.91
321.017	5584.28
321.082	5547.52
321.146	5517.12
321.211	5481.46
321.275	5443.12
321.34	5401.67
321.405	5359.07
321.469	5308.08
321.534	5272.91
321.598	5215.65
321.663	5185.89
321.727	5153.17
321.792	5109.72
321.857	5072.49
321.921	5034.17
321.986	4994.66
322.05	4941.42
322.115	4908.18
322.179	4870.31
322.244	4817.22
322.308	4785.57
322.373	4742.73
322.437	4712.05
322.502	4686.57
322.566	4644.93
322.631	4609.9
322.695	4573.54
322.76	4533.78
322.824	4506.18
322.889	4463.27
322.953	4424.54
323.018	4363.79
323.082	4301.72
323.146	4256.44
323.211	4204.89
323.275	4164.24
323.34	4123.32
323.404	4090.78
323.468	4048.8
323.533	4006.16
323.597	3964.41
323.662	3915.62
323.726	3879.58
323.79	3835.43
323.855	3772.43
323.919	3727.01
323.983	3686.02
324.048	3626.45
324.112	3751.68
324.177	3630.45
324.241	3444.58
324.305	3260.57
324.37	3079.57
324.434	2909.07
324.498	2868.12
324.562	2820.91
324.627	2763.99
324.691	2713.13
324.755	2654.21
324.82	2581.28
324.884	2509.33
324.948	2443.66
325.012	2356.77
325.077	2244.14
