Data from 20250625_urea_1M_1_MAYP1162681_23-05-05-649.txt Node
Date: Wed Jun 25 23:05:05 BST 2025
User: adleo
Spectrometer: MAYP116268
Trigger mode: 0
Integration Time (sec): 1.000000E0
Scans to average: 1
Electric dark correction enabled: true
Nonlinearity correction enabled: true
Boxcar width: 10
XAxis mode: Wavelengths
Number of Pixels in Spectrum: 2068
>>>>>Begin Spectral Data<<<<<
179.565	1152.92
179.642	1206.4
179.718	1249.12
179.795	1286.16
179.871	1316.47
179.948	1332.7
180.024	1350.49
180.101	1372.39
180.177	1384.54
180.254	1405.69
180.33	1424.65
180.407	1471.3
180.483	1561.9
180.56	1649.65
180.636	1728.03
180.712	1716.43
180.789	1725.41
180.865	1740.71
180.942	1748.88
181.018	1757.72
181.095	1765.85
181.171	1770.03
181.248	1771.89
181.324	1784.72
181.4	1792.47
181.477	1804.4
181.553	1818.37
181.63	1837.86
181.706	1851.41
181.782	1860.01
181.859	1860.72
181.935	1867.33
182.011	1868.7
182.088	1884.54
182.164	1899.14
182.24	1915.06
182.317	1923.99
182.393	1923.56
182.469	1932.79
182.546	1944.72
182.622	1948.47
182.698	1946.29
182.775	1957.75
182.851	1967.87
182.927	1962.36
183.003	1955.42
183.08	1947.19
183.156	1955.18
183.232	1954.18
183.308	1946.2
183.385	1954.32
183.461	1970.97
183.537	1974.3
183.613	1985.04
183.69	1978.57
183.766	1969.92
183.842	1976.86
183.918	1984.42
183.995	1996.31
184.071	2001.92
184.147	1997.88
184.223	1986.9
184.299	1999.07
184.375	1990.42
184.452	1999.65
184.528	2050.5
184.604	2061.15
184.68	2073.51
184.756	2079.55
184.832	2085.68
184.908	2088.87
184.985	2089.34
185.061	2074.7
185.137	2080.17
185.213	2066.52
185.289	2064.29
185.365	2058.96
185.441	2056.39
185.517	2068.62
185.593	2064.81
185.669	2059.96
185.745	2068.52
185.822	2083.69
185.898	2076.51
185.974	2082.26
186.05	2074.17
186.126	2036.97
186.202	2030.7
186.278	2026.47
186.354	2017.52
186.43	2019.52
186.506	2018
186.582	2016.05
186.658	2023.14
186.734	2007.06
186.81	2010.91
186.886	2015.43
186.962	2026.04
187.038	2022.23
187.114	2014.05
187.19	2020.33
187.266	2012.1
187.341	2009.44
187.417	2001.88
187.493	2000.45
187.569	2005.97
187.645	2000.83
187.721	1988.99
187.797	1996.02
187.873	1998.55
187.949	1992.94
188.025	1989.22
188.101	1993.88
188.176	1997.26
188.252	1989.42
188.328	1999.11
188.404	1997.73
188.48	1991.6
188.556	1984.09
188.632	1981.57
188.707	1980.71
188.783	1979.47
188.859	1975.43
188.935	1968.87
189.011	1979.38
189.086	1975.58
189.162	1967.87
189.238	1964.69
189.314	1963.64
189.39	1961.69
189.465	1959.88
189.541	1976.48
189.617	1962.22
189.693	1954.04
189.768	1963.03
189.844	1987.81
189.92	1975.74
189.996	1987.15
190.071	1999.8
190.147	1999.32
190.223	2012.26
190.298	2009.31
190.374	1998.47
190.45	2010.12
190.526	2016.35
190.601	2010.54
190.677	2008.55
190.753	2036.15
190.828	2039.29
190.904	2052.98
190.98	2066.49
191.055	2074.63
191.131	2064.73
191.207	2083.94
191.282	2092.26
191.358	2079.47
191.433	2066.2
191.509	2079.7
191.585	2076.7
191.66	2076.84
191.736	2084.07
191.811	2074.18
191.887	2084.74
191.963	2105.43
192.038	2109.8
192.114	2112.9
192.189	2115.7
192.265	2115.37
192.34	2092.76
192.416	2090.53
192.491	2086.72
192.567	2087.06
192.642	2090.29
192.718	2091.57
192.793	2080.68
192.869	2079.87
192.944	2080.3
193.02	2088.34
193.095	2092.24
193.171	2096.9
193.246	2097.57
193.322	2094.48
193.397	2095.9
193.473	2084.63
193.548	2068.22
193.624	2073.88
193.699	2069.84
193.775	2083.63
193.85	2082.54
193.925	2087.91
194.001	2087.2
194.076	2079.59
194.152	2070.79
194.227	2060.37
194.302	2051.43
194.378	2054.62
194.453	2052.86
194.529	2069.13
194.604	2051.53
194.679	2045.3
194.755	2025.62
194.83	2034.85
194.905	2032.28
194.981	2036.89
195.056	2031.05
195.131	2037.42
195.207	2036.18
195.282	2029.52
195.357	2011.78
195.433	2029.57
195.508	2018.2
195.583	2029.52
195.659	2042.98
195.734	2049.64
195.809	2050.21
195.884	2058.77
195.96	2058.72
196.035	2070.18
196.11	2065.38
196.185	2079.64
196.261	2081.45
196.336	2113.22
196.411	2100.57
196.486	2108.7
196.561	2103.8
196.637	2113.83
196.712	2126.06
196.787	2128.25
196.862	2142.61
196.937	2154.89
197.013	2160.17
197.088	2173.82
197.163	2193.1
197.238	2209
197.313	2208.57
197.388	2224.75
197.464	2252.83
197.539	2265.91
197.614	2256.02
197.689	2267.2
197.764	2282.48
197.839	2304.7
197.914	2297.13
197.989	2320.45
198.065	2332.68
198.14	2382.92
198.215	2405.82
198.29	2422.73
198.365	2438.29
198.44	2446.48
198.515	2470.9
198.59	2482.66
198.665	2505
198.74	2510.43
198.815	2511
198.89	2532.37
198.965	2557.76
199.04	2554.72
199.115	2568.48
199.19	2612.42
199.265	2616.51
199.34	2627.37
199.415	2658.97
199.49	2682.68
199.565	2690.73
199.64	2716.7
199.715	2711.78
199.79	2719.55
199.865	2722.79
199.94	2720.12
200.015	2752.33
200.09	2758
200.165	2764.53
200.24	2773.44
200.315	2811.35
200.39	2827.89
200.464	2833.98
200.539	2836.94
200.614	2852.28
200.689	2874.3
200.764	2884.22
200.839	2900.18
200.914	2903.99
200.989	2892.5
201.063	2907.04
201.138	2891.8
201.213	2888.74
201.288	2870.88
201.363	2875.69
201.438	2875.88
201.512	2891.08
201.587	2873.49
201.662	2879.64
201.737	2893.7
201.812	2898.32
201.886	2867.61
201.961	2876.57
202.036	2865.61
202.111	2861.61
202.186	2836.7
202.26	2818.11
202.335	2796.14
202.41	2790.18
202.485	2773.27
202.559	2757.69
202.634	2728.43
202.709	2734.24
202.784	2715.66
202.858	2717.61
202.933	2700.46
203.008	2694.17
203.082	2676.55
203.157	2676.88
203.232	2634.93
203.306	2613.96
203.381	2584.76
203.456	2564.85
203.53	2542.83
203.605	2525.31
203.68	2504.06
203.754	2495.35
203.829	2481.5
203.904	2460.41
203.978	2447.64
204.053	2452.83
204.127	2438.03
204.202	2436.22
204.277	2418.51
204.351	2413.75
204.426	2402.66
204.5	2395.61
204.575	2362.15
204.65	2369.01
204.724	2359.1
204.799	2365.86
204.873	2360
204.948	2356.38
205.022	2342.96
205.097	2334.92
205.171	2346.58
205.246	2352.62
205.32	2352.72
205.395	2354.77
205.469	2348.34
205.544	2352.91
205.618	2336.06
205.693	2349.06
205.767	2338.21
205.842	2362.77
205.916	2356.44
205.991	2350.4
206.065	2354.3
206.14	2368.81
206.214	2365.9
206.289	2360.1
206.363	2373
206.438	2376.33
206.512	2386.33
206.586	2406.46
206.661	2414.56
206.735	2393.86
206.81	2396.14
206.884	2412.23
206.958	2398.33
207.033	2410.37
207.107	2418.99
207.181	2451.28
207.256	2443.38
207.33	2463.13
207.405	2473.09
207.479	2489.8
207.553	2500.75
207.628	2487.04
207.702	2497.85
207.776	2491.85
207.851	2496.8
207.925	2512.95
207.999	2511.05
208.073	2506.05
208.148	2504.81
208.222	2495.09
208.296	2528.84
208.371	2543.42
208.445	2553.47
208.519	2580.61
208.593	2596.94
208.668	2595.18
208.742	2596.61
208.816	2601.28
208.89	2612.76
208.965	2613.04
209.039	2623.52
209.113	2640.48
209.187	2662.52
209.261	2662.43
209.336	2684.58
209.41	2707.45
209.484	2709.26
209.558	2738.81
209.632	2759.81
209.707	2782.3
209.781	2812.8
209.855	2831.87
209.929	2857.39
210.003	2872.26
210.077	2883.51
210.151	2944.01
210.226	2990.08
210.3	3031.12
210.374	3070.11
210.448	3093.43
210.522	3122.53
210.596	3154.15
210.67	3185.97
210.744	3260.61
210.818	3318.75
210.892	3365.66
210.966	3390.23
211.041	3439.77
211.115	3467.83
211.189	3530.7
211.263	3585.27
211.337	3630.68
211.411	3691.63
211.485	3733.24
211.559	3797.62
211.633	3860.03
211.707	3884.08
211.781	3952.38
211.855	3983.93
211.929	4041.51
212.003	4093.4
212.077	4178.34
212.151	4269.81
212.225	4358.5
212.299	4425.87
212.373	4503.66
212.447	4592.99
212.52	4717.55
212.594	4816.86
212.668	4935.42
212.742	5024.99
212.816	5130.82
212.89	5244.95
212.964	5359.82
213.038	5482.84
213.112	5614.52
213.186	5757.56
213.26	5868.02
213.333	5957.68
213.407	6096.05
213.481	6245.64
213.555	6408.52
213.629	6543.9
213.703	6678.43
213.777	6827.19
213.85	6962.96
213.924	7155.48
213.998	7319.81
214.072	7472.42
214.146	7631.46
214.219	7796.3
214.293	7969.85
214.367	8145.46
214.441	8325.24
214.515	8495.3
214.588	8651.63
214.662	8801.35
214.736	8958.6
214.81	9155.49
214.883	9346.23
214.957	9519.93
215.031	9689.84
215.105	9845.71
215.178	10020.4
215.252	10200.02
215.326	10369.25
215.4	10539.14
215.473	10681.72
215.547	10844.54
215.621	11019.75
215.694	11207.88
215.768	11373.42
215.842	11539.49
215.915	11713.58
215.989	11870.89
216.063	12035.93
216.136	12221.35
216.21	12401.66
216.284	12590.08
216.357	12765.01
216.431	12935.55
216.504	13126.72
216.578	13333.9
216.652	13521.89
216.725	13690.8
216.799	13864.29
216.873	14036.86
216.946	14213.92
217.02	14377.86
217.093	14544.46
217.167	14691.48
217.24	14826.59
217.314	14973.47
217.387	15127.77
217.461	15269.05
217.535	15431.35
217.608	15579.03
217.682	15735.44
217.755	15888.53
217.829	16024.83
217.902	16175.4
217.976	16325.74
218.049	16451.92
218.123	16562.62
218.196	16699.55
218.27	16832.09
218.343	16952.19
218.417	17078.31
218.49	17202.9
218.563	17336.88
218.637	17460.97
218.71	17598.37
218.784	17737.02
218.857	17869.6
218.931	17987.77
219.004	18111.67
219.077	18234.56
219.151	18350.22
219.224	18455.56
219.298	18563.27
219.371	18678.78
219.444	18758.24
219.518	18854.48
219.591	18954.23
219.665	19089.46
219.738	19194.32
219.811	19279.18
219.885	19387.47
219.958	19494.55
220.031	19584.95
220.105	19676.71
220.178	19764.89
220.251	19842.39
220.325	19935.25
220.398	20024.12
220.471	20116.79
220.544	20198.71
220.618	20256.25
220.691	20336.3
220.764	20405.84
220.838	20484.06
220.911	20548.74
220.984	20648.3
221.057	20736.89
221.131	20808.5
221.204	20839.73
221.277	20921.04
221.35	21015.55
221.424	21058.06
221.497	21110.98
221.57	21171.75
221.643	21235.09
221.716	21289.45
221.79	21341.55
221.863	21390.96
221.936	21429.71
222.009	21474.68
222.082	21520.52
222.155	21570.5
222.229	21623.76
222.302	21669.98
222.375	21700.45
222.448	21757.52
222.521	21786.15
222.594	21809.58
222.667	21831.31
222.74	21871.03
222.814	21891.57
222.887	21913.74
222.96	21964.11
223.033	21997.38
223.106	22021.33
223.179	22043.84
223.252	22072.33
223.325	22097.4
223.398	22119.33
223.471	22149.08
223.544	22172.41
223.617	22199.07
223.69	22225.1
223.763	22224.81
223.837	22237.44
223.91	22271.81
223.983	22261.49
224.056	22261.2
224.129	22273.93
224.202	22299.91
224.275	22302.85
224.348	22295.86
224.42	22287.23
224.493	22268
224.566	22272.05
224.639	22291.33
224.712	22292.01
224.785	22301.65
224.858	22298.95
224.931	22279.47
225.004	22274.8
225.077	22269.93
225.15	22249.29
225.223	22253.39
225.296	22284
225.369	22270.41
225.442	22253.25
225.514	22248.86
225.587	22254.6
225.66	22260.14
225.733	22265.11
225.806	22261.78
225.879	22262.22
225.952	22261.78
226.025	22278.7
226.097	22285.84
226.17	22271.13
226.243	22243.56
226.316	22231.17
226.389	22223.75
226.461	22231.32
226.534	22214.25
226.607	22211.21
226.68	22218.35
226.753	22205.86
226.825	22166.38
226.898	22172.74
226.971	22165.03
227.044	22162.67
227.117	22154.33
227.189	22131.77
227.262	22128.35
227.335	22120.1
227.407	22103.81
227.48	22092.29
227.553	22082.12
227.626	22060.18
227.698	22050.4
227.771	22052.9
227.844	22026.39
227.916	22023.98
227.989	21999.69
228.062	21996.7
228.134	21999.78
228.207	21989.03
228.28	21961.46
228.352	21952.45
228.425	21935.67
228.498	21934.9
228.57	21912.87
228.643	21907.67
228.716	21904.44
228.788	21874.02
228.861	21855.7
228.934	21848.04
229.006	21824.66
229.079	21801.96
229.151	21783.01
229.224	21748.5
229.296	21726.76
229.369	21762.92
229.442	21756.79
229.514	21741.71
229.587	21731.39
229.659	21693.31
229.732	21673.5
229.804	21668.1
229.877	21673.55
229.949	21669.55
230.022	21664.49
230.094	21653.55
230.167	21636.92
230.239	21606.55
230.312	21587.99
230.384	21599.23
230.457	21593.44
230.529	21581.63
230.602	21569.29
230.674	21538.73
230.747	21539.6
230.819	21536.61
230.892	21473.23
230.964	21450.28
231.037	21437.75
231.109	21424.88
231.181	21417.51
231.254	21385.99
231.326	21360.11
231.399	21330.41
231.471	21301.78
231.544	21251.71
231.616	21240.28
231.688	21214.4
231.761	21180.18
231.833	21156.08
231.905	21104.13
231.978	21071.4
232.05	21044.12
232.122	21015.4
232.195	20996.79
232.267	20982.29
232.339	20946.62
232.412	20938.72
232.484	20915.44
232.556	20884.3
232.629	20867.19
232.701	20845.31
232.773	20820.88
232.846	20796.73
232.918	20775.24
232.99	20749.79
233.062	20736.92
233.135	20703.96
233.207	20664.1
233.279	20659.62
233.351	20639.19
233.424	20611.19
233.496	20579.91
233.568	20581.26
233.64	20545.88
233.713	20516.39
233.785	20473.98
233.857	20454.51
233.929	20403.47
234.001	20386.22
234.074	20373.31
234.146	20333.5
234.218	20300.58
234.29	20276.97
234.362	20239.04
234.434	20186.51
234.507	20147.09
234.579	20103.04
234.651	20074.37
234.723	20064.54
234.795	20042.32
234.867	20012.35
234.939	19996.59
235.012	19974.28
235.084	19951
235.156	19923.87
235.228	19893.32
235.3	19867
235.372	19841.08
235.444	19828.79
235.516	19778.53
235.588	19744.45
235.66	19710.72
235.732	19678.63
235.804	19703.69
235.876	19692.31
235.948	19682.58
236.02	19651.21
236.092	19630.24
236.164	19600.37
236.236	19565
236.308	19515.46
236.38	19490.73
236.452	19447.36
236.524	19422.16
236.596	19392.52
236.668	19376.23
236.74	19351.61
236.812	19325.64
236.884	19302.79
236.956	19270.27
237.028	19242.17
237.1	19210.46
237.172	19200.2
237.244	19187.28
237.316	19118.47
237.388	19073.36
237.46	19033.41
237.532	19019.34
237.604	18972.21
237.675	18960.89
237.747	18929.85
237.819	18897.85
237.891	18855.4
237.963	18825.91
238.035	18785.67
238.107	18721.77
238.178	18705.29
238.25	18666.2
238.322	18660.57
238.394	18609.58
238.466	18573.97
238.538	18540.91
238.609	18510.98
238.681	18457.88
238.753	18402.89
238.825	18366.61
238.897	18343.52
238.968	18328.39
239.04	18291.72
239.112	18289.94
239.184	18228.06
239.255	18199.87
239.327	18178.52
239.399	18154.91
239.471	18133.85
239.542	18116.26
239.614	18098.86
239.686	18032.36
239.758	18008.31
239.829	17960.94
239.901	17938.87
239.973	17914.96
240.044	17893.71
240.116	17859.11
240.188	17820.46
240.259	17804.22
240.331	17771.06
240.403	17741.04
240.474	17699.79
240.546	17659.21
240.618	17599.21
240.689	17581.33
240.761	17548.56
240.833	17531.74
240.904	17502.44
240.976	17460.9
241.048	17430.44
241.119	17407.31
241.191	17394.3
241.262	17384.8
241.334	17347.74
241.405	17316.42
241.477	17271.45
241.549	17235.16
241.62	17207.21
241.692	17189.19
241.763	17163.07
241.835	17137.47
241.906	17108.99
241.978	17054.87
242.049	17040.41
242.121	17031.11
242.192	17005.33
242.264	16964.94
242.335	16914.82
242.407	16887.44
242.478	16858.33
242.55	16821.27
242.621	16783.58
242.693	16743.05
242.764	16706.23
242.836	16672.54
242.907	16651.81
242.979	16630.75
243.05	16606.9
243.122	16585.55
243.193	16553.25
243.264	16501.2
243.336	16464.09
243.407	16446.21
243.479	16442.84
243.55	16407.46
243.622	16384.18
243.693	16350.92
243.764	16334.59
243.836	16296.17
243.907	16258.91
243.978	16233.13
244.05	16212.74
244.121	16173.36
244.192	16151.72
244.264	16101.98
244.335	16076.87
244.407	16026.5
244.478	16001.34
244.549	15960.18
244.62	15908.85
244.692	15884.31
244.763	15869.13
244.834	15833.66
244.906	15792.59
244.977	15767.96
245.048	15758.9
245.119	15719.28
245.191	15682.7
245.262	15631.12
245.333	15616.03
245.405	15592.95
245.476	15557.61
245.547	15526.28
245.618	15498.23
245.689	15473.5
245.761	15453.89
245.832	15419.9
245.903	15405.01
245.974	15373.97
246.045	15353.77
246.117	15346.06
246.188	15306.92
246.259	15262.04
246.33	15236.93
246.401	15206.56
246.473	15156.43
246.544	15120.81
246.615	15093.72
246.686	15061.76
246.757	15052.22
246.828	15020.55
246.899	15011.2
246.97	14982.76
247.042	14947.52
247.113	14928.58
247.184	14928.72
247.255	14896.13
247.326	14866.83
247.397	14839.93
247.468	14820.6
247.539	14792.06
247.61	14761.84
247.681	14739.18
247.752	14724.62
247.823	14685.29
247.894	14666.49
247.965	14635.2
248.037	14603.39
248.108	14573.55
248.179	14553.35
248.25	14525.15
248.321	14500.57
248.392	14461.09
248.463	14458.24
248.534	14433.8
248.605	14422.19
248.675	14381.12
248.746	14369.16
248.817	14363.52
248.888	14337.15
248.959	14297.29
249.03	14283.36
249.101	14254.34
249.172	14232.4
249.243	14196.35
249.314	14191.67
249.385	14161.97
249.456	14146.98
249.527	14120.71
249.598	14103.26
249.669	14077.57
249.739	14052.69
249.81	14031.87
249.881	13993.35
249.952	13961.63
250.023	13935.55
250.094	13900.6
250.165	13865.89
250.235	13839.48
250.306	13810.55
250.377	13776.57
250.448	13758.34
250.519	13706.38
250.59	13699.77
250.66	13671.48
250.731	13665.74
250.802	13636.57
250.873	13623.51
250.944	13601.58
251.014	13566.92
251.085	13564.31
251.156	13555.92
251.227	13548.6
251.297	13543.87
251.368	13540.45
251.439	13526.08
251.51	13514.32
251.58	13476.34
251.651	13449.92
251.722	13431.31
251.792	13393.23
251.863	13376.93
251.934	13366.47
252.005	13372.88
252.075	13339.81
252.146	13327.14
252.217	13312.91
252.287	13307.52
252.358	13287.22
252.429	13288.72
252.499	13263.36
252.57	13242.87
252.641	13222
252.711	13196.4
252.782	13165.02
252.852	13161.74
252.923	13137.93
252.994	13120.91
253.064	13110.93
253.135	13092.85
253.205	13072.41
253.276	13071.21
253.347	13065.04
253.417	13037.13
253.488	13019
253.558	13004.54
253.629	12980.34
253.699	12959.08
253.77	12945.92
253.841	12922.44
253.911	12907.02
253.982	12897.09
254.052	12877.27
254.123	12864.93
254.193	12847.48
254.264	12859.63
254.334	12825.5
254.405	12801.45
254.475	12771.95
254.546	12754.98
254.616	12749.14
254.687	12735.65
254.757	12720.94
254.827	12698.14
254.898	12682.09
254.968	12662.52
255.039	12631.33
255.109	12625.88
255.18	12599.42
255.25	12560.71
255.321	12546.2
255.391	12511.74
255.461	12518.63
255.532	12481.75
255.602	12453.7
255.673	12418.85
255.743	12386.74
255.813	12334.88
255.884	12325.96
255.954	12318.63
256.024	12324.61
256.095	12300.65
256.165	12270.48
256.235	12257.94
256.306	12237.17
256.376	12237.26
256.446	12222.47
256.517	12211.86
256.587	12203.23
256.657	12187.42
256.728	12171.61
256.798	12147.8
256.868	12125.87
256.938	12085.67
257.009	12079.88
257.079	12073.38
257.149	12083.59
257.219	12048.6
257.29	12043.68
257.36	12005.89
257.43	11997.7
257.5	11954.7
257.571	11931.38
257.641	11920.24
257.711	11893.15
257.781	11878.84
257.852	11857.48
257.922	11826.35
257.992	11806.97
258.062	11783.88
258.132	11781.62
258.202	11760.07
258.273	11744.07
258.343	11747.11
258.413	11728.4
258.483	11709.65
258.553	11679.58
258.623	11652.35
258.693	11637.79
258.764	11642.42
258.834	11645.5
258.904	11621.98
258.974	11595.62
259.044	11576.34
259.114	11563.23
259.184	11544.19
259.254	11523.23
259.324	11486.6
259.394	11477.92
259.464	11470.02
259.535	11451.56
259.605	11423.17
259.675	11403.99
259.745	11397.05
259.815	11364.03
259.885	11343.94
259.955	11358.01
260.025	11335.41
260.095	11317.19
260.165	11308.71
260.235	11302.83
260.305	11277.77
260.375	11256.13
260.445	11260.61
260.515	11264.61
260.585	11256.27
260.655	11240.13
260.725	11240.37
260.795	11234.58
260.865	11234.97
260.934	11215.65
261.004	11207.5
261.074	11190.3
261.144	11182.3
261.214	11174.54
261.284	11157.48
261.354	11154.15
261.424	11117.38
261.494	11120.22
261.564	11102.34
261.634	11091.5
261.703	11058.34
261.773	11043.12
261.843	11031.02
261.913	11013.96
261.983	10970.21
262.053	10958.21
262.123	10937.97
262.192	10904.72
262.262	10901.2
262.332	10869.15
262.402	10862.46
262.472	10847.95
262.541	10811.04
262.611	10804.83
262.681	10779.58
262.751	10776.15
262.821	10754.33
262.89	10726.72
262.96	10713.13
263.03	10720.6
263.1	10708.07
263.169	10694.82
263.239	10684.99
263.309	10687.44
263.379	10679.25
263.448	10673.23
263.518	10664.7
263.588	10655.5
263.657	10658.29
263.727	10651.02
263.797	10635.4
263.867	10616.37
263.936	10586.21
264.006	10593.82
264.076	10587.36
264.145	10568.72
264.215	10544.44
264.285	10542.6
264.354	10513.65
264.424	10490.19
264.494	10454.43
264.563	10435.31
264.633	10440.56
264.702	10434.73
264.772	10401.34
264.842	10385.48
264.911	10377.54
264.981	10349.11
265.05	10335.91
265.12	10316.44
265.19	10300.74
265.259	10296.69
265.329	10293.46
265.398	10283.3
265.468	10291.49
265.537	10268.84
265.607	10268.65
265.676	10267.01
265.746	10256.89
265.815	10255.83
265.885	10247.89
265.955	10232.62
266.024	10213.88
266.094	10178.37
266.163	10174.56
266.232	10176.68
266.302	10158.62
266.371	10152.79
266.441	10140.46
266.51	10137.9
266.58	10127.74
266.649	10105.63
266.719	10102.93
266.788	10089.34
266.858	10089.44
266.927	10053.02
266.996	10041.65
267.066	10030.43
267.135	10003.6
267.205	9999.02
267.274	9994.3
267.343	9986.31
267.413	9970.7
267.482	9973.98
267.552	9980.38
267.621	9949.31
267.69	9915.98
267.76	9907.41
267.829	9902.69
267.898	9892.04
267.968	9865.79
268.037	9853.94
268.106	9850.33
268.176	9818.68
268.245	9808.66
268.314	9792.29
268.384	9790.75
268.453	9777.4
268.522	9766.18
268.592	9770.23
268.661	9745.37
268.73	9731.02
268.799	9710.12
268.869	9717
268.938	9684.83
269.007	9666.96
269.076	9662.72
269.146	9661.71
269.215	9655.36
269.284	9655.11
269.353	9639.7
269.422	9630.22
269.492	9610.52
269.561	9571.61
269.63	9573.15
269.699	9552.92
269.768	9544.54
269.838	9537.08
269.907	9533.8
269.976	9512.56
270.045	9482.03
270.114	9479
270.183	9469.71
270.253	9473.51
270.322	9445.92
270.391	9438.17
270.46	9432.77
270.529	9429.16
270.598	9427.81
270.667	9412.31
270.736	9389.43
270.806	9378.64
270.875	9375.46
270.944	9371.52
271.013	9389.86
271.082	9384.81
271.151	9382.59
271.22	9355.34
271.289	9341.86
271.358	9330.68
271.427	9321.1
271.496	9312.24
271.565	9302.56
271.634	9289.81
271.703	9308.35
271.772	9312.34
271.841	9298.57
271.91	9279.89
271.979	9268.24
272.048	9249.17
272.117	9244.84
272.186	9228.56
272.255	9227.21
272.324	9221.97
272.393	9222.3
272.462	9206.46
272.531	9192.3
272.6	9176.37
272.669	9180.51
272.738	9175.45
272.807	9169.48
272.876	9152.63
272.945	9183.69
273.013	9182.73
273.082	9188.26
273.151	9142.08
273.22	9134.24
273.289	9133.99
273.358	9140.83
273.427	9126.2
273.496	9124.17
273.564	9125.76
273.633	9124.56
273.702	9111.7
273.771	9100.01
273.84	9088.84
273.909	9091.15
273.977	9095.58
274.046	9085.37
274.115	9088.6
274.184	9071.07
274.253	9058.08
274.322	9067.8
274.39	9032.89
274.459	9010.8
274.528	8986.97
274.597	8979.7
274.665	8976.81
274.734	8982.3
274.803	8973.58
274.872	8971.03
274.94	8957.12
275.009	9011.69
275.078	9001.1
275.147	9001.73
275.215	9001
275.284	9004.08
275.353	8993.59
275.421	8964.7
275.49	8980.69
275.559	8972.7
275.627	8973.32
275.696	8969.62
275.765	8964.13
275.833	8954.79
275.902	8958.83
275.971	8965.43
276.039	8980.88
276.108	8981.65
276.177	8976.88
276.245	8962.54
276.314	8959.31
276.383	8959.75
276.451	8893.96
276.52	8896.66
276.588	8900.55
276.657	8909.36
276.725	8900.12
276.794	8894.87
276.863	8909.94
276.931	8886.11
277	8891.6
277.068	8890.35
277.137	8903.88
277.205	8901.28
277.274	8917.79
277.342	8918.65
277.411	8902.43
277.48	8894.78
277.548	8888.14
277.617	8888.71
277.685	8882.84
277.754	8883.13
277.822	8872.88
277.89	8882.27
277.959	8870.57
278.027	8853.29
278.096	8836.35
278.164	8862.54
278.233	8861.48
278.301	8843.91
278.37	8855.75
278.438	8842.32
278.507	8843.91
278.575	8821.43
278.643	8820.99
278.712	8803.76
278.78	8791.54
278.849	8800.83
278.917	8804.97
278.985	8797.41
279.054	8791.68
279.122	8804.53
279.191	8800.25
279.259	8794.76
279.327	8771.46
279.396	8792.45
279.464	8782.44
279.532	8787.78
279.601	8780.94
279.669	8771.22
279.737	8787.68
279.806	8779.79
279.874	8786.34
279.942	8785.47
280.011	8783.06
280.079	8786.38
280.147	8798.61
280.215	8805.54
280.284	8796.06
280.352	8781.72
280.42	8785.47
280.488	8780.66
280.557	8771.94
280.625	8773.77
280.693	8776.81
280.761	8788.16
280.83	8766.84
280.898	8786.24
280.966	8771.41
281.034	8742.29
281.102	8725.16
281.171	8719.86
281.239	8731.7
281.307	8722.94
281.375	8706.34
281.443	8727.37
281.512	8721.79
281.58	8732.33
281.648	8717.17
281.716	8714.67
281.784	8709.47
281.852	8705.57
281.92	8701.77
281.989	8708.13
282.057	8691.43
282.125	8720.11
282.193	8713.86
282.261	8707.5
282.329	8695.81
282.397	8699.51
282.465	8699.22
282.533	8716.93
282.601	8700.86
282.67	8673.13
282.738	8659.42
282.806	8674.43
282.874	8661.63
282.942	8664.37
283.01	8650.75
283.078	8656.14
283.146	8655.47
283.214	8662.54
283.282	8661.58
283.35	8675.97
283.418	8669.57
283.486	8674.14
283.554	8649.3
283.622	8645.79
283.69	8650.79
283.758	8649.93
283.826	8652
283.894	8659.31
283.962	8676.5
284.03	8691.03
284.098	8693.92
284.165	8696.18
284.233	8690.74
284.301	8680.78
284.369	8670.91
284.437	8664.56
284.505	8656.14
284.573	8678.23
284.641	8664.85
284.709	8674.72
284.777	8652.29
284.845	8658.93
284.912	8659.99
284.98	8661.43
285.048	8653.49
285.116	8656.81
285.184	8662.88
285.252	8661
285.319	8642.33
285.387	8631.02
285.455	8612.01
285.523	8622.79
285.591	8614.94
285.659	8619.76
285.726	8631.64
285.794	8617.21
285.862	8615.14
285.93	8619.81
285.997	8606.66
286.065	8605.61
286.133	8591.31
286.201	8591.65
286.269	8574.9
286.336	8572.49
286.404	8566.19
286.472	8576.49
286.539	8559.31
286.607	8548.19
286.675	8546.07
286.743	8553.68
286.81	8544.82
286.878	8558.15
286.946	8544.87
287.013	8550.93
287.081	8548.28
287.149	8532.11
287.216	8551.6
287.284	8544
287.352	8543.9
287.419	8540.87
287.487	8559.11
287.555	8561.23
287.622	8555.89
287.69	8565.08
287.758	8571.87
287.825	8564.31
287.893	8548.67
287.96	8553.58
288.028	8562.24
288.096	8567.05
288.163	8574.51
288.231	8565.23
288.298	8564.94
288.366	8582.26
288.433	8576.44
288.501	8568.55
288.569	8580.72
288.636	8575.33
288.704	8592.85
288.771	8606.04
288.839	8599.35
288.906	8589.19
288.974	8605.7
289.041	8608.93
289.109	8601.66
289.176	8606.96
289.244	8615.33
289.311	8627.07
289.379	8637.71
289.446	8640.02
289.514	8638.09
289.581	8637.95
289.649	8643.19
289.716	8645.07
289.783	8638.72
289.851	8657.77
289.918	8657.53
289.986	8655.8
290.053	8656.42
290.121	8650.84
290.188	8639.72
290.255	8662.54
290.323	8653.97
290.39	8641.17
290.458	8647.18
290.525	8657.48
290.592	8653.97
290.66	8656.61
290.727	8651.51
290.794	8660.18
290.862	8660.85
290.929	8664.12
290.996	8659.45
291.064	8669.9
291.131	8678.61
291.198	8683.71
291.266	8680.25
291.333	8678.8
291.4	8692.81
291.468	8708.6
291.535	8699.36
291.602	8709.75
291.669	8705.42
291.737	8712.54
291.804	8711.77
291.871	8721.64
291.938	8723.52
292.006	8750.09
292.073	8765.2
292.14	8779.55
292.207	8771.99
292.275	8767.51
292.342	8775.55
292.409	8800.15
292.476	8817.34
292.543	8806.84
292.611	8805.69
292.678	8822.97
292.745	8850.98
292.812	8854.35
292.879	8846.7
292.946	8853.53
293.014	8865.76
293.081	8870.76
293.148	8879.14
293.215	8893.1
293.282	8885.06
293.349	8890.4
293.416	8873.02
293.484	8875.67
293.551	8878.56
293.618	8891.36
293.685	8919.23
293.752	8907.78
293.819	8904.41
293.886	8887.56
293.953	8892.66
294.02	8909.8
294.087	8915.14
294.154	8903.78
294.221	8910.38
294.288	8914.71
294.356	8930.55
294.423	8932.52
294.49	8927.03
294.557	8946.05
294.624	8939.84
294.691	8962.08
294.758	8967.13
294.825	8973.54
294.892	8969.49
294.959	8971.03
295.026	8974.64
295.093	8963.81
295.16	8970.88
295.226	8968.53
295.293	9004.11
295.36	9011.28
295.427	9013.4
295.494	9022.5
295.561	9030.97
295.628	9055.53
295.695	9071.85
295.762	9072.28
295.829	9082.54
295.896	9095.25
295.963	9098.13
296.03	9106.41
296.096	9109.3
296.163	9118.79
296.23	9134.19
296.297	9142.52
296.364	9140.69
296.431	9149.74
296.498	9152.1
296.564	9172.03
296.631	9172.56
296.698	9149.21
296.765	9166.11
296.832	9156.87
296.899	9145.21
296.965	9163.61
297.032	9136.06
297.099	9150.51
297.166	9153.4
297.233	9145.69
297.299	9137.03
297.366	9139.82
297.433	9138.71
297.5	9145.31
297.566	9147.67
297.633	9140.4
297.7	9144.92
297.767	9145.45
297.833	9149.98
297.9	9146.18
297.967	9133.27
298.033	9145.98
298.1	9176.56
298.167	9173.91
298.234	9178.92
298.3	9183.83
298.367	9171.94
298.434	9186.48
298.5	9173.86
298.567	9175.11
298.634	9170.97
298.7	9192.3
298.767	9189.27
298.834	9203.09
298.9	9200.1
298.967	9190.71
299.033	9197.89
299.1	9207.04
299.167	9220.56
299.233	9211.85
299.3	9223.31
299.366	9236.11
299.433	9254.32
299.5	9229.71
299.566	9223.84
299.633	9238.81
299.699	9243.53
299.766	9242.37
299.832	9241.99
299.899	9251.14
299.965	9259.42
300.032	9259.85
300.099	9264.23
300.165	9263.27
300.232	9257.35
300.298	9257.01
300.365	9270.11
300.431	9267.07
300.498	9261.3
300.564	9263.37
300.631	9274.1
300.697	9280.84
300.763	9281.52
300.83	9278.05
300.896	9286.67
300.963	9296.83
301.029	9295.48
301.096	9304.05
301.162	9312.38
301.229	9304
301.295	9291
301.361	9295.34
301.428	9294.61
301.494	9274.49
301.561	9279.88
301.627	9282.48
301.693	9283.88
301.76	9284.84
301.826	9288.5
301.892	9300.73
301.959	9306.75
302.025	9303.33
302.092	9306.7
302.158	9307.28
302.224	9301.31
302.291	9290.96
302.357	9284.5
302.423	9281.81
302.49	9267.17
302.556	9277.04
302.622	9279.79
302.688	9284.12
302.755	9296.11
302.821	9304.92
302.887	9309.78
302.954	9303.43
303.02	9311.61
303.086	9315.42
303.152	9305.31
303.219	9297.12
303.285	9298.13
303.351	9302.66
303.417	9300.35
303.483	9284.7
303.55	9280.65
303.616	9278.01
303.682	9279.21
303.748	9272.66
303.815	9282.63
303.881	9291.92
303.947	9277.57
304.013	9273.58
304.079	9267.17
304.145	9240.83
304.212	9235.58
304.278	9230.77
304.344	9227.69
304.41	9209.49
304.476	9196.92
304.542	9197.16
304.608	9193.22
304.674	9175.74
304.741	9169.04
304.807	9171.59
304.873	9175.45
304.939	9193.21
305.005	9174.05
305.071	9165.87
305.137	9170.1
305.203	9150.27
305.269	9150.75
305.335	9160.18
305.401	9160.04
305.467	9159.9
305.533	9164.71
305.599	9169
305.666	9176.89
305.732	9179.54
305.798	9189.22
305.864	9211.75
305.93	9217.34
305.996	9222.05
306.062	9222.05
306.128	9222.01
306.194	9206.65
306.259	9209.39
306.325	9194.03
306.391	9199.91
306.457	9213.05
306.523	9209.97
306.589	9227.01
306.655	9214.64
306.721	9195.76
306.787	9180.94
306.853	9182.33
306.919	9168.32
306.985	9162.64
307.051	9153.11
307.117	9142.09
307.183	9135.3
307.248	9103.42
307.314	9103.28
307.38	9100.97
307.446	9105.49
307.512	9093.65
307.578	9103.9
307.644	9087.29
307.709	9084.26
307.775	9080.6
307.841	9071.26
307.907	9067.02
307.973	9046.9
308.039	9040.74
308.104	9043.05
308.17	9042.13
308.236	9029.09
308.302	9031.78
308.368	9017.82
308.433	9023.89
308.499	9020.28
308.565	9007.76
308.631	9005.4
308.696	8979.55
308.762	8968.09
308.828	8956.68
308.894	8929.2
308.959	8901.18
309.025	8901.71
309.091	8897.57
309.156	8884.67
309.222	8889.53
309.288	8876.1
309.354	8853.43
309.419	8852.28
309.485	8832.83
309.551	8836.68
309.616	8826.33
309.682	8820.51
309.748	8816.37
309.813	8793.89
309.879	8781.42
309.945	8771.99
310.01	8771.99
310.076	8771.27
310.141	8762.89
310.207	8748.36
310.273	8754.03
310.338	8763.28
310.404	8741.42
310.469	8725.64
310.535	8718.85
310.601	8692.23
310.666	8702.19
310.732	8707.34
310.797	8693.43
310.863	8693.63
310.928	8685.59
310.994	8683.66
311.059	8680.92
311.125	8672.4
311.191	8688.19
311.256	8680.83
311.322	8684.92
311.387	8660.57
311.453	8916
311.518	8890.11
311.584	8886.84
311.649	8891.03
311.715	8870.29
311.78	8874.38
311.846	8862.97
311.911	8867.3
311.976	8859.41
312.042	8839.58
312.107	8826.11
312.173	8820.52
312.238	8810.66
312.304	8802.23
312.369	8795.79
312.434	8780.48
312.5	8770.67
312.565	8733.85
312.631	8735.68
312.696	8721.34
312.761	8732.79
312.827	8468.74
312.892	8500.98
312.958	8499.3
313.023	8492.61
313.088	8493.43
313.154	8475.43
313.219	8470.57
313.284	8464.46
313.35	8467.15
313.415	8460.42
313.48	8457
313.546	8451.56
313.611	8457.53
313.676	8449.01
313.741	8440.4
313.807	8448.39
313.872	8454.16
313.937	8465.08
314.003	8472.83
314.068	8475.72
314.133	8478.17
314.198	8465.23
314.264	8451.85
314.329	8443.48
314.394	8434.48
314.459	8431.78
314.525	8453.39
314.59	8445.26
314.655	8425
314.72	8431.06
314.785	8421.44
314.851	8414.51
314.916	8399.74
314.981	8381.31
315.046	8371.59
315.111	8360.14
315.176	8343.35
315.242	8343.26
315.307	8336.71
315.372	8313.23
315.437	8304.18
315.502	8293.21
315.567	8300.33
315.632	8281.28
315.698	8276.66
315.763	8269.73
315.828	8257.9
315.893	8247.74
315.958	8243.32
316.023	8235.09
316.088	8214.83
316.153	8201.65
316.218	8194.87
316.283	8176.45
316.348	8161.78
316.413	8158.17
316.479	8145.91
316.544	8116.91
316.609	8084.87
316.674	8052.31
316.739	8023.31
316.804	7992.52
316.869	7958.13
316.934	7928.5
316.999	7902.39
317.064	7851.85
317.129	7815.82
317.194	7781.54
317.259	7740.42
317.324	7692.29
317.389	7654.07
317.454	7614.2
317.518	7582.47
317.583	7557.08
317.648	7539.73
317.713	7508.67
317.778	7451.32
317.843	7423.67
317.908	7388.54
317.973	7352.1
318.038	7324.37
318.103	7290.92
318.168	7260.79
318.233	7226.81
318.297	7177.21
318.362	7136.27
318.427	7105.9
318.492	7084.71
318.557	7042.39
318.622	7010.62
318.687	6988.29
318.751	6951.88
318.816	6923.05
318.881	6892.26
318.946	6841.19
319.011	6798.15
319.075	6759
319.14	6729.42
319.205	6683.79
319.27	6657.38
319.335	6620.26
319.399	6586.07
319.464	6556.01
319.529	6508.38
319.594	6472.76
319.658	6445.58
319.723	6408.28
319.788	6380.59
319.853	6324.8
319.917	6302.05
319.982	6258.7
320.047	6224.77
320.112	6197.99
320.176	6146.41
320.241	6110.32
320.306	6081.62
320.37	6039.69
320.435	6008.94
320.5	5980.58
320.564	5944.99
320.629	5903.21
320.694	5870.21
320.758	5832.84
320.823	5794.09
320.888	5768.77
320.952	5727.09
321.017	5689.68
321.082	5652.77
321.146	5621.6
321.211	5592.26
321.275	5548.97
321.34	5504.15
321.405	5463.27
321.469	5422.14
321.534	5386.21
321.598	5335.41
321.663	5306.36
321.727	5282.55
321.792	5237.89
321.857	5197.54
321.921	5164.68
321.986	5128.56
322.05	5075.55
322.115	5035.31
322.179	4990.49
322.244	4930.98
322.308	4900.71
322.373	4853.84
322.437	4815.78
322.502	4789.34
322.566	4748.26
322.631	4717.86
322.695	4679.2
322.76	4639.04
322.824	4607.41
322.889	4567.46
322.953	4532.49
323.018	4467.76
323.082	4400.61
323.146	4353.69
323.211	4304.48
323.275	4261.57
323.34	4214.9
323.404	4182.06
323.468	4138.79
323.533	4101.27
323.597	4065.53
323.662	4012.47
323.726	3981.78
323.79	3939.68
323.855	3877.86
323.919	3829.07
323.983	3782.34
324.048	3721.42
324.112	3870.21
324.177	3747.43
324.241	3553.97
324.305	3362.35
324.37	3179.25
324.434	3005.12
324.498	2965.22
324.562	2919.49
324.627	2862.43
324.691	2811.76
324.755	2754.12
324.82	2686.4
324.884	2616.59
324.948	2550.86
325.012	2466.65
325.077	2350.35
