Data from 20250625_urea_1M_1_MAYP1162681_20-55-06-289.txt Node
Date: Wed Jun 25 20:55:06 BST 2025
User: adleo
Spectrometer: MAYP116268
Trigger mode: 0
Integration Time (sec): 1.000000E0
Scans to average: 1
Electric dark correction enabled: true
Nonlinearity correction enabled: true
Boxcar width: 10
XAxis mode: Wavelengths
Number of Pixels in Spectrum: 2068
>>>>>Begin Spectral Data<<<<<
179.565	1176
179.642	1230.6
179.718	1273.72
179.795	1314.46
179.871	1345.11
179.948	1362.95
180.024	1383.03
180.101	1406.49
180.177	1418.96
180.254	1438.52
180.33	1459.64
180.407	1511.77
180.483	1606.4
180.56	1695.58
180.636	1779.61
180.712	1770.01
180.789	1778.95
180.865	1792.49
180.942	1799.57
181.018	1808.03
181.095	1820.29
181.171	1825.66
181.248	1826.71
181.324	1841.07
181.4	1847.25
181.477	1858.99
181.553	1870.25
181.63	1889.88
181.706	1903.53
181.782	1913.41
181.859	1915.89
181.935	1923.54
182.011	1922.49
182.088	1936.66
182.164	1955.98
182.24	1966.24
182.317	1974.42
182.393	1971.95
182.469	1983.45
182.546	1998.05
182.622	2003.71
182.698	2001
182.775	2012.51
182.851	2025.63
182.927	2017.74
183.003	2012.36
183.08	2006.04
183.156	2015.83
183.232	2016.41
183.308	2004.99
183.385	2011.27
183.461	2025.92
183.537	2028.06
183.613	2039.42
183.69	2033.15
183.766	2020.3
183.842	2028
183.918	2031.19
183.995	2045.03
184.071	2052.59
184.147	2046.89
184.223	2034.67
184.299	2045.09
184.375	2031.25
184.452	2039.53
184.528	2093.43
184.604	2102.56
184.68	2115.16
184.756	2123.2
184.832	2125.48
184.908	2130.95
184.985	2131
185.061	2115.59
185.137	2121.49
185.213	2108.41
185.289	2109.32
185.365	2103.61
185.441	2104.7
185.517	2118.83
185.593	2114.84
185.669	2109.94
185.745	2118.55
185.822	2134.61
185.898	2129.9
185.974	2139.75
186.05	2130.28
186.126	2092.22
186.202	2086.37
186.278	2084.32
186.354	2075.95
186.43	2080.42
186.506	2078.24
186.582	2078.62
186.658	2086.56
186.734	2066.96
186.81	2069.2
186.886	2072.67
186.962	2084.18
187.038	2077.9
187.114	2070.33
187.19	2073.33
187.266	2064.72
187.341	2068.43
187.417	2062.78
187.493	2061.78
187.569	2067.49
187.645	2062.63
187.721	2053.83
187.797	2061.77
187.873	2064.63
187.949	2058.59
188.025	2051.64
188.101	2056.49
188.176	2061.06
188.252	2055.83
188.328	2064.67
188.404	2066.19
188.48	2059.25
188.556	2051.35
188.632	2051.26
188.707	2048.45
188.783	2048.59
188.859	2044.6
188.935	2030.95
189.011	2041.32
189.086	2036.51
189.162	2028.62
189.238	2027.48
189.314	2021.53
189.39	2018.39
189.465	2009.5
189.541	2021.82
189.617	2010.83
189.693	2003.75
189.768	2007.98
189.844	2032.91
189.92	2024.31
189.996	2031.25
190.071	2041.29
190.147	2041.33
190.223	2053.32
190.298	2049.37
190.374	2038.82
190.45	2047.8
190.526	2055.36
190.601	2049.23
190.677	2051.08
190.753	2077.97
190.828	2080.3
190.904	2095.76
190.98	2109.13
191.055	2119.64
191.131	2115.31
191.207	2132.05
191.282	2144.32
191.358	2136.19
191.433	2124.77
191.509	2137.36
191.585	2136.51
191.66	2137.56
191.736	2146.45
191.811	2134.65
191.887	2151.35
191.963	2173.86
192.038	2180.52
192.114	2182.94
192.189	2186.7
192.265	2182.09
192.34	2158.91
192.416	2157.58
192.491	2154.96
192.567	2157.43
192.642	2162.48
192.718	2163.67
192.793	2154.3
192.869	2147.73
192.944	2147.59
193.02	2152.4
193.095	2156.2
193.171	2160.77
193.246	2159.44
193.322	2155.92
193.397	2159.01
193.473	2144.45
193.548	2125.41
193.624	2131.12
193.699	2129.7
193.775	2145.54
193.85	2145.07
193.925	2151.68
194.001	2152.06
194.076	2143.83
194.152	2132.27
194.227	2123.99
194.302	2114.57
194.378	2115.24
194.453	2115.24
194.529	2127.08
194.604	2113.34
194.679	2109.48
194.755	2091.6
194.83	2107.21
194.905	2107.83
194.981	2116.01
195.056	2109.02
195.131	2116.44
195.207	2111.78
195.282	2101.75
195.357	2080.76
195.433	2095.46
195.508	2088.7
195.583	2096.79
195.659	2111.3
195.734	2119.39
195.809	2120.01
195.884	2126.9
195.96	2129.9
196.035	2145.84
196.11	2142.12
196.185	2153.68
196.261	2154.54
196.336	2184.32
196.411	2169.42
196.486	2171.14
196.561	2163.67
196.637	2175.56
196.712	2189.31
196.787	2194.55
196.862	2213.62
196.937	2222.8
197.013	2229.32
197.088	2237.89
197.163	2256.31
197.238	2273.55
197.313	2271.88
197.388	2283.87
197.464	2310.86
197.539	2325.04
197.614	2315.76
197.689	2332.28
197.764	2346.23
197.839	2368.03
197.914	2362.69
197.989	2383.45
198.065	2397.82
198.14	2450.27
198.215	2472.41
198.29	2484.98
198.365	2498.07
198.44	2507.4
198.515	2538.64
198.59	2553.12
198.665	2577.02
198.74	2587.5
198.815	2585.22
198.89	2609.41
198.965	2637.13
199.04	2634.32
199.115	2644.85
199.19	2687.04
199.265	2689.47
199.34	2702.67
199.415	2735.22
199.49	2755.94
199.565	2762.99
199.64	2786.62
199.715	2780.42
199.79	2789.38
199.865	2797.53
199.94	2796.34
200.015	2825.75
200.09	2828.56
200.165	2838.71
200.24	2844.86
200.315	2880.96
200.39	2897.69
200.464	2905.17
200.539	2908.56
200.614	2926.43
200.689	2953.08
200.764	2960.18
200.839	2975.43
200.914	2978.38
200.989	2965.65
201.063	2979.19
201.138	2965.52
201.213	2964.04
201.288	2944.79
201.363	2948.17
201.438	2946.65
201.512	2963.23
201.587	2943.87
201.662	2949.07
201.737	2960.8
201.812	2969.28
201.886	2940.8
201.961	2952.39
202.036	2940.19
202.111	2935.85
202.186	2908.18
202.26	2887.67
202.335	2866.22
202.41	2863.31
202.485	2846.73
202.559	2830.77
202.634	2805.56
202.709	2813.75
202.784	2797.17
202.858	2797.17
202.933	2779.83
203.008	2772.39
203.082	2752.1
203.157	2753.53
203.232	2711.33
203.306	2688.07
203.381	2659.48
203.456	2634.94
203.53	2608.72
203.605	2585.73
203.68	2564.86
203.754	2556.43
203.829	2541.95
203.904	2521.29
203.978	2508.71
204.053	2512.85
204.127	2499.24
204.202	2497.62
204.277	2481
204.351	2475.24
204.426	2469.62
204.5	2461.38
204.575	2429.68
204.65	2436.16
204.724	2426.3
204.799	2434.05
204.873	2430.1
204.948	2425.77
205.022	2415.01
205.097	2408.24
205.171	2425.9
205.246	2434.24
205.32	2434.76
205.395	2434.19
205.469	2426.86
205.544	2430.25
205.618	2412.68
205.693	2424.87
205.767	2413.16
205.842	2436.11
205.916	2430.87
205.991	2418.16
206.065	2423.97
206.14	2439.43
206.214	2437.2
206.289	2429.24
206.363	2443.05
206.438	2445.62
206.512	2458
206.586	2475.52
206.661	2483.09
206.735	2460.58
206.81	2459.25
206.884	2474.62
206.958	2462.96
207.033	2479.53
207.107	2488.1
207.181	2519.87
207.256	2512.01
207.33	2532.01
207.405	2545.12
207.479	2562.64
207.553	2571.83
207.628	2558.88
207.702	2567.83
207.776	2563.69
207.851	2569.64
207.925	2585.94
207.999	2581.51
208.073	2574.08
208.148	2576.17
208.222	2566.41
208.296	2596.54
208.371	2613.7
208.445	2625.13
208.519	2653.37
208.593	2667.71
208.668	2661.99
208.742	2667.05
208.816	2673.43
208.89	2685.82
208.965	2683.24
209.039	2693.87
209.113	2715.21
209.187	2739.59
209.261	2738.93
209.336	2762.42
209.41	2789.77
209.484	2794.01
209.558	2822.65
209.632	2842.43
209.707	2860.49
209.781	2889.08
209.855	2913.82
209.929	2939.26
210.003	2956.75
210.077	2969
210.151	3024.98
210.226	3073.45
210.3	3113.73
210.374	3154.21
210.448	3177.59
210.522	3210.08
210.596	3239.23
210.67	3271.48
210.744	3342.32
210.818	3406.48
210.892	3457.04
210.966	3482.47
211.041	3530.69
211.115	3565.35
211.189	3631.76
211.263	3694.13
211.337	3748.43
211.411	3812.46
211.485	3860.4
211.559	3930.97
211.633	3994.93
211.707	4024.72
211.781	4099.98
211.855	4136.41
211.929	4199.84
212.003	4259.4
212.077	4346.63
212.151	4445.78
212.225	4543.79
212.299	4620.8
212.373	4701.84
212.447	4793.74
212.52	4926.39
212.594	5042.05
212.668	5164.28
212.742	5262.95
212.816	5373.76
212.89	5494.8
212.964	5620.42
213.038	5754.68
213.112	5896.66
213.186	6049.06
213.26	6174.87
213.333	6273.41
213.407	6425.09
213.481	6581.57
213.555	6747.65
213.629	6895.57
213.703	7042.12
213.777	7204.13
213.85	7353.22
213.924	7559.28
213.998	7732.52
214.072	7899.62
214.146	8060.37
214.219	8243.32
214.293	8430.46
214.367	8620.19
214.441	8816.7
214.515	8993.12
214.588	9163.34
214.662	9316.49
214.736	9484.04
214.81	9688.75
214.883	9902.5
214.957	10094.17
215.031	10280.9
215.105	10457.29
215.178	10642.04
215.252	10831.34
215.326	11010.1
215.4	11194.94
215.473	11350.7
215.547	11538.94
215.621	11725.6
215.694	11927.21
215.768	12099.47
215.842	12276.55
215.915	12456.78
215.989	12617.63
216.063	12795.74
216.136	12993.18
216.21	13189.41
216.284	13400.35
216.357	13595.96
216.431	13774.32
216.504	13961.35
216.578	14168.48
216.652	14368.87
216.725	14553.2
216.799	14740.9
216.873	14914.05
216.946	15099.77
217.02	15272.87
217.093	15439.31
217.167	15589.45
217.24	15751.07
217.314	15924.59
217.387	16079.17
217.461	16243.48
217.535	16426.77
217.608	16581.44
217.682	16729.21
217.755	16899.72
217.829	17043.87
217.902	17186.14
217.976	17327.06
218.049	17473.09
218.123	17603.69
218.196	17748.37
218.27	17879.74
218.343	18007.74
218.417	18149.86
218.49	18280.6
218.563	18419.82
218.637	18556.3
218.71	18702.99
218.784	18833.59
218.857	18967.9
218.931	19095.22
219.004	19219.21
219.077	19338.1
219.151	19460.5
219.224	19573.36
219.298	19685.79
219.371	19802.66
219.444	19898.03
219.518	20006.46
219.591	20104.28
219.665	20231.9
219.738	20328.82
219.811	20423.71
219.885	20525.54
219.958	20630.89
220.031	20715.04
220.105	20812.68
220.178	20901.12
220.251	20984.69
220.325	21075.93
220.398	21152.9
220.471	21244.76
220.544	21322.84
220.618	21388.15
220.691	21469.51
220.764	21553.38
220.838	21622.06
220.911	21678.94
220.984	21774.04
221.057	21844.27
221.131	21922.98
221.204	21954.03
221.277	22026.72
221.35	22122.65
221.424	22172.97
221.497	22223.69
221.57	22285.63
221.643	22334.61
221.716	22390.77
221.79	22430.06
221.863	22466.17
221.936	22513.85
222.009	22555.26
222.082	22600
222.155	22644.64
222.229	22697.1
222.302	22722.5
222.375	22749.17
222.448	22792.7
222.521	22817.97
222.594	22854.94
222.667	22861.89
222.74	22904.8
222.814	22926.45
222.887	22942.84
222.96	22976.59
223.033	23007.4
223.106	23031.36
223.179	23060.15
223.252	23082.96
223.325	23113
223.398	23134.45
223.471	23145.4
223.544	23164.06
223.617	23184.21
223.69	23196.32
223.763	23198.29
223.837	23216.81
223.91	23242.08
223.983	23227.27
224.056	23220.57
224.129	23219.56
224.202	23240.87
224.275	23238.46
224.348	23236.43
224.42	23229.44
224.493	23221.1
224.566	23218.3
224.639	23224.72
224.712	23225.3
224.785	23214.35
224.858	23215.94
224.931	23213.67
225.004	23209.43
225.077	23203.84
225.15	23169.6
225.223	23174.81
225.296	23192.94
225.369	23171.78
225.442	23153.98
225.514	23163.82
225.587	23166.76
225.66	23168.69
225.733	23171.82
225.806	23168.5
225.879	23152.87
225.952	23128.33
226.025	23135.85
226.097	23129.3
226.17	23116.32
226.243	23072.59
226.316	23055.91
226.389	23026.69
226.461	23009.38
226.534	22988.89
226.607	22971.87
226.68	22984.21
226.753	22956.05
226.825	22910.53
226.898	22906.77
226.971	22889.42
227.044	22873.51
227.117	22855.28
227.189	22839.42
227.262	22824.61
227.335	22813.38
227.407	22798.05
227.48	22785.32
227.553	22767.91
227.626	22744.77
227.698	22730.74
227.771	22731.22
227.844	22708.71
227.916	22700.32
227.989	22667.25
228.062	22650.33
228.134	22655.48
228.207	22631.43
228.28	22601.34
228.352	22578.83
228.425	22564.61
228.498	22552.22
228.57	22522.62
228.643	22514.13
228.716	22488.48
228.788	22457.39
228.861	22424.85
228.934	22421.33
229.006	22391.82
229.079	22368.25
229.151	22336.72
229.224	22285.77
229.296	22266.58
229.369	22302.84
229.442	22296.67
229.514	22267.21
229.587	22258.39
229.659	22209.22
229.732	22191.96
229.804	22190.32
229.877	22197.55
229.949	22180.01
230.022	22171.28
230.094	22153.21
230.167	22128.38
230.239	22104.76
230.312	22082.39
230.384	22078.49
230.457	22059.73
230.529	22059.78
230.602	22041.42
230.674	22037.37
230.747	22038.14
230.819	22027.39
230.892	21942.54
230.964	21913.48
231.037	21904.27
231.109	21874.43
231.181	21870
231.254	21828.83
231.326	21790.47
231.399	21749.73
231.471	21719.99
231.544	21677.19
231.616	21665.28
231.688	21638.63
231.761	21611.25
231.833	21579.58
231.905	21531.82
231.978	21494.17
232.05	21454.02
232.122	21427.46
232.195	21393
232.267	21377.48
232.339	21340.61
232.412	21330.34
232.484	21298.19
232.556	21258.28
232.629	21255.34
232.701	21235.78
232.773	21206.86
232.846	21180.4
232.918	21160.25
232.99	21130.23
233.062	21108.39
233.135	21085.4
233.207	21050.51
233.279	21029.78
233.351	21013.88
233.424	20982.55
233.496	20941.97
233.568	20928.43
233.64	20875.46
233.713	20833.15
233.785	20798.54
233.857	20767.8
233.929	20722.93
234.001	20712.56
234.074	20704.81
234.146	20652.27
234.218	20608.37
234.29	20587.64
234.362	20553.38
234.434	20504.08
234.507	20467.21
234.579	20422.73
234.651	20373.72
234.723	20339.4
234.795	20305.43
234.867	20272.61
234.939	20257.23
235.012	20236.22
235.084	20208.17
235.156	20191.36
235.228	20156.03
235.3	20121.29
235.372	20102.97
235.444	20092.32
235.516	20025.34
235.588	19993.14
235.66	19956.57
235.732	19916.52
235.804	19931.36
235.876	19903.56
235.948	19893.34
236.02	19853.87
236.092	19826.26
236.164	19798.89
236.236	19770.41
236.308	19738.55
236.38	19701.11
236.452	19656.63
236.524	19626.22
236.596	19614.8
236.668	19589.84
236.74	19571.14
236.812	19540.78
236.884	19510.9
236.956	19463.87
237.028	19432.5
237.1	19390.52
237.172	19380.89
237.244	19369.51
237.316	19301.76
237.388	19267.64
237.46	19222.53
237.532	19210.73
237.604	19166.1
237.675	19148.75
237.747	19120.61
237.819	19067.79
237.891	19041.48
237.963	18994.59
238.035	18960.72
238.107	18881.25
238.178	18855.47
238.25	18822.65
238.322	18814.8
238.394	18747.33
238.466	18717.41
238.538	18686.56
238.609	18669.51
238.681	18621.03
238.753	18578.52
238.825	18550.52
238.897	18531.35
238.968	18517.56
239.04	18477.32
239.112	18468.02
239.184	18423.3
239.255	18387.35
239.327	18373.47
239.399	18338.34
239.471	18323.69
239.542	18289.86
239.614	18274.44
239.686	18217.87
239.758	18188.47
239.829	18137.44
239.901	18133.77
239.973	18103.22
240.044	18084.52
240.116	18046.89
240.188	18006.6
240.259	17972.38
240.331	17927.57
240.403	17896.1
240.474	17842.75
240.546	17799.18
240.618	17753.59
240.689	17715.23
240.761	17695.23
240.833	17678.56
240.904	17639.28
240.976	17610.03
241.048	17585.31
241.119	17561.12
241.191	17532.49
241.262	17521.02
241.334	17483.62
241.405	17436.1
241.477	17400.44
241.549	17371.62
241.62	17341.45
241.692	17323.14
241.763	17299.38
241.835	17275.72
241.906	17245.07
241.978	17200.1
242.049	17190.9
242.121	17165.93
242.192	17148.82
242.264	17095.38
242.335	17049.16
242.407	17033.16
242.478	16995.37
242.55	16962.5
242.621	16921.88
242.693	16894.98
242.764	16852.28
242.836	16824.33
242.907	16810.26
242.979	16787.99
243.05	16754.69
243.122	16725.53
243.193	16694.54
243.264	16650.35
243.336	16615.55
243.407	16591.5
243.479	16581.86
243.55	16549.57
243.622	16525.28
243.693	16494.43
243.764	16490
243.836	16444.59
243.907	16411.39
243.978	16380.68
244.05	16358.32
244.121	16321.21
244.192	16305.64
244.264	16265.4
244.335	16240.91
244.407	16195.65
244.478	16167.17
244.549	16128.51
244.62	16088.8
244.692	16052.46
244.763	16030.53
244.834	15991.87
244.906	15950.28
244.977	15919.04
245.048	15904.34
245.119	15869.78
245.191	15831.13
245.262	15778.2
245.333	15768.71
245.405	15737.33
245.476	15709.81
245.547	15679.44
245.618	15659.97
245.689	15624.78
245.761	15600.59
245.832	15569.69
245.903	15552.39
245.974	15530.84
246.045	15508.67
246.117	15501.87
246.188	15464.61
246.259	15426.58
246.33	15403.39
246.401	15371.44
246.473	15336.35
246.544	15302.03
246.615	15282.07
246.686	15255.46
246.757	15239.36
246.828	15198.1
246.899	15181.42
246.97	15144.16
247.042	15118.76
247.113	15094.47
247.184	15092.59
247.255	15058.55
247.326	15028.57
247.397	14998.45
247.468	14972.27
247.539	14947.16
247.61	14904.11
247.681	14892.54
247.752	14882.47
247.823	14850.03
247.894	14833.35
247.965	14802.35
248.037	14770.49
248.108	14732.31
248.179	14701.56
248.25	14675.33
248.321	14665.12
248.392	14625.64
248.463	14627.08
248.534	14593.72
248.605	14577.14
248.675	14543.5
248.746	14520.36
248.817	14501.85
248.888	14476.01
248.959	14433.49
249.03	14419.32
249.101	14396.66
249.172	14362.15
249.243	14318.33
249.314	14308.69
249.385	14288.39
249.456	14271.38
249.527	14243.08
249.598	14227.94
249.669	14210.88
249.739	14188.41
249.81	14173.76
249.881	14145.56
249.952	14119.05
250.023	14090.99
250.094	14050.16
250.165	14014.2
250.235	13993.52
250.306	13975.06
250.377	13951
250.448	13935.43
250.519	13888.19
250.59	13878.93
250.66	13857.34
250.731	13847.84
250.802	13825.52
250.873	13799.54
250.944	13784.21
251.014	13758.37
251.085	13762.85
251.156	13742.7
251.227	13741.25
251.297	13729.97
251.368	13719.37
251.439	13706.06
251.51	13702.98
251.58	13673.81
251.651	13646.77
251.722	13639.59
251.792	13601.84
251.863	13575.28
251.934	13564.63
252.005	13574.8
252.075	13553.54
252.146	13547.75
252.217	13538.35
252.287	13524.37
252.358	13509
252.429	13500.8
252.499	13476.17
252.57	13447.39
252.641	13439.96
252.711	13413.35
252.782	13364.86
252.852	13363.8
252.923	13339.36
252.994	13318.24
253.064	13317.52
253.135	13290.38
253.205	13264.88
253.276	13259.77
253.347	13259.29
253.417	13231.71
253.488	13204.14
253.558	13178.39
253.629	13149.66
253.699	13132.36
253.77	13119.53
253.841	13094.37
253.911	13075.14
253.982	13057.54
254.052	13048.29
254.123	13032.28
254.193	13009.96
254.264	13036.38
254.334	13003.41
254.405	12970.67
254.475	12940.02
254.546	12920.93
254.616	12913.26
254.687	12893.35
254.757	12877.68
254.827	12847.6
254.898	12830.97
254.968	12813.19
255.039	12787.83
255.109	12781.85
255.18	12757.36
255.25	12722.17
255.321	12709.06
255.391	12674.26
255.461	12679.17
255.532	12633.96
255.602	12605.37
255.673	12575.44
255.743	12545.74
255.813	12507.03
255.884	12503.66
255.954	12496.62
256.024	12487.08
256.095	12474.21
256.165	12443.65
256.235	12429.81
256.306	12412.8
256.376	12406.77
256.446	12393.42
256.517	12385.08
256.587	12379.73
256.657	12360.16
256.728	12340.83
256.798	12318.03
256.868	12297.78
256.938	12266.26
257.009	12263.27
257.079	12248.28
257.149	12255.56
257.219	12219.6
257.29	12211.31
257.36	12172.21
257.43	12166.62
257.5	12133.7
257.571	12113.46
257.641	12106.08
257.711	12078.17
257.781	12066.17
257.852	12053.93
257.922	12015.51
257.992	11992.08
258.062	11958.87
258.132	11959.64
258.202	11945.57
258.273	11931.49
258.343	11935.88
258.413	11912.74
258.483	11887.92
258.553	11864.45
258.623	11828.97
258.693	11808.92
258.764	11805.16
258.834	11802.27
258.904	11777.4
258.974	11750.21
259.044	11731.56
259.114	11719.51
259.184	11703.85
259.254	11685.05
259.324	11644.27
259.394	11639.21
259.464	11645.67
259.535	11628.99
259.605	11599.26
259.675	11568.51
259.745	11553.08
259.815	11519.68
259.885	11496.6
259.955	11509.42
260.025	11485.51
260.095	11470.33
260.165	11466.09
260.235	11459.82
260.305	11441.8
260.375	11416.06
260.445	11421.85
260.515	11415.44
260.585	11415.68
260.655	11401.6
260.725	11390.23
260.795	11386.52
260.865	11382.66
260.934	11346.61
261.004	11343.58
261.074	11323.53
261.144	11322.18
261.214	11320.73
261.284	11302.52
261.354	11298.56
261.424	11266.46
261.494	11267.43
261.564	11246.56
261.634	11232.92
261.703	11204.05
261.773	11189.02
261.843	11179.23
261.913	11168.49
261.983	11139.14
262.053	11123.96
262.123	11107.14
262.192	11082.51
262.262	11073.36
262.332	11047.09
262.402	11047.14
262.472	11034.85
262.541	11005.36
262.611	11003.19
262.681	10981.12
262.751	10974.9
262.821	10959.39
262.89	10933.85
262.96	10918.76
263.03	10931.97
263.1	10919.05
263.169	10909.75
263.239	10901.03
263.309	10907.15
263.379	10889.66
263.448	10876.7
263.518	10859.3
263.588	10840.89
263.657	10839.06
263.727	10834.68
263.797	10822.48
263.867	10800.85
263.936	10764.37
264.006	10767.02
264.076	10745.43
264.145	10724.57
264.215	10706.5
264.285	10700.28
264.354	10666.41
264.424	10653.69
264.494	10624.15
264.563	10605.65
264.633	10605.75
264.702	10599.48
264.772	10559.15
264.842	10540.02
264.911	10532.8
264.981	10508.51
265.05	10496.95
265.12	10486.69
265.19	10476.37
265.259	10469
265.329	10469.77
265.398	10463.7
265.468	10472.18
265.537	10455.9
265.607	10446.55
265.676	10448
265.746	10434.31
265.815	10442.65
265.885	10427.38
265.955	10401.41
266.024	10386.52
266.094	10346.87
266.163	10340.9
266.232	10350.72
266.302	10340.46
266.371	10328.9
266.441	10314.4
266.51	10309.73
266.58	10293.68
266.649	10263.96
266.719	10260.29
266.788	10247.38
266.858	10249.21
266.927	10204.07
266.996	10200.89
267.066	10199.98
267.135	10171.89
267.205	10168.66
267.274	10156.33
267.343	10160.09
267.413	10146.22
267.482	10147.61
267.552	10149.11
267.621	10122.27
267.69	10091.2
267.76	10078.97
267.829	10070.34
267.898	10063.36
267.968	10043.08
268.037	10034.65
268.106	10029.74
268.176	10002.71
268.245	9983.2
268.314	9963.11
268.384	9969.95
268.453	9952.95
268.522	9942.01
268.592	9942.98
268.661	9922.94
268.73	9912.92
268.799	9883.87
268.869	9892.3
268.938	9861.71
269.007	9847.7
269.076	9841.29
269.146	9840.18
269.215	9832.28
269.284	9838.45
269.353	9821.21
269.422	9808.3
269.492	9787.83
269.561	9751.61
269.63	9745.88
269.699	9737.31
269.768	9728.25
269.838	9718.52
269.907	9716.93
269.976	9691.46
270.045	9655.96
270.114	9654.9
270.183	9646.52
270.253	9636.84
270.322	9607.37
270.391	9597.88
270.46	9601.06
270.529	9593.31
270.598	9591.19
270.667	9577.32
270.736	9551.89
270.806	9546.3
270.875	9544.62
270.944	9536.48
271.013	9561.47
271.082	9558.05
271.151	9546.68
271.22	9520.73
271.289	9504.84
271.358	9487.79
271.427	9478.06
271.496	9470.26
271.565	9449.56
271.634	9432.89
271.703	9438.43
271.772	9446.33
271.841	9433.95
271.91	9410.45
271.979	9403.86
272.048	9372.07
272.117	9375.73
272.186	9362.73
272.255	9361.24
272.324	9360.95
272.393	9349.59
272.462	9330.08
272.531	9315.15
272.6	9302.2
272.669	9300.9
272.738	9290.11
272.807	9290.45
272.876	9278.22
272.945	9307.64
273.013	9309.67
273.082	9314.77
273.151	9295.8
273.22	9289.06
273.289	9280.97
273.358	9288
273.427	9273.22
273.496	9275.67
273.564	9267.68
273.633	9263.78
273.702	9242.98
273.771	9226.27
273.84	9219.05
273.909	9222.32
273.977	9224.63
274.046	9211.54
274.115	9214.57
274.184	9197.34
274.253	9188.72
274.322	9192.62
274.39	9162.33
274.459	9151.4
274.528	9120.35
274.597	9114.04
274.665	9103.21
274.734	9112.69
274.803	9100.46
274.872	9091.8
274.94	9079.57
275.009	9116.56
275.078	9107.6
275.147	9106.59
275.215	9103.8
275.284	9118.34
275.353	9103.27
275.421	9074.38
275.49	9093.45
275.559	9084.78
275.627	9080.6
275.696	9066.49
275.765	9064.66
275.833	9047
275.902	9040.55
275.971	9056.43
276.039	9065.82
276.108	9066.54
276.177	9061.25
276.245	9047.91
276.314	9053.25
276.383	9053.54
276.451	9003.07
276.52	8999.22
276.588	9007.26
276.657	9013.91
276.725	8998.02
276.794	8994.6
276.863	9009.57
276.931	8982.99
277	8987.33
277.068	8993.2
277.137	9008.6
277.205	9004.08
277.274	9021.55
277.342	9033.78
277.411	9011.59
277.48	8995.9
277.548	8989.01
277.617	8987.71
277.685	8983.76
277.754	8980.15
277.822	8974.47
277.89	8988.15
277.959	8983.38
278.027	8968.6
278.096	8953.44
278.164	8980.88
278.233	8969.62
278.301	8954.36
278.37	8961.72
278.438	8951.66
278.507	8954.98
278.575	8932.46
278.643	8925.28
278.712	8911.28
278.78	8892.07
278.849	8903.43
278.917	8912.38
278.985	8912.04
279.054	8911.13
279.122	8926.48
279.191	8925.18
279.259	8920.52
279.327	8894.52
279.396	8913.29
279.464	8905.98
279.532	8913.54
279.601	8907.47
279.669	8903.38
279.737	8917.34
279.806	8917.96
279.874	8929.61
279.942	8931.39
280.011	8925.95
280.079	8933.42
280.147	8947.62
280.215	8954.4
280.284	8949.49
280.352	8939.96
280.42	8939
280.488	8928.94
280.557	8915.99
280.625	8919.6
280.693	8922.73
280.761	8933.08
280.83	8913.05
280.898	8927.01
280.966	8910.69
281.034	8877.38
281.102	8868.91
281.171	8863.37
281.239	8868.57
281.307	8855.57
281.375	8839.79
281.443	8869.25
281.512	8865.06
281.58	8871.61
281.648	8854.95
281.716	8851.58
281.784	8850.14
281.852	8847.63
281.92	8846.53
281.989	8850.38
282.057	8827.66
282.125	8864.2
282.193	8859.82
282.261	8858.33
282.329	8852.41
282.397	8847.45
282.465	8853.47
282.533	8867.71
282.601	8853.03
282.67	8829.78
282.738	8822.18
282.806	8831.37
282.874	8814.86
282.942	8820.73
283.01	8812.93
283.078	8817.5
283.146	8814.38
283.214	8818.47
283.282	8822.99
283.35	8834.35
283.418	8829.78
283.486	8834.4
283.554	8789.53
283.622	8781.59
283.69	8774.23
283.758	8764.74
283.826	8779.86
283.894	8783.37
283.962	8800.22
284.03	8819.04
284.098	8820.87
284.165	8815.77
284.233	8817.45
284.301	8805.37
284.369	8786.74
284.437	8775.58
284.505	8767.06
284.573	8781.06
284.641	8771.63
284.709	8771.44
284.777	8750.31
284.845	8759.55
284.912	8768.02
284.98	8781.25
285.048	8777.55
285.116	8788.47
285.184	8802.14
285.252	8794.92
285.319	8781.93
285.387	8771.24
285.455	8754.15
285.523	8758.29
285.591	8752.57
285.659	8749.15
285.726	8757.33
285.794	8747.23
285.862	8745.25
285.93	8746.89
285.997	8741.45
286.065	8735.05
286.133	8726.29
286.201	8727.88
286.269	8711.7
286.336	8701.55
286.404	8695.34
286.472	8704.1
286.539	8672.63
286.607	8657.37
286.675	8660.11
286.743	8667.86
286.81	8658.33
286.878	8660.69
286.946	8651.16
287.013	8651.06
287.081	8656.45
287.149	8641.87
287.216	8664.44
287.284	8656.79
287.352	8657.61
287.419	8654.38
287.487	8671.71
287.555	8675.32
287.622	8666.61
287.69	8669.3
287.758	8678.02
287.825	8668.01
287.893	8654.43
287.96	8669.35
288.028	8674.74
288.096	8673.49
288.163	8670.17
288.231	8660.16
288.298	8664.49
288.366	8678.69
288.433	8676.28
288.501	8662.23
288.569	8672
288.636	8663.53
288.704	8677.87
288.771	8685.71
288.839	8675.12
288.906	8665.21
288.974	8676.38
289.041	8678.74
289.109	8669.64
289.176	8676.04
289.244	8682.39
289.311	8697.12
289.379	8705.69
289.446	8709.11
289.514	8713.58
289.581	8715.75
289.649	8716.04
289.716	8722.34
289.783	8708
289.851	8728.98
289.918	8727.73
289.986	8732.88
290.053	8736.68
290.121	8732.74
290.188	8732.21
290.255	8760.8
290.323	8751.51
290.39	8741.54
290.458	8744.58
290.525	8757.57
290.592	8747.42
290.66	8746.79
290.727	8739.28
290.794	8752.33
290.862	8746.65
290.929	8738.85
290.996	8740.2
291.064	8754.92
291.131	8758.77
291.198	8772.25
291.266	8768.74
291.333	8773.07
291.4	8779.33
291.468	8794.92
291.535	8794.63
291.602	8797.91
291.669	8790.45
291.737	8792.95
291.804	8788.47
291.871	8807.68
291.938	8816.1
292.006	8842.87
292.073	8851.34
292.14	8864.24
292.207	8855.24
292.275	8862.26
292.342	8878.29
292.409	8898.18
292.476	8918.16
292.543	8911.32
292.611	8914.83
292.678	8925.81
292.745	8951.8
292.812	8959.41
292.879	8949.06
292.946	8952.43
293.014	8968.51
293.081	8974.96
293.148	8993.06
293.215	9010.77
293.282	9003.89
293.349	9006.63
293.416	8991.03
293.484	9007.4
293.551	9012.94
293.618	9027.81
293.685	9047.55
293.752	9039.75
293.819	9033.45
293.886	9014
293.953	9016.35
294.02	9022.03
294.087	9032.67
294.154	9022.61
294.221	9030.94
294.288	9033.4
294.356	9048.18
294.423	9047.94
294.49	9037.1
294.557	9043.89
294.624	9032.68
294.691	9053.52
294.758	9057.28
294.825	9065.32
294.892	9053.38
294.959	9052.94
295.026	9060.65
295.093	9053.42
295.16	9054.34
295.226	9057.76
295.293	9089.49
295.36	9095.6
295.427	9105.37
295.494	9115.58
295.561	9125.11
295.628	9153.19
295.695	9166.82
295.762	9168.02
295.829	9181.89
295.896	9197.34
295.963	9207.4
296.03	9215.25
296.096	9213.85
296.163	9230.03
296.23	9243.18
296.297	9253.77
296.364	9250.16
296.431	9251.89
296.498	9250.06
296.564	9274.47
296.631	9279.38
296.698	9260.75
296.765	9283.67
296.832	9276.45
296.899	9259.21
296.965	9272.02
297.032	9244.28
297.099	9263.97
297.166	9273.26
297.233	9263.68
297.299	9253.04
297.366	9251.41
297.433	9254.29
297.5	9261.18
297.566	9256.22
297.633	9253.38
297.7	9255.21
297.767	9254.05
297.833	9254.05
297.9	9254.73
297.967	9239.42
298.033	9247.75
298.1	9275.82
298.167	9263.11
298.234	9272.21
298.3	9281.55
298.367	9276.44
298.434	9285.5
298.5	9267.44
298.567	9259.98
298.634	9260.41
298.7	9279.28
298.767	9280.97
298.834	9293.92
298.9	9291.9
298.967	9284.14
299.033	9288.53
299.1	9307.5
299.167	9322.52
299.233	9322.18
299.3	9330.8
299.366	9339.42
299.433	9351.75
299.5	9320.35
299.566	9322.81
299.633	9334.8
299.699	9342.36
299.766	9334.46
299.832	9339.86
299.899	9351.89
299.965	9361.72
300.032	9354.16
300.099	9366.87
300.165	9369.86
300.232	9364.46
300.298	9356.52
300.365	9365.57
300.431	9366.44
300.498	9352.76
300.564	9360.13
300.631	9371.88
300.697	9385.8
300.763	9385.27
300.83	9387.29
300.896	9403.61
300.963	9413.82
301.029	9411.65
301.096	9413.58
301.162	9423.02
301.229	9408.91
301.295	9392.1
301.361	9394.46
301.428	9399.18
301.494	9375.15
301.561	9376.11
301.627	9372.89
301.693	9378.71
301.76	9387.82
301.826	9381.22
301.892	9383.19
301.959	9384.45
302.025	9374.33
302.092	9366.58
302.158	9368.51
302.224	9361.04
302.291	9350.11
302.357	9343.08
302.423	9336.68
302.49	9325.79
302.556	9338.31
302.622	9338.55
302.688	9354.44
302.755	9368.27
302.821	9375.92
302.887	9388.54
302.954	9386.03
303.02	9399.03
303.086	9401.68
303.152	9390.65
303.219	9386.37
303.285	9400.14
303.351	9403.61
303.417	9407.61
303.483	9401.92
303.55	9397.49
303.616	9394.12
303.682	9392.15
303.748	9386.13
303.815	9400.77
303.881	9412.71
303.947	9398.7
304.013	9398.36
304.079	9385.6
304.145	9366.15
304.212	9360.7
304.278	9350.69
304.344	9342.99
304.41	9322.57
304.476	9315.01
304.542	9311.16
304.608	9316.07
304.674	9293.87
304.741	9290.26
304.807	9290.69
304.873	9297.58
304.939	9309.33
305.005	9287.8
305.071	9285.97
305.137	9282.12
305.203	9259.87
305.269	9252.56
305.335	9263.92
305.401	9255.21
305.467	9252.27
305.533	9252.41
305.599	9254.63
305.666	9260.74
305.732	9258.38
305.798	9274.18
305.864	9298.11
305.93	9299.99
305.996	9299.36
306.062	9294.59
306.128	9289.3
306.194	9269.75
306.259	9263.68
306.325	9254.44
306.391	9263.97
306.457	9267.1
306.523	9268.21
306.589	9287.66
306.655	9281.88
306.721	9264.79
306.787	9254.05
306.853	9268.45
306.919	9255.07
306.985	9244.86
307.051	9237.15
307.117	9228.49
307.183	9220.5
307.248	9184.57
307.314	9191.56
307.38	9185.92
307.446	9199.74
307.512	9186.12
307.578	9195.5
307.644	9182.75
307.709	9178.17
307.775	9173.02
307.841	9168.25
307.907	9173.16
307.973	9151.59
308.039	9150.53
308.104	9151.21
308.17	9155.78
308.236	9138.3
308.302	9137.48
308.368	9123.62
308.433	9120.63
308.499	9120.2
308.565	9107.59
308.631	9113.56
308.696	9078.27
308.762	9066.33
308.828	9055.25
308.894	9033.64
308.959	9010.68
309.025	9005.38
309.091	9004.71
309.156	8996.19
309.222	9003.51
309.288	8984.59
309.354	8961.62
309.419	8957.15
309.485	8937.84
309.551	8943.23
309.616	8926.43
309.682	8922.68
309.748	8919.41
309.813	8915.31
309.879	8910.98
309.945	8896.78
310.01	8887.06
310.076	8891.49
310.141	8886.72
310.207	8874.15
310.273	8878.53
310.338	8883.25
310.404	8858.51
310.469	8841.95
310.535	8830.35
310.601	8798.49
310.666	8793.91
310.732	8796.85
310.797	8783.23
310.863	8778.8
310.928	8764.69
310.994	8767.39
311.059	8759.69
311.125	8754.83
311.191	8760.8
311.256	8746.02
311.322	8753.38
311.387	8730.43
311.453	9111.1
311.518	9082.9
311.584	9081.31
311.649	9080.01
311.715	9065.47
311.78	9069.9
311.846	9060.18
311.911	9068.41
311.976	9070.82
312.042	9060.52
312.107	9044.92
312.173	9034.38
312.238	9021.24
312.304	9016.38
312.369	9003.29
312.434	8985.73
312.5	8978.03
312.565	8940.34
312.631	8936.25
312.696	8920.42
312.761	8926.82
312.827	8532.14
312.892	8569.49
312.958	8564.68
313.023	8564.87
313.088	8556.69
313.154	8546.39
313.219	8533.59
313.284	8516.22
313.35	8510.06
313.415	8498.12
313.48	8497.69
313.546	8494.56
313.611	8500.87
313.676	8487.25
313.741	8477.38
313.807	8490.86
313.872	8492.01
313.937	8505.49
314.003	8517.71
314.068	8524.06
314.133	8523
314.198	8510.97
314.264	8492.87
314.329	8480.51
314.394	8473.19
314.459	8472.66
314.525	8492.82
314.59	8489.02
314.655	8481.66
314.72	8488.88
314.785	8493.45
314.851	8477.82
314.916	8462.95
314.981	8447.74
315.046	8436.82
315.111	8426.67
315.176	8411.65
315.242	8410.45
315.307	8400.06
315.372	8384.8
315.437	8366.42
315.502	8358.48
315.567	8372.39
315.632	8349.53
315.698	8349.96
315.763	8343.18
315.828	8338.46
315.893	8326.82
315.958	8325.57
316.023	8318.64
316.088	8298
316.153	8276.35
316.218	8278.95
316.283	8257.49
316.348	8248.55
316.413	8249.89
316.479	8239.79
316.544	8207.9
316.609	8182.69
316.674	8148.01
316.739	8111.31
316.804	8085.63
316.869	8054.6
316.934	8025.5
316.999	8000.87
317.064	7948.3
317.129	7910.74
317.194	7870.63
317.259	7825.08
317.324	7771.57
317.389	7725.41
317.454	7690.01
317.518	7654.39
317.583	7629.91
317.648	7617.07
317.713	7581.29
317.778	7519.08
317.843	7489.03
317.908	7452.5
317.973	7417.36
318.038	7394.48
318.103	7358
318.168	7330.12
318.233	7303.25
318.297	7247.5
318.362	7209.53
318.427	7175.61
318.492	7153.21
318.557	7112.86
318.622	7084.55
318.687	7069.56
318.751	7032.48
318.816	7001.15
318.881	6972.37
318.946	6920.96
319.011	6873.49
319.075	6837.8
319.14	6810.76
319.205	6769.16
319.27	6741.6
319.335	6699.09
319.399	6658.66
319.464	6630.18
319.529	6576.74
319.594	6535.2
319.658	6507.5
319.723	6470.77
319.788	6440.34
319.853	6387.09
319.917	6359.54
319.982	6312.25
320.047	6279.37
320.112	6258.92
320.176	6213.9
320.241	6178.96
320.306	6149.59
320.37	6108.95
320.435	6077.32
320.5	6052.32
320.564	6015.76
320.629	5976.24
320.694	5945.87
320.758	5906.3
320.823	5867.92
320.888	5845.81
320.952	5803.04
321.017	5765.44
321.082	5728.85
321.146	5700.08
321.211	5663.16
321.275	5625.62
321.34	5585.12
321.405	5541.63
321.469	5492.68
321.534	5449.26
321.598	5404.93
321.663	5377.94
321.727	5354.6
321.792	5301.98
321.857	5259.71
321.921	5222.24
321.986	5184.92
322.05	5129.7
322.115	5095.68
322.179	5054.49
322.244	4997.89
322.308	4966.29
322.373	4918.88
322.437	4876.56
322.502	4850.45
322.566	4809.61
322.631	4776.77
322.695	4739.53
322.76	4699.09
322.824	4666.88
322.889	4624.53
322.953	4580.47
323.018	4511.75
323.082	4448.17
323.146	4403.6
323.211	4353.56
323.275	4312.42
323.34	4265.8
323.404	4234.34
323.468	4189.87
323.533	4146.6
323.597	4108.47
323.662	4058.94
323.726	4030.45
323.79	3988.91
323.855	3927.71
323.919	3882.41
323.983	3836.53
324.048	3774.7
324.112	3929.29
324.177	3808.84
324.241	3615.23
324.305	3425
324.37	3239.12
324.434	3056.64
324.498	3017.14
324.562	2971.26
324.627	2915.87
324.691	2865.96
324.755	2805.03
324.82	2737.06
324.884	2667.68
324.948	2601.14
325.012	2516.06
325.077	2399.1
