Data from 20250625_urea_1M_1_MAYP1162681_21-25-06-156.txt Node
Date: Wed Jun 25 21:25:06 BST 2025
User: adleo
Spectrometer: MAYP116268
Trigger mode: 0
Integration Time (sec): 1.000000E0
Scans to average: 1
Electric dark correction enabled: true
Nonlinearity correction enabled: true
Boxcar width: 10
XAxis mode: Wavelengths
Number of Pixels in Spectrum: 2068
>>>>>Begin Spectral Data<<<<<
179.565	1168.96
179.642	1222.36
179.718	1262.49
179.795	1304.86
179.871	1333.27
179.948	1353.08
180.024	1371.37
180.101	1394.01
180.177	1408.96
180.254	1429.06
180.33	1451.61
180.407	1501.12
180.483	1593.48
180.56	1679.9
180.636	1761.36
180.712	1747.96
180.789	1756.47
180.865	1769.82
180.942	1779.75
181.018	1791.3
181.095	1808.03
181.171	1813.59
181.248	1814.78
181.324	1833.13
181.4	1835.37
181.477	1845.4
181.553	1856.94
181.63	1878.38
181.706	1894.83
181.782	1904
181.859	1904
181.935	1907.33
182.011	1905.81
182.088	1921.88
182.164	1941.38
182.24	1955.07
182.317	1963.72
182.393	1962.29
182.469	1974.13
182.546	1986.69
182.622	1988.21
182.698	1981.64
182.775	1995.01
182.851	2008.23
182.927	1999.62
183.003	1996.39
183.08	1995.05
183.156	2004.28
183.232	2001.43
183.308	1990.16
183.385	1996.81
183.461	2015.64
183.537	2017.26
183.613	2031.67
183.69	2022.92
183.766	2012.41
183.842	2017.97
183.918	2024.49
183.995	2036.09
184.071	2039.47
184.147	2034.42
184.223	2025.06
184.299	2038
184.375	2024.25
184.452	2031.39
184.528	2085.15
184.604	2097.13
184.68	2108.59
184.756	2115.83
184.832	2120.87
184.908	2126.05
184.985	2127.52
185.061	2111.35
185.137	2119.11
185.213	2106.03
185.289	2108.45
185.365	2101.65
185.441	2103.41
185.517	2118.5
185.593	2115.26
185.669	2113.31
185.745	2122.68
185.822	2138.94
185.898	2129.48
185.974	2139.08
186.05	2129.04
186.126	2090.08
186.202	2081.23
186.278	2077.57
186.354	2066.77
186.43	2070.72
186.506	2067.01
186.582	2063.78
186.658	2072.72
186.734	2057.83
186.81	2061.16
186.886	2063.54
186.962	2075.33
187.038	2069.77
187.114	2059.35
187.19	2065.58
187.266	2057.97
187.341	2058.68
187.417	2049.22
187.493	2049.65
187.569	2052.55
187.645	2049.79
187.721	2039.8
187.797	2049.55
187.873	2053.07
187.949	2045.89
188.025	2041.46
188.101	2046.5
188.176	2050.12
188.252	2043.22
188.328	2047.98
188.404	2045.98
188.48	2039.37
188.556	2030.53
188.632	2032.67
188.707	2033.09
188.783	2031.43
188.859	2027.77
188.935	2015.12
189.011	2025.53
189.086	2021.63
189.162	2015.88
189.238	2015.78
189.314	2010.79
189.39	2004.18
189.465	1996.81
189.541	2015.4
189.617	2002.94
189.693	1997.24
189.768	2001.57
189.844	2024.83
189.92	2015.32
189.996	2022.6
190.071	2036.15
190.147	2038.91
190.223	2046.19
190.298	2038.48
190.374	2024.88
190.45	2034.49
190.526	2044.81
190.601	2039.43
190.677	2040.05
190.753	2065.37
190.828	2066.27
190.904	2080.78
190.98	2094.91
191.055	2107.08
191.131	2098.62
191.207	2115.64
191.282	2124.63
191.358	2115.64
191.433	2103.74
191.509	2118.58
191.585	2117.72
191.66	2120.15
191.736	2128.57
191.811	2121.86
191.887	2136.8
191.963	2162.58
192.038	2167.62
192.114	2165.24
192.189	2170.76
192.265	2172
192.34	2150.77
192.416	2149.96
192.491	2146.06
192.567	2153.2
192.642	2153.1
192.718	2151.2
192.793	2140.07
192.869	2135.98
192.944	2137.84
193.02	2144.73
193.095	2148.02
193.171	2156.87
193.246	2153.96
193.322	2150.78
193.397	2150.68
193.473	2139.98
193.548	2120.61
193.624	2127.18
193.699	2127.22
193.775	2141.6
193.85	2137.46
193.925	2146.88
194.001	2147.07
194.076	2139.98
194.152	2125.33
194.227	2118
194.302	2111.87
194.378	2116.19
194.453	2111.3
194.529	2122.86
194.604	2108.16
194.679	2101.5
194.755	2081.14
194.83	2093.42
194.905	2089.43
194.981	2096.51
195.056	2088.14
195.131	2093.76
195.207	2089.43
195.282	2080.49
195.357	2061.55
195.433	2077.1
195.508	2064.49
195.583	2073.86
195.659	2090.9
195.734	2098.89
195.809	2100.51
195.884	2109.3
195.96	2108.21
196.035	2125.57
196.11	2125.05
196.185	2138.22
196.261	2141.32
196.336	2170.76
196.411	2153.58
196.486	2159.05
196.561	2152.11
196.637	2159.91
196.712	2177.66
196.787	2181.37
196.862	2196.21
196.937	2206.11
197.013	2212.72
197.088	2220.95
197.163	2241.23
197.238	2255.37
197.313	2254.56
197.388	2267.03
197.464	2295.64
197.539	2309.73
197.614	2300.88
197.689	2311.3
197.764	2325.25
197.839	2346.28
197.914	2338.95
197.989	2365.37
198.065	2379.55
198.14	2428.56
198.215	2455.55
198.29	2465.27
198.365	2479.5
198.44	2489.88
198.515	2516.02
198.59	2530.35
198.665	2556.59
198.74	2563.36
198.815	2565.12
198.89	2588.69
198.965	2616.32
199.04	2614.37
199.115	2626.46
199.19	2671.42
199.265	2674.99
199.34	2683.33
199.415	2713.78
199.49	2736.73
199.565	2745.21
199.64	2766.79
199.715	2766.03
199.79	2774.27
199.865	2779.71
199.94	2775.18
200.015	2808.06
200.09	2815.36
200.165	2822.65
200.24	2830.99
200.315	2871.82
200.39	2887.64
200.464	2892.36
200.539	2895.46
200.614	2910.28
200.689	2935.69
200.764	2940.27
200.839	2956.04
200.914	2961.52
200.989	2951.98
201.063	2965.52
201.138	2949.32
201.213	2953.99
201.288	2931.93
201.363	2935.5
201.438	2935.5
201.512	2954.22
201.587	2935.53
201.662	2938.49
201.737	2948.69
201.812	2956.46
201.886	2920.49
201.961	2929.7
202.036	2918.12
202.111	2914.26
202.186	2883.15
202.26	2865.23
202.335	2844.35
202.41	2839.44
202.485	2824.72
202.559	2807.56
202.634	2783.07
202.709	2789.74
202.784	2767.1
202.858	2770.2
202.933	2751.43
203.008	2745.9
203.082	2726.89
203.157	2730.37
203.232	2687.27
203.306	2669.5
203.381	2638.14
203.456	2616.8
203.53	2593.3
203.605	2574.78
203.68	2552.24
203.754	2548.24
203.829	2535.14
203.904	2516.38
203.978	2507.47
204.053	2512
204.127	2498.1
204.202	2493.15
204.277	2476.1
204.351	2470.58
204.426	2461.77
204.5	2451.68
204.575	2415.88
204.65	2425.31
204.724	2414.97
204.799	2424.06
204.873	2417.97
204.948	2413.82
205.022	2399.69
205.097	2392.02
205.171	2405.11
205.246	2413.4
205.32	2412.54
205.395	2410.83
205.469	2403.12
205.544	2408.5
205.618	2388.74
205.693	2403.93
205.767	2394.46
205.842	2415.5
205.916	2409.65
205.991	2400.65
206.065	2409.36
206.14	2425.11
206.214	2419.87
206.289	2411.92
206.363	2421.87
206.438	2422.01
206.512	2432.1
206.586	2454.43
206.661	2462.24
206.735	2439.87
206.81	2440.59
206.884	2458.53
206.958	2445.97
207.033	2461.96
207.107	2462.96
207.181	2494.91
207.256	2486.25
207.33	2507.01
207.405	2521.5
207.479	2539.83
207.553	2545.3
207.628	2533.12
207.702	2547.68
207.776	2543.4
207.851	2546.78
207.925	2563.83
207.999	2564.12
208.073	2561.83
208.148	2565.22
208.222	2553.93
208.296	2586.44
208.371	2602.79
208.445	2614.7
208.519	2642.36
208.593	2656.03
208.668	2658.75
208.742	2664.42
208.816	2667.04
208.89	2678.19
208.965	2677.95
209.039	2690.29
209.113	2709.54
209.187	2731.68
209.261	2728.92
209.336	2754.93
209.41	2781.62
209.484	2786.39
209.558	2813.55
209.632	2830.46
209.707	2847.72
209.781	2877.6
209.855	2901.2
209.929	2926.63
210.003	2941.74
210.077	2952.47
210.151	3009.11
210.226	3054.52
210.3	3092.37
210.374	3135.13
210.448	3160.08
210.522	3187.37
210.596	3215.76
210.67	3249.96
210.744	3321.41
210.818	3380.31
210.892	3428.96
210.966	3455.02
211.041	3507.72
211.115	3543.67
211.189	3608.07
211.263	3669.34
211.337	3717.09
211.411	3780.88
211.485	3828.01
211.559	3893.36
211.633	3955.49
211.707	3984.95
211.781	4058.05
211.855	4096.35
211.929	4160.78
212.003	4215.41
212.077	4306.6
212.151	4401.04
212.225	4494.24
212.299	4573.22
212.373	4654.86
212.447	4745.85
212.52	4872.74
212.594	4982.31
212.668	5104.12
212.742	5205.41
212.816	5313.97
212.89	5430.37
212.964	5553.19
213.038	5681.3
213.112	5820.51
213.186	5973.18
213.26	6100.76
213.333	6199.77
213.407	6353.47
213.481	6508.98
213.555	6677.88
213.629	6825.79
213.703	6971.89
213.777	7139.12
213.85	7281.62
213.924	7487.6
213.998	7660.26
214.072	7829.85
214.146	7986.78
214.219	8163.62
214.293	8344.05
214.367	8531.85
214.441	8728.03
214.515	8904.01
214.588	9073.63
214.662	9233.12
214.736	9408.09
214.81	9606.25
214.883	9809.48
214.957	9987.17
215.031	10168.94
215.105	10346.09
215.178	10532.53
215.252	10724.13
215.326	10893.25
215.4	11076.34
215.473	11225.35
215.547	11401.3
215.621	11593.36
215.694	11794.14
215.768	11966.2
215.842	12147.09
215.915	12319.5
215.989	12482.47
216.063	12664.63
216.136	12849.96
216.21	13036.94
216.284	13230.62
216.357	13415.24
216.431	13599
216.504	13796.01
216.578	14006.56
216.652	14195.28
216.725	14381.78
216.799	14568.57
216.873	14745.43
216.946	14926.87
217.02	15092.26
217.093	15259.71
217.167	15403.16
217.24	15558.99
217.314	15727.41
217.387	15882.85
217.461	16041.48
217.535	16221.07
217.608	16368.65
217.682	16521.77
217.755	16692.92
217.829	16834.28
217.902	16982.33
217.976	17122.58
218.049	17258.92
218.123	17382.2
218.196	17527.79
218.27	17654.39
218.343	17776.27
218.417	17918.15
218.49	18049.86
218.563	18193.37
218.637	18332.21
218.71	18474.23
218.784	18615.04
218.857	18740.39
218.931	18869.3
219.004	18992.18
219.077	19111.21
219.151	19237.96
219.224	19357.23
219.298	19460.07
219.371	19583.19
219.444	19677.12
219.518	19789.16
219.591	19897.88
219.665	20033.93
219.738	20136.82
219.811	20224.96
219.885	20335.56
219.958	20437.49
220.031	20529.49
220.105	20630.26
220.178	20722.46
220.251	20806.99
220.325	20883.87
220.398	20969.46
220.471	21057.08
220.544	21145.86
220.618	21214.63
220.691	21283.03
220.764	21360.62
220.838	21438.22
220.911	21500.69
220.984	21595.31
221.057	21664.28
221.131	21728.63
221.204	21747.57
221.277	21819.34
221.35	21899.94
221.424	21953.69
221.497	22001.55
221.57	22059.25
221.643	22112.86
221.716	22162.85
221.79	22205.84
221.863	22252.46
221.936	22296.23
222.009	22330.41
222.082	22375.97
222.155	22419.11
222.229	22472.19
222.302	22503.77
222.375	22535.83
222.448	22579.12
222.521	22596.48
222.594	22625.35
222.667	22643.67
222.74	22687.54
222.814	22714.45
222.887	22737.01
222.96	22767.58
223.033	22808.85
223.106	22831.27
223.179	22851.38
223.252	22872.59
223.325	22880.4
223.398	22893.37
223.471	22909.71
223.544	22932.09
223.617	22944.28
223.69	22963.67
223.763	22967.81
223.837	22993.22
223.91	23021.38
223.983	23014.54
224.056	23027.75
224.129	23033.48
224.202	23052.29
224.275	23053.78
224.348	23043.22
224.42	23033.97
224.493	23013.47
224.566	23006.05
224.639	23004.84
224.712	22994.43
224.785	22991.15
224.858	23006.43
224.931	23012.36
225.004	23002
225.077	23004.6
225.15	22986.76
225.223	22979.34
225.296	22994.09
225.369	22973.89
225.442	22959.52
225.514	22946.74
225.587	22936.95
225.66	22945.49
225.733	22944.72
225.806	22931.55
225.879	22923.41
225.952	22903.35
226.025	22906.39
226.097	22907.4
226.17	22902.14
226.243	22881.94
226.316	22871.43
226.389	22859.96
226.461	22856.44
226.534	22847.95
226.607	22829.68
226.68	22834.5
226.753	22821.1
226.825	22784.69
226.898	22773.89
226.971	22747.81
227.044	22744.87
227.117	22731.18
227.189	22719.27
227.262	22712.81
227.335	22707.65
227.407	22689.52
227.48	22695.31
227.553	22687.3
227.626	22661.65
227.698	22640.97
227.771	22634.22
227.844	22612.29
227.916	22588.52
227.989	22545.71
228.062	22526.81
228.134	22527.73
228.207	22507.14
228.28	22483.71
228.352	22468.52
228.425	22455.6
228.498	22440.47
228.57	22408.22
228.643	22411.35
228.716	22388.01
228.788	22357.5
228.861	22323.46
228.934	22321.73
229.006	22298.93
229.079	22277.28
229.151	22251.87
229.224	22222.9
229.296	22206.08
229.369	22226.38
229.442	22234.48
229.514	22213.27
229.587	22201.55
229.659	22163.9
229.732	22144.72
229.804	22132.91
229.877	22134.01
229.949	22125.77
230.022	22128.33
230.094	22111.41
230.167	22081.57
230.239	22045.41
230.312	22021.36
230.384	22030.95
230.457	22006.13
230.529	21978.36
230.602	21955.66
230.674	21942.31
230.747	21930.98
230.819	21918.78
230.892	21839.15
230.964	21800.15
231.037	21781.31
231.109	21755.47
231.181	21736.96
231.254	21703.17
231.326	21675.55
231.399	21645.76
231.471	21616.6
231.544	21565.55
231.616	21547.58
231.688	21526.08
231.761	21499.38
231.833	21464.53
231.905	21417.63
231.978	21397.05
232.05	21374.25
232.122	21346.97
232.195	21306.72
232.267	21293.52
232.339	21260.26
232.412	21247.01
232.484	21213.61
232.556	21166.42
232.629	21164.45
232.701	21149.84
232.773	21125.84
232.846	21095.43
232.918	21056.39
232.99	21023.66
233.062	21001.49
233.135	20987.71
233.207	20946.26
233.279	20931.13
233.351	20903.95
233.424	20861
233.496	20810.69
233.568	20795.7
233.64	20754.01
233.713	20733.05
233.785	20708.76
233.857	20684.76
233.929	20647.07
234.001	20636.27
234.074	20644.61
234.146	20594.73
234.218	20551.6
234.29	20505.04
234.362	20470.44
234.434	20430.68
234.507	20387.98
234.579	20350.92
234.651	20310.29
234.723	20284.56
234.795	20254.82
234.867	20236.22
234.939	20223.02
235.012	20202.3
235.084	20180.9
235.156	20156.9
235.228	20116.61
235.3	20067.99
235.372	20037.67
235.444	20021.53
235.516	19970.49
235.588	19936.81
235.66	19908.18
235.732	19869.68
235.804	19900.38
235.876	19882.02
235.948	19863.17
236.02	19832.91
236.092	19803.13
236.164	19772.14
236.236	19734.12
236.308	19689.74
236.38	19654.75
236.452	19617.02
236.524	19585.93
236.596	19565.74
236.668	19540.2
236.74	19520.54
236.812	19491.72
236.884	19463.68
236.956	19430.42
237.028	19386.14
237.1	19336.79
237.172	19312.36
237.244	19307.4
237.316	19238.24
237.388	19186.15
237.46	19150.92
237.532	19124.95
237.604	19079.6
237.675	19059.8
237.747	19036.91
237.819	19009.39
237.891	18979.41
237.963	18943.08
238.035	18904.43
238.107	18836.72
238.178	18815.86
238.25	18769.02
238.322	18759.91
238.394	18704.88
238.466	18668.88
238.538	18656.69
238.609	18641.65
238.681	18596.26
238.753	18547.97
238.825	18522.62
238.897	18497.42
238.968	18477.57
239.04	18447.59
239.112	18444.8
239.184	18392.85
239.255	18360.13
239.327	18327.79
239.399	18305.14
239.471	18285.24
239.542	18253.91
239.614	18230.11
239.686	18175.12
239.758	18163.75
239.829	18117.78
239.901	18110.55
239.973	18081.34
240.044	18048.72
240.116	18012.86
240.188	17976.48
240.259	17938.79
240.331	17897.06
240.403	17872.19
240.474	17823.33
240.546	17785.59
240.618	17734.56
240.689	17706.61
240.761	17678.08
240.833	17661.5
240.904	17620.39
240.976	17587.86
241.048	17568.63
241.119	17549.36
241.191	17526.37
241.262	17503.53
241.334	17471.43
241.405	17430.23
241.477	17395
241.549	17366.56
241.62	17335.96
241.692	17313.5
241.763	17293.41
241.835	17262.51
241.906	17232.87
241.978	17193.98
242.049	17171.04
242.121	17155.91
242.192	17136.25
242.264	17092.44
242.335	17043.42
242.407	17026.55
242.478	16983.76
242.55	16950.84
242.621	16904.82
242.693	16875.61
242.764	16831.85
242.836	16794.26
242.907	16769.53
242.979	16738.11
243.05	16700.95
243.122	16674.2
243.193	16642.06
243.264	16594.44
243.336	16564.17
243.407	16547.01
243.479	16538.05
243.55	16515.64
243.622	16480.94
243.693	16454.09
243.764	16438.19
243.836	16400.54
243.907	16360.97
243.978	16337.74
244.05	16308.58
244.121	16267.76
244.192	16242.5
244.264	16198.84
244.335	16182.3
244.407	16139.74
244.478	16122.01
244.549	16093.72
244.62	16060.27
244.692	16034.86
244.763	16024.41
244.834	15990.09
244.906	15951.48
244.977	15922.37
245.048	15905.5
245.119	15877.64
245.191	15842.31
245.262	15790.78
245.333	15776.71
245.405	15755.26
245.476	15728.65
245.547	15706.48
245.618	15690.43
245.689	15659.54
245.761	15646.62
245.832	15607.77
245.903	15588.82
245.974	15561.21
246.045	15533.01
246.117	15517.97
246.188	15478.83
246.259	15433.33
246.33	15398.24
246.401	15361.55
246.473	15329.45
246.544	15293.78
246.615	15273.2
246.686	15237.72
246.757	15230.93
246.828	15190.63
246.899	15167.35
246.97	15131
247.042	15097.6
247.113	15073.5
247.184	15076.29
247.255	15038.36
247.326	15009.48
247.397	14986.49
247.468	14955.59
247.539	14931.2
247.61	14886.71
247.681	14868.49
247.752	14863.04
247.823	14835.52
247.894	14820.38
247.965	14779.26
248.037	14747.35
248.108	14704.35
248.179	14678.52
248.25	14641.11
248.321	14628.82
248.392	14594.06
248.463	14586.83
248.534	14557.67
248.605	14545.04
248.675	14507.82
248.746	14491.72
248.817	14478.37
248.888	14448.44
248.959	14413.49
249.03	14392.66
249.101	14369.57
249.172	14337.85
249.243	14277.5
249.314	14267.23
249.385	14243.22
249.456	14228.28
249.527	14203.02
249.598	14184.17
249.669	14160.36
249.739	14143.97
249.81	14129.99
249.881	14096.1
249.952	14068.57
250.023	14051.46
250.094	14008.8
250.165	13971.68
250.235	13946.61
250.306	13924.44
250.377	13893.01
250.448	13876.71
250.519	13828.12
250.59	13823.59
250.66	13802.43
250.731	13804.5
250.802	13782.04
250.873	13761.45
250.944	13741.06
251.014	13715.85
251.085	13715.42
251.156	13695.27
251.227	13686.01
251.297	13675.69
251.368	13662.97
251.439	13659.5
251.51	13648.07
251.58	13619
251.651	13597.65
251.722	13586.8
251.792	13545.73
251.863	13522.69
251.934	13513.33
252.005	13531.41
252.075	13506.49
252.146	13494.73
252.217	13488.46
252.287	13472.31
252.358	13448.88
252.429	13450.67
252.499	13417.16
252.57	13399.42
252.641	13381.87
252.711	13359.55
252.782	13317.04
252.852	13317.23
252.923	13288.5
252.994	13267.87
253.064	13269.07
253.135	13246.08
253.205	13220.48
253.276	13221.64
253.347	13219.27
253.417	13194.88
253.488	13165.91
253.558	13138.29
253.629	13116.69
253.699	13096.73
253.77	13090.32
253.841	13062.6
253.911	13037.58
253.982	13020.13
254.052	13013.63
254.123	13008.37
254.193	12995.07
254.264	13006.35
254.334	12973.33
254.405	12939.15
254.475	12902.17
254.546	12872.62
254.616	12860.19
254.687	12853.05
254.757	12839.41
254.827	12818.44
254.898	12803.4
254.968	12778.91
255.039	12756.4
255.109	12747.05
255.18	12722.17
255.25	12680.57
255.321	12671.17
255.391	12639.07
255.461	12640.76
255.532	12589.51
255.602	12568.88
255.673	12528
255.743	12507.52
255.813	12465.92
255.884	12458.3
255.954	12450.35
256.024	12449.72
256.095	12431.64
256.165	12395.15
256.235	12377.12
256.306	12351.34
256.376	12341.41
256.446	12335.33
256.517	12319.52
256.587	12309.93
256.657	12292.09
256.728	12276.19
256.798	12258.5
256.868	12237.43
256.938	12214.87
257.009	12213.86
257.079	12199.5
257.149	12207.02
257.219	12167.1
257.29	12160.55
257.36	12123.19
257.43	12116.59
257.5	12079.47
257.571	12055.76
257.641	12043.32
257.711	12015.51
257.781	12013.2
257.852	12002.4
257.922	11967.6
257.992	11955.06
258.062	11936.41
258.132	11928.65
258.202	11913.13
258.273	11899.34
258.343	11902.38
258.413	11881.37
258.483	11857.02
258.553	11829.98
258.623	11802.08
258.693	11792.19
258.764	11794.32
258.834	11796.58
258.904	11775.42
258.974	11749.54
259.044	11732.33
259.114	11723.46
259.184	11711.8
259.254	11689.39
259.324	11644.13
259.394	11630.2
259.464	11625.96
259.535	11599.45
259.605	11574.34
259.675	11548.75
259.745	11542.53
259.815	11513.66
259.885	11482.86
259.955	11494.19
260.025	11470.33
260.095	11455.83
260.165	11441.08
260.235	11427.2
260.305	11403.92
260.375	11382.62
260.445	11395.48
260.515	11395.92
260.585	11386.57
260.655	11370.23
260.725	11361.46
260.795	11363.63
260.865	11368.3
260.934	11348.3
261.004	11337.17
261.074	11321.17
261.144	11316.83
261.214	11305.26
261.284	11287
261.354	11290.61
261.424	11270.99
261.494	11275.33
261.564	11256.78
261.634	11250.17
261.703	11215.86
261.773	11207.57
261.843	11197.98
261.913	11173.36
261.983	11137.89
262.053	11128.78
262.123	11106.66
262.192	11078.32
262.262	11066.52
262.332	11037.5
262.402	11025.12
262.472	11016.59
262.541	10973.13
262.611	10971.05
262.681	10942.67
262.751	10936.21
262.821	10917.85
262.89	10877.85
262.96	10864.51
263.03	10869.71
263.1	10855.59
263.169	10848.41
263.239	10840.41
263.309	10835.54
263.379	10827.01
263.448	10817.86
263.518	10805.96
263.588	10794.63
263.657	10799.26
263.727	10792.27
263.797	10778.73
263.867	10758.01
263.936	10725.44
264.006	10733.77
264.076	10717.49
264.145	10703.56
264.215	10682.5
264.285	10679.18
264.354	10651.72
264.424	10626.37
264.494	10595.15
264.563	10577.46
264.633	10579.2
264.702	10566.04
264.772	10536.6
264.842	10518
264.911	10515.07
264.981	10485.77
265.05	10473.15
265.12	10455.17
265.19	10439.8
265.259	10433.88
265.329	10429.01
265.398	10416.68
265.468	10433.11
265.537	10413.88
265.607	10400.15
265.676	10400.88
265.746	10385.75
265.815	10391.48
265.885	10379.97
265.955	10359.01
266.024	10337.67
266.094	10308.42
266.163	10308.9
266.232	10317.43
266.302	10300.14
266.371	10285.54
266.441	10270.07
266.51	10267.04
266.58	10248.4
266.649	10235.1
266.719	10228.16
266.788	10219.54
266.858	10222.57
266.927	10179.69
266.996	10172.28
267.066	10170.83
267.135	10137.06
267.205	10132.2
267.274	10117.41
267.343	10118.23
267.413	10106.14
267.482	10105.89
267.552	10103
267.621	10073.67
267.69	10041
267.76	10036.04
267.829	10025.11
267.898	10016.92
267.968	9993.32
268.037	9985.13
268.106	9977.8
268.176	9951.7
268.245	9939.99
268.314	9923.61
268.384	9925.63
268.453	9911.04
268.522	9896.93
268.592	9898.9
268.661	9876.98
268.73	9865.23
268.799	9839.51
268.869	9849.82
268.938	9824.05
269.007	9803
269.076	9794.81
269.146	9791.87
269.215	9786.77
269.284	9789.95
269.353	9772.18
269.422	9755.08
269.492	9735.62
269.561	9696.8
269.63	9691.7
269.699	9670.31
269.768	9658.32
269.838	9650.66
269.907	9645.75
269.976	9620.42
270.045	9593.74
270.114	9587.62
270.183	9579.48
270.253	9575.39
270.322	9541.97
270.391	9531.23
270.46	9540.57
270.529	9535.13
270.598	9532.05
270.667	9513.41
270.736	9491.64
270.806	9485.33
270.875	9486.97
270.944	9481.67
271.013	9501.61
271.082	9492.22
271.151	9492.75
271.22	9473.82
271.289	9456.53
271.358	9442.66
271.427	9438.72
271.496	9428.08
271.565	9419.7
271.634	9399.81
271.703	9418.79
271.772	9416.62
271.841	9407.62
271.91	9383.1
271.979	9376.75
272.048	9351.37
272.117	9351.22
272.186	9333.55
272.255	9333.31
272.324	9332.11
272.393	9323.15
272.462	9307.31
272.531	9302.2
272.6	9283.86
272.669	9286.8
272.738	9276.35
272.807	9279.81
272.876	9266.67
272.945	9294.65
273.013	9293.73
273.082	9307.36
273.151	9269.75
273.22	9267.2
273.289	9262.09
273.358	9267
273.427	9251.21
273.496	9255.54
273.564	9256.27
273.633	9259.68
273.702	9242.69
273.771	9231.08
273.84	9231.66
273.909	9232.19
273.977	9226.75
274.046	9219.91
274.115	9220.92
274.184	9204.41
274.253	9191.17
274.322	9200.75
274.39	9172.54
274.459	9157.03
274.528	9131.66
274.597	9123.62
274.665	9119.29
274.734	9125.02
274.803	9114.47
274.872	9108.55
274.94	9088.76
275.009	9093.05
275.078	9078.99
275.147	9073.84
275.215	9070.47
275.284	9074.23
275.353	9059.78
275.421	9031.77
275.49	9040.82
275.559	9031.72
275.627	9032.05
275.696	9025.22
275.765	9012.22
275.833	9002.16
275.902	9001.87
275.971	9012.12
276.039	9028.35
276.108	9030.9
276.177	9024.02
276.245	9010.05
276.314	9001.58
276.383	9003.65
276.451	8984.2
276.52	8985.26
276.588	8997.68
276.657	9001.87
276.725	8982.47
276.794	8985.55
276.863	9010
276.931	8988.05
277	8994.26
277.068	8997.73
277.137	9009.81
277.205	9012.31
277.274	9025.79
277.342	9030.8
277.411	9006.49
277.48	8988.05
277.548	8977.51
277.617	8973.03
277.685	8972.74
277.754	8980.59
277.822	8974.67
277.89	8982.08
277.959	8973.08
278.027	8950.31
278.096	8936.01
278.164	8965.86
278.233	8951.47
278.301	8934.19
278.37	8942.03
278.438	8926.92
278.507	8930.72
278.575	8903.81
278.643	8899.14
278.712	8876.71
278.78	8863.28
278.849	8875.22
278.917	8878.73
278.985	8872.04
279.054	8877.77
279.122	8885.76
279.191	8882.34
279.259	8879.02
279.327	8866.45
279.396	8884.31
279.464	8880.13
279.532	8890.43
279.601	8882.58
279.669	8878.58
279.737	8887.1
279.806	8890.23
279.874	8894.28
279.942	8889.85
280.011	8889.42
280.079	8894.61
280.147	8911.7
280.215	8913.43
280.284	8906.07
280.352	8895.1
280.42	8905.59
280.488	8893.17
280.557	8882.48
280.625	8883.11
280.693	8886.86
280.761	8885.18
280.83	8866.98
280.898	8885.9
280.966	8863.85
281.034	8830.69
281.102	8813.89
281.171	8808.21
281.239	8812.06
281.307	8806.96
281.375	8797.09
281.443	8820.82
281.512	8815.62
281.58	8826.17
281.648	8813.03
281.716	8810.72
281.784	8815.19
281.852	8806.29
281.92	8809.9
281.989	8818.9
282.057	8805.33
282.125	8845.38
282.193	8846.59
282.261	8840.43
282.329	8827.62
282.397	8834.02
282.465	8841.92
282.533	8863.24
282.601	8846.34
282.67	8824.92
282.738	8814
282.806	8823.87
282.874	8806.97
282.942	8811.44
283.01	8802.15
283.078	8804.61
283.146	8802.06
283.214	8808.56
283.282	8813.95
283.35	8818.52
283.418	8811.49
283.486	8812.31
283.554	8765.13
283.622	8755.36
283.69	8757.47
283.758	8755.07
283.826	8761.37
283.894	8762.58
283.962	8780.1
284.03	8798.53
284.098	8795.26
284.165	8796.85
284.233	8793.87
284.301	8786.31
284.369	8780.34
284.437	8769.8
284.505	8768.88
284.573	8787.9
284.641	8770.18
284.709	8772.78
284.777	8756.56
284.845	8764.07
284.912	8774.27
284.98	8783.42
285.048	8778.46
285.116	8786.45
285.184	8797.28
285.252	8789.34
285.319	8774.23
285.387	8761.61
285.455	8743.37
285.523	8753.87
285.591	8744.82
285.659	8743.66
285.726	8757.33
285.794	8734.95
285.862	8730.72
285.93	8725.86
285.997	8709.2
286.065	8708.15
286.133	8698.18
286.201	8693.9
286.269	8676.47
286.336	8657.27
286.404	8643.46
286.472	8652.65
286.539	8627.53
286.607	8606.26
286.675	8605.87
286.743	8608.62
286.81	8602.02
286.878	8619.39
286.946	8610.83
287.013	8608.71
287.081	8604.52
287.149	8586.09
287.216	8614.2
287.284	8606.3
287.352	8609.09
287.419	8614.34
287.487	8628.73
287.555	8626.66
287.622	8623.34
287.69	8629.02
287.758	8643.8
287.825	8640.52
287.893	8624.93
287.96	8637.06
288.028	8648.61
288.096	8649.28
288.163	8655.97
288.231	8640.57
288.298	8636.91
288.366	8651.3
288.433	8656.55
288.501	8647.26
288.569	8653.47
288.636	8636.96
288.704	8659.96
288.771	8665.31
288.839	8654.67
288.906	8644.61
288.974	8656.31
289.041	8655.2
289.109	8648.46
289.176	8652.65
289.244	8663.62
289.311	8675.8
289.379	8677.29
289.446	8679.84
289.514	8680.95
289.581	8682.1
289.649	8686.05
289.716	8687.45
289.783	8674.07
289.851	8688.6
289.918	8695.77
289.986	8705.06
290.053	8714.64
290.121	8704.1
290.188	8704.24
290.255	8730.57
290.323	8721.91
290.39	8713.1
290.458	8719.45
290.525	8729.89
290.592	8721.81
290.66	8715.21
290.727	8707.85
290.794	8722.1
290.862	8719.69
290.929	8721.04
290.996	8725.37
291.064	8733.79
291.131	8740.68
291.198	8754.01
291.266	8747.37
291.333	8741.26
291.4	8742.7
291.468	8758.87
291.535	8755.55
291.602	8761.62
291.669	8747.66
291.737	8757.43
291.804	8758.01
291.871	8771.91
291.938	8775.77
292.006	8801.71
292.073	8813.5
292.14	8822.55
292.207	8813.7
292.275	8819.91
292.342	8828.38
292.409	8852.64
292.476	8877.72
292.543	8868
292.611	8874.84
292.678	8887.78
292.745	8911.32
292.812	8916.81
292.879	8912.43
292.946	8911.42
293.014	8917.43
293.081	8927.45
293.148	8942.13
293.215	8958.25
293.282	8949.2
293.349	8958.21
293.416	8942.9
293.484	8959.22
293.551	8970.48
293.618	8989.69
293.685	9010.92
293.752	9004.61
293.819	8999.36
293.886	8985.26
293.953	8996.71
294.02	9000.81
294.087	9012.94
294.154	9007.59
294.221	9020.93
294.288	9018.28
294.356	9043.32
294.423	9050.54
294.49	9041.63
294.557	9044.09
294.624	9035.85
294.691	9058.09
294.758	9059.73
294.825	9064.26
294.892	9055.45
294.959	9051.74
295.026	9046.93
295.093	9036.91
295.16	9033.88
295.226	9025.55
295.293	9051.98
295.36	9053.23
295.427	9063.11
295.494	9069.65
295.561	9079.19
295.628	9096.38
295.695	9113.33
295.762	9112.12
295.829	9124.59
295.896	9146.79
295.963	9161.52
296.03	9169.46
296.096	9175.91
296.163	9183.43
296.23	9199.27
296.297	9212.6
296.364	9214.91
296.431	9226.42
296.498	9227
296.564	9249.62
296.631	9258.19
296.698	9241.34
296.765	9260.21
296.832	9249.48
296.899	9239.32
296.965	9254.77
297.032	9234.69
297.099	9244.08
297.166	9252.46
297.233	9239.84
297.299	9225.3
297.366	9223.81
297.433	9227.13
297.5	9231.08
297.566	9230.55
297.633	9224
297.7	9224.39
297.767	9230.74
297.833	9235.56
297.9	9234.84
297.967	9224.78
298.033	9231.03
298.1	9251.84
298.167	9245.67
298.234	9247.45
298.3	9250.34
298.367	9241.39
298.434	9251.64
298.5	9235.61
298.567	9226.32
298.634	9230.6
298.7	9252.99
298.767	9252.36
298.834	9262.38
298.9	9258.24
298.967	9252.36
299.033	9265.32
299.1	9281.45
299.167	9285.64
299.233	9283.42
299.3	9294.35
299.366	9305.52
299.433	9317.37
299.5	9294.98
299.566	9294.35
299.633	9311.88
299.699	9325.79
299.766	9327.33
299.832	9329.12
299.899	9341.2
299.965	9353.1
300.032	9342.6
300.099	9344.77
300.165	9344.72
300.232	9341.78
300.298	9337.64
300.365	9351.27
300.431	9350.16
300.498	9339.18
300.564	9340
300.631	9346.5
300.697	9357.38
300.763	9360.51
300.83	9360.13
300.896	9370.29
300.963	9384.3
301.029	9388.3
301.096	9387.86
301.162	9394.08
301.229	9384.54
301.295	9371.39
301.361	9371.54
301.428	9380.93
301.494	9360.13
301.561	9365.91
301.627	9366.58
301.693	9371.06
301.76	9369.28
301.826	9364.94
301.892	9371.73
301.959	9387
302.025	9385.79
302.092	9378.28
302.158	9384.88
302.224	9383.63
302.291	9372.89
302.357	9358.15
302.423	9343.37
302.49	9331.57
302.556	9341.49
302.622	9339.32
302.688	9348.28
302.755	9362.87
302.821	9370.72
302.887	9385.6
302.954	9384.06
303.02	9385.6
303.086	9386.71
303.152	9382.66
303.219	9376.35
303.285	9382.61
303.351	9382.9
303.417	9381.27
303.483	9366.1
303.55	9355.89
303.616	9353.97
303.682	9359.79
303.748	9350.5
303.815	9366.68
303.881	9375.3
303.947	9362.68
304.013	9365.23
304.079	9359.65
304.145	9337.59
304.212	9326.04
304.278	9315.49
304.344	9309.86
304.41	9300.37
304.476	9294.35
304.542	9288
304.608	9293.58
304.674	9272.3
304.741	9265.08
304.807	9265.89
304.873	9270.23
304.939	9281.59
305.005	9261.95
305.071	9256.46
305.137	9261.66
305.203	9238.3
305.269	9238.11
305.335	9244.47
305.401	9239.36
305.467	9235.08
305.533	9240.42
305.599	9251.06
305.666	9258
305.732	9253.76
305.798	9264.01
305.864	9286.55
305.93	9291.99
305.996	9286.12
306.062	9287.9
306.128	9279.81
306.194	9262.14
306.259	9264.16
306.325	9250.73
306.391	9256.5
306.457	9258.53
306.523	9258.58
306.589	9272.73
306.655	9259.3
306.721	9244.13
306.787	9229.35
306.853	9240.91
306.919	9224.44
306.985	9216.98
307.051	9207.73
307.117	9205.47
307.183	9191.03
307.248	9157.27
307.314	9165.07
307.38	9165.02
307.446	9170.61
307.512	9163.58
307.578	9166.85
307.644	9158.19
307.709	9157.75
307.775	9151.16
307.841	9147.88
307.907	9143.02
307.973	9124.1
308.039	9119
308.104	9121.45
308.17	9123.95
308.236	9109.08
308.302	9108.64
308.368	9094.44
308.433	9087.32
308.499	9074.27
308.565	9065.22
308.631	9066.95
308.696	9035.61
308.762	9021.84
308.828	9013.61
308.894	8990.21
308.959	8969.42
309.025	8961.14
309.091	8956.32
309.156	8952.33
309.222	8953.82
309.288	8942.94
309.354	8920.32
309.419	8925.86
309.485	8904
309.551	8909.2
309.616	8890.76
309.682	8883.98
309.748	8873.24
309.813	8868.67
309.879	8860.15
309.945	8849.61
310.01	8847.59
310.076	8852.21
310.141	8844.65
310.207	8832.95
310.273	8840.46
310.338	8846.57
310.404	8827.18
310.469	8813.99
310.535	8802.39
310.601	8777.07
310.666	8780.53
310.732	8788.86
310.797	8775.72
310.863	8768.64
310.928	8757.14
310.994	8762.19
311.059	8764.79
311.125	8763.1
311.191	8772.93
311.256	8765.85
311.322	8764.31
311.387	8745.83
311.453	9091.03
311.518	9064.61
311.584	9054.4
311.649	9051.47
311.715	9038.91
311.78	9047.47
311.846	9036.64
311.911	9036.4
311.976	9033.56
312.042	9017.92
312.107	8999.63
312.173	8988.66
312.238	8985
312.304	8976.53
312.369	8966.47
312.434	8954.25
312.5	8943.27
312.565	8909.2
312.631	8906.79
312.696	8901.84
312.761	8904.24
312.827	8547.44
312.892	8584.21
312.958	8583.83
313.023	8579.35
313.088	8574.3
313.154	8556.06
313.219	8546.53
313.284	8539.27
313.35	8535.66
313.415	8521.85
313.48	8522.57
313.546	8516.02
313.611	8522.76
313.676	8513.52
313.741	8504.43
313.807	8504.52
313.872	8506.49
313.937	8512.56
314.003	8518.96
314.068	8517.42
314.133	8513.28
314.198	8496.49
314.264	8475.5
314.329	8460.77
314.394	8451.34
314.459	8444.61
314.525	8462.41
314.59	8458.13
314.655	8445.04
314.72	8447.97
314.785	8452.21
314.851	8443.31
314.916	8424.83
314.981	8404.57
315.046	8391.3
315.111	8377.97
315.176	8360.31
315.242	8363.2
315.307	8364.49
315.372	8342.84
315.437	8333.22
315.502	8322.58
315.567	8335.09
315.632	8318.69
315.698	8323.35
315.763	8324.12
315.828	8317.73
315.893	8309.11
315.958	8300.07
316.023	8292.85
316.088	8272.74
316.153	8251.52
316.218	8245.22
316.283	8229.21
316.348	8215.35
316.413	8217.61
316.479	8204.05
316.544	8176.83
316.609	8150.17
316.674	8110.25
316.739	8080.05
316.804	8048.64
316.869	8020.84
316.934	7990.14
316.999	7963.93
317.064	7913.04
317.129	7871.63
317.194	7840.23
317.259	7798.48
317.324	7755.11
317.389	7711.11
317.454	7681.44
317.518	7651.92
317.583	7630.66
317.648	7612.68
317.713	7579.08
317.778	7521.67
317.843	7494.94
317.908	7456.87
317.973	7419.42
318.038	7396.97
318.103	7368.38
318.168	7345.21
318.233	7314.11
318.297	7263.11
318.362	7229.71
318.427	7193.68
318.492	7170.12
318.557	7123.81
318.622	7098.53
318.687	7079.89
318.751	7042.42
318.816	7009.6
318.881	6975.88
318.946	6921.44
319.011	6873.88
319.075	6836.94
319.14	6809.04
319.205	6765.43
319.27	6736.61
319.335	6693.63
319.399	6653.24
319.464	6621.07
319.529	6567.81
319.594	6532.8
319.658	6502.65
319.723	6461.26
319.788	6431.02
319.853	6378.88
319.917	6348.89
319.982	6299.67
320.047	6264.1
320.112	6242.65
320.176	6192.5
320.241	6157.89
320.306	6129.67
320.37	6098.01
320.435	6068.16
320.5	6038.79
320.564	6004.59
320.629	5963.05
320.694	5936.37
320.758	5898.09
320.823	5860.01
320.888	5835.55
320.952	5783.13
321.017	5745.01
321.082	5713.88
321.146	5685.83
321.211	5650.69
321.275	5617.75
321.34	5570.06
321.405	5527.39
321.469	5485.11
321.534	5449.07
321.598	5401.43
321.663	5367.73
321.727	5337.2
321.792	5293.11
321.857	5251.95
321.921	5214.33
321.986	5176.97
322.05	5118.01
322.115	5085.24
322.179	5041.9
322.244	4986.07
322.308	4961.45
322.373	4916.54
322.437	4870.47
322.502	4845.46
322.566	4805.44
322.631	4767.05
322.695	4732.11
322.76	4687.36
322.824	4651.75
322.889	4609.55
322.953	4567.69
323.018	4507.88
323.082	4447.37
323.146	4398.58
323.211	4347.87
323.275	4304.77
323.34	4259.97
323.404	4229.86
323.468	4181.98
323.533	4139.15
323.597	4099.63
323.662	4044.51
323.726	4011.53
323.79	3968.56
323.855	3904.44
323.919	3856.56
323.983	3815.66
324.048	3755.16
324.112	3908.76
324.177	3788.92
324.241	3593.49
324.305	3402.98
324.37	3216.77
324.434	3035.29
324.498	2994.03
324.562	2948.22
324.627	2891.68
324.691	2843.37
324.755	2782.5
324.82	2713.11
324.884	2646.64
324.948	2579.5
325.012	2498.41
325.077	2385.08
