Data from 20250625_urea_1M_1_MAYP1162681_00-25-06-249.txt Node
Date: Thu Jun 26 00:25:06 BST 2025
User: adleo
Spectrometer: MAYP116268
Trigger mode: 0
Integration Time (sec): 1.000000E0
Scans to average: 1
Electric dark correction enabled: true
Nonlinearity correction enabled: true
Boxcar width: 10
XAxis mode: Wavelengths
Number of Pixels in Spectrum: 2068
>>>>>Begin Spectral Data<<<<<
179.565	1135.94
179.642	1188.27
179.718	1227.33
179.795	1264.23
179.871	1291.23
179.948	1306.24
180.024	1325.3
180.101	1348.45
180.177	1361.23
180.254	1381.81
180.33	1401.05
180.407	1451.9
180.483	1542.49
180.56	1626.63
180.636	1709.15
180.712	1696.26
180.789	1704.96
180.865	1717.36
180.942	1724.82
181.018	1735.65
181.095	1748.96
181.171	1755.95
181.248	1756.56
181.324	1769.54
181.4	1774.91
181.477	1789.03
181.553	1800.24
181.63	1820.87
181.706	1835.13
181.782	1846.15
181.859	1846.29
181.935	1853.28
182.011	1848.29
182.088	1865.26
182.164	1882.09
182.24	1891.03
182.317	1900.91
182.393	1897.54
182.469	1911.42
182.546	1925.11
182.622	1926.54
182.698	1923.11
182.775	1933.72
182.851	1948.12
182.927	1942.56
183.003	1937.05
183.08	1930.72
183.156	1942.66
183.232	1940.9
183.308	1930.49
183.385	1934
183.461	1949.22
183.537	1946.84
183.613	1957.49
183.69	1948.74
183.766	1941.84
183.842	1949.36
183.918	1954.49
183.995	1964.81
184.071	1968.23
184.147	1961.62
184.223	1952.55
184.299	1965.81
184.375	1954.88
184.452	1960.92
184.528	2015.86
184.604	2028.84
184.68	2039.87
184.756	2044.01
184.832	2047.86
184.908	2053.18
184.985	2054.23
185.061	2038.54
185.137	2048.38
185.213	2039.78
185.289	2037.02
185.365	2029.27
185.441	2028.6
185.517	2040.97
185.593	2041.88
185.669	2038.74
185.745	2049.05
185.822	2065.93
185.898	2054.47
185.974	2062.84
186.05	2055.03
186.126	2014.74
186.202	2006.8
186.278	2004.9
186.354	1997.53
186.43	2002.62
186.506	1999.34
186.582	1997.77
186.658	2006.61
186.734	1989.54
186.81	1990.83
186.886	1995.49
186.962	2008.9
187.038	2003.85
187.114	1996.53
187.19	2002.66
187.266	1992.77
187.341	1996.15
187.417	1989.4
187.493	1994.2
187.569	1994.34
187.645	1988.21
187.721	1979.51
187.797	1988.3
187.873	1989.11
187.949	1983.41
188.025	1977.13
188.101	1978.74
188.176	1982.69
188.252	1979.55
188.328	1986.21
188.404	1983.4
188.48	1979.55
188.556	1968.42
188.632	1967.8
188.707	1966.76
188.783	1961.43
188.859	1956.82
188.935	1941.08
189.011	1950.26
189.086	1942.41
189.162	1939.23
189.238	1937.23
189.314	1932.67
189.39	1926.96
189.465	1922.3
189.541	1935.9
189.617	1922.82
189.693	1920.73
189.768	1927.3
189.844	1948.61
189.92	1940.95
189.996	1952.94
190.071	1962.54
190.147	1962.73
190.223	1973
190.298	1967.96
190.374	1956.74
190.45	1966.44
190.526	1975.95
190.601	1966.58
190.677	1966.3
190.753	1991.85
190.828	1995.27
190.904	2010.77
190.98	2024.76
191.055	2036.41
191.131	2030.32
191.207	2048.2
191.282	2056.28
191.358	2046.82
191.433	2035.3
191.509	2048.09
191.585	2043.43
191.66	2045.86
191.736	2054.51
191.811	2045.28
191.887	2058.75
191.963	2080.53
192.038	2085.81
192.114	2086.04
192.189	2092.27
192.265	2091.23
192.34	2072.76
192.416	2072.1
192.491	2067.15
192.567	2072.19
192.642	2073.53
192.718	2072.43
192.793	2062.49
192.869	2058.78
192.944	2061.49
193.02	2067.77
193.095	2072.43
193.171	2078.57
193.246	2078.71
193.322	2074.67
193.397	2076.05
193.473	2062.39
193.548	2046.79
193.624	2053.12
193.699	2055.35
193.775	2069.1
193.85	2068.77
193.925	2069.72
194.001	2068.58
194.076	2061.54
194.152	2047.37
194.227	2041.7
194.302	2033.2
194.378	2035.29
194.453	2029.63
194.529	2039.43
194.604	2025.26
194.679	2018.36
194.755	1999.3
194.83	2009.05
194.905	2010.38
194.981	2016.8
195.056	2011.05
195.131	2016.23
195.207	2013.33
195.282	2002.16
195.357	1986.6
195.433	2004.19
195.508	2001.25
195.583	2011.04
195.659	2026.22
195.734	2032.4
195.809	2029.5
195.884	2037.2
195.96	2037.96
196.035	2055.98
196.11	2055.46
196.185	2066.64
196.261	2069.35
196.336	2100.73
196.411	2083.23
196.486	2087.89
196.561	2083.99
196.637	2092.22
196.712	2107.87
196.787	2110.49
196.862	2125.37
196.937	2130.6
197.013	2134.08
197.088	2139.07
197.163	2158.39
197.238	2174.34
197.313	2175.15
197.388	2189.23
197.464	2219.45
197.539	2231.15
197.614	2223.07
197.689	2232.11
197.764	2249.1
197.839	2270.99
197.914	2262.75
197.989	2290.69
198.065	2304.58
198.14	2350.3
198.215	2375.19
198.29	2386.9
198.365	2401.75
198.44	2412.7
198.515	2442.17
198.59	2458.4
198.665	2482.68
198.74	2490.59
198.815	2489.54
198.89	2512.58
198.965	2539.54
199.04	2536.49
199.115	2549.77
199.19	2594.11
199.265	2598.1
199.34	2605.3
199.415	2633.74
199.49	2658.6
199.565	2663.65
199.64	2686.13
199.715	2684.75
199.79	2691.18
199.865	2697.04
199.94	2694.09
200.015	2725.34
200.09	2728.63
200.165	2732.54
200.24	2740.49
200.315	2779.46
200.39	2797.66
200.464	2803.09
200.539	2803.76
200.614	2821
200.689	2843.83
200.764	2849.55
200.839	2863.56
200.914	2870.42
200.989	2861.64
201.063	2871.84
201.138	2857.51
201.213	2856.99
201.288	2837.54
201.363	2844.12
201.438	2845.46
201.512	2862.65
201.587	2845.68
201.662	2854.21
201.737	2869.08
201.812	2878.14
201.886	2844.47
201.961	2850.19
202.036	2838.38
202.111	2834.66
202.186	2800.99
202.26	2787.41
202.335	2764.96
202.41	2761.86
202.485	2746.33
202.559	2728.09
202.634	2702.88
202.709	2709.41
202.784	2689.78
202.858	2690.54
202.933	2670.82
203.008	2662.77
203.082	2644.19
203.157	2643.05
203.232	2598.86
203.306	2574.66
203.381	2542.88
203.456	2518.97
203.53	2498.19
203.605	2478.44
203.68	2458.39
203.754	2457.63
203.829	2441.1
203.904	2421.48
203.978	2410.1
204.053	2412.15
204.127	2401.58
204.202	2399.77
204.277	2385.78
204.351	2379.07
204.426	2370.4
204.5	2365.21
204.575	2333.04
204.65	2340.09
204.724	2331.61
204.799	2342.75
204.873	2339.79
204.948	2336.08
205.022	2326.95
205.097	2317.85
205.171	2333.46
205.246	2338.03
205.32	2333.61
205.395	2331.99
205.469	2322.43
205.544	2325.28
205.618	2307.82
205.693	2316.67
205.767	2306.25
205.842	2324.76
205.916	2321.1
205.991	2313.82
206.065	2317.2
206.14	2331.85
206.214	2328.85
206.289	2322.37
206.363	2330.27
206.438	2335.18
206.512	2345.65
206.586	2364.97
206.661	2374.12
206.735	2354.99
206.81	2358.18
206.884	2373.31
206.958	2362.37
207.033	2379.92
207.107	2388.3
207.181	2424.45
207.256	2421.45
207.33	2441.01
207.405	2454.55
207.479	2471.59
207.553	2481.01
207.628	2464.5
207.702	2475.55
207.776	2468.79
207.851	2473.93
207.925	2490.07
207.999	2488.65
208.073	2484.17
208.148	2485.26
208.222	2473.31
208.296	2503.39
208.371	2518.07
208.445	2530.73
208.519	2559.25
208.593	2573.49
208.668	2568.73
208.742	2568.82
208.816	2571.58
208.89	2584.92
208.965	2585.54
209.039	2594.6
209.113	2610.17
209.187	2635.54
209.261	2634.97
209.336	2658.83
209.41	2680.41
209.484	2686.75
209.558	2714.11
209.632	2731.73
209.707	2749.36
209.781	2778.8
209.855	2799.34
209.929	2822.9
210.003	2838.01
210.077	2844.97
210.151	2899.98
210.226	2948.95
210.3	2986.5
210.374	3025.4
210.448	3042.04
210.522	3065.31
210.596	3098.51
210.67	3131.89
210.744	3199.98
210.818	3258.59
210.892	3305.88
210.966	3329.06
211.041	3370.86
211.115	3392.29
211.189	3452.95
211.263	3503.59
211.337	3544.55
211.411	3597.65
211.485	3639.35
211.559	3697.84
211.633	3751.16
211.707	3776.59
211.781	3838.94
211.855	3862.5
211.929	3912.75
212.003	3964.15
212.077	4045.96
212.151	4130.86
212.225	4214.27
212.299	4277.78
212.373	4343.89
212.447	4421.04
212.52	4542.41
212.594	4641.7
212.668	4754.7
212.742	4838.4
212.816	4936.38
212.89	5044.04
212.964	5155.55
213.038	5271.01
213.112	5402.41
213.186	5534.68
213.26	5633.93
213.333	5717.23
213.407	5852.33
213.481	5989.71
213.555	6135.26
213.629	6261.74
213.703	6375.42
213.777	6514.73
213.85	6647.66
213.924	6834.43
213.998	6989.09
214.072	7131.8
214.146	7273.19
214.219	7426.1
214.293	7583.13
214.367	7748.87
214.441	7919.54
214.515	8071
214.588	8217.34
214.662	8349.74
214.736	8507.65
214.81	8689.64
214.883	8867.48
214.957	9034.43
215.031	9195.14
215.105	9349.94
215.178	9507.3
215.252	9683.58
215.326	9839.76
215.4	9997.92
215.473	10123.95
215.547	10278.83
215.621	10443.08
215.694	10619.32
215.768	10779.72
215.842	10941.52
215.915	11101.41
215.989	11244.34
216.063	11407.57
216.136	11579.48
216.21	11746.95
216.284	11924.41
216.357	12092.86
216.431	12260.84
216.504	12437.93
216.578	12630.68
216.652	12805.85
216.725	12974.32
216.799	13139.27
216.873	13295.31
216.946	13465.42
217.02	13626.91
217.093	13789.12
217.167	13917.39
217.24	14058.1
217.314	14200.45
217.387	14341.02
217.461	14480.23
217.535	14647.21
217.608	14788.21
217.682	14931.56
217.755	15091.02
217.829	15220.1
217.902	15353.53
217.976	15489.22
218.049	15616.27
218.123	15734.46
218.196	15877.47
218.27	16008.28
218.343	16133.74
218.417	16275.97
218.49	16397.72
218.563	16532.86
218.637	16654.41
218.71	16794.18
218.784	16925.75
218.857	17062.15
218.931	17188.42
219.004	17308.04
219.077	17421.39
219.151	17530.88
219.224	17631.27
219.298	17734.55
219.371	17847.89
219.444	17941.2
219.518	18046.78
219.591	18145.91
219.665	18272.56
219.738	18367.88
219.811	18445.95
219.885	18536.55
219.958	18625.36
220.031	18714.66
220.105	18815.91
220.178	18902.99
220.251	18984.72
220.325	19072.52
220.398	19151.26
220.471	19243.26
220.544	19332.12
220.618	19400.26
220.691	19490.95
220.764	19574.95
220.838	19655.76
220.911	19725.74
220.984	19818.99
221.057	19893.2
221.131	19954.26
221.204	19985.48
221.277	20063.41
221.35	20157.91
221.424	20222.49
221.497	20286.88
221.57	20342.73
221.643	20395.84
221.716	20457.86
221.79	20504.51
221.863	20548.18
221.936	20594.88
222.009	20632.85
222.082	20680.9
222.155	20725.48
222.229	20775.65
222.302	20824.76
222.375	20862.11
222.448	20901.83
222.521	20929.97
222.594	20964.96
222.667	21002.22
222.74	21049.01
222.814	21083.23
222.887	21118.27
222.96	21162.86
223.033	21200.98
223.106	21234.96
223.179	21261.28
223.252	21293.81
223.325	21329.96
223.398	21353.38
223.471	21373.91
223.544	21405.58
223.617	21432.23
223.69	21457.06
223.763	21466.45
223.837	21479.13
223.91	21503.23
223.983	21506.75
224.056	21521.74
224.129	21538.42
224.202	21559.43
224.275	21563.24
224.348	21549.5
224.42	21544.44
224.493	21538.27
224.566	21536.05
224.639	21557.69
224.712	21545.31
224.785	21538.27
224.858	21537.06
224.931	21546.13
225.004	21548.78
225.077	21553.45
225.15	21533.45
225.223	21535.72
225.296	21565.46
225.369	21564.35
225.442	21560.06
225.514	21572.35
225.587	21587.15
225.66	21603.58
225.733	21605.41
225.806	21626.86
225.879	21627.44
225.952	21615.78
226.025	21635.11
226.097	21648.89
226.17	21637.52
226.243	21638.58
226.316	21640.51
226.389	21653.28
226.461	21656.32
226.534	21659.35
226.607	21658.48
226.68	21677.43
226.753	21676.42
226.825	21642.19
226.898	21650.05
226.971	21638.43
227.044	21641.52
227.117	21626.43
227.189	21607.92
227.262	21604.26
227.335	21585.99
227.407	21585.36
227.48	21590.71
227.553	21578.76
227.626	21569.74
227.698	21567.48
227.771	21568.68
227.844	21554.71
227.916	21548.15
227.989	21518.03
228.062	21509.25
228.134	21507.47
228.207	21494.02
228.28	21474.16
228.352	21469.87
228.425	21459.32
228.498	21465.05
228.57	21435.99
228.643	21445.53
228.716	21437.34
228.788	21423.99
228.861	21406.93
228.934	21403.65
229.006	21383.89
229.079	21366.01
229.151	21350.15
229.224	21319.16
229.296	21297.42
229.369	21308.99
229.442	21302.24
229.514	21280.55
229.587	21275.3
229.659	21252.31
229.732	21237.85
229.804	21237.03
229.877	21252.6
229.949	21245.8
230.022	21247.44
230.094	21235.78
230.167	21216.02
230.239	21192.88
230.312	21178.86
230.384	21191.53
230.457	21187.58
230.529	21182.13
230.602	21172.3
230.674	21155.14
230.747	21155.63
230.819	21155.19
230.892	21109.45
230.964	21100.3
231.037	21101.36
231.109	21087.62
231.181	21069.79
231.254	21045.4
231.326	21025.26
231.399	20985.88
231.471	20959.18
231.544	20919.37
231.616	20923.08
231.688	20906.98
231.761	20875.9
231.833	20858.01
231.905	20811.46
231.978	20788.18
232.05	20768.9
232.122	20745.53
232.195	20721.14
232.267	20714.06
232.339	20691.84
232.412	20681.19
232.484	20649.62
232.556	20619.4
232.629	20619.26
232.701	20605.96
232.773	20583.55
232.846	20559.69
232.918	20539.21
232.99	20526.49
233.062	20506.73
233.135	20488.12
233.207	20457.04
233.279	20448.94
233.351	20430.2
233.424	20400.03
233.496	20365.23
233.568	20361.09
233.64	20313.33
233.713	20281.86
233.785	20248.17
233.857	20218.87
233.929	20192.9
234.001	20182.15
234.074	20173.67
234.146	20123.36
234.218	20096.9
234.29	20068.66
234.362	20037.77
234.434	19994.35
234.507	19949.58
234.579	19903.41
234.651	19856.33
234.723	19835.03
234.795	19813.73
234.867	19786.26
234.939	19780.72
235.012	19755.42
235.084	19729.93
235.156	19728.05
235.228	19697.88
235.3	19658.36
235.372	19634.61
235.444	19609.35
235.516	19544.68
235.588	19515.14
235.66	19486.13
235.732	19452.98
235.804	19490.23
235.876	19482.66
235.948	19477.17
236.02	19453.07
236.092	19438.76
236.164	19413.12
236.236	19373.32
236.308	19332.89
236.38	19303.35
236.452	19259.78
236.524	19235.54
236.596	19217.76
236.668	19187.84
236.74	19160.27
236.812	19147.65
236.884	19123.21
236.956	19099.84
237.028	19075.22
237.1	19036.81
237.172	19021.44
237.244	19009.82
237.316	18935.22
237.388	18893.25
237.46	18852.63
237.532	18839.09
237.604	18794.99
237.675	18778.41
237.747	18758.71
237.819	18725.74
237.891	18700.15
237.963	18668.45
238.035	18623.97
238.107	18549.95
238.178	18541.51
238.25	18514.19
238.322	18494.96
238.394	18454.24
238.466	18420.46
238.538	18393.04
238.609	18368.9
238.681	18314.49
238.753	18269.91
238.825	18242.73
238.897	18203.31
238.968	18191.36
239.04	18141.82
239.112	18132.86
239.184	18092.04
239.255	18053.97
239.327	18031.32
239.399	18000.24
239.471	17980.19
239.542	17962.21
239.614	17954.7
239.686	17882.65
239.758	17862.31
239.829	17825.59
239.901	17807.28
239.973	17772.73
240.044	17754.9
240.116	17725.69
240.188	17701.35
240.259	17666.61
240.331	17634.71
240.403	17620.83
240.474	17573.26
240.546	17541.36
240.618	17503.33
240.689	17469.41
240.761	17449.36
240.833	17427.72
240.904	17396.06
240.976	17359.96
241.048	17332.25
241.119	17307.67
241.191	17296.06
241.262	17282.61
241.334	17241.89
241.405	17205.89
241.477	17159.91
241.549	17121.35
241.62	17090.85
241.692	17064.19
241.763	17047.23
241.835	17013.54
241.906	16982.22
241.978	16942.22
242.049	16923.85
242.121	16898.6
242.192	16882.45
242.264	16834.21
242.335	16795.12
242.407	16762.74
242.478	16729.29
242.55	16702.25
242.621	16664.18
242.693	16628.75
242.764	16586.82
242.836	16556.89
242.907	16532.89
242.979	16524.94
243.05	16500.5
243.122	16473.46
243.193	16437.85
243.264	16393.36
243.336	16358.03
243.407	16334.42
243.479	16326.42
243.55	16303.47
243.622	16275.04
243.693	16239.66
243.764	16228.19
243.836	16190.31
243.907	16161
243.978	16134.39
244.05	16106.87
244.121	16066.15
244.192	16040.17
244.264	15996.98
244.335	15971.68
244.407	15920.34
244.478	15889.35
244.549	15855.71
244.62	15823.8
244.692	15796.62
244.763	15777.91
244.834	15746.87
244.906	15708.26
244.977	15677.32
245.048	15660.26
245.119	15627.87
245.191	15589.55
245.262	15535.03
245.333	15524.67
245.405	15501.82
245.476	15478.4
245.547	15457.43
245.618	15431.01
245.689	15412.17
245.761	15395.63
245.832	15360.54
245.903	15347.67
245.974	15327.86
246.045	15297.06
246.117	15280.05
246.188	15242.5
246.259	15204.95
246.33	15178.96
246.401	15151.68
246.473	15106.18
246.544	15065.64
246.615	15050.89
246.686	15031.9
246.757	15027.18
246.828	14985.91
246.899	14972.22
246.97	14923.97
247.042	14875
247.113	14859.62
247.184	14849.3
247.255	14811.9
247.326	14788.42
247.397	14764.66
247.468	14732.51
247.539	14712.65
247.61	14675.24
247.681	14665.69
247.752	14644.39
247.823	14606.16
247.894	14579.7
247.965	14545.28
248.037	14516.79
248.108	14469.98
248.179	14447.57
248.25	14410.74
248.321	14388.08
248.392	14341.85
248.463	14346.72
248.534	14331.3
248.605	14311.29
248.675	14277.36
248.746	14260.39
248.817	14239.42
248.888	14215.84
248.959	14175.83
249.03	14158.58
249.101	14135.1
249.172	14099.14
249.243	14057.44
249.314	14055.13
249.385	14033.72
249.456	14020.56
249.527	13996.46
249.598	13985.56
249.669	13949.07
249.739	13939.82
249.81	13920
249.881	13894.31
249.952	13866.25
250.023	13838.58
250.094	13794.23
250.165	13762.75
250.235	13729.97
250.306	13713.44
250.377	13673.43
250.448	13657.86
250.519	13606.95
250.59	13595.82
250.66	13573.3
250.731	13571.9
250.802	13543.7
250.873	13523.12
250.944	13501.38
251.014	13469.03
251.085	13468.21
251.156	13457.03
251.227	13448.45
251.297	13443.96
251.368	13433.5
251.439	13422.71
251.51	13423.48
251.58	13402.27
251.651	13373.39
251.722	13373.25
251.792	13339.26
251.863	13318.96
251.934	13314.34
252.005	13334.78
252.075	13318.15
252.146	13297.22
252.217	13281.46
252.287	13265.5
252.358	13242.99
252.429	13240.44
252.499	13220.05
252.57	13191.46
252.641	13177.33
252.711	13145.61
252.782	13110.86
252.852	13109.41
252.923	13083.86
252.994	13054.22
253.064	13043.66
253.135	13021
253.205	12992.32
253.276	12989.19
253.347	12985.57
253.417	12956.94
253.488	12925.65
253.558	12904.97
253.629	12890.46
253.699	12876.05
253.77	12873.73
253.841	12854.74
253.911	12839.36
253.982	12821.19
254.052	12812.51
254.123	12791.64
254.193	12777.27
254.264	12788.65
254.334	12754.57
254.405	12718.27
254.475	12687.42
254.546	12664.52
254.616	12657.29
254.687	12638.49
254.757	12620.22
254.827	12599.54
254.898	12585.03
254.968	12569.17
255.039	12533.02
255.109	12518.65
255.18	12492.05
255.25	12440.66
255.321	12425.52
255.391	12389.56
255.461	12390.53
255.532	12347.87
255.602	12329.31
255.673	12291.03
255.743	12270.4
255.813	12228.56
255.884	12228.9
255.954	12222.59
256.024	12226.59
256.095	12206.05
256.165	12174.48
256.235	12162.91
256.306	12145.12
256.376	12132.49
256.446	12115.14
256.517	12109.45
256.587	12110.37
256.657	12092.73
256.728	12080.82
256.798	12066.46
256.868	12047.71
256.938	12019.46
257.009	12009.19
257.079	11997.1
257.149	12001.96
257.219	11959.31
257.29	11946.1
257.36	11901.71
257.43	11884.65
257.5	11846.66
257.571	11824.92
257.641	11823.24
257.711	11789.79
257.781	11770.7
257.852	11760.34
257.922	11729.3
257.992	11708.43
258.062	11683.55
258.132	11679.51
258.202	11665.19
258.273	11651.69
258.343	11653.67
258.413	11630.83
258.483	11615.4
258.553	11583.06
258.623	11554.72
258.693	11534.77
258.764	11540.5
258.834	11549.42
258.904	11541.71
258.974	11512.6
259.044	11494.48
259.114	11479.54
259.184	11461.8
259.254	11449.75
259.324	11401.65
259.394	11386.76
259.464	11384.45
259.535	11364.83
259.605	11341.6
259.675	11312.54
259.745	11299
259.815	11268.73
259.885	11246.95
259.955	11259.33
260.025	11241.89
260.095	11226.95
260.165	11227.14
260.235	11226.71
260.305	11205.55
260.375	11180.35
260.445	11187
260.515	11186.42
260.585	11177.74
260.655	11166.56
260.725	11157.16
260.795	11161.74
260.865	11162.42
260.934	11140.68
261.004	11128.63
261.074	11108.73
261.144	11110.08
261.214	11106.9
261.284	11085.94
261.354	11080.83
261.424	11046.95
261.494	11051.04
261.564	11034.32
261.634	11016.93
261.703	10972.69
261.773	10960.4
261.843	10946.62
261.913	10925.85
261.983	10888.02
262.053	10872.55
262.123	10850.48
262.192	10820.27
262.262	10811.74
262.332	10786.68
262.402	10770.25
262.472	10759.7
262.541	10725.39
262.611	10722.84
262.681	10693.44
262.751	10688.67
262.821	10670.22
262.89	10644.2
262.96	10632.97
263.03	10639.18
263.1	10633.11
263.169	10623.14
263.239	10617.74
263.309	10621.16
263.379	10617.55
263.448	10613.41
263.518	10608.01
263.588	10601.6
263.657	10610.18
263.727	10602.47
263.797	10587.15
263.867	10574.43
263.936	10545.18
264.006	10548.07
264.076	10530.53
264.145	10515.98
264.215	10498.93
264.285	10494.01
264.354	10459.9
264.424	10437.74
264.494	10408.83
264.563	10389.65
264.633	10393.32
264.702	10373.32
264.772	10339.98
264.842	10317.58
264.911	10313.05
264.981	10280
265.05	10260.15
265.12	10239.96
265.19	10224.4
265.259	10219.15
265.329	10208.6
265.398	10198
265.468	10206.48
265.537	10185.62
265.607	10171.94
265.676	10166.16
265.746	10159.22
265.815	10162.64
265.885	10148.19
265.955	10127.57
266.024	10102.95
266.094	10070.92
266.163	10072.8
266.232	10073.42
266.302	10061.33
266.371	10047.7
266.441	10041.82
266.51	10035.37
266.58	10020.58
266.649	9996.64
266.719	9990.47
266.788	9985.85
266.858	9992.69
266.927	9959.11
266.996	9949.77
267.066	9941.68
267.135	9918.7
267.205	9910.65
267.274	9900.64
267.343	9897.7
267.413	9884.21
267.482	9892.4
267.552	9898.52
267.621	9875.54
267.69	9850.06
267.76	9835.66
267.829	9822.56
267.898	9803
267.968	9785.23
268.037	9768.95
268.106	9771.7
268.176	9746.6
268.245	9733.16
268.314	9711.35
268.384	9709.56
268.453	9694.63
268.522	9686.83
268.592	9687.07
268.661	9668.38
268.73	9663.04
268.799	9646.95
268.869	9652.73
268.938	9622.53
269.007	9597.78
269.076	9581.74
269.146	9577.07
269.215	9576.49
269.284	9582.56
269.353	9570.38
269.422	9557.62
269.492	9552.17
269.561	9515.77
269.63	9516.73
269.699	9499.68
269.768	9487.55
269.838	9482.49
269.907	9482.25
269.976	9453.21
270.045	9423.36
270.114	9417
270.183	9399.18
270.253	9386.76
270.322	9357.24
270.391	9347.23
270.46	9353.25
270.529	9356.14
270.598	9356.19
270.667	9340.25
270.736	9315.2
270.806	9313.66
270.875	9317.27
270.944	9301.43
271.013	9319.59
271.082	9306.97
271.151	9304.85
271.22	9282.17
271.289	9266.52
271.358	9250.83
271.427	9251.5
271.496	9245.82
271.565	9233.3
271.634	9226.85
271.703	9251.55
271.772	9256.18
271.841	9247.85
271.91	9225.17
271.979	9211.3
272.048	9186.7
272.117	9189.63
272.186	9183.33
272.255	9185.73
272.324	9179.76
272.393	9179.91
272.462	9164.21
272.531	9152.65
272.6	9138.88
272.669	9144.42
272.738	9128.92
272.807	9128
272.876	9108.56
272.945	9127.96
273.013	9124.15
273.082	9122.76
273.151	9078.17
273.22	9071.38
273.289	9065.32
273.358	9071.14
273.427	9060.69
273.496	9060.5
273.564	9055.21
273.633	9048.8
273.702	9023.09
273.771	9014.28
273.84	9006
273.909	9000.23
273.977	8997.53
274.046	8985.88
274.115	8990.12
274.184	8980.39
274.253	8970.38
274.322	8975.24
274.39	8946.55
274.459	8929.27
274.528	8901.93
274.597	8891.73
274.665	8891.44
274.734	8893.07
274.803	8879.88
274.872	8870.4
274.94	8852.35
275.009	8878.93
275.078	8865.55
275.147	8867.38
275.215	8860.25
275.284	8863.29
275.353	8855.3
275.421	8832.14
275.49	8843.31
275.559	8824.39
275.627	8812.8
275.696	8804.28
275.765	8807.02
275.833	8797.11
275.902	8797.2
275.971	8816.07
276.039	8835.52
276.108	8838.84
276.177	8837.49
276.245	8827.62
276.314	8817.32
276.383	8825.94
276.451	8785.69
276.52	8787.23
276.588	8788.53
276.657	8790.98
276.725	8782.12
276.794	8782.99
276.863	8798.68
276.931	8780.68
277	8793
277.068	8807.1
277.137	8822.79
277.205	8818.7
277.274	8835.4
277.342	8844.69
277.411	8823.23
277.48	8806.47
277.548	8792.85
277.617	8789.63
277.685	8783.56
277.754	8794.73
277.822	8778.65
277.89	8788.23
277.959	8787.22
278.027	8779.71
278.096	8769.7
278.164	8794.74
278.233	8785.45
278.301	8774.52
278.37	8777.7
278.438	8763.45
278.507	8761.62
278.575	8734.38
278.643	8732.79
278.712	8724.9
278.78	8711.8
278.849	8719.99
278.917	8729.47
278.985	8718.98
279.054	8719.22
279.122	8725.42
279.191	8723.16
279.259	8726.63
279.327	8706.17
279.396	8714.11
279.464	8706.17
279.532	8716.86
279.601	8708.91
279.669	8700.97
279.737	8716.42
279.806	8718.49
279.874	8727.44
279.942	8724.56
280.011	8720.71
280.079	8724.08
280.147	8732.45
280.215	8738.32
280.284	8732.26
280.352	8721.96
280.42	8734.52
280.488	8728.94
280.557	8726.72
280.625	8727.93
280.693	8726.63
280.761	8730.24
280.83	8716.04
280.898	8726.91
280.966	8700.3
281.034	8666.13
281.102	8652.89
281.171	8640.19
281.239	8650.06
281.307	8646.59
281.375	8635.33
281.443	8667.29
281.512	8660.41
281.58	8662.72
281.648	8643.71
281.716	8641.93
281.784	8632.16
281.852	8623.69
281.92	8624.26
281.989	8638.46
282.057	8621.04
282.125	8649.2
282.193	8646.6
282.261	8647.56
282.329	8640.25
282.397	8644.58
282.465	8647.9
282.533	8667.58
282.601	8656.85
282.67	8631.43
282.738	8618.58
282.806	8636.25
282.874	8614.2
282.942	8615.36
283.01	8606.59
283.078	8611.84
283.146	8616.89
283.214	8630.7
283.282	8631.04
283.35	8640.04
283.418	8627.77
283.486	8636.72
283.554	8608.32
283.622	8606.54
283.69	8602.59
283.758	8599.32
283.826	8605.58
283.894	8616.93
283.962	8633.2
284.03	8650.67
284.098	8646.25
284.165	8642.11
284.233	8638.88
284.301	8638.07
284.369	8627.77
284.437	8621.89
284.505	8617.37
284.573	8623.48
284.641	8606.54
284.709	8613.14
284.777	8591.05
284.845	8602.21
284.912	8606.5
284.98	8612.61
285.048	8608.37
285.116	8609.14
285.184	8622.96
285.252	8623.73
285.319	8607.89
285.387	8597.88
285.455	8575.31
285.523	8584.02
285.591	8583.06
285.659	8586.04
285.726	8592.01
285.794	8577.72
285.862	8573.92
285.93	8576.23
285.997	8566.51
286.065	8560.93
286.133	8550.34
286.201	8550.77
286.269	8526.66
286.336	8512.99
286.404	8503.9
286.472	8511.98
286.539	8492.25
286.607	8471.03
286.675	8468.48
286.743	8473.48
286.81	8463.28
286.878	8474.78
286.946	8471.36
287.013	8465.98
287.081	8460.49
287.149	8444.03
287.216	8467.03
287.284	8464.24
287.352	8466.21
287.419	8461.79
287.487	8482.33
287.555	8479.64
287.622	8473.96
287.69	8483.39
287.758	8492.58
287.825	8485.66
287.893	8475.74
287.96	8486.61
288.028	8497.54
288.096	8502.3
288.163	8500.76
288.231	8490.37
288.298	8493.98
288.366	8503.75
288.433	8496.77
288.501	8482.48
288.569	8489.99
288.636	8482.48
288.704	8493.11
288.771	8499.42
288.839	8496.72
288.906	8485.85
288.974	8499.81
289.041	8499.42
289.109	8488.69
289.176	8493.5
289.244	8500.53
289.311	8509.48
289.379	8520.4
289.446	8525.36
289.514	8528.78
289.581	8535.13
289.649	8536.24
289.716	8536.67
289.783	8524.35
289.851	8547.69
289.918	8552.74
289.986	8559.57
290.053	8567.08
290.121	8561.35
290.188	8561.64
290.255	8590.13
290.323	8582.48
290.39	8577.76
290.458	8582.1
290.525	8598.99
290.592	8595.57
290.66	8592.83
290.727	8587.97
290.794	8596
290.862	8592.44
290.929	8591.09
290.996	8585.75
291.064	8597.49
291.131	8604.86
291.198	8618.04
291.266	8616.26
291.333	8623.05
291.4	8625.84
291.468	8641.77
291.535	8640.04
291.602	8639.46
291.669	8630.37
291.737	8640.62
291.804	8642.54
291.871	8659.72
291.938	8662.42
292.006	8688.46
292.073	8700.73
292.14	8710.16
292.207	8700.63
292.275	8702.94
292.342	8711.27
292.409	8734.28
292.476	8754.06
292.543	8743.28
292.611	8744.48
292.678	8758.44
292.745	8779.81
292.812	8791.99
292.879	8777.12
292.946	8778.22
293.014	8792.38
293.081	8800.22
293.148	8810.52
293.215	8823.47
293.282	8816.83
293.349	8824
293.416	8806.09
293.484	8817.4
293.551	8822.02
293.618	8840.36
293.685	8860.19
293.752	8850.09
293.819	8849.12
293.886	8838.39
293.953	8848.69
294.02	8858.27
294.087	8863.66
294.154	8847
294.221	8857.26
294.288	8863.28
294.356	8883.59
294.423	8889.8
294.49	8879.5
294.557	8892.73
294.624	8878.68
294.691	8899.18
294.758	8898.46
294.825	8905.3
294.892	8894.32
294.959	8895.77
295.026	8898.37
295.093	8887.78
295.16	8886.67
295.226	8886.14
295.293	8912.67
295.36	8916.71
295.427	8926.63
295.494	8939.58
295.561	8948.92
295.628	8973.28
295.695	8986.95
295.762	8988.06
295.829	8997.35
295.896	9012.95
295.963	9018.73
296.03	9031.43
296.096	9037.93
296.163	9046.46
296.23	9061.48
296.297	9078.13
296.364	9078.76
296.431	9087.47
296.498	9082.71
296.564	9107.98
296.631	9112.79
296.698	9093.68
296.765	9110.34
296.832	9096.95
296.899	9076.15
296.965	9091.46
297.032	9060.79
297.099	9079.33
297.166	9082.55
297.233	9070.32
297.299	9066.38
297.366	9064.4
297.433	9068.4
297.5	9076.1
297.566	9078.94
297.633	9070.86
297.7	9074.32
297.767	9072.35
297.833	9075.53
297.9	9076.97
297.967	9060.41
298.033	9070.28
298.1	9097.48
298.167	9092.24
298.234	9102.2
298.3	9116.16
298.367	9110.72
298.434	9122.76
298.5	9103.88
298.567	9094.83
298.634	9099.55
298.7	9108.07
298.767	9108.79
298.834	9118.33
298.9	9110.09
298.967	9103.64
299.033	9112.98
299.1	9125.4
299.167	9136.52
299.233	9130.65
299.3	9153.04
299.366	9171.33
299.433	9183.08
299.5	9155.06
299.566	9155.2
299.633	9165.99
299.699	9175.95
299.766	9173.21
299.832	9174.65
299.899	9185.63
299.965	9207.1
300.032	9205.52
300.099	9215.77
300.165	9224.58
300.232	9218.08
300.298	9217.94
300.365	9226.41
300.431	9228.92
300.498	9222.51
300.564	9229.4
300.631	9245.19
300.697	9248.85
300.763	9247.36
300.83	9248.51
300.896	9260.89
300.963	9271.96
301.029	9277.64
301.096	9273.89
301.162	9281.97
301.229	9273.5
301.295	9263.24
301.361	9259.49
301.428	9259.59
301.494	9243.6
301.561	9242.16
301.627	9248.42
301.693	9248.75
301.76	9251.45
301.826	9244.95
301.892	9250.68
301.959	9254.77
302.025	9244.08
302.092	9238.45
302.158	9243.45
302.224	9235.36
302.291	9229.3
302.357	9221.02
302.423	9213.7
302.49	9211.05
302.556	9220.01
302.622	9223.23
302.688	9230.98
302.755	9246.06
302.821	9246.01
302.887	9256.02
302.954	9258.28
303.02	9260.88
303.086	9264.3
303.152	9263.34
303.219	9258.67
303.285	9261.61
303.351	9268.06
303.417	9264.88
303.483	9256.75
303.55	9246.49
303.616	9245.43
303.682	9243.75
303.748	9236.19
303.815	9241.97
303.881	9248.95
303.947	9230.7
304.013	9232.05
304.079	9226.75
304.145	9203.54
304.212	9207.44
304.278	9196.13
304.344	9194.92
304.41	9182.6
304.476	9170.66
304.542	9165.46
304.608	9170.47
304.674	9151.25
304.741	9141.24
304.807	9140.61
304.873	9146.73
304.939	9163.72
305.005	9148.51
305.071	9145.24
305.137	9146.2
305.203	9128.38
305.269	9127.9
305.335	9143.79
305.401	9133.25
305.467	9126.51
305.533	9134.84
305.599	9139.99
305.666	9142.73
305.732	9129.39
305.798	9137.92
305.864	9157.22
305.93	9159.82
305.996	9161.99
306.062	9164.16
306.128	9157.8
306.194	9143.36
306.259	9132.33
306.325	9115.92
306.391	9118.52
306.457	9122.08
306.523	9121.16
306.589	9142.25
306.655	9131.42
306.721	9115.82
306.787	9105.52
306.853	9118.23
306.919	9099.74
306.985	9086.6
307.051	9082.31
307.117	9076.73
307.183	9068.35
307.248	9041.73
307.314	9044.62
307.38	9038.65
307.446	9043.8
307.512	9037.01
307.578	9040.38
307.644	9042.21
307.709	9038.98
307.775	9034.89
307.841	9029.5
307.907	9027.72
307.973	8998.25
308.039	8994.59
308.104	8992.91
308.17	8996.33
308.236	8980.73
308.302	8985.44
308.368	8973.22
308.433	8971
308.499	8966.24
308.565	8955.7
308.631	8958.49
308.696	8933.02
308.762	8918.05
308.828	8911.65
308.894	8890.57
308.959	8869.24
309.025	8855.77
309.091	8854.8
309.156	8847.53
309.222	8854.03
309.288	8838.63
309.354	8825.54
309.419	8820.68
309.485	8804.21
309.551	8803.3
309.616	8788.96
309.682	8780.19
309.748	8778.9
309.813	8774.42
309.879	8768.88
309.945	8753.1
310.01	8753.05
310.076	8752.33
310.141	8744.67
310.207	8729.56
310.273	8731.39
310.338	8741.83
310.404	8725.37
310.469	8712.14
310.535	8697.79
310.601	8668.24
310.666	8679.46
310.732	8683.07
310.797	8671.42
310.863	8667.76
310.928	8659.38
310.994	8661.21
311.059	8656.74
311.125	8649.61
311.191	8657.41
311.256	8647.02
311.322	8648.8
311.387	8616.6
311.453	8854.3
311.518	8835.15
311.584	8830.62
311.649	8833.41
311.715	8812.72
311.78	8815.7
311.846	8804.68
311.911	8810.17
311.976	8811.57
312.042	8790.97
312.107	8777.01
312.173	8766.76
312.238	8762.57
312.304	8759.83
312.369	8749.77
312.434	8738.51
312.5	8729.95
312.565	8699.29
312.631	8695.97
312.696	8689.86
312.761	8696.06
312.827	8445.04
312.892	8479.02
312.958	8472.86
313.023	8464.58
313.088	8466.07
313.154	8452.55
313.219	8441.63
313.284	8433.59
313.35	8430.32
313.415	8416.37
313.48	8409
313.546	8407.46
313.611	8410.02
313.676	8394.09
313.741	8377.87
313.807	8383.74
313.872	8387.83
313.937	8388.07
314.003	8392.93
314.068	8392.93
314.133	8398.42
314.198	8389.47
314.264	8357.56
314.329	8348.9
314.394	8346.64
314.459	8338.65
314.525	8353.23
314.59	8352.03
314.655	8337.16
314.72	8337.88
314.785	8343.66
314.851	8336.44
314.916	8321.81
314.981	8302.91
315.046	8293.19
315.111	8289.29
315.176	8275.29
315.242	8282.27
315.307	8280.34
315.372	8262.3
315.437	8248.3
315.502	8239.01
315.567	8248.92
315.632	8239.88
315.698	8236.66
315.763	8230.35
315.828	8226.31
315.893	8218.47
315.958	8214.38
316.023	8208.56
316.088	8189.07
316.153	8160.79
316.218	8156.13
316.283	8136.21
316.348	8125.06
316.413	8126.4
316.479	8109.23
316.544	8078.02
316.609	8043.04
316.674	8009.9
316.739	7981.72
316.804	7957.05
316.869	7922.33
316.934	7888.13
316.999	7859.42
317.064	7816.76
317.129	7776.75
317.194	7742.18
317.259	7699.28
317.324	7647.98
317.389	7606.58
317.454	7572.88
317.518	7544.57
317.583	7522.49
317.648	7501.34
317.713	7466.68
317.778	7408.41
317.843	7384.18
317.908	7349.73
317.973	7310.64
318.038	7283.39
318.103	7245.91
318.168	7213.86
318.233	7184.73
318.297	7134.9
318.362	7104.96
318.427	7068.16
318.492	7043.46
318.557	7002.39
318.622	6976.87
318.687	6960.01
318.751	6923.7
318.816	6886.85
318.881	6857.93
318.946	6803.75
319.011	6762.2
319.075	6721.28
319.14	6687.95
319.205	6644.87
319.27	6614.48
319.335	6572.41
319.399	6532.13
319.464	6506.68
319.529	6455.99
319.594	6415.08
319.658	6387.29
319.723	6344.51
319.788	6315.67
319.853	6261.33
319.917	6229.61
319.982	6180.55
320.047	6139.23
320.112	6113.27
320.176	6074.93
320.241	6039.66
320.306	6014.42
320.37	5980.55
320.435	5949.17
320.5	5927.06
320.564	5892.04
320.629	5854.82
320.694	5826.66
320.758	5785.81
320.823	5747.34
320.888	5726.92
320.952	5683.43
321.017	5644.83
321.082	5606.52
321.146	5574.11
321.211	5546.98
321.275	5513.43
321.34	5471.88
321.405	5431.19
321.469	5389.3
321.534	5348.23
321.598	5303.91
321.663	5272.75
321.727	5239.01
321.792	5195.8
321.857	5150.42
321.921	5110.66
321.986	5074.5
322.05	5020.77
322.115	4989.11
322.179	4948.21
322.244	4893.49
322.308	4866.53
322.373	4824.21
322.437	4788.21
322.502	4766.8
322.566	4723.19
322.631	4692.08
322.695	4658.82
322.76	4617.72
322.824	4581.54
322.889	4545.08
322.953	4502.08
323.018	4438.74
323.082	4378.9
323.146	4333.52
323.211	4286.99
323.275	4247.29
323.34	4199.53
323.404	4166.59
323.468	4123.66
323.533	4083.84
323.597	4042.99
323.662	3990.22
323.726	3957.91
323.79	3914.09
323.855	3845.78
323.919	3804.4
323.983	3756.62
324.048	3690.39
324.112	3855.89
324.177	3737.18
324.241	3541.56
324.305	3354.53
324.37	3171.39
324.434	2994.44
324.498	2954.5
324.562	2908.88
324.627	2854.4
324.691	2804.25
324.755	2747.02
324.82	2680.95
324.884	2608.59
324.948	2545.77
325.012	2466.56
325.077	2354.34
