Data from 20250625_urea_1M_1_MAYP1162681_05-25-05-798.txt Node
Date: Thu Jun 26 05:25:05 BST 2025
User: adleo
Spectrometer: MAYP116268
Trigger mode: 0
Integration Time (sec): 1.000000E0
Scans to average: 1
Electric dark correction enabled: true
Nonlinearity correction enabled: true
Boxcar width: 10
XAxis mode: Wavelengths
Number of Pixels in Spectrum: 2068
>>>>>Begin Spectral Data<<<<<
179.565	1087.33
179.642	1137.56
179.718	1172.62
179.795	1212.21
179.871	1243.54
179.948	1258.11
180.024	1277.3
180.101	1296.35
180.177	1308.99
180.254	1329.04
180.33	1349.56
180.407	1392.56
180.483	1479.4
180.56	1559.31
180.636	1637.26
180.712	1627.71
180.789	1636.31
180.865	1649.8
180.942	1659.06
181.018	1668.61
181.095	1682.15
181.171	1685.43
181.248	1687.09
181.324	1703.82
181.4	1707.81
181.477	1716.32
181.553	1728.34
181.63	1750.15
181.706	1766.74
181.782	1776.9
181.859	1777.38
181.935	1782.37
182.011	1785.98
182.088	1800.95
182.164	1823.54
182.24	1833.85
182.317	1842.07
182.393	1839.22
182.469	1851.1
182.546	1864.5
182.622	1870.21
182.698	1866.93
182.775	1877.86
182.851	1888.79
182.927	1881.19
183.003	1875.91
183.08	1871.44
183.156	1881.24
183.232	1874.63
183.308	1864.41
183.385	1870.63
183.461	1886.27
183.537	1886.18
183.613	1896.49
183.69	1889.84
183.766	1876.76
183.842	1883.94
183.918	1891.4
183.995	1903.95
184.071	1906.8
184.147	1899.77
184.223	1888.89
184.299	1902.2
184.375	1892.64
184.452	1902.49
184.528	1955.94
184.604	1964.83
184.68	1977
184.756	1984.08
184.832	1991.5
184.908	1996.35
184.985	1996.3
185.061	1981.56
185.137	1988.17
185.213	1976.29
185.289	1973.86
185.365	1968.68
185.441	1966.68
185.517	1977.2
185.593	1974.39
185.669	1973.39
185.745	1982.9
185.822	1997.82
185.898	1987.22
185.974	1994.26
186.05	1984.32
186.126	1947.32
186.202	1945.51
186.278	1940.94
186.354	1934.24
186.43	1936.9
186.506	1931.39
186.582	1930.44
186.658	1936.71
186.734	1923.69
186.81	1925.68
186.886	1933.53
186.962	1942.85
187.038	1937.85
187.114	1930.72
187.19	1936.85
187.266	1924.92
187.341	1924.68
187.417	1917.41
187.493	1917.08
187.569	1916.22
187.645	1912.94
187.721	1904.9
187.797	1912.22
187.873	1914.46
187.949	1907.23
188.025	1899.2
188.101	1904.33
188.176	1908.32
188.252	1905.52
188.328	1911.46
188.404	1910.32
188.48	1901.33
188.556	1893.44
188.632	1895.2
188.707	1893.97
188.783	1893.92
188.859	1891.3
188.935	1884.46
189.011	1894.58
189.086	1892.3
189.162	1891.4
189.238	1885.79
189.314	1877.9
189.39	1869.67
189.465	1864.97
189.541	1881.75
189.617	1873.53
189.693	1869.58
189.768	1873.67
189.844	1894.22
189.92	1883.81
189.996	1892.8
190.071	1905.35
190.147	1906.2
190.223	1915.62
190.298	1910.44
190.374	1895.37
190.45	1905.2
190.526	1909.44
190.601	1904.73
190.677	1905.63
190.753	1927.7
190.828	1933.64
190.904	1949.19
190.98	1964.03
191.055	1973.21
191.131	1962.41
191.207	1978.15
191.282	1986.94
191.358	1978.24
191.433	1970.44
191.509	1982.89
191.585	1978.8
191.66	1977.99
191.736	1985.31
191.811	1974.33
191.887	1989.93
191.963	2013.37
192.038	2019.27
192.114	2022.5
192.189	2024.78
192.265	2018.79
192.34	1997.91
192.416	1997.39
192.491	1994.77
192.567	1998.91
192.642	1999.43
192.718	2002.57
192.793	1992.92
192.869	1988.5
192.944	1991.3
193.02	1992.59
193.095	1996.1
193.171	2002.19
193.246	2001.91
193.322	1999.43
193.397	2002.81
193.473	1990.58
193.548	1975.36
193.624	1980.64
193.699	1977.17
193.775	1990.02
193.85	1992.11
193.925	2001.47
194.001	1998.38
194.076	1987.5
194.152	1974.99
194.227	1969.42
194.302	1961.1
194.378	1963.53
194.453	1960.53
194.529	1969.9
194.604	1958.49
194.679	1955.83
194.755	1936.86
194.83	1949.28
194.905	1950.94
194.981	1956.41
195.056	1947.61
195.131	1953.84
195.207	1951.8
195.282	1944.1
195.357	1924.55
195.433	1940.19
195.508	1928.26
195.583	1939.53
195.659	1956.12
195.734	1961.92
195.809	1963.16
195.884	1967.15
195.96	1968.39
196.035	1983.75
196.11	1982.7
196.185	1992.26
196.261	1992.54
196.336	2023.74
196.411	2010.61
196.486	2012.6
196.561	2004.95
196.637	2015.31
196.712	2027.25
196.787	2028.92
196.862	2044.28
196.937	2052.5
197.013	2058.4
197.088	2071.33
197.163	2085.75
197.238	2103.6
197.313	2105.41
197.388	2118.3
197.464	2147.66
197.539	2159.07
197.614	2151.22
197.689	2160.69
197.764	2177.97
197.839	2198.13
197.914	2192.04
197.989	2211.74
198.065	2224.16
198.14	2273.09
198.215	2295.41
198.29	2308.98
198.365	2323.21
198.44	2334.96
198.515	2362.94
198.59	2375.08
198.665	2395.36
198.74	2405.21
198.815	2404.26
198.89	2426.73
198.965	2454.02
199.04	2449.92
199.115	2464.01
199.19	2504.28
199.265	2508.38
199.34	2513.23
199.415	2546.34
199.49	2565.72
199.565	2575.15
199.64	2597.96
199.715	2595.86
199.79	2600.72
199.865	2604.67
199.94	2603.48
200.015	2627.49
200.09	2633.16
200.165	2642.25
200.24	2649.45
200.315	2687.49
200.39	2702.88
200.464	2704.5
200.539	2705.78
200.614	2724.03
200.689	2747.9
200.764	2754.38
200.839	2768.29
200.914	2777.19
200.989	2763.75
201.063	2778.09
201.138	2763.81
201.213	2764.57
201.288	2748.18
201.363	2754.52
201.438	2755.66
201.512	2770.38
201.587	2757.47
201.662	2761.56
201.737	2771.24
201.812	2779.82
201.886	2749.35
201.961	2755.35
202.036	2744.97
202.111	2738.68
202.186	2707.73
202.26	2689.62
202.335	2670.09
202.41	2667.8
202.485	2652.08
202.559	2636.99
202.634	2609.74
202.709	2619.64
202.784	2599.83
202.858	2601.73
202.933	2585.4
203.008	2579.64
203.082	2559.68
203.157	2557.4
203.232	2517.94
203.306	2496.02
203.381	2466.35
203.456	2442.4
203.53	2421.48
203.605	2403.88
203.68	2385.54
203.754	2380.6
203.829	2363.79
203.904	2346.42
203.978	2332.71
204.053	2334.37
204.127	2322.66
204.202	2320.52
204.277	2303.48
204.351	2297.87
204.426	2287.58
204.5	2279.97
204.575	2248.9
204.65	2260.28
204.724	2253.09
204.799	2263.36
204.873	2260.65
204.948	2259.98
205.022	2250.28
205.097	2242.61
205.171	2257.93
205.246	2266.07
205.32	2267.02
205.395	2266.55
205.469	2254.52
205.544	2263.66
205.618	2249.47
205.693	2257.61
205.767	2248.76
205.842	2266.66
205.916	2261.9
205.991	2255.1
206.065	2260.95
206.14	2274.55
206.214	2266.93
206.289	2259.79
206.363	2267.31
206.438	2269.65
206.512	2278.31
206.586	2297.72
206.661	2305.05
206.735	2281.6
206.81	2279.46
206.884	2292.54
206.958	2282.22
207.033	2301.39
207.107	2305.63
207.181	2335.43
207.256	2332.48
207.33	2347.99
207.405	2358.09
207.479	2376.51
207.553	2381.7
207.628	2367.62
207.702	2377.18
207.776	2372.75
207.851	2375.99
207.925	2392.42
207.999	2389.42
208.073	2383.47
208.148	2383.8
208.222	2376.52
208.296	2405.54
208.371	2422.74
208.445	2434.4
208.519	2461.91
208.593	2470.91
208.668	2468.48
208.742	2471.77
208.816	2472.48
208.89	2487.77
208.965	2486.34
209.039	2495.2
209.113	2512.82
209.187	2531.23
209.261	2533.47
209.336	2555.33
209.41	2579.14
209.484	2582.33
209.558	2606.82
209.632	2622.62
209.707	2638.53
209.781	2658.68
209.855	2683.89
209.929	2704.06
210.003	2713.35
210.077	2719.11
210.151	2774.76
210.226	2813.67
210.3	2845.58
210.374	2879.26
210.448	2892.41
210.522	2914.67
210.596	2935.51
210.67	2956.24
210.744	3017.04
210.818	3065.81
210.892	3105.02
210.966	3117.84
211.041	3155
211.115	3176.26
211.189	3220.48
211.263	3259.06
211.337	3294.12
211.411	3335.51
211.485	3360.24
211.559	3407.42
211.633	3448.35
211.707	3455.52
211.781	3502.34
211.855	3511.74
211.929	3548.92
212.003	3579.65
212.077	3638.08
212.151	3699.03
212.225	3765.82
212.299	3813.44
212.373	3858.93
212.447	3915.01
212.52	4007.83
212.594	4075.45
212.668	4154.76
212.742	4217.92
212.816	4286.69
212.89	4357.04
212.964	4435.2
213.038	4525.9
213.112	4619.05
213.186	4712.98
213.26	4779.29
213.333	4826.79
213.407	4927.69
213.481	5026.98
213.555	5138.39
213.629	5234.72
213.703	5327.31
213.777	5429.71
213.85	5516.3
213.924	5653.61
213.998	5762.67
214.072	5869.2
214.146	5972.88
214.219	6089.01
214.293	6203.2
214.367	6327.94
214.441	6460.33
214.515	6571.02
214.588	6670.53
214.662	6766.68
214.736	6875.89
214.81	7010.62
214.883	7148.89
214.957	7268.23
215.031	7386.15
215.105	7495.08
215.178	7607.24
215.252	7733.79
215.326	7842.9
215.4	7961.58
215.473	8054.24
215.547	8168.44
215.621	8283.74
215.694	8419.96
215.768	8528.81
215.842	8649.17
215.915	8772.83
215.989	8878.97
216.063	9004.09
216.136	9136.19
216.21	9264.39
216.284	9405.95
216.357	9538.9
216.431	9672.68
216.504	9803.53
216.578	9951.44
216.652	10086.63
216.725	10222.33
216.799	10362.77
216.873	10494.63
216.946	10626.15
217.02	10750.55
217.093	10871.92
217.167	10985.01
217.24	11093.83
217.314	11212.08
217.387	11331.25
217.461	11437.52
217.535	11574.2
217.608	11681.53
217.682	11806.75
217.755	11940.16
217.829	12051.94
217.902	12171.81
217.976	12289.86
218.049	12403.08
218.123	12501.85
218.196	12630.84
218.27	12727.44
218.343	12811.85
218.417	12919.3
218.49	13034.27
218.563	13150.59
218.637	13262.52
218.71	13386.65
218.784	13498.2
218.857	13617.56
218.931	13723.9
219.004	13831.69
219.077	13937.16
219.151	14041.57
219.224	14130.61
219.298	14222.44
219.371	14329.6
219.444	14415.65
219.518	14497.45
219.591	14590.92
219.665	14714.22
219.738	14798.2
219.811	14881.93
219.885	14982.14
219.958	15082.98
220.031	15162.95
220.105	15256.13
220.178	15350.51
220.251	15420.45
220.325	15500.75
220.398	15582.64
220.471	15670.95
220.544	15755.59
220.618	15815.65
220.691	15891.42
220.764	15972.92
220.838	16055.68
220.911	16115.44
220.984	16207.74
221.057	16292.91
221.131	16368.39
221.204	16413.26
221.277	16497.51
221.35	16602.24
221.424	16662.82
221.497	16726.58
221.57	16786.25
221.643	16849.15
221.716	16913.97
221.79	16974.21
221.863	17041.06
221.936	17095.32
222.009	17151.13
222.082	17213.98
222.155	17273.5
222.229	17345.74
222.302	17396.87
222.375	17443.28
222.448	17509.45
222.521	17558.94
222.594	17603.23
222.667	17646.32
222.74	17697.84
222.814	17743.47
222.887	17775.42
222.96	17836.29
223.033	17888.1
223.106	17935.08
223.179	17986.02
223.252	18027.95
223.325	18077.01
223.398	18119.51
223.471	18165
223.544	18210.98
223.617	18251.31
223.69	18286.25
223.763	18314.49
223.837	18350.49
223.91	18391.83
223.983	18413.13
224.056	18431.74
224.129	18464.99
224.202	18500.7
224.275	18529.23
224.348	18546.86
224.42	18568.26
224.493	18576.45
224.566	18585.51
224.639	18624.02
224.712	18642.18
224.785	18670.47
224.858	18697.7
224.931	18714.9
225.004	18726.85
225.077	18743.43
225.15	18743.43
225.223	18772.39
225.296	18814.99
225.369	18822.56
225.442	18838.7
225.514	18858.12
225.587	18873.4
225.66	18898.12
225.733	18921.15
225.806	18937.15
225.879	18955.27
225.952	18966.69
226.025	18994.74
226.097	19032.81
226.17	19047.89
226.243	19040.23
226.316	19050.06
226.389	19053.05
226.461	19072.13
226.534	19092.47
226.607	19106.64
226.68	19142.97
226.753	19159.45
226.825	19149.04
226.898	19175.59
226.971	19176.27
227.044	19198.2
227.117	19224.36
227.189	19241.42
227.262	19257.76
227.335	19273.71
227.407	19275.3
227.48	19287.54
227.553	19308.26
227.626	19304.94
227.698	19312.12
227.771	19333.37
227.844	19328.26
227.916	19344.4
227.989	19332.98
228.062	19333.8
228.134	19357.37
228.207	19360.07
228.28	19354.04
228.352	19354.52
228.425	19365.37
228.498	19387.1
228.57	19381.03
228.643	19391.15
228.716	19384.64
228.788	19377.65
228.861	19370.28
228.934	19390.86
229.006	19396.11
229.079	19392.16
229.151	19397.99
229.224	19392.26
229.296	19396.11
229.369	19422.13
229.442	19441.31
229.514	19449.27
229.587	19462.81
229.659	19442.9
229.732	19440.25
229.804	19455.72
229.877	19487.48
229.949	19502.23
230.022	19519.19
230.094	19517.36
230.167	19512.06
230.239	19504.68
230.312	19507.33
230.384	19532.63
230.457	19540.15
230.529	19542.51
230.602	19533.36
230.674	19530.61
230.747	19530.37
230.819	19538.22
230.892	19510.37
230.964	19509.07
231.037	19515.43
231.109	19511.82
231.181	19520.39
231.254	19512.35
231.326	19504.59
231.399	19495.72
231.471	19462.9
231.544	19434.28
231.616	19438.13
231.688	19443.15
231.761	19441.8
231.833	19429.36
231.905	19401.12
231.978	19382.96
232.05	19378.67
232.122	19380.69
232.195	19370.96
232.267	19374.72
232.339	19359.05
232.412	19360.16
232.484	19337.56
232.556	19310.72
232.629	19316.84
232.701	19311.44
232.773	19306.67
232.846	19293.32
232.918	19276.12
232.99	19275.83
233.062	19274.19
233.135	19269.03
233.207	19239.3
233.279	19230.43
233.351	19227.78
233.424	19222.68
233.496	19206.34
233.568	19207.06
233.64	19175.45
233.713	19156.32
233.785	19145.04
233.857	19142.15
233.929	19119.16
234.001	19120.51
234.074	19126.63
234.146	19099.6
234.218	19079.17
234.29	19059.75
234.362	19035.07
234.434	19011.22
234.507	18986.88
234.579	18957.49
234.651	18934.07
234.723	18922.84
234.795	18914.5
234.867	18895.71
234.939	18884.05
235.012	18858.99
235.084	18842.41
235.156	18837.01
235.228	18817.16
235.3	18790.37
235.372	18768.01
235.444	18767.33
235.516	18728.15
235.588	18706.42
235.66	18687.38
235.732	18655.29
235.804	18687.77
235.876	18686.47
235.948	18672.69
236.02	18650.42
236.092	18622.23
236.164	18602.57
236.236	18572.11
236.308	18528.5
236.38	18505.18
236.452	18470.05
236.524	18458.77
236.596	18442.77
236.668	18422.44
236.74	18403.06
236.812	18385.43
236.884	18366.68
236.956	18339.11
237.028	18308.75
237.1	18279.89
237.172	18262.73
237.244	18258.4
237.316	18194.11
237.388	18158.35
237.46	18122.64
237.532	18118.4
237.604	18088.57
237.675	18073.1
237.747	18063.66
237.819	18044.67
237.891	18024.09
237.963	17997.73
238.035	17965.83
238.107	17902.41
238.178	17893.25
238.25	17868.15
238.322	17856.19
238.394	17811.13
238.466	17776.63
238.538	17756.77
238.609	17738.75
238.681	17700.92
238.753	17668.29
238.825	17654.13
238.897	17632.1
238.968	17630.46
239.04	17588.44
239.112	17593.6
239.184	17557.84
239.255	17526.13
239.327	17502.22
239.399	17471.86
239.471	17454.9
239.542	17432.87
239.614	17424.92
239.686	17370.13
239.758	17346.9
239.829	17315.53
239.901	17307.43
239.973	17283.38
240.044	17262.66
240.116	17233.6
240.188	17207.52
240.259	17181.4
240.331	17139.04
240.403	17116.25
240.474	17064.53
240.546	17035.91
240.618	16991.66
240.689	16960.14
240.761	16936.67
240.833	16921.78
240.904	16897.11
240.976	16861.34
241.048	16832.52
241.119	16814.93
241.191	16799.27
241.262	16793.92
241.334	16760.52
241.405	16726.64
241.477	16701.43
241.549	16668.18
241.62	16643.84
241.692	16622.92
241.763	16600.27
241.835	16578.15
241.906	16547.64
241.978	16505.18
242.049	16488.41
242.121	16473.61
242.192	16461.7
242.264	16415.43
242.335	16373.02
242.407	16346.13
242.478	16316.68
242.55	16295.71
242.621	16253.54
242.693	16220.72
242.764	16191.22
242.836	16156.37
242.907	16129.86
242.979	16097.52
243.05	16072.56
243.122	16047.3
243.193	16005.56
243.264	15962.71
243.336	15925.89
243.407	15911.04
243.479	15910.46
243.55	15882.36
243.622	15844.77
243.693	15817.49
243.764	15809.15
243.836	15777.14
243.907	15746.63
243.978	15728.7
244.05	15707.01
244.121	15675.1
244.192	15657.22
244.264	15601.21
244.335	15577.79
244.407	15534.55
244.478	15517.78
244.549	15485.58
244.62	15443.84
244.692	15418.96
244.763	15397.85
244.834	15370.18
244.906	15330.27
244.977	15300.68
245.048	15285.93
245.119	15262.07
245.191	15215.65
245.262	15166.43
245.333	15158.62
245.405	15138.48
245.476	15107.39
245.547	15075.81
245.618	15050.84
245.689	15020.52
245.761	14999.99
245.832	14968.8
245.903	14946.43
245.974	14922.91
246.045	14896.16
246.117	14885.99
246.188	14847.04
246.259	14807.94
246.33	14778.78
246.401	14748.51
246.473	14706.09
246.544	14675.43
246.615	14653.84
246.686	14627.66
246.757	14619.42
246.828	14575.6
246.899	14562.49
246.97	14523.01
247.042	14492.64
247.113	14477.36
247.184	14472.88
247.255	14440.05
247.326	14415.56
247.397	14397.48
247.468	14360.89
247.539	14338.14
247.61	14302.76
247.681	14291.86
247.752	14278.56
247.823	14247.66
247.894	14226.5
247.965	14198.83
248.037	14172.6
248.108	14132.54
248.179	14108.92
248.25	14084.19
248.321	14069.97
248.392	14032.13
248.463	14026.78
248.534	13999.64
248.605	13977.13
248.675	13944.01
248.746	13932.73
248.817	13913.16
248.888	13897.93
248.959	13864.13
249.03	13850.92
249.101	13824.17
249.172	13795.68
249.243	13749.98
249.314	13743.13
249.385	13722.02
249.456	13702.35
249.527	13668.13
249.598	13647.59
249.669	13618.86
249.739	13600.06
249.81	13581.79
249.881	13543.03
249.952	13516.76
250.023	13494.44
250.094	13463.15
250.165	13434.37
250.235	13407.71
250.306	13395.08
250.377	13360.42
250.448	13345.53
250.519	13301.27
250.59	13288.11
250.66	13264.97
250.731	13263.67
250.802	13231.9
250.873	13207.32
250.944	13193.92
251.014	13172.75
251.085	13174.68
251.156	13159.21
251.227	13145.23
251.297	13135.2
251.368	13126.62
251.439	13116.11
251.51	13103.87
251.58	13069.79
251.651	13045.63
251.722	13036.09
251.792	12990.39
251.863	12966.09
251.934	12958.48
252.005	12962.72
252.075	12946.86
252.146	12933.65
252.217	12921.65
252.287	12903.47
252.358	12880.53
252.429	12872
252.499	12843.31
252.57	12827.45
252.641	12819.5
252.711	12794.82
252.782	12757.36
252.852	12761.75
252.923	12739.82
252.994	12721.26
253.064	12711.47
253.135	12677.2
253.205	12646.83
253.276	12640.9
253.347	12635.6
253.417	12611.25
253.488	12590.77
253.558	12561.12
253.629	12539.33
253.699	12525.69
253.77	12529.45
253.841	12509.74
253.911	12489.54
253.982	12475.12
254.052	12458.45
254.123	12446.73
254.193	12430.39
254.264	12449.62
254.334	12410.43
254.405	12376.21
254.475	12342.47
254.546	12329.6
254.616	12328.39
254.687	12314.9
254.757	12305.64
254.827	12282.65
254.898	12264.38
254.968	12242.11
255.039	12219.07
255.109	12211.79
255.18	12189.47
255.25	12146.86
255.321	12141.37
255.391	12108.35
255.461	12114.56
255.532	12074.51
255.602	12042.69
255.673	12007.12
255.743	11975.45
255.813	11936.27
255.884	11934.43
255.954	11925.52
256.024	11924.7
256.095	11902.62
256.165	11870.23
256.235	11852.74
256.306	11828.15
256.376	11821.69
256.446	11812.44
256.517	11802.37
256.587	11790.03
256.657	11766.7
256.728	11744.77
256.798	11719.66
256.868	11703.17
256.938	11676.33
257.009	11662.97
257.079	11652.37
257.149	11660.23
257.219	11621.72
257.29	11612.03
257.36	11575.98
257.43	11570.72
257.5	11533.56
257.571	11517.71
257.641	11517.27
257.711	11492.36
257.781	11485.37
257.852	11467.2
257.922	11426.08
257.992	11409.55
258.062	11390.76
258.132	11386.42
258.202	11372.25
258.273	11361.65
258.343	11362.23
258.413	11332.68
258.483	11318.85
258.553	11293.89
258.623	11266.94
258.693	11253.5
258.764	11247.72
258.834	11250.7
258.904	11229.93
258.974	11203.14
259.044	11184.68
259.114	11167.62
259.184	11148.01
259.254	11128.1
259.324	11092.83
259.394	11082.75
259.464	11078.51
259.535	11062.61
259.605	11040.3
259.675	11015.24
259.745	11004.11
259.815	10979.09
259.885	10960.64
259.955	10973.7
260.025	10950.14
260.095	10933.99
260.165	10928.36
260.235	10934.19
260.305	10907.2
260.375	10881.23
260.445	10889.32
260.515	10889.03
260.585	10879.73
260.655	10874.05
260.725	10864.26
260.795	10862.67
260.865	10867.78
260.934	10843.64
261.004	10830.77
261.074	10816.7
261.144	10823.35
261.214	10815.45
261.284	10793.14
261.354	10786.3
261.424	10752.85
261.494	10755.94
261.564	10740.9
261.634	10731.41
261.703	10693.68
261.773	10678.17
261.843	10677.25
261.913	10660.48
261.983	10629.45
262.053	10620.2
262.123	10600.16
262.192	10578.81
262.262	10568.35
262.332	10537.57
262.402	10524.56
262.472	10511.21
262.541	10469.01
262.611	10456
262.681	10425.93
262.751	10424.73
262.821	10406.08
262.89	10374.04
262.96	10366.43
263.03	10369.52
263.1	10354.72
263.169	10343.69
263.239	10334.63
263.309	10331.07
263.379	10316.13
263.448	10298.69
263.518	10290.55
263.588	10276.19
263.657	10281.35
263.727	10273.26
263.797	10256.06
263.867	10240.3
263.936	10214.05
264.006	10218.38
264.076	10203.98
264.145	10191.74
264.215	10169.29
264.285	10170.4
264.354	10148.53
264.424	10126.76
264.494	10096.31
264.563	10074.92
264.633	10079.11
264.702	10072.8
264.772	10039.18
264.842	10026.65
264.911	10024.68
264.981	9995.14
265.05	9979.35
265.12	9957.04
265.19	9947.98
265.259	9944.42
265.329	9943.17
265.398	9930.5
265.468	9946.16
265.537	9927.08
265.607	9914.65
265.676	9910.32
265.746	9892.64
265.815	9892.78
265.885	9879.49
265.955	9853.24
266.024	9837.25
266.094	9799.68
266.163	9800.07
266.232	9807.78
266.302	9784.51
266.371	9768.62
266.441	9755.23
266.51	9754.12
266.58	9739.09
266.649	9717.37
266.719	9716.84
266.788	9705.04
266.858	9710.87
266.927	9671.85
266.996	9661.55
267.066	9655.48
267.135	9628.12
267.205	9622.44
267.274	9608.81
267.343	9611.03
267.413	9603.28
267.482	9602.36
267.552	9613.82
267.621	9582.52
267.69	9549.67
267.76	9542.64
267.829	9535.03
267.898	9524.05
267.968	9500.74
268.037	9490.44
268.106	9483.46
268.176	9459.86
268.245	9448.68
268.314	9433.22
268.384	9435.97
268.453	9426.82
268.522	9420.9
268.592	9428.22
268.661	9418.39
268.73	9407.27
268.799	9381.12
268.869	9390.56
268.938	9368.17
269.007	9344.33
269.076	9334.41
269.146	9333.45
269.215	9330.61
269.284	9330.18
269.353	9313.71
269.422	9307.21
269.492	9295.6
269.561	9260.36
269.63	9257.42
269.699	9243.84
269.768	9233.4
269.838	9222.61
269.907	9220.83
269.976	9199.02
270.045	9163.63
270.114	9152.85
270.183	9147.36
270.253	9146.01
270.322	9121.17
270.391	9115.87
270.46	9121.02
270.529	9127.14
270.598	9124.39
270.667	9111.87
270.736	9089.87
270.806	9087.17
270.875	9082.12
270.944	9066.81
271.013	9088.67
271.082	9075.81
271.151	9066.71
271.22	9034.85
271.289	9020.5
271.358	9004.28
271.427	9000.04
271.496	8999.46
271.565	8980.4
271.634	8966.29
271.703	8984.21
271.772	8985.84
271.841	8968.13
271.91	8943.34
271.979	8929.81
272.048	8908.72
272.117	8906.03
272.186	8893.56
272.255	8895.58
272.324	8888.65
272.393	8885.14
272.462	8868.19
272.531	8858.8
272.6	8848.12
272.669	8860.53
272.738	8852.74
272.807	8848.98
272.876	8827.76
272.945	8846.38
273.013	8850.04
273.082	8857.94
273.151	8817.83
273.22	8807.68
273.289	8801.13
273.358	8807.29
273.427	8798.44
273.496	8795.74
273.564	8791.75
273.633	8797.04
273.702	8776.25
273.771	8769.22
273.84	8764.94
273.909	8758.82
273.977	8755.07
274.046	8745.39
274.115	8748.81
274.184	8732.16
274.253	8727.25
274.322	8736.68
274.39	8710.45
274.459	8692.69
274.528	8663.81
274.597	8654.77
274.665	8654.29
274.734	8661.46
274.803	8650.72
274.872	8640.52
274.94	8630.03
275.009	8657.04
275.078	8643.85
275.147	8638.22
275.215	8635.24
275.284	8640.87
275.353	8636.97
275.421	8617.57
275.49	8630.19
275.559	8616.76
275.627	8610.12
275.696	8600.25
275.765	8595.63
275.833	8584.52
275.902	8591.49
275.971	8604.68
276.039	8620.03
276.108	8623.21
276.177	8617.67
276.245	8609.35
276.314	8610.45
276.383	8616.18
276.451	8582.05
276.52	8590.28
276.588	8606.4
276.657	8609.77
276.725	8599.85
276.794	8593.21
276.863	8604.95
276.931	8582.67
277	8589.17
277.068	8602.69
277.137	8613.04
277.205	8611.06
277.274	8625.74
277.342	8628.63
277.411	8603.99
277.48	8588.3
277.548	8579.79
277.617	8582.24
277.685	8575.94
277.754	8577.67
277.822	8563.62
277.89	8571.7
277.959	8560.2
278.027	8542.06
278.096	8528.1
278.164	8551.16
278.233	8547.12
278.301	8536.29
278.37	8537.16
278.438	8518.96
278.507	8517.86
278.575	8495.19
278.643	8491.39
278.712	8474.12
278.78	8462.08
278.849	8476.57
278.917	8482.77
278.985	8473
279.054	8470.65
279.122	8480.66
279.191	8473.53
279.259	8474.78
279.327	8452.26
279.396	8462.56
279.464	8457.94
279.532	8464.97
279.601	8459.62
279.669	8456.06
279.737	8469.01
279.806	8475.79
279.874	8492.11
279.942	8487.82
280.011	8488.54
280.079	8497.69
280.147	8510.34
280.215	8514.48
280.284	8513.37
280.352	8503.46
280.42	8511.59
280.488	8513.42
280.557	8505.48
280.625	8509.24
280.693	8509.24
280.761	8514.38
280.83	8500.14
280.898	8518.91
280.966	8504.09
281.034	8469.73
281.102	8451.88
281.171	8444.76
281.239	8453.76
281.307	8442.64
281.375	8434.6
281.443	8455.59
281.512	8447.79
281.58	8452.46
281.648	8439.99
281.716	8440.96
281.784	8441.73
281.852	8435.23
281.92	8429.65
281.989	8442.55
282.057	8432.87
282.125	8468.3
282.193	8470.56
282.261	8471.28
282.329	8462.09
282.397	8468.05
282.465	8473.97
282.533	8491.39
282.601	8481.28
282.67	8466.22
282.738	8455.63
282.806	8462.71
282.874	8451.83
282.942	8455.73
283.01	8454.67
283.078	8459.29
283.146	8459.63
283.214	8472.04
283.282	8477.43
283.35	8483.88
283.418	8478.2
283.486	8474.35
283.554	8439.26
283.622	8434.26
283.69	8430.22
283.758	8422.52
283.826	8428.92
283.894	8443.36
283.962	8464.77
284.03	8473.05
284.098	8467.13
284.165	8464.53
284.233	8464.72
284.301	8457.55
284.369	8444.85
284.437	8433.88
284.505	8427.29
284.573	8432.87
284.641	8413.96
284.709	8411.12
284.777	8388.65
284.845	8388.84
284.912	8395.29
284.98	8397.16
285.048	8395.19
285.116	8398.46
285.184	8409.92
285.252	8402.46
285.319	8386.34
285.387	8382.34
285.455	8373.83
285.523	8380.37
285.591	8373.54
285.659	8375.7
285.726	8383.79
285.794	8374.26
285.862	8372.43
285.93	8372.96
285.997	8366.95
286.065	8365.31
286.133	8360.5
286.201	8367.14
286.269	8358.29
286.336	8349.24
286.404	8340.48
286.472	8350.01
286.539	8328.7
286.607	8310.75
286.675	8312.73
286.743	8312.58
286.81	8294.15
286.878	8303.15
286.946	8296.22
287.013	8302.38
287.081	8295.4
287.149	8285.82
287.216	8306.42
287.284	8303.96
287.352	8303.05
287.419	8299.78
287.487	8312.24
287.555	8315.75
287.622	8307.77
287.69	8312.34
287.758	8318.25
287.825	8318.16
287.893	8304.73
287.96	8312.43
288.028	8325.66
288.096	8327.87
288.163	8336.39
288.231	8324.75
288.298	8325.47
288.366	8335.43
288.433	8334.52
288.501	8329.8
288.569	8333.89
288.636	8323.88
288.704	8332.93
288.771	8344.19
288.839	8336.1
288.906	8325.57
288.974	8331.73
289.041	8333.12
289.109	8324.75
289.176	8340
289.244	8339.43
289.311	8343.81
289.379	8359.92
289.446	8353.91
289.514	8353.67
289.581	8348.13
289.649	8357.9
289.716	8353.47
289.783	8345
289.851	8360.35
289.918	8364.25
289.986	8367.86
290.053	8371.85
290.121	8374.35
290.188	8370.41
290.255	8393.99
290.323	8393.31
290.39	8392.88
290.458	8397.45
290.525	8407.84
290.592	8395.14
290.66	8403.7
290.727	8403.7
290.794	8412.36
290.862	8412.51
290.929	8413.86
290.996	8411.35
291.064	8417.27
291.131	8434.45
291.198	8447.73
291.266	8443.16
291.333	8441.91
291.4	8446.05
291.468	8460.82
291.535	8453.9
291.602	8458.27
291.669	8447.83
291.737	8453.61
291.804	8452.84
291.871	8465.54
291.938	8467.8
292.006	8497.5
292.073	8502.12
292.14	8509.09
292.207	8501.39
292.275	8507.6
292.342	8515.16
292.409	8545.19
292.476	8568.19
292.543	8556.55
292.611	8552.26
292.678	8569.88
292.745	8595.53
292.812	8608.62
292.879	8608.38
292.946	8610.21
293.014	8622.43
293.081	8633.74
293.148	8644.76
293.215	8655.01
293.282	8653.95
293.349	8664.49
293.416	8643.31
293.484	8660.4
293.551	8671.71
293.618	8684.37
293.685	8708.38
293.752	8705.69
293.819	8699.91
293.886	8685.62
293.953	8695.43
294.02	8711.99
294.087	8716.08
294.154	8708.04
294.221	8715.99
294.288	8716.52
294.356	8733.79
294.423	8741.98
294.49	8738.03
294.557	8750.35
294.624	8743.95
294.691	8762.09
294.758	8764.79
294.825	8770.61
294.892	8763.1
294.959	8758.24
295.026	8762.91
295.093	8751.26
295.16	8749.72
295.226	8749.1
295.293	8776.92
295.36	8778.32
295.427	8781.69
295.494	8793.29
295.561	8799.26
295.628	8818.61
295.695	8829.92
295.762	8837.77
295.829	8847.69
295.896	8861.89
295.963	8871.9
296.03	8879.89
296.096	8881.43
296.163	8887.45
296.23	8902.75
296.297	8915.94
296.364	8919.65
296.431	8927.01
296.498	8922.34
296.564	8937.94
296.631	8944.29
296.698	8925.13
296.765	8942.03
296.832	8933.65
296.899	8924.26
296.965	8948.58
297.032	8926.14
297.099	8938.22
297.166	8940.34
297.233	8931.92
297.299	8926.38
297.366	8925.9
297.433	8926.62
297.5	8938.51
297.566	8943.47
297.633	8942.89
297.7	8945.25
297.767	8943.62
297.833	8950.45
297.9	8955.41
297.967	8946.36
298.033	8957.82
298.1	8982.66
298.167	8974.43
298.234	8979.53
298.3	8985.21
298.367	8973.75
298.434	8977.94
298.5	8971.68
298.567	8965.67
298.634	8965.09
298.7	8977.84
298.767	8977.41
298.834	8991.42
298.9	8982.27
298.967	8969.8
299.033	8973.17
299.1	8984.83
299.167	8992.57
299.233	8988.53
299.3	9001.48
299.366	9017.56
299.433	9030.56
299.5	9005.62
299.566	9008.99
299.633	9021.51
299.699	9033.25
299.766	9030.61
299.832	9037.39
299.899	9045.48
299.965	9059.83
300.032	9061.61
300.099	9065.41
300.165	9066.86
300.232	9065.61
300.298	9065.03
300.365	9082.26
300.431	9086.5
300.498	9082.36
300.564	9095.74
300.631	9103.78
300.697	9113.22
300.763	9112.06
300.83	9109.51
300.896	9127.13
300.963	9144.51
301.029	9148.12
301.096	9148.51
301.162	9158.76
301.229	9156.55
301.295	9139.12
301.361	9133.78
301.428	9131.27
301.494	9120.01
301.561	9119.29
301.627	9114.23
301.693	9119.62
301.76	9117.26
301.826	9114.95
301.892	9117.41
301.959	9120.68
302.025	9114.52
302.092	9109.8
302.158	9116.25
302.224	9113.65
302.291	9102.34
302.357	9083.85
302.423	9078.55
302.49	9068.59
302.556	9074.46
302.622	9073.35
302.688	9086.98
302.755	9098.15
302.821	9106.52
302.887	9115.24
302.954	9119.72
303.02	9128.14
303.086	9129.49
303.152	9126.07
303.219	9124.39
303.285	9128.91
303.351	9134.64
303.417	9133.1
303.483	9125.4
303.55	9115.38
303.616	9110.38
303.682	9108.36
303.748	9104.94
303.815	9117.46
303.881	9128.1
303.947	9113.99
304.013	9114.86
304.079	9107.97
304.145	9086.26
304.212	9084.19
304.278	9077.06
304.344	9069.65
304.41	9054.73
304.476	9045.87
304.542	9040.96
304.608	9037.78
304.674	9020.11
304.741	9005.67
304.807	9008.65
304.873	9012.26
304.939	9023.72
305.005	9006.63
305.071	9004.66
305.137	9011.64
305.203	8986.84
305.269	8978.95
305.335	8990.36
305.401	8987.9
305.467	8986.22
305.533	9000.51
305.599	8994.83
305.666	8997.96
305.732	8996.28
305.798	9010.77
305.864	9031.61
305.93	9036.81
305.996	9037.82
306.062	9037.73
306.128	9039.17
306.194	9027.47
306.259	9020.54
306.325	9007.26
306.391	9019.92
306.457	9024.83
306.523	9023.77
306.589	9044.28
306.655	9031.9
306.721	9007.69
306.787	8994.55
306.853	9004.08
306.919	8981.07
306.985	8979.19
307.051	8971.64
307.117	8966.24
307.183	8952.38
307.248	8918.87
307.314	8923.59
307.38	8926.43
307.446	8931.15
307.512	8923.4
307.578	8924.65
307.644	8924.46
307.709	8925.23
307.775	8913.39
307.841	8911.6
307.907	8912.38
307.973	8890.09
308.039	8894.85
308.104	8902.7
308.17	8904.24
308.236	8892.54
308.302	8899.57
308.368	8884.16
308.433	8882.38
308.499	8874.87
308.565	8861.88
308.631	8866.4
308.696	8843.39
308.762	8826.06
308.828	8816.34
308.894	8792.32
308.959	8767.59
309.025	8754.88
309.091	8751.99
309.156	8747.42
309.222	8747.03
309.288	8727.83
309.354	8709.06
309.419	8703.33
309.485	8686.05
309.551	8684.27
309.616	8663.86
309.682	8656.74
309.748	8651.78
309.813	8642.35
309.879	8632.63
309.945	8626.18
310.01	8621.51
310.076	8621.51
310.141	8611.16
310.207	8598.89
310.273	8598.46
310.338	8612.32
310.404	8593.36
310.469	8577.67
310.535	8560.54
310.601	8530.17
310.666	8538.73
310.732	8545.47
310.797	8533.63
310.863	8528.19
310.928	8519.53
310.994	8518.62
311.059	8520.2
311.125	8518.09
311.191	8528.63
311.256	8518.38
311.322	8521.22
311.387	8501.73
311.453	8873.67
311.518	8850.76
311.584	8845.28
311.649	8848.45
311.715	8832.96
311.78	8834.4
311.846	8828.77
311.911	8834.6
311.976	8836.28
312.042	8816.93
312.107	8803.84
312.173	8790.18
312.238	8779.93
312.304	8773.87
312.369	8766.5
312.434	8752.07
312.5	8741.92
312.565	8712.37
312.631	8713.14
312.696	8698.85
312.761	8703.42
312.827	8319.74
312.892	8354.39
312.958	8350.15
313.023	8353.81
313.088	8346.88
313.154	8333.6
313.219	8320.13
313.284	8310.03
313.35	8307.91
313.415	8295.02
313.48	8288.38
313.546	8286.98
313.611	8298.72
313.676	8288.71
313.741	8280.63
313.807	8284.34
313.872	8290.06
313.937	8293.43
314.003	8303.49
314.068	8307.72
314.133	8310.27
314.198	8298.96
314.264	8279.57
314.329	8268.5
314.394	8257.34
314.459	8255.08
314.525	8273.12
314.59	8270.04
314.655	8260.9
314.72	8267.59
314.785	8264.99
314.851	8256.62
314.916	8245.56
314.981	8220.44
315.046	8208.32
315.111	8199.28
315.176	8188.12
315.242	8188.5
315.307	8184.65
315.372	8165.26
315.437	8157.9
315.502	8144.72
315.567	8152.47
315.632	8137.02
315.698	8138.18
315.763	8130.38
315.828	8120.19
315.893	8115.86
315.958	8107.78
316.023	8094.31
316.088	8070.69
316.153	8055.3
316.218	8047.84
316.283	8027.16
316.348	8014.47
316.413	8014.61
316.479	7999.8
316.544	7963.49
316.609	7933.72
316.674	7900.78
316.739	7872.26
316.804	7838.35
316.869	7806.04
316.934	7770.16
316.999	7744.58
317.064	7703.08
317.129	7666.15
317.194	7637.69
317.259	7590.08
317.324	7548.35
317.389	7506.05
317.454	7472.3
317.518	7443.6
317.583	7419.66
317.648	7396.59
317.713	7363.43
317.778	7310.02
317.843	7286.18
317.908	7253.41
317.973	7216.69
318.038	7191.7
318.103	7151.72
318.168	7123.66
318.233	7095.11
318.297	7051.39
318.362	7018.85
318.427	6980.95
318.492	6960.43
318.557	6913.98
318.622	6888.81
318.687	6870.51
318.751	6840.25
318.816	6807.68
318.881	6775.55
318.946	6722.38
319.011	6687.47
319.075	6655.68
319.14	6619.14
319.205	6571.93
319.27	6543.27
319.335	6498.09
319.399	6453.45
319.464	6428
319.529	6380.15
319.594	6343.85
319.658	6315.67
319.723	6270.99
319.788	6244.69
319.853	6191.21
319.917	6165.01
319.982	6113.42
320.047	6077.95
320.112	6053.15
320.176	6004.93
320.241	5969.23
320.306	5946.35
320.37	5907.01
320.435	5874.87
320.5	5850.69
320.564	5815.92
320.629	5780.1
320.694	5753.92
320.758	5719.83
320.823	5677.87
320.888	5652.65
320.952	5605.28
321.017	5563.24
321.082	5526.37
321.146	5492.19
321.211	5458.69
321.275	5420.92
321.34	5383.12
321.405	5339.02
321.469	5291.29
321.534	5255.8
321.598	5207.55
321.663	5180.95
321.727	5151.29
321.792	5104.82
321.857	5060.32
321.921	5022.58
321.986	4980.1
322.05	4929.68
322.115	4897.55
322.179	4858.96
322.244	4804.35
322.308	4778.69
322.373	4733.5
322.437	4698.13
322.502	4671.84
322.566	4629.53
322.631	4596.99
322.695	4558.43
322.76	4516.23
322.824	4485.18
322.889	4447.3
322.953	4405.74
323.018	4342.49
323.082	4283.57
323.146	4237.53
323.211	4191.92
323.275	4154.52
323.34	4115.04
323.404	4083.02
323.468	4039.75
323.533	3997.07
323.597	3958.38
323.662	3908.91
323.726	3879.72
323.79	3835.85
323.855	3773.49
323.919	3730.21
323.983	3685.4
324.048	3624.26
324.112	3779.35
324.177	3662.33
324.241	3472.68
324.305	3290.72
324.37	3108.48
324.434	2932.06
324.498	2894.32
324.562	2850.97
324.627	2795.39
324.691	2743.83
324.755	2684.14
324.82	2616.15
324.884	2550.27
324.948	2488.28
325.012	2404.02
325.077	2293.69
