Data from 20250625_urea_1M_1_MAYP1162681_19-45-05-594.txt Node
Date: Wed Jun 25 19:45:05 BST 2025
User: adleo
Spectrometer: MAYP116268
Trigger mode: 0
Integration Time (sec): 1.000000E0
Scans to average: 1
Electric dark correction enabled: true
Nonlinearity correction enabled: true
Boxcar width: 10
XAxis mode: Wavelengths
Number of Pixels in Spectrum: 2068
>>>>>Begin Spectral Data<<<<<
179.565	1184.71
179.642	1238.66
179.718	1279.17
179.795	1318.66
179.871	1350.1
179.948	1366.88
180.024	1387.14
180.101	1411.31
180.177	1424.84
180.254	1443.26
180.33	1462.35
180.407	1514.33
180.483	1606.93
180.56	1695.06
180.636	1777.66
180.712	1764.02
180.789	1770.91
180.865	1781.41
180.942	1790.11
181.018	1801.32
181.095	1814.26
181.171	1818.34
181.248	1821.43
181.324	1837.41
181.4	1842.97
181.477	1852.14
181.553	1863.83
181.63	1883.8
181.706	1896.78
181.782	1905.24
181.859	1908.09
181.935	1915.7
182.011	1911.28
182.088	1930.06
182.164	1949.23
182.24	1960.59
182.317	1968.81
182.393	1969.33
182.469	1982.65
182.546	1997.05
182.622	2001.71
182.698	1995.77
182.775	2009.61
182.851	2021.45
182.927	2014.22
183.003	2009.8
183.08	2004.9
183.156	2016.5
183.232	2013.94
183.308	2001.57
183.385	2008.37
183.461	2026.06
183.537	2025.54
183.613	2038.95
183.69	2027.11
183.766	2016.83
183.842	2026.3
183.918	2032.67
183.995	2042.51
184.071	2046.89
184.147	2040.61
184.223	2031.72
184.299	2046.42
184.375	2035.91
184.452	2042.66
184.528	2099.95
184.604	2110.65
184.68	2124.54
184.756	2131.34
184.832	2135.67
184.908	2142.23
184.985	2143.8
185.061	2126.58
185.137	2138.67
185.213	2128.96
185.289	2130.72
185.365	2122.31
185.441	2119.88
185.517	2133.82
185.593	2131.59
185.669	2127.07
185.745	2137.44
185.822	2148.7
185.898	2140.05
185.974	2146.85
186.05	2137.57
186.126	2094.64
186.202	2087.51
186.278	2082.42
186.354	2072.1
186.43	2080.47
186.506	2079.28
186.582	2075.48
186.658	2082.28
186.734	2060.83
186.81	2060.74
186.886	2064.21
186.962	2075
187.038	2070.15
187.114	2060.87
187.19	2067.39
187.266	2059.68
187.341	2060.83
187.417	2054.55
187.493	2053.98
187.569	2058.59
187.645	2053.31
187.721	2040.61
187.797	2048.03
187.873	2051.31
187.949	2042.71
188.025	2034.1
188.101	2035.43
188.176	2040.56
188.252	2037.42
188.328	2045.36
188.404	2045.22
188.48	2041.94
188.556	2034.33
188.632	2035.71
188.707	2037.61
188.783	2034.9
188.859	2030.38
188.935	2018.4
189.011	2028.62
189.086	2022.2
189.162	2015.26
189.238	2013.88
189.314	2014.4
189.39	2010.55
189.465	2007.7
189.541	2029
189.617	2015.83
189.693	2011.17
189.768	2016.88
189.844	2038.62
189.92	2029.54
189.996	2039.96
190.071	2049.71
190.147	2051.71
190.223	2060.08
190.298	2052.13
190.374	2039.2
190.45	2051.89
190.526	2060.5
190.601	2056.79
190.677	2057.51
190.753	2083.92
190.828	2086.35
190.904	2100.43
190.98	2114.13
191.055	2120.17
191.131	2109.08
191.207	2125.06
191.282	2135.67
191.358	2125.01
191.433	2114.12
191.509	2129.33
191.585	2125.1
191.66	2124.14
191.736	2131.8
191.811	2123.15
191.887	2138.61
191.963	2162.63
192.038	2167.77
192.114	2168.86
192.189	2170.72
192.265	2168.72
192.34	2144.68
192.416	2147.16
192.491	2142.92
192.567	2146.44
192.642	2148.68
192.718	2149.44
192.793	2139.55
192.869	2134.46
192.944	2135.84
193.02	2141.21
193.095	2145.26
193.171	2151.16
193.246	2153.77
193.322	2151.44
193.397	2152.92
193.473	2139.64
193.548	2122.28
193.624	2124.65
193.699	2121.75
193.775	2135.08
193.85	2133.84
193.925	2142.5
194.001	2139.03
194.076	2129.09
194.152	2116.19
194.227	2110.77
194.302	2101.78
194.378	2103.64
194.453	2100.12
194.529	2113.48
194.604	2099.88
194.679	2094.22
194.755	2075.77
194.83	2084.05
194.905	2082.34
194.981	2090.28
195.056	2083.91
195.131	2090.38
195.207	2088.9
195.282	2079.96
195.357	2061.83
195.433	2079.91
195.508	2066.82
195.583	2076.86
195.659	2093.08
195.734	2101.98
195.809	2098.65
195.884	2106.21
195.96	2107.83
196.035	2123.62
196.11	2120.62
196.185	2133.7
196.261	2135.32
196.336	2167.57
196.411	2154.63
196.486	2157.06
196.561	2151.11
196.637	2161.43
196.712	2175.09
196.787	2180.28
196.862	2195.54
196.937	2204.11
197.013	2211.48
197.088	2221.61
197.163	2241.37
197.238	2260.8
197.313	2260.99
197.388	2275.55
197.464	2305.21
197.539	2320.96
197.614	2314.91
197.689	2326.19
197.764	2337.9
197.839	2358.13
197.914	2352.27
197.989	2376.79
198.065	2391.68
198.14	2441.79
198.215	2465.03
198.29	2477.03
198.365	2488.74
198.44	2500.4
198.515	2527.88
198.59	2540.92
198.665	2569.69
198.74	2577.74
198.815	2573.4
198.89	2595.35
198.965	2624.46
199.04	2619.89
199.115	2632.84
199.19	2674.52
199.265	2680.9
199.34	2693.28
199.415	2725.88
199.49	2745.12
199.565	2749.98
199.64	2775.28
199.715	2771.51
199.79	2780.23
199.865	2788.09
199.94	2785.24
200.015	2816.5
200.09	2822.31
200.165	2831.89
200.24	2836.8
200.315	2876.06
200.39	2892.74
200.464	2899.7
200.539	2900.75
200.614	2920.76
200.689	2940.26
200.764	2946.55
200.839	2962.08
200.914	2965.52
200.989	2954.69
201.063	2968.71
201.138	2956.32
201.213	2956.18
201.288	2937.92
201.363	2943.74
201.438	2943.64
201.512	2961.32
201.587	2942.06
201.662	2950.54
201.737	2959.27
201.812	2967.04
201.886	2933.69
201.961	2944.33
202.036	2931.32
202.111	2928.22
202.186	2896.92
202.26	2883.24
202.335	2866.51
202.41	2862.55
202.485	2848.4
202.559	2830.86
202.634	2805.37
202.709	2811.13
202.784	2791.21
202.858	2792.45
202.933	2773.44
203.008	2765.91
203.082	2746.66
203.157	2748.43
203.232	2706.32
203.306	2685.73
203.381	2655.85
203.456	2634.61
203.53	2609.86
203.605	2590.39
203.68	2569.38
203.754	2562.05
203.829	2545.71
203.904	2522.47
203.978	2507.56
204.053	2511.57
204.127	2498.47
204.202	2496.09
204.277	2481.47
204.351	2476.67
204.426	2469.04
204.5	2459.43
204.575	2425.97
204.65	2435.49
204.724	2426.44
204.799	2433.77
204.873	2428.43
204.948	2425.91
205.022	2411.63
205.097	2402.34
205.171	2415.67
205.246	2425.67
205.32	2427.82
205.395	2428.62
205.469	2421.96
205.544	2426.3
205.618	2407.3
205.693	2416.49
205.767	2404.35
205.842	2427.73
205.916	2420.93
205.991	2409.36
206.065	2416.93
206.14	2432.67
206.214	2428.29
206.289	2420.96
206.363	2431.81
206.438	2435.81
206.512	2444.29
206.586	2464.76
206.661	2475.86
206.735	2453.63
206.81	2454.3
206.884	2469.25
206.958	2457.35
207.033	2470.77
207.107	2478.39
207.181	2512.11
207.256	2509.45
207.33	2528.49
207.405	2537.78
207.479	2556.5
207.553	2567.35
207.628	2551.03
207.702	2565.74
207.776	2559.59
207.851	2564.5
207.925	2578.7
207.999	2574.41
208.073	2569.51
208.148	2572.08
208.222	2558.5
208.296	2589.54
208.371	2603.84
208.445	2619.56
208.519	2647.27
208.593	2662.71
208.668	2660.94
208.742	2664.57
208.816	2668.71
208.89	2685.58
208.965	2687.87
209.039	2697.92
209.113	2715.79
209.187	2740.79
209.261	2737.26
209.336	2760.85
209.41	2786.82
209.484	2795.69
209.558	2827.05
209.632	2847.39
209.707	2862.26
209.781	2893.8
209.855	2919.64
209.929	2945.93
210.003	2951.84
210.077	2963.86
210.151	3021.65
210.226	3068.01
210.3	3111.45
210.374	3150.45
210.448	3171.25
210.522	3197.01
210.596	3229.46
210.67	3266.24
210.744	3336.55
210.818	3396.08
210.892	3447.64
210.966	3475.51
211.041	3519.38
211.115	3550.84
211.189	3609.89
211.263	3672.54
211.337	3725.93
211.411	3791.34
211.485	3839.58
211.559	3914.96
211.633	3976.9
211.707	4008.75
211.781	4082.9
211.855	4116.57
211.929	4182.34
212.003	4243.72
212.077	4338.89
212.151	4440.29
212.225	4533.62
212.299	4615.33
212.373	4701.48
212.447	4795.92
212.52	4924.32
212.594	5041.93
212.668	5172.85
212.742	5283.97
212.816	5402.17
212.89	5522.1
212.964	5645.13
213.038	5779.54
213.112	5926.79
213.186	6080.82
213.26	6205.2
213.333	6309.5
213.407	6464.6
213.481	6626.13
213.555	6803.18
213.629	6946.74
213.703	7088.49
213.777	7250.55
213.85	7403.89
213.924	7612.75
213.998	7791.05
214.072	7963.98
214.146	8128.14
214.219	8301.1
214.293	8486.71
214.367	8675.4
214.441	8874.41
214.515	9060.85
214.588	9230.55
214.662	9397
214.736	9577.28
214.81	9787.78
214.883	9998.59
214.957	10189.84
215.031	10376.77
215.105	10543.83
215.178	10734.8
215.252	10938.61
215.326	11120.07
215.4	11303.22
215.473	11460.29
215.547	11643.72
215.621	11835.11
215.694	12044.77
215.768	12228.74
215.842	12416.05
215.915	12604.56
215.989	12783.15
216.063	12968.98
216.136	13164.63
216.21	13354.94
216.284	13558.99
216.357	13753.01
216.431	13940.14
216.504	14133.39
216.578	14341.87
216.652	14542.3
216.725	14737.86
216.799	14924.21
216.873	15116.64
216.946	15306.27
217.02	15482.78
217.093	15663.58
217.167	15819.56
217.24	15975.58
217.314	16150.35
217.387	16310.23
217.461	16471.98
217.535	16648.28
217.608	16795.62
217.682	16960.59
217.755	17127.83
217.829	17272.75
217.902	17428.17
217.976	17587.93
218.049	17739.6
218.123	17874.24
218.196	18024.89
218.27	18158.34
218.343	18286.28
218.417	18418.47
218.49	18547.67
218.563	18694.03
218.637	18833.64
218.71	18988.09
218.784	19126.83
218.857	19259.26
218.931	19391.25
219.004	19515.73
219.077	19634.86
219.151	19764.49
219.224	19887.81
219.298	19997.93
219.371	20116.77
219.444	20207.37
219.518	20310.26
219.591	20419.56
219.665	20552.58
219.738	20658.03
219.811	20755.86
219.885	20863.58
219.958	20968.4
220.031	21072.75
220.105	21163.07
220.178	21251.8
220.251	21328.34
220.325	21415.53
220.398	21488.41
220.471	21569.14
220.544	21652.14
220.618	21734.57
220.691	21811.78
220.764	21875.7
220.838	21949.89
220.911	22016.5
220.984	22108.52
221.057	22183.77
221.131	22244.03
221.204	22280.52
221.277	22356.26
221.35	22439.61
221.424	22490.67
221.497	22538.68
221.57	22584.29
221.643	22643.01
221.716	22694.11
221.79	22740.78
221.863	22789.38
221.936	22838.46
222.009	22884.36
222.082	22935.9
222.155	22968.88
222.229	23020.43
222.302	23056.25
222.375	23085.8
222.448	23131.71
222.521	23160.98
222.594	23181.76
222.667	23204.32
222.74	23234.12
222.814	23257.03
222.887	23271.16
222.96	23308.09
223.033	23345.8
223.106	23378.21
223.179	23392.14
223.252	23404
223.325	23416.01
223.398	23428.26
223.471	23450.92
223.544	23469.59
223.617	23474.99
223.69	23485.11
223.763	23483.81
223.837	23504.02
223.91	23527.12
223.983	23507.73
224.056	23502.43
224.129	23520.85
224.202	23535.8
224.275	23539.99
224.348	23530.35
224.42	23516.99
224.493	23494.66
224.566	23493.46
224.639	23497.51
224.712	23489.69
224.785	23489.16
224.858	23483.62
224.931	23475.32
225.004	23453.82
225.077	23447.11
225.15	23414.76
225.223	23405.93
225.296	23421.03
225.369	23392.24
225.442	23367.26
225.514	23372.9
225.587	23370.3
225.66	23359.21
225.733	23343.1
225.806	23328.73
225.879	23328.15
225.952	23308.62
226.025	23312.19
226.097	23305.25
226.17	23287.12
226.243	23272.6
226.316	23254.81
226.389	23240.83
226.461	23232.15
226.534	23223.47
226.607	23204.76
226.68	23211.46
226.753	23200.8
226.825	23159.77
226.898	23157.36
226.971	23139.32
227.044	23121.58
227.117	23103.64
227.189	23085.12
227.262	23085.32
227.335	23078.47
227.407	23043.03
227.48	23033.53
227.553	23018.73
227.626	22981.94
227.698	22962.32
227.771	22940.28
227.844	22918.05
227.916	22906.68
227.989	22873.7
228.062	22848.96
228.134	22843.27
228.207	22820.76
228.28	22784.41
228.352	22764.78
228.425	22733.35
228.498	22725.83
228.57	22691.02
228.643	22667.59
228.716	22640.06
228.788	22610.26
228.861	22570.97
228.934	22554.72
229.006	22538.33
229.079	22509.89
229.151	22485.64
229.224	22444.42
229.296	22425.28
229.369	22434.78
229.442	22424.22
229.514	22394.14
229.587	22391.39
229.659	22345.88
229.732	22321.25
229.804	22316.62
229.877	22315.22
229.949	22316.23
230.022	22314.35
230.094	22296.08
230.167	22287.79
230.239	22254.96
230.312	22230.04
230.384	22225.65
230.457	22207
230.529	22183.47
230.602	22167.9
230.674	22151.56
230.747	22139.46
230.819	22115.6
230.892	22053.95
230.964	22027.24
231.037	22010.61
231.109	21982.46
231.181	21962.36
231.254	21931.75
231.326	21892.18
231.399	21857.37
231.471	21813.55
231.544	21746.98
231.616	21730.6
231.688	21691.5
231.761	21652.99
231.833	21619.3
231.905	21573.12
231.978	21553.65
232.05	21515.67
232.122	21479.9
232.195	21444.77
232.267	21427.9
232.339	21402.06
232.412	21378.3
232.484	21339.64
232.556	21296.46
232.629	21279.73
232.701	21264.6
232.773	21235.49
232.846	21212.64
232.918	21186.08
232.99	21166.42
233.062	21159.38
233.135	21137.94
233.207	21102.13
233.279	21085.35
233.351	21059.28
233.424	21027.04
233.496	20974.74
233.568	20969.06
233.64	20928.38
233.713	20905.73
233.785	20874.02
233.857	20849.29
233.929	20813.34
234.001	20803.65
234.074	20794.54
234.146	20732.61
234.218	20700.76
234.29	20665.14
234.362	20621.04
234.434	20570.25
234.507	20519.11
234.579	20477.04
234.651	20435.88
234.723	20413.19
234.795	20388.46
234.867	20345.23
234.939	20328.51
235.012	20312.27
235.084	20272.75
235.156	20252.9
235.228	20215.89
235.3	20176.99
235.372	20146.39
235.444	20126.88
235.516	20061.57
235.588	20031.12
235.66	20013.96
235.732	19974.44
235.804	20014.45
235.876	19994.88
235.948	19992.08
236.02	19968.71
236.092	19934.88
236.164	19900.72
236.236	19866.69
236.308	19829.49
236.38	19808.43
236.452	19765.64
236.524	19728.19
236.596	19725.74
236.668	19685.64
236.74	19643.57
236.812	19614.99
236.884	19591.14
236.956	19557.17
237.028	19530.66
237.1	19487.68
237.172	19470.95
237.244	19462.81
237.316	19379.2
237.388	19336.07
237.46	19286.96
237.532	19272.89
237.604	19228.75
237.675	19212.75
237.747	19181.14
237.819	19146.06
237.891	19112.71
237.963	19071.41
238.035	19039.84
238.107	18963.17
238.178	18954.5
238.25	18928.62
238.322	18909.59
238.394	18855.61
238.466	18812.63
238.538	18784.39
238.609	18762.32
238.681	18706.56
238.753	18653.02
238.825	18619.82
238.897	18599.44
238.968	18583.34
239.04	18534.04
239.112	18536.89
239.184	18487.78
239.255	18458.34
239.327	18423.21
239.399	18395.55
239.471	18367.55
239.542	18336.08
239.614	18318.92
239.686	18256.76
239.758	18226.88
239.829	18185.87
239.901	18176.28
239.973	18152.47
240.044	18124.43
240.116	18092.04
240.188	18059.13
240.259	18034.93
240.331	17995.23
240.403	17966.02
240.474	17916.96
240.546	17884.53
240.618	17832.63
240.689	17802.17
240.761	17771.04
240.833	17760.44
240.904	17725.98
240.976	17702.32
241.048	17674.37
241.119	17653.36
241.191	17629.4
241.262	17621.6
241.334	17596.01
241.405	17547.96
241.477	17512.49
241.549	17482.13
241.62	17447.04
241.692	17426.51
241.763	17400.1
241.835	17372.44
241.906	17342.56
241.978	17299.62
242.049	17279.96
242.121	17256.15
242.192	17241.74
242.264	17194.41
242.335	17138.99
242.407	17121.06
242.478	17085.74
242.55	17059.95
242.621	17020.29
242.693	16991.04
242.764	16959.71
242.836	16922.21
242.907	16898.74
242.979	16877.35
243.05	16848.72
243.122	16825.29
243.193	16789.2
243.264	16737.96
243.336	16707.17
243.407	16682.11
243.479	16668.85
243.55	16644.46
243.622	16613.76
243.693	16577.81
243.764	16570.48
243.836	16534.09
243.907	16490.43
243.978	16455
244.05	16427.15
244.121	16374.37
244.192	16345.84
244.264	16292.43
244.335	16264.05
244.407	16221.54
244.478	16185.39
244.549	16152.13
244.62	16114.92
244.692	16083.79
244.763	16063.93
244.834	16033.37
244.906	16006.09
244.977	15978.28
245.048	15958.71
245.119	15922.66
245.191	15884.97
245.262	15827.66
245.333	15820.28
245.405	15798.16
245.476	15783.17
245.547	15759.31
245.618	15738.54
245.689	15712.46
245.761	15688.84
245.832	15660.6
245.903	15646.71
245.974	15628.88
246.045	15599.28
246.117	15583.38
246.188	15546.89
246.259	15504.86
246.33	15473.62
246.401	15431.11
246.473	15385.9
246.544	15351.48
246.615	15338.27
246.686	15305.45
246.757	15295.33
246.828	15252.04
246.899	15239.94
246.97	15189.38
247.042	15149.95
247.113	15136.98
247.184	15131.15
247.255	15098.47
247.326	15069.88
247.397	15040.82
247.468	15011.07
247.539	14980.9
247.61	14940.46
247.681	14928.84
247.752	14925.8
247.823	14894.18
247.894	14872.3
247.965	14838.41
248.037	14808.67
248.108	14764.66
248.179	14735.49
248.25	14717.95
248.321	14707.53
248.392	14666.9
248.463	14673.79
248.534	14653.84
248.605	14639.71
248.675	14608.48
248.746	14591.36
248.817	14576.08
248.888	14547.69
248.959	14515.06
249.03	14505.22
249.101	14485.31
249.172	14453.06
249.243	14405.92
249.314	14394.98
249.385	14380.23
249.456	14369.38
249.527	14341.23
249.598	14325.46
249.669	14302.13
249.739	14276.1
249.81	14252.77
249.881	14213.1
249.952	14197
250.023	14164.99
250.094	14125.51
250.165	14092.1
250.235	14067.32
250.306	14041.87
250.377	14009.96
250.448	13989.95
250.519	13946.66
250.59	13935.62
250.66	13910.94
250.731	13902.55
250.802	13881.68
250.873	13863.07
250.944	13845.67
251.014	13822.43
251.085	13818.24
251.156	13810.29
251.227	13795.39
251.297	13790.62
251.368	13786.67
251.439	13764.78
251.51	13762.61
251.58	13733.83
251.651	13708.23
251.722	13701.29
251.792	13662.15
251.863	13642.53
251.934	13634.33
252.005	13641.42
252.075	13622.76
252.146	13612.98
252.217	13605.31
252.287	13593.12
252.358	13562.79
252.429	13554.74
252.499	13527.75
252.57	13510.3
252.641	13492.94
252.711	13478.91
252.782	13441.65
252.852	13441.55
252.923	13413.88
252.994	13390.6
253.064	13379.42
253.135	13354.01
253.205	13323.98
253.276	13324.17
253.347	13330.39
253.417	13303.15
253.488	13274.37
253.558	13246.22
253.629	13221.83
253.699	13207.95
253.77	13191.12
253.841	13170.01
253.911	13156.65
253.982	13134.53
254.052	13124.5
254.123	13107.19
254.193	13084.05
254.264	13101.36
254.334	13072.15
254.405	13042.02
254.475	13011.5
254.546	12997.52
254.616	12991.4
254.687	12974.05
254.757	12959.06
254.827	12923.38
254.898	12904.83
254.968	12886.51
255.039	12860.77
255.109	12856.47
255.18	12823.79
255.25	12784.94
255.321	12774.81
255.391	12738.61
255.461	12741.6
255.532	12697.35
255.602	12676.28
255.673	12639.65
255.743	12611.54
255.813	12562.81
255.884	12555.63
255.954	12552.68
256.024	12544.39
256.095	12527.67
256.165	12503.28
256.235	12492.33
256.306	12470.3
256.376	12464.9
256.446	12458.73
256.517	12452.18
256.587	12441.96
256.657	12428.51
256.728	12416.7
256.798	12394.19
256.868	12374.14
256.938	12346.95
257.009	12337.74
257.079	12330.85
257.149	12343.14
257.219	12304.43
257.29	12295.03
257.36	12266.4
257.43	12251.6
257.5	12210.1
257.571	12185.42
257.641	12169.71
257.711	12137.94
257.781	12130.76
257.852	12119.24
257.922	12080.44
257.992	12054.55
258.062	12034.31
258.132	12031.13
258.202	12011.32
258.273	11996.61
258.343	12001.72
258.413	11972.95
258.483	11952.08
258.553	11919.78
258.623	11884.06
258.693	11871.77
258.764	11873.41
258.834	11869.12
258.904	11849.36
258.974	11828.1
259.044	11819.38
259.114	11810.99
259.184	11798.08
259.254	11777.64
259.324	11731.13
259.394	11717.63
259.464	11717.83
259.535	11693.2
259.605	11660.85
259.675	11638.83
259.745	11623.21
259.815	11593.13
259.885	11577.09
259.955	11592.94
260.025	11565.47
260.095	11555.3
260.165	11539.01
260.235	11536.51
260.305	11507.54
260.375	11475.59
260.445	11479.54
260.515	11473.9
260.585	11469.46
260.655	11455
260.725	11448.45
260.795	11446.14
260.865	11452.5
260.934	11426.71
261.004	11424.4
261.074	11411.05
261.144	11404.35
261.214	11403.48
261.284	11380.74
261.354	11374.33
261.424	11341.94
261.494	11352.73
261.564	11329.65
261.634	11325.55
261.703	11284.15
261.773	11274.75
261.843	11271.09
261.913	11254.42
261.983	11224.15
262.053	11214.22
262.123	11191.04
262.192	11159.62
262.262	11155
262.332	11123.72
262.402	11119.09
262.472	11102.8
262.541	11066.85
262.611	11070.61
262.681	11047.24
262.751	11049.84
262.821	11038.32
262.89	11014.56
262.96	11001.89
263.03	11012.25
263.1	10997.89
263.169	10995.72
263.239	10986.9
263.309	10987.05
263.379	10980.4
263.448	10968.35
263.518	10954.09
263.588	10939.77
263.657	10945.94
263.727	10940.35
263.797	10926.81
263.867	10911.92
263.936	10882.62
264.006	10882.38
264.076	10858.87
264.145	10836.75
264.215	10805.33
264.285	10792.8
264.354	10758.26
264.424	10740.33
264.494	10708.86
264.563	10690.41
264.633	10689.92
264.702	10678.55
264.772	10648.2
264.842	10631.19
264.911	10621.84
264.981	10593.51
265.05	10585.22
265.12	10568.21
265.19	10551.83
265.259	10548.07
265.329	10540.41
265.398	10533.52
265.468	10553.32
265.537	10531.25
265.607	10523.16
265.676	10524.7
265.746	10516.32
265.815	10517.23
265.885	10490.44
265.955	10461.15
266.024	10444.24
266.094	10404.83
266.163	10408.35
266.232	10414.71
266.302	10404.16
266.371	10387.87
266.441	10374.19
266.51	10368.26
266.58	10349.96
266.649	10327.65
266.719	10323.75
266.788	10307.94
266.858	10307.94
266.927	10262.32
266.996	10256.87
267.066	10251.86
267.135	10230.86
267.205	10221.22
267.274	10213.27
267.343	10220.55
267.413	10212.7
267.482	10211.2
267.552	10221.18
267.621	10191.84
267.69	10154.84
267.76	10133.26
267.829	10127.81
267.898	10119.48
267.968	10096.02
268.037	10094.53
268.106	10095.49
268.176	10067.79
268.245	10055.7
268.314	10035.17
268.384	10031.9
268.453	10019.86
268.522	10000.11
268.592	9994.66
268.661	9976.12
268.73	9967.21
268.799	9948.37
268.869	9956.17
268.938	9930.64
269.007	9906.51
269.076	9895.91
269.146	9901.31
269.215	9898.66
269.284	9903.48
269.353	9884.11
269.422	9872.8
269.492	9847.7
269.561	9803.78
269.63	9804.79
269.699	9786.82
269.768	9773.05
269.838	9766.64
269.907	9768.95
269.976	9752.05
270.045	9720.45
270.114	9716.5
270.183	9701.19
270.253	9690.54
270.322	9661.26
270.391	9648.45
270.46	9655.77
270.529	9648.5
270.598	9641.52
270.667	9630.15
270.736	9601.01
270.806	9591.33
270.875	9593.16
270.944	9586.76
271.013	9610.21
271.082	9594.12
271.151	9590.8
271.22	9569.03
271.289	9555.6
271.358	9536.67
271.427	9535.66
271.496	9528.63
271.565	9514.03
271.634	9508.54
271.703	9531.04
271.772	9535.95
271.841	9523.72
271.91	9497.04
271.979	9492.8
272.048	9469.93
272.117	9474.07
272.186	9464.1
272.255	9467.23
272.324	9458.56
272.393	9455.33
272.462	9437.85
272.531	9431.69
272.6	9417.48
272.669	9425.52
272.738	9421.67
272.807	9413.63
272.876	9389.22
272.945	9417
273.013	9421.14
273.082	9418.98
273.151	9376.45
273.22	9371.16
273.289	9358.25
273.358	9364.66
273.427	9352.96
273.496	9354.45
273.564	9343.56
273.633	9344.19
273.702	9328.54
273.771	9317.52
273.84	9306.25
273.909	9306.15
273.977	9301.67
274.046	9293.2
274.115	9294.55
274.184	9273.17
274.253	9256.99
274.322	9268.64
274.39	9233.59
274.459	9212.89
274.528	9180
274.597	9176.54
274.665	9167.15
274.734	9184.19
274.803	9167.87
274.872	9158.87
274.94	9142.64
275.009	9180.16
275.078	9165.76
275.147	9160.32
275.215	9154.02
275.284	9163.26
275.353	9150.74
275.421	9126.96
275.49	9135.1
275.559	9121.04
275.627	9112.66
275.696	9117.67
275.765	9114.97
275.833	9110.69
275.902	9107.89
275.971	9125.08
276.039	9131.43
276.108	9130.62
276.177	9122.72
276.245	9113.53
276.314	9110.68
276.383	9114.3
276.451	9063.24
276.52	9071.19
276.588	9077.69
276.657	9083.75
276.725	9074.27
276.794	9068.06
276.863	9079.95
276.931	9063.2
277	9065.7
277.068	9075.37
277.137	9088.04
277.205	9086.64
277.274	9101.56
277.342	9110.76
277.411	9095.6
277.48	9082.74
277.548	9070.9
277.617	9071.09
277.685	9068.35
277.754	9065.51
277.822	9051.84
277.89	9058.38
277.959	9041.01
278.027	9030.37
278.096	9016.74
278.164	9035.23
278.233	9025.36
278.301	9011.64
278.37	9013.76
278.438	8998.5
278.507	8995.8
278.575	8964.18
278.643	8953.83
278.712	8931.49
278.78	8921.38
278.849	8926.58
278.917	8933.08
278.985	8931.05
279.054	8923.74
279.122	8928.7
279.191	8931.58
279.259	8930.77
279.327	8914.25
279.396	8932.84
279.464	8925.37
279.532	8931.58
279.601	8927.92
279.669	8933.89
279.737	8946.89
279.806	8949.73
279.874	8965.14
279.942	8966.73
280.011	8970.05
280.079	8982.08
280.147	8998.11
280.215	8999.12
280.284	8995.7
280.352	8985.06
280.42	8996.28
280.488	8987.09
280.557	8983.77
280.625	8983.96
280.693	8987.14
280.761	8994.6
280.83	8973.99
280.898	8983.52
280.966	8967.54
281.034	8931.29
281.102	8908.72
281.171	8899.62
281.239	8902.03
281.307	8892.45
281.375	8882.96
281.443	8902.8
281.512	8895.77
281.58	8901.59
281.648	8888.55
281.716	8884.89
281.784	8882.68
281.852	8871.61
281.92	8881.09
281.989	8887.92
282.057	8867.18
282.125	8883.88
282.193	8875.89
282.261	8866.07
282.329	8859.33
282.397	8862.17
282.465	8873.44
282.533	8888.16
282.601	8877.24
282.67	8861.74
282.738	8855
282.806	8865.01
282.874	8858.03
282.942	8855.33
283.01	8851.48
283.078	8850.37
283.146	8850.13
283.214	8853.21
283.282	8855.38
283.35	8865.01
283.418	8857.98
283.486	8867.08
283.554	8847.77
283.622	8845.41
283.69	8855.67
283.758	8854.61
283.826	8852.2
283.894	8854.9
283.962	8879.11
284.03	8894.61
284.098	8893.99
284.165	8888.11
284.233	8877.62
284.301	8858.94
284.369	8849.22
284.437	8833.53
284.505	8833.43
284.573	8848.02
284.641	8841.61
284.709	8848.69
284.777	8826.16
284.845	8829.87
284.912	8827.94
284.98	8829.29
285.048	8827.7
285.116	8832.56
285.184	8837.43
285.252	8843.97
285.319	8825.49
285.387	8811.14
285.455	8788.09
285.523	8793.09
285.591	8779.52
285.659	8790.21
285.726	8810.67
285.794	8802.1
285.862	8806.62
285.93	8803.88
285.997	8793.63
286.065	8780.06
286.133	8762.77
286.201	8764.36
286.269	8753.68
286.336	8746.89
286.404	8737.22
286.472	8739.72
286.539	8711.57
286.607	8699.29
286.675	8692.07
286.743	8707.47
286.81	8703.14
286.878	8723.64
286.946	8715.22
287.013	8717.58
287.081	8710.12
287.149	8691.39
287.216	8708.62
287.284	8697.94
287.352	8698.56
287.419	8694.71
287.487	8720.03
287.555	8729.37
287.622	8719.94
287.69	8724.99
287.758	8739.57
287.825	8739.53
287.893	8729.13
287.96	8745.06
288.028	8750.83
288.096	8754.49
288.163	8749.39
288.231	8732.25
288.298	8724.02
288.366	8735.29
288.433	8733.75
288.501	8725.66
288.569	8727.92
288.636	8724.26
288.704	8735.48
288.771	8735.91
288.839	8721.04
288.906	8705.06
288.974	8707.32
289.041	8703.14
289.109	8686.68
289.176	8692.07
289.244	8698.9
289.311	8713.1
289.379	8716.18
289.446	8719.65
289.514	8726.63
289.581	8724.7
289.649	8725.57
289.716	8730.43
289.783	8718.44
289.851	8736.4
289.918	8740.87
289.986	8746.74
290.053	8744.29
290.121	8739.52
290.188	8742.8
290.255	8774.56
290.323	8774.42
290.39	8772.88
290.458	8778.32
290.525	8796.94
290.592	8783.61
290.66	8778.84
290.727	8767.53
290.794	8784.24
290.862	8786.74
290.929	8787.75
290.996	8785.97
291.064	8806.04
291.131	8810.76
291.198	8821.73
291.266	8818.75
291.333	8814.71
291.4	8819.23
291.468	8835.16
291.535	8837.96
291.602	8839.4
291.669	8829.72
291.737	8834.59
291.804	8830.64
291.871	8851.29
291.938	8853.89
292.006	8885.42
292.073	8893.89
292.14	8906.07
292.207	8893.02
292.275	8888.45
292.342	8890.81
292.409	8916.71
292.476	8930.96
292.543	8923.4
292.611	8925.04
292.678	8946.94
292.745	8972.6
292.812	8984.68
292.879	8974.91
292.946	8973.9
293.014	8989.06
293.081	8998.69
293.148	9008.8
293.215	9027.14
293.282	9019.73
293.349	9030.66
293.416	9006.2
293.484	9021.7
293.551	9031.04
293.618	9045.39
293.685	9070.04
293.752	9066.23
293.819	9063.58
293.886	9048.85
293.953	9058.43
294.02	9069.65
294.087	9071.72
294.154	9062.52
294.221	9074.42
294.288	9076.15
294.356	9094.25
294.423	9096.61
294.49	9090.06
294.557	9102.72
294.624	9093.48
294.691	9108.93
294.758	9108.79
294.825	9123.14
294.892	9113.41
294.959	9107.88
295.026	9112.3
295.093	9099.26
295.16	9097.72
295.226	9095.79
295.293	9119.96
295.36	9122.46
295.427	9134.84
295.494	9143.94
295.561	9153.66
295.628	9172.78
295.695	9195.94
295.762	9194.74
295.829	9204.9
295.896	9219.54
295.963	9225.17
296.03	9231.86
296.096	9235.47
296.163	9244.77
296.23	9252.9
296.297	9268.98
296.364	9274.66
296.431	9282.18
296.498	9282.18
296.564	9305.67
296.631	9311.06
296.698	9293.49
296.765	9309.47
296.832	9292.33
296.899	9274.9
296.965	9291.03
297.032	9262.57
297.099	9273.65
297.166	9284.58
297.233	9281.11
297.299	9266.52
297.366	9263.15
297.433	9262.96
297.5	9272.49
297.566	9266.09
297.633	9262.24
297.7	9260.55
297.767	9256.41
297.833	9256.51
297.9	9260.36
297.967	9240.81
298.033	9251.65
298.1	9279.77
298.167	9277.12
298.234	9281.07
298.3	9292.48
298.367	9280.34
298.434	9286.6
298.5	9271.77
298.567	9264.65
298.634	9258.96
298.7	9279.67
298.767	9286.84
298.834	9304.32
298.9	9295.12
298.967	9288.96
299.033	9299.75
299.1	9322.24
299.167	9332.68
299.233	9327.29
299.3	9333.94
299.366	9353.19
299.433	9363.21
299.5	9337.21
299.566	9335.86
299.633	9357.91
299.699	9372.36
299.766	9372.75
299.832	9381.08
299.899	9388.25
299.965	9398.94
300.032	9394.61
300.099	9403.13
300.165	9403.61
300.232	9397.11
300.298	9397.21
300.365	9415.31
300.431	9416.76
300.498	9403.27
300.564	9411.94
300.631	9423.07
300.697	9437.42
300.763	9438.96
300.83	9441.36
300.896	9452.82
300.963	9462.74
301.029	9461.49
301.096	9459.28
301.162	9467.37
301.229	9458.99
301.295	9447.19
301.361	9451.14
301.428	9450.66
301.494	9428.89
301.561	9429.33
301.627	9428.8
301.693	9433.71
301.76	9438.23
301.826	9431.25
301.892	9438.81
301.959	9437.32
302.025	9428.6
302.092	9421.09
302.158	9422.25
302.224	9417
302.291	9414.16
302.357	9407.22
302.423	9399.56
302.49	9387.96
302.556	9396.53
302.622	9395.66
302.688	9407.37
302.755	9420.23
302.821	9432.79
302.887	9441.46
302.954	9441.55
303.02	9448.63
303.086	9451.28
303.152	9440.54
303.219	9430.05
303.285	9437.03
303.351	9451.91
303.417	9460.1
303.483	9449.74
303.55	9439.73
303.616	9434.77
303.682	9427.69
303.748	9421.14
303.815	9434.05
303.881	9449.7
303.947	9438.72
304.013	9439.1
304.079	9428.7
304.145	9398.46
304.212	9400.58
304.278	9397.4
304.344	9388.83
304.41	9375.2
304.476	9362.92
304.542	9350.94
304.608	9359.51
304.674	9333.5
304.741	9321.03
304.807	9315.06
304.873	9322.57
304.939	9338.51
305.005	9319.2
305.071	9312.17
305.137	9313.61
305.203	9289.01
305.269	9276.82
305.335	9283.37
305.401	9284.05
305.467	9281.59
305.533	9294.74
305.599	9298.93
305.666	9306.73
305.732	9301.86
305.798	9310.39
305.864	9335.09
305.93	9343.37
305.996	9336
306.062	9338.31
306.128	9326.28
306.194	9314.48
306.259	9307.21
306.325	9291.32
306.391	9301.86
306.457	9309.95
306.523	9307.4
306.589	9322.81
306.655	9314.19
306.721	9295.8
306.787	9276.78
306.853	9286.7
306.919	9267.82
306.985	9254.1
307.051	9241.19
307.117	9236.67
307.183	9228.05
307.248	9195.88
307.314	9198.39
307.38	9202.48
307.446	9204.94
307.512	9197.38
307.578	9198.15
307.644	9193.09
307.709	9194.01
307.775	9180.72
307.841	9174.7
307.907	9171.86
307.973	9157.13
308.039	9153.08
308.104	9157.56
308.17	9157.27
308.236	9140.42
308.302	9141.57
308.368	9127.23
308.433	9122.7
308.499	9115.58
308.565	9104.17
308.631	9109.61
308.696	9090.4
308.762	9076.96
308.828	9072.77
308.894	9053.23
308.959	9034.26
309.025	9024.88
309.091	9018.81
309.156	9013.37
309.222	9018.33
309.288	9001.82
309.354	8970.82
309.419	8973.18
309.485	8954.07
309.551	8963.5
309.616	8948.58
309.682	8938.76
309.748	8937.17
309.813	8931.97
309.879	8922.49
309.945	8912.67
310.01	8904.63
310.076	8901.84
310.141	8894.66
310.207	8877.14
310.273	8875.17
310.338	8879.93
310.404	8860.2
310.469	8851.97
310.535	8844.79
310.601	8812.64
310.666	8818.46
310.732	8829.39
310.797	8812.73
310.863	8802.91
310.928	8787.07
310.994	8799.21
311.059	8798.05
311.125	8789.19
311.191	8799.21
311.256	8791.94
311.322	8791.56
311.387	8767.25
311.453	9117.03
311.518	9090.03
311.584	9086.32
311.649	9092.97
311.715	9078.77
311.78	9082.04
311.846	9063.65
311.911	9065.44
311.976	9078
312.042	9062.5
312.107	9048.93
312.173	9039.16
312.238	9032.13
312.304	9024.09
312.369	9000.22
312.434	8986.02
312.5	8975.14
312.565	8939.05
312.631	8939.05
312.696	8933.08
312.761	8938.66
312.827	8579.06
312.892	8610.97
312.958	8611.11
313.023	8604.42
313.088	8604.66
313.154	8589.99
313.219	8583.01
313.284	8577.67
313.35	8572.18
313.415	8558.37
313.48	8555.05
313.546	8558.47
313.611	8569.01
313.676	8564.43
313.741	8558.13
313.807	8564.97
313.872	8569.2
313.937	8580.08
314.003	8586.91
314.068	8586.62
314.133	8584.6
314.198	8573.77
314.264	8563.52
314.329	8549.47
314.394	8549.47
314.459	8538.93
314.525	8558.46
314.59	8554.95
314.655	8535.9
314.72	8532.91
314.785	8532.05
314.851	8524.49
314.916	8499.85
314.981	8479.02
315.046	8469.06
315.111	8456.02
315.176	8442.16
315.242	8447.5
315.307	8440.28
315.372	8425.03
315.437	8414.01
315.502	8412.42
315.567	8416.56
315.632	8392.5
315.698	8389.85
315.763	8385.28
315.828	8380.85
315.893	8371.56
315.958	8367.28
316.023	8361.46
316.088	8343.03
316.153	8327.01
316.218	8320.66
316.283	8306.76
316.348	8292.04
316.413	8285.5
316.479	8276.74
316.544	8247.98
316.609	8217.09
316.674	8178.37
316.739	8142.2
316.804	8110.59
316.869	8074.08
316.934	8040.6
316.999	8012.22
317.064	7968.45
317.129	7923.14
317.194	7885.49
317.259	7840.75
317.324	7790.31
317.389	7749.49
317.454	7714.29
317.518	7682.07
317.583	7657.5
317.648	7634.66
317.713	7603.45
317.778	7547.39
317.843	7520.42
317.908	7482.54
317.973	7442.11
318.038	7416.39
318.103	7378.23
318.168	7350.21
318.233	7316.13
318.297	7266.67
318.362	7233.27
318.427	7196.27
318.492	7171.52
318.557	7128.61
318.622	7102.42
318.687	7086.04
318.751	7046.21
318.816	7010.8
318.881	6981.25
318.946	6926.58
319.011	6883.53
319.075	6841.55
319.14	6810.91
319.205	6762.68
319.27	6736.31
319.335	6697.12
319.399	6660.14
319.464	6636.57
319.529	6586
319.594	6551.52
319.658	6525.6
319.723	6482.72
319.788	6453.29
319.853	6405.52
319.917	6377.16
319.982	6326.65
320.047	6287.19
320.112	6261.51
320.176	6216.92
320.241	6181.02
320.306	6153.62
320.37	6118.64
320.435	6089.51
320.5	6059.04
320.564	6025.61
320.629	5978.74
320.694	5948.08
320.758	5909.28
320.823	5865.43
320.888	5839.77
320.952	5795.46
321.017	5759.82
321.082	5721.8
321.146	5693.26
321.211	5661.47
321.275	5626.66
321.34	5588.17
321.405	5545.12
321.469	5504.47
321.534	5463.21
321.598	5416.04
321.663	5386.89
321.727	5355.17
321.792	5310.55
321.857	5270.87
321.921	5234.45
321.986	5198.96
322.05	5144.6
322.115	5112.74
322.179	5075.91
322.244	5021.55
322.308	4985.4
322.373	4936.98
322.437	4902.79
322.502	4873.95
322.566	4829.61
322.631	4795.62
322.695	4755.46
322.76	4714.11
322.824	4677.4
322.889	4640.27
322.953	4599.6
323.018	4536.1
323.082	4475.01
323.146	4424.41
323.211	4371.79
323.275	4327.64
323.34	4283.46
323.404	4251.42
323.468	4205.56
323.533	4160.42
323.597	4119.32
323.662	4075.48
323.726	4044.08
323.79	3997.71
323.855	3933.59
323.919	3884.13
323.983	3838.59
324.048	3777.18
324.112	3946.66
324.177	3827.35
324.241	3629.24
324.305	3435.48
324.37	3248.31
324.434	3066.07
324.498	3029.85
324.562	2987.33
324.627	2933.68
324.691	2883.57
324.755	2823.81
324.82	2754.81
324.884	2686.06
324.948	2621.23
325.012	2533.9
325.077	2417.75
