Data from 20250625_urea_1M_1_MAYP1162681_13-15-05-577.txt Node
Date: Thu Jun 26 13:15:05 BST 2025
User: adleo
Spectrometer: MAYP116268
Trigger mode: 0
Integration Time (sec): 1.000000E0
Scans to average: 1
Electric dark correction enabled: true
Nonlinearity correction enabled: true
Boxcar width: 10
XAxis mode: Wavelengths
Number of Pixels in Spectrum: 2068
>>>>>Begin Spectral Data<<<<<
179.565	1134.73
179.642	1185.53
179.718	1222.75
179.795	1261.07
179.871	1293.69
179.948	1313.62
180.024	1333.79
180.101	1356.65
180.177	1371.22
180.254	1394.02
180.33	1414.45
180.407	1461.97
180.483	1552.23
180.56	1637.75
180.636	1717.74
180.712	1705.91
180.789	1714.46
180.865	1729.04
180.942	1737.26
181.018	1744.82
181.095	1758.03
181.171	1762.59
181.248	1764.73
181.324	1782.13
181.4	1787.41
181.477	1794.72
181.553	1803.75
181.63	1823.76
181.706	1836.08
181.782	1845.39
181.859	1842.63
181.935	1848.91
182.011	1848
182.088	1863.5
182.164	1881.38
182.24	1894.69
182.317	1904.1
182.393	1900.82
182.469	1912.32
182.546	1924.64
182.622	1930.72
182.698	1930.15
182.775	1945.13
182.851	1960.63
182.927	1953.35
183.003	1949.65
183.08	1945.37
183.156	1955.64
183.232	1954.26
183.308	1945.65
183.385	1950.93
183.461	1968.66
183.537	1968
183.613	1980.88
183.69	1972.47
183.766	1961.77
183.842	1967.19
183.918	1975.6
183.995	1987.49
184.071	1992.34
184.147	1988.01
184.223	1975.94
184.299	1985.74
184.375	1974.8
184.452	1978.13
184.528	2031.98
184.604	2041.53
184.68	2053.13
184.756	2057.61
184.832	2059.89
184.908	2062.93
184.985	2063.55
185.061	2048.67
185.137	2057.46
185.213	2046
185.289	2048.47
185.365	2043.25
185.441	2041.72
185.517	2051.86
185.593	2050.67
185.669	2047.15
185.745	2054.99
185.822	2069.78
185.898	2060.74
185.974	2068.49
186.05	2059.98
186.126	2020.92
186.202	2013.88
186.278	2009.56
186.354	2002.8
186.43	2008.32
186.506	2008.23
186.582	2005.56
186.658	2012.79
186.734	1994.96
186.81	1997.24
186.886	1998.15
186.962	2007.8
187.038	2006.09
187.114	1997.29
187.19	2005.32
187.266	1994.48
187.341	1995.77
187.417	1990.25
187.493	1992.77
187.569	1996.29
187.645	1991.97
187.721	1980.98
187.797	1990.2
187.873	1996.29
187.949	1990.39
188.025	1987.06
188.101	1989.87
188.176	1996.24
188.252	1992.25
188.328	1999.47
188.404	1998.47
188.48	1994
188.556	1984.78
188.632	1985.49
188.707	1986.78
188.783	1983.54
188.859	1978.6
188.935	1969.56
189.011	1977.5
189.086	1968.76
189.162	1961.81
189.238	1957.39
189.314	1955.68
189.39	1953.49
189.465	1946.03
189.541	1960.44
189.617	1943.22
189.693	1938.19
189.768	1943.32
189.844	1964.25
189.92	1955.84
189.996	1964.07
190.071	1974.76
190.147	1976.1
190.223	1983.23
190.298	1976.52
190.374	1962.74
190.45	1975.66
190.526	1983.32
190.601	1977.99
190.677	1980.47
190.753	2007.97
190.828	2013.67
190.904	2027.04
190.98	2035.79
191.055	2045.16
191.131	2039.31
191.207	2058.52
191.282	2068.69
191.358	2057.57
191.433	2045.43
191.509	2057.89
191.585	2056.32
191.66	2058.79
191.736	2067.82
191.811	2058.22
191.887	2071.3
191.963	2095.41
192.038	2102.88
192.114	2104.26
192.189	2110.01
192.265	2105.78
192.34	2082.85
192.416	2080.33
192.491	2076
192.567	2080.56
192.642	2083.42
192.718	2083.47
192.793	2073.29
192.869	2069.77
192.944	2071.29
193.02	2079.28
193.095	2082.18
193.171	2088.61
193.246	2085.18
193.322	2082.95
193.397	2081.8
193.473	2070.24
193.548	2052.31
193.624	2053.26
193.699	2049.46
193.775	2063.78
193.85	2064.25
193.925	2070.25
194.001	2072.29
194.076	2065.59
194.152	2055.31
194.227	2048.03
194.302	2037.72
194.378	2041.52
194.453	2036.91
194.529	2048.99
194.604	2032.44
194.679	2029.3
194.755	2009.14
194.83	2020.65
194.905	2017.75
194.981	2026.12
195.056	2019.51
195.131	2027.83
195.207	2028.17
195.282	2020.46
195.357	2001.34
195.433	2018.41
195.508	2006.81
195.583	2015.13
195.659	2032.87
195.734	2041.67
195.809	2042.05
195.884	2049.76
195.96	2048.9
196.035	2064.78
196.11	2061.17
196.185	2074.25
196.261	2073.68
196.336	2101.36
196.411	2089.13
196.486	2094.55
196.561	2091.55
196.637	2102.92
196.712	2114.72
196.787	2118.53
196.862	2132.37
196.937	2139.64
197.013	2143.97
197.088	2156.53
197.163	2175.71
197.238	2187.9
197.313	2186.42
197.388	2197.17
197.464	2228.2
197.539	2240.14
197.614	2232.39
197.689	2242.91
197.764	2258.99
197.839	2281.83
197.914	2278.12
197.989	2300.34
198.065	2314.76
198.14	2363.34
198.215	2386.42
198.29	2398.52
198.365	2410.66
198.44	2420.41
198.515	2446.17
198.59	2462.5
198.665	2486.4
198.74	2494.21
198.815	2493.06
198.89	2514.39
198.965	2545.64
199.04	2540.4
199.115	2555.06
199.19	2596.01
199.265	2602.15
199.34	2609.68
199.415	2641.61
199.49	2663.51
199.565	2670.65
199.64	2692.71
199.715	2688.37
199.79	2695.52
199.865	2701.47
199.94	2698.66
200.015	2729.49
200.09	2734.3
200.165	2739.68
200.24	2748.45
200.315	2785.84
200.39	2803.13
200.464	2809.14
200.539	2808.52
200.614	2823.29
200.689	2844.64
200.764	2851.98
200.839	2868.32
200.914	2872.56
200.989	2863.21
201.063	2874.7
201.138	2860.74
201.213	2861.79
201.288	2842.97
201.363	2847.78
201.438	2850.31
201.512	2869.27
201.587	2850.82
201.662	2859.07
201.737	2869.13
201.812	2875.08
201.886	2844.04
201.961	2853.76
202.036	2839.43
202.111	2838.57
202.186	2809.9
202.26	2793.12
202.335	2774.06
202.41	2766.72
202.485	2751.24
202.559	2731.56
202.634	2706.12
202.709	2714.84
202.784	2697.4
202.858	2699.78
202.933	2683.77
203.008	2675.15
203.082	2652.9
203.157	2653.48
203.232	2607.86
203.306	2589.9
203.381	2560.6
203.456	2539.45
203.53	2514.91
203.605	2498.06
203.68	2475.24
203.754	2471.53
203.829	2458.24
203.904	2437.58
203.978	2427.1
204.053	2433.05
204.127	2421.25
204.202	2419.15
204.277	2402.35
204.351	2393.5
204.426	2383.07
204.5	2372.74
204.575	2340.61
204.65	2352.42
204.724	2346.61
204.799	2358.12
204.873	2355.12
204.948	2353.27
205.022	2339.75
205.097	2334.85
205.171	2349.41
205.246	2355.93
205.32	2356.41
205.395	2355.36
205.469	2345.99
205.544	2353.47
205.618	2335.71
205.693	2343.99
205.767	2333.86
205.842	2352.18
205.916	2348.76
205.991	2342
206.065	2347.19
206.14	2360.08
206.214	2354.27
206.289	2345.84
206.363	2358.26
206.438	2361.07
206.512	2369.36
206.586	2387.39
206.661	2394.25
206.735	2374.36
206.81	2376.08
206.884	2388.83
206.958	2376.51
207.033	2392.02
207.107	2395.21
207.181	2423.01
207.256	2419.54
207.33	2438.72
207.405	2453.26
207.479	2470.68
207.553	2478.58
207.628	2464.45
207.702	2478.44
207.776	2474.02
207.851	2478.49
207.925	2494.02
207.999	2489.21
208.073	2484.5
208.148	2490.88
208.222	2478.31
208.296	2509.01
208.371	2527.3
208.445	2537.3
208.519	2566.16
208.593	2581.97
208.668	2578.92
208.742	2583.78
208.816	2585.4
208.89	2594.3
208.965	2591.68
209.039	2598.88
209.113	2614.36
209.187	2636.87
209.261	2634.78
209.336	2654.78
209.41	2675.7
209.484	2675.79
209.558	2699.18
209.632	2713.95
209.707	2724.52
209.781	2747.39
209.855	2763.21
209.929	2780.57
210.003	2790.63
210.077	2795.49
210.151	2842.52
210.226	2882.57
210.3	2914.58
210.374	2944.65
210.448	2957.75
210.522	2975.78
210.596	2993.37
210.67	3011.58
210.744	3061.47
210.818	3100.65
210.892	3131.65
210.966	3137.85
211.041	3161.55
211.115	3170.66
211.189	3209
211.263	3240.96
211.337	3263.71
211.411	3291.43
211.485	3302.03
211.559	3331.65
211.633	3354.78
211.707	3344.03
211.781	3370.54
211.855	3358.85
211.929	3372.39
212.003	3379.88
212.077	3417.18
212.151	3459.58
212.225	3495.57
212.299	3519.17
212.373	3541.61
212.447	3568.84
212.52	3628.39
212.594	3672.19
212.668	3721.05
212.742	3748.85
212.816	3784.97
212.89	3824.28
212.964	3868.26
213.038	3917.4
213.112	3979.88
213.186	4040.19
213.26	4075.01
213.333	4084.81
213.407	4144.26
213.481	4206.81
213.555	4281.12
213.629	4329.83
213.703	4370.16
213.777	4432.07
213.85	4475.86
213.924	4570.25
213.998	4634.83
214.072	4695.69
214.146	4753.76
214.219	4824.77
214.293	4892.46
214.367	4971.35
214.441	5056.56
214.515	5124.88
214.588	5178.11
214.662	5219.6
214.736	5280.78
214.81	5365.89
214.883	5454.66
214.957	5523.03
215.031	5588.39
215.105	5644.84
215.178	5710.2
215.252	5787.21
215.326	5848.75
215.4	5912
215.473	5948.76
215.547	6016.37
215.621	6092.74
215.694	6174.76
215.768	6237.4
215.842	6306.18
215.915	6372.25
215.989	6432.13
216.063	6509.26
216.136	6598.29
216.21	6686.06
216.284	6776.17
216.357	6863.79
216.431	6946.32
216.504	7045.1
216.578	7153.98
216.652	7247.61
216.725	7340.42
216.799	7441.09
216.873	7526.55
216.946	7623.26
217.02	7709.83
217.093	7800.67
217.167	7860.83
217.24	7937.74
217.314	8013.28
217.387	8096.09
217.461	8178.93
217.535	8274.28
217.608	8348.47
217.682	8430.03
217.755	8521.26
217.829	8604.04
217.902	8688.31
217.976	8771.96
218.049	8846.76
218.123	8912.52
218.196	9001.61
218.27	9075.61
218.343	9137.63
218.417	9226.65
218.49	9303.3
218.563	9399.17
218.637	9479.74
218.71	9591.8
218.784	9678.54
218.857	9778.66
218.931	9866.02
219.004	9949.98
219.077	10043
219.151	10126.62
219.224	10204.81
219.298	10285.45
219.371	10376.08
219.444	10442.27
219.518	10526.97
219.591	10610.08
219.665	10723.7
219.738	10805.37
219.811	10874.76
219.885	10964.43
219.958	11049.83
220.031	11135.26
220.105	11213.62
220.178	11287.31
220.251	11354.49
220.325	11436.38
220.398	11512.96
220.471	11593.21
220.544	11671.77
220.618	11737.9
220.691	11817.62
220.764	11898.78
220.838	11980.24
220.911	12049.22
220.984	12145.96
221.057	12221.68
221.131	12285.36
221.204	12322.28
221.277	12408.76
221.35	12513.36
221.424	12577.9
221.497	12648.72
221.57	12709.6
221.643	12781.86
221.716	12854.41
221.79	12912.2
221.863	12977.76
221.936	13039.85
222.009	13111.44
222.082	13183.46
222.155	13236.63
222.229	13309.85
222.302	13368.96
222.375	13426.56
222.448	13485.62
222.521	13537.05
222.594	13591.38
222.667	13650.1
222.74	13723.56
222.814	13773.17
222.887	13822.14
222.96	13881.39
223.033	13939.72
223.106	13996.17
223.179	14053.49
223.252	14116.73
223.325	14170.63
223.398	14214.93
223.471	14270.85
223.544	14310.76
223.617	14357.66
223.69	14411.51
223.763	14445.83
223.837	14495.58
223.91	14543.69
223.983	14577.09
224.056	14609.54
224.129	14652.58
224.202	14705.08
224.275	14743.54
224.348	14774.25
224.42	14796.76
224.493	14829.11
224.566	14860.97
224.639	14912.98
224.712	14944.36
224.785	14970.39
224.858	15010.01
224.931	15048.91
225.004	15080.2
225.077	15125.99
225.15	15144.69
225.223	15186.68
225.296	15249.05
225.369	15273.2
225.442	15303.18
225.514	15349.5
225.587	15399.44
225.66	15450.73
225.733	15493.87
225.806	15525.05
225.879	15565.74
225.952	15602.8
226.025	15656.26
226.097	15713.76
226.17	15748.46
226.243	15767.16
226.316	15804.37
226.389	15845.49
226.461	15887.23
226.534	15923.52
226.607	15955
226.68	16003.63
226.753	16036.26
226.825	16044.6
226.898	16095.4
226.971	16125.77
227.044	16161.53
227.117	16196.76
227.189	16221.68
227.262	16255.52
227.335	16294.8
227.407	16323.28
227.48	16357.07
227.553	16378.81
227.626	16393.36
227.698	16418.91
227.771	16456.55
227.844	16474.86
227.916	16506.38
227.989	16516.79
228.062	16533.66
228.134	16576.41
228.207	16602.25
228.28	16609.96
228.352	16637.53
228.425	16663.55
228.498	16694.06
228.57	16704.9
228.643	16731.8
228.716	16757.77
228.788	16775.56
228.861	16796.33
228.934	16821.92
229.006	16841.01
229.079	16857.59
229.151	16866.65
229.224	16872.62
229.296	16900.29
229.369	16952.38
229.442	16975.23
229.514	16989.98
229.587	17025.25
229.659	17030.65
229.732	17054.94
229.804	17092.15
229.877	17129.59
229.949	17157.45
230.022	17191.43
230.094	17211.86
230.167	17231.48
230.239	17238.27
230.312	17255.43
230.384	17292.3
230.457	17319.24
230.529	17340.78
230.602	17359.53
230.674	17379.48
230.747	17407.33
230.819	17426.8
230.892	17405.26
230.964	17428.25
231.037	17449.07
231.109	17457.84
231.181	17470.61
231.254	17471.77
231.326	17479.29
231.399	17485.02
231.471	17487.67
231.544	17472.3
231.616	17495.48
231.688	17503.24
231.761	17502.42
231.833	17509.89
231.905	17491.09
231.978	17494.9
232.05	17497.84
232.122	17519.91
232.195	17527.48
232.267	17554.75
232.339	17561.79
232.412	17583.38
232.484	17577.31
232.556	17580.1
232.629	17610.71
232.701	17626.46
232.773	17630.22
232.846	17636.2
232.918	17640.78
232.99	17645.5
233.062	17671.14
233.135	17669.4
233.207	17668.44
233.279	17684.78
233.351	17699.24
233.424	17702.17
233.496	17703.48
233.568	17721.74
233.64	17704.15
233.713	17698.95
233.785	17684.25
233.857	17684.73
233.929	17671.33
234.001	17689.4
234.074	17714.9
234.146	17691.86
234.218	17684.78
234.29	17686.51
234.362	17678.27
234.434	17657.65
234.507	17633.55
234.579	17613.02
234.651	17605.07
234.723	17599.28
234.795	17601.79
234.867	17587.14
234.939	17592.83
235.012	17580.54
235.084	17573.74
235.156	17569.36
235.228	17555.14
235.3	17543.82
235.372	17535.57
235.444	17543.57
235.516	17507.09
235.588	17493.41
235.66	17482.9
235.732	17462.56
235.804	17499.96
235.876	17496.35
235.948	17504.1
236.02	17501.69
236.092	17489.84
236.164	17483.19
236.236	17477.5
236.308	17456.83
236.38	17445.89
236.452	17419.57
236.524	17412.92
236.596	17420.34
236.668	17414.66
236.74	17410.71
236.812	17404.3
236.884	17393.89
236.956	17382.22
237.028	17360.68
237.1	17323.52
237.172	17324.68
237.244	17331.24
237.316	17286.18
237.388	17264.3
237.46	17245.6
237.532	17241.79
237.604	17220.3
237.675	17210.17
237.747	17196.49
237.819	17179.04
237.891	17156
237.963	17138.08
238.035	17121.55
238.107	17065.45
238.178	17070.36
238.25	17053.83
238.322	17053.3
238.394	17023.47
238.466	17004.29
238.538	16995.86
238.609	16992
238.681	16960.48
238.753	16928.29
238.825	16898.65
238.897	16884.43
238.968	16878.65
239.04	16853.2
239.112	16859.13
239.184	16830.26
239.255	16808.76
239.327	16794.35
239.399	16781.39
239.471	16769
239.542	16751.27
239.614	16751.56
239.686	16694.16
239.758	16680.37
239.829	16650.25
239.901	16646.35
239.973	16614.92
240.044	16601.72
240.116	16584.51
240.188	16560.6
240.259	16543.83
240.331	16522.19
240.403	16516.65
240.474	16478.19
240.546	16448.64
240.618	16411.92
240.689	16390.04
240.761	16373.5
240.833	16366.42
240.904	16337.84
240.976	16314.32
241.048	16284.77
241.119	16268.29
241.191	16258.12
241.262	16255.08
241.334	16231.27
241.405	16194.45
241.477	16174.93
241.549	16146.93
241.62	16112.18
241.692	16093.28
241.763	16080.8
241.835	16053.86
241.906	16024.79
241.978	15998.72
242.049	15988.93
242.121	15968.64
242.192	15957.07
242.264	15911.23
242.335	15862.07
242.407	15844.57
242.478	15816.81
242.55	15805.15
242.621	15771.17
242.693	15749.96
242.764	15725.33
242.836	15692.46
242.907	15679.68
242.979	15659.1
243.05	15640.5
243.122	15624.06
243.193	15593.16
243.264	15547.57
243.336	15523.61
243.407	15499.99
243.479	15487.31
243.55	15466.59
243.622	15449.04
243.693	15422.77
243.764	15418.53
243.836	15387.2
243.907	15360.98
243.978	15340.06
244.05	15315.52
244.121	15275.13
244.192	15255.51
244.264	15208.9
244.335	15188.32
244.407	15145.9
244.478	15126.76
244.549	15103.77
244.62	15077.69
244.692	15056.39
244.763	15042.89
244.834	15020.38
244.906	14988.42
244.977	14969.04
245.048	14959.16
245.119	14926.67
245.191	14891.77
245.262	14843.95
245.333	14833.11
245.405	14805.73
245.476	14776.08
245.547	14752.03
245.618	14732.7
245.689	14709.99
245.761	14689.22
245.832	14663.91
245.903	14649.35
245.974	14624.87
246.045	14589.24
246.117	14573.62
246.188	14540.84
246.259	14501.61
246.33	14471.48
246.401	14441.06
246.473	14401.63
246.544	14367.31
246.615	14354.1
246.686	14325.85
246.757	14315.82
246.828	14278.85
246.899	14276.54
246.97	14249.11
247.042	14217.53
247.113	14207.46
247.184	14196.61
247.255	14167.73
247.326	14146.67
247.397	14121.17
247.468	14095.33
247.539	14080.77
247.61	14043.56
247.681	14030.35
247.752	14026.93
247.823	14004.27
247.894	13986.43
247.965	13949.26
248.037	13921.11
248.108	13881.53
248.179	13861.05
248.25	13837.81
248.321	13826.82
248.392	13786.47
248.463	13787.97
248.534	13766.32
248.605	13740.77
248.675	13707.94
248.746	13685
248.817	13660.12
248.888	13642.96
248.959	13604.97
249.03	13582.94
249.101	13555.18
249.172	13525.05
249.243	13475.3
249.314	13463.05
249.385	13449.22
249.456	13431.05
249.527	13403.71
249.598	13376.23
249.669	13355.75
249.739	13335.45
249.81	13316.02
249.881	13287.58
249.952	13257.94
250.023	13234.46
250.094	13202.11
250.165	13163.45
250.235	13144.55
250.306	13128.89
250.377	13099.14
250.448	13082.13
250.519	13033.58
250.59	13034.16
250.66	13004.76
250.731	12997.33
250.802	12971.88
250.873	12949.7
250.944	12935.87
251.014	12904.73
251.085	12920.15
251.156	12896.15
251.227	12890.99
251.297	12886.31
251.368	12870.79
251.439	12858.79
251.51	12844.81
251.58	12812.9
251.651	12800.65
251.722	12786.53
251.792	12747.96
251.863	12724.25
251.934	12716.29
252.005	12737.12
252.075	12715.81
252.146	12710.94
252.217	12704.1
252.287	12692.67
252.358	12662.26
252.429	12655.07
252.499	12637
252.57	12612.89
252.641	12604.31
252.711	12581.46
252.782	12544.97
252.852	12546.42
252.923	12524.29
252.994	12508.87
253.064	12507.13
253.135	12482.31
253.205	12462.01
253.276	12463.27
253.347	12460.66
253.417	12438.2
253.488	12410
253.558	12390.09
253.629	12369.99
253.699	12362.28
253.77	12353.94
253.841	12336.78
253.911	12325.35
253.982	12309.54
254.052	12303.61
254.123	12292.09
254.193	12273.87
254.264	12296.38
254.334	12265.97
254.405	12236.47
254.475	12207.74
254.546	12188.8
254.616	12180.55
254.687	12166.48
254.757	12150.67
254.827	12131.48
254.898	12122.66
254.968	12095.24
255.039	12065.11
255.109	12050.84
255.18	12021.49
255.25	11977.67
255.321	11970.2
255.391	11937.67
255.461	11932.75
255.532	11880.02
255.602	11855.72
255.673	11822.27
255.743	11794.94
255.813	11748
255.884	11735.51
255.954	11726.07
256.024	11726.36
256.095	11707.03
256.165	11676.52
256.235	11665.29
256.306	11637
256.376	11625.77
256.446	11620.51
256.517	11611.21
256.587	11609.96
256.657	11590.58
256.728	11579.26
256.798	11562.29
256.868	11539.88
256.938	11517.47
257.009	11512.7
257.079	11503.88
257.149	11503.1
257.219	11461.17
257.29	11459
257.36	11422.91
257.43	11410.95
257.5	11367.19
257.571	11348.73
257.641	11338.32
257.711	11310.32
257.781	11301.84
257.852	11286.85
257.922	11257.6
257.992	11239.33
258.062	11214.8
258.132	11208.29
258.202	11187.57
258.273	11171.91
258.343	11169.21
258.413	11145.69
258.483	11128.1
258.553	11095.19
258.623	11073.84
258.693	11059.28
258.764	11058.99
258.834	11065.5
258.904	11044.63
258.974	11022.61
259.044	11000.16
259.114	10990.81
259.184	10969.7
259.254	10954.62
259.324	10920.3
259.394	10908.16
259.464	10913.27
259.535	10896.16
259.605	10871.25
259.675	10849.18
259.745	10835.25
259.815	10814
259.885	10793.33
259.955	10801.28
260.025	10778.44
260.095	10759.7
260.165	10754.01
260.235	10750.25
260.305	10727.66
260.375	10704.91
260.445	10711.03
260.515	10712.09
260.585	10700.91
260.655	10692.62
260.725	10691.47
260.795	10683.32
260.865	10690.02
260.934	10657.69
261.004	10651.86
261.074	10633.07
261.144	10636.49
261.214	10629.55
261.284	10610.85
261.354	10612.16
261.424	10591.77
261.494	10593.17
261.564	10579.15
261.634	10565.17
261.703	10534.72
261.773	10526.1
261.843	10515.69
261.913	10501.82
261.983	10470.93
262.053	10461.63
262.123	10443.76
262.192	10408.88
262.262	10400.2
262.332	10362.05
262.402	10356.22
262.472	10338.97
262.541	10309.97
262.611	10301.44
262.681	10283.23
262.751	10282.41
262.821	10257.36
262.89	10219.1
262.96	10212.41
263.03	10219.2
263.1	10211.93
263.169	10192.32
263.239	10185.62
263.309	10188.71
263.379	10176.85
263.448	10166.59
263.518	10161.2
263.588	10152.67
263.657	10150.07
263.727	10145.3
263.797	10132.78
263.867	10114.37
263.936	10088.84
264.006	10089.33
264.076	10076.46
264.145	10048.62
264.215	10019.24
264.285	10020.68
264.354	9995.78
264.424	9973.33
264.494	9939.47
264.563	9915.62
264.633	9928.48
264.702	9911.48
264.772	9888.36
264.842	9871.35
264.911	9866.44
264.981	9828.05
265.05	9806.28
265.12	9791.2
265.19	9778.05
265.259	9777.23
265.329	9771.16
265.398	9757.78
265.468	9765.72
265.537	9739.04
265.607	9739.23
265.676	9740.29
265.746	9728.83
265.815	9732.54
265.885	9720.79
265.955	9696.18
266.024	9677.3
266.094	9639.2
266.163	9644.74
266.232	9644.5
266.302	9631.64
266.371	9619.12
266.441	9615.75
266.51	9614.88
266.58	9602.17
266.649	9580.4
266.719	9578.9
266.788	9574.62
266.858	9583.43
266.927	9553.91
266.996	9550.3
267.066	9538.45
267.135	9516.92
267.205	9515.58
267.274	9508.83
267.343	9508.93
267.413	9505.46
267.482	9515.87
267.552	9516.49
267.621	9484.71
267.69	9452.15
267.76	9442.23
267.829	9434.62
267.898	9425.62
267.968	9399.57
268.037	9396.01
268.106	9400.2
268.176	9372.56
268.245	9359.07
268.314	9344.05
268.384	9344.29
268.453	9327.87
268.522	9317.52
268.592	9321.51
268.661	9296.9
268.73	9291.51
268.799	9271.29
268.869	9280.15
268.938	9248.13
269.007	9232.48
269.076	9227.04
269.146	9225.11
269.215	9224.01
269.284	9230.7
269.353	9218.9
269.422	9209.61
269.492	9193.87
269.561	9150.88
269.63	9145.53
269.699	9126.27
269.768	9111.54
269.838	9099.94
269.907	9105.95
269.976	9085.78
270.045	9050.83
270.114	9049.19
270.183	9030.95
270.253	9030.56
270.322	9001.92
270.391	8990.61
270.46	8993.88
270.529	8991.23
270.598	8989.64
270.667	8972.02
270.736	8946.84
270.806	8931.97
270.875	8936.16
270.944	8924.36
271.013	8950.84
271.082	8940.73
271.151	8938.95
271.22	8911.27
271.289	8898.95
271.358	8882.82
271.427	8883.21
271.496	8877.62
271.565	8858.95
271.634	8851.77
271.703	8872.96
271.772	8871.85
271.841	8860.78
271.91	8836.76
271.979	8824.83
272.048	8803.45
272.117	8808.6
272.186	8794.93
272.255	8798.93
272.324	8795.75
272.393	8783.67
272.462	8760.56
272.531	8759.41
272.6	8750.46
272.669	8757.29
272.738	8747.71
272.807	8743.76
272.876	8719.37
272.945	8740.06
273.013	8744.63
273.082	8747.23
273.151	8698.85
273.22	8689.42
273.289	8691.25
273.358	8702.75
273.427	8696.11
273.496	8700.25
273.564	8687.64
273.633	8691.34
273.702	8676.81
273.771	8663.77
273.84	8659.82
273.909	8663.09
273.977	8654.19
274.046	8639.46
274.115	8643.84
274.184	8625.36
274.253	8612.66
274.322	8624.83
274.39	8600.58
274.459	8589.31
274.528	8566.41
274.597	8563.18
274.665	8566.7
274.734	8573.19
274.803	8561.79
274.872	8553.89
274.94	8529.88
275.009	8584.1
275.078	8564.41
275.147	8553.78
275.215	8552.53
275.284	8564.03
275.353	8549.98
275.421	8535.06
275.49	8554.17
275.559	8542.47
275.627	8543.39
275.696	8541.46
275.765	8542.76
275.833	8531.84
275.902	8532.22
275.971	8540.07
276.039	8556.48
276.108	8559.61
276.177	8552.1
276.245	8547.43
276.314	8538.77
276.383	8553.93
276.451	8495.81
276.52	8497.83
276.588	8511.21
276.657	8517.85
276.725	8505.44
276.794	8506.01
276.863	8517.51
276.931	8486.09
277	8488.98
277.068	8493.84
277.137	8512.85
277.205	8506.64
277.274	8525.84
277.342	8532.72
277.411	8514.53
277.48	8502.65
277.548	8490.04
277.617	8490.08
277.685	8480.46
277.754	8491.19
277.822	8481.33
277.89	8497.31
277.959	8496.01
278.027	8482.82
278.096	8467.66
278.164	8496.98
278.233	8487.16
278.301	8470.51
278.37	8479.08
278.438	8471.04
278.507	8477.3
278.575	8446.74
278.643	8443.95
278.712	8422.01
278.78	8407.23
278.849	8420.08
278.917	8433.41
278.985	8430.95
279.054	8431.87
279.122	8443.22
279.191	8438.84
279.259	8433.26
279.327	8406.84
279.396	8415.89
279.464	8408.29
279.532	8416.52
279.601	8410.83
279.669	8410.4
279.737	8427.34
279.806	8431.38
279.874	8445.1
279.942	8439.71
280.011	8437.59
280.079	8446.59
280.147	8466.03
280.215	8468.29
280.284	8463.91
280.352	8443.31
280.42	8442.01
280.488	8430.61
280.557	8423.34
280.625	8425.8
280.693	8430.08
280.761	8429.79
280.83	8418.92
280.898	8436.24
280.966	8416.85
281.034	8382.44
281.102	8369.45
281.171	8365.12
281.239	8371.42
281.307	8361.17
281.375	8353.43
281.443	8380.81
281.512	8373.54
281.58	8381.96
281.648	8366.23
281.716	8364.98
281.784	8370.75
281.852	8373.11
281.92	8377.97
281.989	8385.48
282.057	8366.52
282.125	8392.7
282.193	8395.25
282.261	8393.33
282.329	8383.65
282.397	8390.68
282.465	8400.93
282.533	8408.48
282.601	8397.32
282.67	8377.68
282.738	8366.62
282.806	8375.61
282.874	8359.54
282.942	8364.16
283.01	8353.57
283.078	8364.78
283.146	8364.3
283.214	8367.19
283.282	8370.36
283.35	8380.66
283.418	8373.16
283.486	8385.42
283.554	8357.85
283.622	8359.05
283.69	8366.9
283.758	8366.46
283.826	8373.29
283.894	8380.46
283.962	8407.7
284.03	8422.57
284.098	8417.9
284.165	8418.14
284.233	8414.97
284.301	8405.01
284.369	8394.33
284.437	8387.73
284.505	8383.45
284.573	8394.71
284.641	8382.15
284.709	8383.5
284.777	8366.71
284.845	8373.44
284.912	8374.41
284.98	8377.29
285.048	8372.05
285.116	8373.35
285.184	8385.66
285.252	8378.98
285.319	8362.28
285.387	8350.1
285.455	8331.63
285.523	8336.29
285.591	8333.6
285.659	8333.65
285.726	8345.24
285.794	8336.68
285.862	8332.16
285.93	8329.37
285.997	8322.44
286.065	8323.59
286.133	8319.12
286.201	8316.18
286.269	8304.1
286.336	8293.09
286.404	8291.79
286.472	8294.19
286.539	8269.95
286.607	8250.8
286.675	8250.27
286.743	8253.35
286.81	8244.25
286.878	8258.88
286.946	8259.36
287.013	8259.46
287.081	8260.85
287.149	8251.71
287.216	8265.23
287.284	8260.13
287.352	8255.7
287.419	8251.18
287.487	8264.08
287.555	8262.78
287.622	8259.89
287.69	8264.99
287.758	8280.53
287.825	8273.56
287.893	8267.3
287.96	8272.5
288.028	8283.37
288.096	8286.98
288.163	8284.24
288.231	8271.68
288.298	8271.01
288.366	8282.07
288.433	8277.31
288.501	8267.21
288.569	8274.18
288.636	8270.19
288.704	8282.36
288.771	8292.66
288.839	8287.41
288.906	8277.12
288.974	8287.46
289.041	8284.19
289.109	8272.93
289.176	8273.08
289.244	8277.65
289.311	8288.43
289.379	8301.61
289.446	8302.38
289.514	8309.21
289.581	8319.22
289.649	8328.02
289.716	8325.23
289.783	8318.3
289.851	8337.69
289.918	8340.43
289.986	8346.64
290.053	8353.76
290.121	8357.47
290.188	8358.24
290.255	8387.88
290.323	8384.41
290.39	8379.75
290.458	8387.78
290.525	8400.39
290.592	8402.07
290.66	8404.48
290.727	8397.59
290.794	8406.98
290.862	8406.02
290.929	8405.05
290.996	8401.54
291.064	8413.95
291.131	8423.34
291.198	8433.83
291.266	8433.25
291.333	8433.78
291.4	8434.89
291.468	8442.73
291.535	8440.61
291.602	8447.74
291.669	8436.43
291.737	8441.48
291.804	8440.18
291.871	8452.02
291.938	8457.65
292.006	8476.32
292.073	8492.06
292.14	8504.18
292.207	8499.99
292.275	8504.47
292.342	8514.48
292.409	8540.18
292.476	8559.48
292.543	8552.36
292.611	8552.93
292.678	8565.11
292.745	8587.87
292.812	8597.26
292.879	8593.93
292.946	8592.11
293.014	8604.38
293.081	8607.99
293.148	8622.04
293.215	8638.93
293.282	8640.86
293.349	8650.53
293.416	8640.71
293.484	8646.87
293.551	8656.74
293.618	8673.05
293.685	8698.03
293.752	8692.11
293.819	8689.8
293.886	8679.74
293.953	8686.82
294.02	8693.22
294.087	8696.92
294.154	8690.67
294.221	8702.51
294.288	8703.9
294.356	8725.71
294.423	8731.77
294.49	8727.15
294.557	8739.67
294.624	8731.34
294.691	8749.58
294.758	8749.63
294.825	8750.59
294.892	8744.96
294.959	8741.3
295.026	8746.12
295.093	8735.09
295.16	8738.7
295.226	8742.41
295.293	8762.19
295.36	8766.48
295.427	8780.53
295.494	8795.7
295.561	8803.11
295.628	8826.89
295.695	8840.85
295.762	8841.09
295.829	8846.1
295.896	8866.65
295.963	8874.93
296.03	8884.99
296.096	8885.71
296.163	8900.97
296.23	8911.8
296.297	8921.62
296.364	8926.96
296.431	8935.68
296.498	8932.93
296.564	8949.35
296.631	8946.84
296.698	8931.97
296.765	8953.1
296.832	8943.91
296.899	8931.49
296.965	8949.92
297.032	8926.28
297.099	8939.09
297.166	8941.69
297.233	8938.03
297.299	8930.62
297.366	8927.73
297.433	8928.02
297.5	8934.42
297.566	8933.65
297.633	8936.34
297.7	8938.27
297.767	8934.71
297.833	8936.68
297.9	8938.56
297.967	8926.38
298.033	8936.25
298.1	8963.21
298.167	8952.38
298.234	8957.24
298.3	8967.01
298.367	8964.8
298.434	8973.94
298.5	8969.8
298.567	8967.69
298.634	8968.55
298.7	8978.32
298.767	8977.55
298.834	8989.16
298.9	8984.82
298.967	8976.78
299.033	8979.43
299.1	8993.78
299.167	9005.28
299.233	9000.66
299.3	9016.4
299.366	9034.41
299.433	9052.27
299.5	9029.74
299.566	9036.09
299.633	9045.24
299.699	9053.62
299.766	9050.97
299.832	9051.21
299.899	9055.78
299.965	9065.12
300.032	9057.28
300.099	9067.14
300.165	9073.21
300.232	9070.71
300.298	9068.64
300.365	9080.34
300.431	9085.34
300.498	9078.89
300.564	9086.74
300.631	9096.08
300.697	9104.5
300.763	9098.44
300.83	9096.9
300.896	9111.73
300.963	9120.2
301.029	9130.26
301.096	9128.72
301.162	9134.11
301.229	9129.2
301.295	9114.71
301.361	9113.75
301.428	9123.62
301.494	9108.16
301.561	9108.84
301.627	9105.66
301.693	9113.75
301.76	9118.76
301.826	9111
301.892	9120.49
301.959	9122.99
302.025	9112.02
302.092	9099.02
302.158	9105.85
302.224	9100.22
302.291	9085.87
302.357	9080.82
302.423	9073.59
302.49	9065.41
302.556	9080.53
302.622	9080.14
302.688	9093.38
302.755	9108.07
302.821	9114.09
302.887	9127.9
302.954	9125.49
303.02	9135.7
303.086	9140.95
303.152	9131.32
303.219	9133.82
303.285	9141.58
303.351	9150.68
303.417	9159.54
303.483	9155.97
303.55	9147.98
303.616	9143.74
303.682	9144.23
303.748	9134.89
303.815	9148.9
303.881	9160.07
303.947	9142.69
304.013	9143.84
304.079	9139.94
304.145	9113.13
304.212	9111.1
304.278	9098.15
304.344	9095.22
304.41	9083.08
304.476	9070.47
304.542	9067.44
304.608	9067.68
304.674	9043.7
304.741	9033.35
304.807	9031.9
304.873	9038.69
304.939	9052.03
305.005	9032.87
305.071	9033.16
305.137	9033.93
305.203	8998.78
305.269	8992.76
305.335	9001.24
305.401	9000.47
305.467	8995.51
305.533	9008.65
305.599	9008.8
305.666	9014.38
305.732	9012.84
305.798	9021.65
305.864	9043.7
305.93	9051.21
305.996	9047.55
306.062	9052.13
306.128	9047.7
306.194	9035.81
306.259	9035.37
306.325	9024.68
306.391	9034.99
306.457	9039.51
306.523	9044.66
306.589	9072.87
306.655	9065.6
306.721	9045
306.787	9034.21
306.853	9045.14
306.919	9028.92
306.985	9017.8
307.051	9013.03
307.117	9002.16
307.183	8996.23
307.248	8969.85
307.314	8973.22
307.38	8972.79
307.446	8977.89
307.512	8967.01
307.578	8968.98
307.644	8959.16
307.709	8963.26
307.775	8956.04
307.841	8951.56
307.907	8944.14
307.973	8926.76
308.039	8922.48
308.104	8928.11
308.17	8920.75
308.236	8904.57
308.302	8902.12
308.368	8894.03
308.433	8894.66
308.499	8889.56
308.565	8882
308.631	8879.59
308.696	8854.8
308.762	8844.79
308.828	8833.57
308.894	8811.19
308.959	8791.89
309.025	8789.48
309.091	8780.96
309.156	8776.82
309.222	8774.56
309.288	8764.65
309.354	8741.64
309.419	8740.2
309.485	8724.6
309.551	8724.99
309.616	8712.09
309.682	8712.04
309.748	8707.32
309.813	8700.68
309.879	8692.07
309.945	8674.31
310.01	8675.17
310.076	8675.41
310.141	8668.77
310.207	8658.52
310.273	8658.13
310.338	8661.41
310.404	8634.6
310.469	8618.72
310.535	8605.2
310.601	8581.9
310.666	8586.91
310.732	8594.42
310.797	8582.62
310.863	8577.19
310.928	8572.23
310.994	8575.79
311.059	8573.09
311.125	8569.24
311.191	8577.57
311.256	8563.86
311.322	8571.56
311.387	8543.46
311.453	8816.43
311.518	8789.25
311.584	8783.04
311.649	8795.31
311.715	8779.82
311.78	8779.1
311.846	8770.34
311.911	8780.49
311.976	8783.33
312.042	8764.9
312.107	8750.18
312.173	8737.62
312.238	8731.84
312.304	8728.04
312.369	8713.7
312.434	8700.27
312.5	8689.83
312.565	8653.21
312.631	8658.84
312.696	8645.12
312.761	8643.83
312.827	8359.25
312.892	8395.77
312.958	8394.33
313.023	8384.32
313.088	8382.25
313.154	8377.29
313.219	8364.93
313.284	8351.02
313.35	8340.48
313.415	8329.8
313.48	8328.65
313.546	8330.67
313.611	8336.64
313.676	8322.49
313.741	8312.24
313.807	8321.19
313.872	8321.63
313.937	8322.64
314.003	8333.27
314.068	8334.18
314.133	8341.59
314.198	8332.07
314.264	8308.77
314.329	8291.31
314.394	8289.77
314.459	8291.6
314.525	8304.35
314.59	8306.51
314.655	8293.91
314.72	8302.47
314.785	8304.15
314.851	8287.94
314.916	8270.29
314.981	8251.86
315.046	8244.93
315.111	8238.2
315.176	8224.73
315.242	8227.52
315.307	8228.96
315.372	8205.34
315.437	8194.7
315.502	8186.38
315.567	8187.58
315.632	8169.83
315.698	8176.66
315.763	8170.6
315.828	8157.76
315.893	8151.26
315.958	8148.86
316.023	8141.35
316.088	8121.87
316.153	8101.23
316.218	8102.96
316.283	8086.95
316.348	8075.89
316.413	8076.99
316.479	8059.63
316.544	8027.02
316.609	8000.18
316.674	7966.9
316.739	7937.71
316.804	7906.94
316.869	7872.17
316.934	7847.92
316.999	7824.75
317.064	7775.22
317.129	7731.7
317.194	7698.33
317.259	7655.38
317.324	7601.88
317.389	7558.46
317.454	7525.43
317.518	7495.92
317.583	7470.77
317.648	7447.02
317.713	7410.44
317.778	7352.17
317.843	7329.2
317.908	7294.36
317.973	7256.67
318.038	7232.21
318.103	7201.26
318.168	7175.5
318.233	7148.5
318.297	7101.11
318.362	7065.84
318.427	7031.88
318.492	7014.91
318.557	6972.84
318.622	6949.92
318.687	6930.22
318.751	6897.04
318.816	6866.34
318.881	6835.21
318.946	6779.73
319.011	6741.21
319.075	6704.57
319.14	6674.84
319.205	6630.13
319.27	6598.97
319.335	6557.73
319.399	6520.32
319.464	6495.16
319.529	6442.74
319.594	6408.22
319.658	6376.39
319.723	6339.09
319.788	6313.85
319.853	6261.18
319.917	6236.37
319.982	6186.69
320.047	6150.55
320.112	6129.63
320.176	6082.94
320.241	6049.88
320.306	6029.29
320.37	5992.16
320.435	5963.37
320.5	5938.95
320.564	5907.68
320.629	5868.64
320.694	5839.96
320.758	5800.87
320.823	5758.24
320.888	5734.26
320.952	5685.02
321.017	5648.58
321.082	5612.33
321.146	5578.91
321.211	5542.48
321.275	5501.5
321.34	5461.96
321.405	5424
321.469	5378.71
321.534	5335.92
321.598	5286.66
321.663	5254.93
321.727	5225.17
321.792	5181.66
321.857	5136.34
321.921	5098.63
321.986	5059.75
322.05	5004.15
322.115	4971.63
322.179	4929.3
322.244	4878.27
322.308	4849.26
322.373	4800.57
322.437	4758.88
322.502	4735.5
322.566	4698.02
322.631	4668.06
322.695	4630.4
322.76	4585.71
322.824	4553.31
322.889	4515.14
322.953	4474.63
323.018	4409.85
323.082	4349.97
323.146	4301.14
323.211	4257.48
323.275	4213
323.34	4170.07
323.404	4140.97
323.468	4095.83
323.533	4056.73
323.597	4014.69
323.662	3967.56
323.726	3941.13
323.79	3900.94
323.855	3836.22
323.919	3784.91
323.983	3739.33
324.048	3678.17
324.112	3841.93
324.177	3720.49
324.241	3530.61
324.305	3344.25
324.37	3162.87
324.434	2986.02
324.498	2946
324.562	2897.8
324.627	2845.41
324.691	2798.14
324.755	2739.56
324.82	2670.63
324.884	2601.52
324.948	2540.84
325.012	2457.92
325.077	2342.33
