Data from 20250625_urea_1M_1_MAYP1162681_19-15-05-742.txt Node
Date: Wed Jun 25 19:15:05 BST 2025
User: adleo
Spectrometer: MAYP116268
Trigger mode: 0
Integration Time (sec): 1.000000E0
Scans to average: 1
Electric dark correction enabled: true
Nonlinearity correction enabled: true
Boxcar width: 10
XAxis mode: Wavelengths
Number of Pixels in Spectrum: 2068
>>>>>Begin Spectral Data<<<<<
179.565	1163.61
179.642	1222.12
179.718	1264.41
179.795	1303.51
179.871	1333.74
179.948	1354.39
180.024	1372.2
180.101	1394.96
180.177	1407.18
180.254	1427.21
180.33	1450.38
180.407	1500.13
180.483	1594.05
180.56	1680.85
180.636	1763.41
180.712	1750.15
180.789	1756.52
180.865	1768.77
180.942	1777.28
181.018	1788.73
181.095	1802.52
181.171	1807.22
181.248	1806.27
181.324	1821.96
181.4	1824.38
181.477	1834.32
181.553	1842.02
181.63	1863.79
181.706	1878.48
181.782	1887.98
181.859	1889.08
181.935	1890.98
182.011	1889.22
182.088	1902.48
182.164	1919.99
182.24	1929.68
182.317	1940.76
182.393	1937.95
182.469	1951.84
182.546	1968.05
182.622	1970
182.698	1963.77
182.775	1977.46
182.851	1989.73
182.927	1980.12
183.003	1979.74
183.08	1975.37
183.156	1985.73
183.232	1984.97
183.308	1974.08
183.385	1979.98
183.461	1993.29
183.537	1994.24
183.613	2006.28
183.69	1999.09
183.766	1989.68
183.842	1996.76
183.918	2000.99
183.995	2014.64
184.071	2016.97
184.147	2011.07
184.223	2001.47
184.299	2016.69
184.375	2005.18
184.452	2012.8
184.528	2072.23
184.604	2080.93
184.68	2094.34
184.756	2102.04
184.832	2104.28
184.908	2107.08
184.985	2110.84
185.061	2098.57
185.137	2109.89
185.213	2096.67
185.289	2096.43
185.365	2091.49
185.441	2093.63
185.517	2108.67
185.593	2105.81
185.669	2105.05
185.745	2112.28
185.822	2129.59
185.898	2118.98
185.974	2128.77
186.05	2118.5
186.126	2077.57
186.202	2069.68
186.278	2065.59
186.354	2056.17
186.43	2061.5
186.506	2060.07
186.582	2056.93
186.658	2061.21
186.734	2042.62
186.81	2045.33
186.886	2051.51
186.962	2061.16
187.038	2056.17
187.114	2045.22
187.19	2050.36
187.266	2038.33
187.341	2038.66
187.417	2029.82
187.493	2030.96
187.569	2034.34
187.645	2031.67
187.721	2017.78
187.797	2029.01
187.873	2032.95
187.949	2025.01
188.025	2017.83
188.101	2024.53
188.176	2029.91
188.252	2027.91
188.328	2032.14
188.404	2032.43
188.48	2026.86
188.556	2016.88
188.632	2017.3
188.707	2018.83
188.783	2019.06
188.859	2015.36
188.935	2005.47
189.011	2014.02
189.086	2008.27
189.162	2000.47
189.238	1994.15
189.314	1991.06
189.39	1986.35
189.465	1979.5
189.541	1998.95
189.617	1985.88
189.693	1977.6
189.768	1979.74
189.844	2002.72
189.92	1995.4
189.996	2006.96
190.071	2016.9
190.147	2020.99
190.223	2029.21
190.298	2023.46
190.374	2010.1
190.45	2022.55
190.526	2029.97
190.601	2023.22
190.677	2024.41
190.753	2050.1
190.828	2057.47
190.904	2073.65
190.98	2086.49
191.055	2094.67
191.131	2084.11
191.207	2103.32
191.282	2111.74
191.358	2103.23
191.433	2090.24
191.509	2105.4
191.585	2101.07
191.66	2100.5
191.736	2109.35
191.811	2099.84
191.887	2114.35
191.963	2134.99
192.038	2139.94
192.114	2141.89
192.189	2146.31
192.265	2140.56
192.34	2117.19
192.416	2115.05
192.491	2109.96
192.567	2113.05
192.642	2118.1
192.718	2120.43
192.793	2108.73
192.869	2105.68
192.944	2107.39
193.02	2113.25
193.095	2115.24
193.171	2119.76
193.246	2121.19
193.322	2116.67
193.397	2117.91
193.473	2105.15
193.548	2091.41
193.624	2097.12
193.699	2096.83
193.775	2113.25
193.85	2117.19
193.925	2129.7
194.001	2126.42
194.076	2120.43
194.152	2107.92
194.227	2096.69
194.302	2088.03
194.378	2091.13
194.453	2090.98
194.529	2102.59
194.604	2090.36
194.679	2084.32
194.755	2067.02
194.83	2078.34
194.905	2074.59
194.981	2083.05
195.056	2077.01
195.131	2082.96
195.207	2079.34
195.282	2067.22
195.357	2046.81
195.433	2061.98
195.508	2048.32
195.583	2058.45
195.659	2070.39
195.734	2080.1
195.809	2083.57
195.884	2088.61
195.96	2091.08
196.035	2104.64
196.11	2102.07
196.185	2115.06
196.261	2114.77
196.336	2145.17
196.411	2132.27
196.486	2137.46
196.561	2129.47
196.637	2137.12
196.712	2150.49
196.787	2152.21
196.862	2171.09
196.937	2182.27
197.013	2187.22
197.088	2195.83
197.163	2215.91
197.238	2235.24
197.313	2233.29
197.388	2245.95
197.464	2276.74
197.539	2288.35
197.614	2280.03
197.689	2292.74
197.764	2305.78
197.839	2330.19
197.914	2324.72
197.989	2342.56
198.065	2356.79
198.14	2410.76
198.215	2434.6
198.29	2449.99
198.365	2467.65
198.44	2475.36
198.515	2501.69
198.59	2514.69
198.665	2540.4
198.74	2549.02
198.815	2546.26
198.89	2571.74
198.965	2600.37
199.04	2596.13
199.115	2608.75
199.19	2651.7
199.265	2656.08
199.34	2665.08
199.415	2697.54
199.49	2717.26
199.565	2729.26
199.64	2754.17
199.715	2746.35
199.79	2754.88
199.865	2759.69
199.94	2755.31
200.015	2788.67
200.09	2797.77
200.165	2806.97
200.24	2812.16
200.315	2850.65
200.39	2867.09
200.464	2868.48
200.539	2868.38
200.614	2887.06
200.689	2908.03
200.764	2914.51
200.839	2929.66
200.914	2935
200.989	2924.6
201.063	2938.67
201.138	2921.62
201.213	2920.33
201.288	2902.12
201.363	2907.51
201.438	2902.46
201.512	2917.75
201.587	2898.16
201.662	2898.11
201.737	2909.41
201.812	2919.85
201.886	2887.65
201.961	2896
202.036	2881.8
202.111	2879.08
202.186	2848.41
202.26	2835.01
202.335	2814.13
202.41	2808.41
202.485	2791.5
202.559	2771.59
202.634	2744.95
202.709	2753.28
202.784	2734.85
202.858	2737.42
202.933	2720.07
203.008	2713.93
203.082	2695.68
203.157	2696.97
203.232	2655.64
203.306	2634.53
203.381	2600.6
203.456	2578.17
203.53	2554.62
203.605	2537.91
203.68	2515.14
203.754	2508.19
203.829	2492.76
203.904	2475.38
203.978	2461.86
204.053	2467.71
204.127	2456.1
204.202	2452.86
204.277	2439.34
204.351	2432.86
204.426	2424.86
204.5	2412.91
204.575	2382.12
204.65	2392.6
204.724	2385.07
204.799	2396.06
204.873	2394.73
204.948	2394.59
205.022	2386.07
205.097	2378.59
205.171	2394.96
205.246	2402.77
205.32	2405.39
205.395	2405.96
205.469	2397.59
205.544	2405.97
205.618	2390.02
205.693	2399.73
205.767	2389.88
205.842	2408.5
205.916	2402.07
205.991	2392.5
206.065	2400.26
206.14	2418.15
206.214	2410.91
206.289	2403.29
206.363	2412.29
206.438	2411.24
206.512	2420.05
206.586	2435.37
206.661	2446.33
206.735	2421.73
206.81	2425.16
206.884	2437.01
206.958	2422.83
207.033	2436.77
207.107	2443.58
207.181	2474.83
207.256	2470.59
207.33	2488.97
207.405	2498.59
207.479	2516.06
207.553	2523.4
207.628	2510.78
207.702	2518.69
207.776	2516.11
207.851	2520.4
207.925	2538.46
207.999	2538.03
208.073	2535.5
208.148	2536.88
208.222	2524.12
208.296	2557.2
208.371	2574.02
208.445	2587.98
208.519	2619.07
208.593	2633.22
208.668	2631.17
208.742	2633.5
208.816	2639.27
208.89	2654.99
208.965	2655.23
209.039	2669.38
209.113	2687.58
209.187	2710.24
209.261	2710.91
209.336	2733.82
209.41	2755.22
209.484	2760.94
209.558	2789.92
209.632	2809.07
209.707	2829.08
209.781	2859.1
209.855	2884.22
209.929	2908.46
210.003	2928.58
210.077	2940.12
210.151	2997.28
210.226	3044.94
210.3	3085.98
210.374	3125.6
210.448	3150.79
210.522	3183.42
210.596	3214.05
210.67	3247.49
210.744	3322.52
210.818	3382.28
210.892	3432.12
210.966	3460.17
211.041	3508.34
211.115	3541.04
211.189	3607.07
211.263	3671.49
211.337	3724.12
211.411	3785.84
211.485	3829.53
211.559	3894.17
211.633	3957.98
211.707	3996.67
211.781	4071.69
211.855	4110.18
211.929	4173.46
212.003	4230.25
212.077	4321.82
212.151	4418.14
212.225	4519.11
212.299	4597.38
212.373	4685.92
212.447	4782.32
212.52	4920.1
212.594	5036.37
212.668	5162.84
212.742	5266.78
212.816	5383.26
212.89	5505.49
212.964	5635.75
213.038	5773.99
213.112	5921.32
213.186	6076.56
213.26	6197.83
213.333	6297.82
213.407	6455.18
213.481	6619.29
213.555	6792.72
213.629	6948.49
213.703	7099.31
213.777	7264.21
213.85	7417.02
213.924	7631.04
213.998	7811.32
214.072	7987.68
214.146	8154.01
214.219	8338.18
214.293	8525.14
214.367	8717.45
214.441	8919.2
214.515	9099.63
214.588	9268.45
214.662	9432.06
214.736	9606.36
214.81	9811.18
214.883	10019.87
214.957	10209.58
215.031	10391.5
215.105	10571.65
215.178	10760.57
215.252	10960.33
215.326	11143.43
215.4	11332.23
215.473	11486.84
215.547	11670.95
215.621	11864.22
215.694	12075.52
215.768	12255.5
215.842	12442.18
215.915	12625.15
215.989	12800.71
216.063	12991.16
216.136	13195.01
216.21	13388.74
216.284	13599.34
216.357	13803.1
216.431	13995.43
216.504	14202.71
216.578	14432.06
216.652	14632.3
216.725	14824.24
216.799	15006.78
216.873	15186.97
216.946	15366.38
217.02	15540.24
217.093	15718.15
217.167	15864.24
217.24	16016.02
217.314	16177.73
217.387	16344.26
217.461	16504.42
217.535	16679.71
217.608	16831.77
217.682	16997.51
217.755	17173.86
217.829	17321.91
217.902	17472.46
217.976	17626.3
218.049	17763.11
218.123	17874.58
218.196	18028.56
218.27	18161.37
218.343	18299.54
218.417	18444.54
218.49	18582.9
218.563	18738.07
218.637	18879.27
218.71	19036.71
218.784	19179.02
218.857	19325.09
218.931	19461.9
219.004	19594.38
219.077	19718.71
219.151	19846.8
219.224	19953.98
219.298	20073.3
219.371	20193.16
219.444	20294.55
219.518	20401.3
219.591	20501.35
219.665	20644
219.738	20746.66
219.811	20837.31
219.885	20936.25
219.958	21043.64
220.031	21136.31
220.105	21224.61
220.178	21303.56
220.251	21381.45
220.325	21474.62
220.398	21555.31
220.471	21623.32
220.544	21710.95
220.618	21779.44
220.691	21853.67
220.764	21937.4
220.838	22005.37
220.911	22073.68
220.984	22156.69
221.057	22231.89
221.131	22309.11
221.204	22337.56
221.277	22421.73
221.35	22509.81
221.424	22568.72
221.497	22630.19
221.57	22690.21
221.643	22747.3
221.716	22806.84
221.79	22838.75
221.863	22882.34
221.936	22925.83
222.009	22972.4
222.082	23007.07
222.155	23046.56
222.229	23111.56
222.302	23151.91
222.375	23184.94
222.448	23217.59
222.521	23246.04
222.594	23269.66
222.667	23280.37
222.74	23320.87
222.814	23327.14
222.887	23346.96
222.96	23389.25
223.033	23407.1
223.106	23435.3
223.179	23460.77
223.252	23477.6
223.325	23512.8
223.398	23525.77
223.471	23541.01
223.544	23562.52
223.617	23577.85
223.69	23605.48
223.763	23593.81
223.837	23605.72
223.91	23627.91
223.983	23636.83
224.056	23640.83
224.129	23648.65
224.202	23678.11
224.275	23684.33
224.348	23678.45
224.42	23677.48
224.493	23654.91
224.566	23655.35
224.639	23662.34
224.712	23650.28
224.785	23654
224.858	23644.25
224.931	23635.19
225.004	23616.09
225.077	23614.07
225.15	23583.78
225.223	23567.87
225.296	23587.45
225.369	23559.58
225.442	23529.97
225.514	23513.62
225.587	23502.82
225.66	23499.44
225.733	23485.65
225.806	23473.5
225.879	23462.89
225.952	23434.92
226.025	23429.57
226.097	23427.49
226.17	23402.51
226.243	23369.63
226.316	23355.01
226.389	23337.03
226.461	23325.26
226.534	23318.22
226.607	23292.95
226.68	23296.76
226.753	23282.88
226.825	23231.61
226.898	23226.94
226.971	23208.86
227.044	23202.63
227.117	23177.18
227.189	23158.42
227.262	23142.31
227.335	23131.99
227.407	23110.44
227.48	23101.81
227.553	23080.11
227.626	23046.31
227.698	23036.33
227.771	23025.96
227.844	22986.09
227.916	22972.92
227.989	22937.78
228.062	22911.16
228.134	22911.4
228.207	22894.62
228.28	22863.33
228.352	22845.4
228.425	22825.82
228.498	22817.72
228.57	22775.15
228.643	22766.91
228.716	22745.5
228.788	22715.22
228.861	22671.68
228.934	22659
229.006	22622.22
229.079	22598.89
229.151	22575.45
229.224	22532.06
229.296	22510.85
229.369	22537.08
229.442	22523.73
229.514	22496.25
229.587	22490.61
229.659	22442.59
229.732	22415.79
229.804	22403.01
229.877	22397.47
229.949	22385.22
230.022	22374.18
230.094	22356.1
230.167	22335.57
230.239	22295.46
230.312	22274.54
230.384	22275.26
230.457	22253.13
230.529	22243.64
230.602	22219.44
230.674	22198.03
230.747	22182.95
230.819	22172.63
230.892	22096.99
230.964	22081.37
231.037	22065.56
231.109	22038.52
231.181	22027.19
231.254	21993.06
231.326	21962.74
231.399	21928.52
231.471	21887.59
231.544	21837.7
231.616	21817.6
231.688	21796.2
231.761	21770.12
231.833	21733.92
231.905	21686.73
231.978	21659.5
232.05	21620.89
232.122	21596.26
232.195	21556.45
232.267	21538.71
232.339	21493.54
232.412	21483.04
232.484	21435.51
232.556	21400.71
232.629	21390.73
232.701	21364.03
232.773	21339.45
232.846	21304.27
232.918	21282.58
232.99	21258.77
233.062	21238.14
233.135	21215.48
233.207	21167.24
233.279	21147.33
233.351	21125.02
233.424	21093.02
233.496	21051.57
233.568	21032.29
233.64	20991.61
233.713	20962.17
233.785	20932.91
233.857	20909.63
233.929	20857.44
234.001	20844.23
234.074	20826.11
234.146	20774.44
234.218	20740.27
234.29	20706.97
234.362	20664.85
234.434	20609.91
234.507	20557.77
234.579	20511.31
234.651	20465.81
234.723	20446.63
234.795	20422
234.867	20390.2
234.939	20376.65
235.012	20350.78
235.084	20333.81
235.156	20316.27
235.228	20280.7
235.3	20240.61
235.372	20215.45
235.444	20204.7
235.516	20153.19
235.588	20119.26
235.66	20094.2
235.732	20053
235.804	20070.83
235.876	20050.64
235.948	20058.01
236.02	20033.53
236.092	20003.8
236.164	19971.84
236.236	19929.87
236.308	19882.21
236.38	19851.71
236.452	19811.22
236.524	19782.46
236.596	19766.55
236.668	19735.23
236.74	19704.24
236.812	19676.58
236.884	19646.9
236.956	19620.39
237.028	19580.92
237.1	19544.01
237.172	19528.2
237.244	19519.24
237.316	19448.49
237.388	19408.06
237.46	19350.91
237.532	19335.1
237.604	19297.66
237.675	19292.36
237.747	19265.85
237.819	19227.06
237.891	19200.03
237.963	19149.33
238.035	19114.11
238.107	19036.52
238.178	19020.04
238.25	18986.55
238.322	18969.01
238.394	18920.29
238.466	18871.71
238.538	18843.13
238.609	18822.03
238.681	18763.77
238.753	18716.01
238.825	18686.61
238.897	18660.59
238.968	18642.23
239.04	18604.5
239.112	18593.99
239.184	18537.85
239.255	18504.89
239.327	18487.01
239.399	18445.57
239.471	18429.38
239.542	18400.36
239.614	18388.85
239.686	18334.2
239.758	18317.57
239.829	18277.72
239.901	18258.64
239.973	18228.81
240.044	18212.04
240.116	18170.79
240.188	18133.58
240.259	18108.47
240.331	18069.39
240.403	18046.31
240.474	18000.53
240.546	17956.67
240.618	17912.77
240.689	17881.69
240.761	17851.86
240.833	17833.4
240.904	17800.29
240.976	17760.87
241.048	17726.56
241.119	17706.7
241.191	17681.84
241.262	17670.51
241.334	17635.43
241.405	17607.67
241.477	17565.6
241.549	17524.73
241.62	17501.74
241.692	17479.19
241.763	17454.37
241.835	17423.38
241.906	17393.69
241.978	17341.31
242.049	17328.44
242.121	17304.34
242.192	17287.57
242.264	17241.31
242.335	17193.26
242.407	17175.96
242.478	17147.04
242.55	17124.58
242.621	17081.11
242.693	17034.36
242.764	16988.24
242.836	16953.88
242.907	16920.43
242.979	16903.32
243.05	16878.02
243.122	16845.83
243.193	16812.72
243.264	16757.77
243.336	16725.43
243.407	16699.41
243.479	16700.08
243.55	16672.27
243.622	16645.48
243.693	16618.25
243.764	16617.48
243.836	16582.15
243.907	16549.81
243.978	16522.77
244.05	16490.33
244.121	16440.5
244.192	16415.1
244.264	16377.46
244.335	16355.57
244.407	16306.03
244.478	16284.53
244.549	16251.8
244.62	16214.79
244.692	16185.48
244.763	16172.71
244.834	16144.03
244.906	16111.79
244.977	16082.39
245.048	16059.64
245.119	16024.02
245.191	15978.62
245.262	15917.31
245.333	15900.15
245.405	15872.92
245.476	15856.14
245.547	15830.55
245.618	15822.74
245.689	15805.29
245.761	15769.48
245.832	15737.67
245.903	15724.32
245.974	15696.7
246.045	15669.18
246.117	15661.56
246.188	15623.77
246.259	15582.32
246.33	15550.07
246.401	15520.19
246.473	15476.52
246.544	15448.46
246.615	15434.15
246.686	15405.8
246.757	15396.31
246.828	15355.48
246.899	15337.02
246.97	15287.56
247.042	15252.14
247.113	15229.53
247.184	15222.35
247.255	15198.39
247.326	15171.45
247.397	15145.03
247.468	15119.53
247.539	15095.67
247.61	15045.59
247.681	15035.13
247.752	15027.46
247.823	14996.13
247.894	14968.41
247.965	14941.08
248.037	14906.04
248.108	14868.15
248.179	14842.94
248.25	14811.37
248.321	14796.33
248.392	14764.03
248.463	14760.13
248.534	14739.25
248.605	14719.11
248.675	14692.02
248.746	14664.35
248.817	14645.16
248.888	14623.03
248.959	14579.22
249.03	14562.1
249.101	14544.22
249.172	14514.91
249.243	14469.89
249.314	14461.16
249.385	14439.76
249.456	14418.45
249.527	14385.48
249.598	14359.06
249.669	14338.77
249.739	14327.34
249.81	14307.92
249.881	14274.22
249.952	14253.3
250.023	14237.3
250.094	14193.77
250.165	14161.03
250.235	14144.5
250.306	14120.93
250.377	14089.3
250.448	14077.64
250.519	14027.46
250.59	14020.71
250.66	13994.87
250.731	13989.57
250.802	13969.8
250.873	13950.95
250.944	13930.66
251.014	13911.18
251.085	13912.44
251.156	13892.19
251.227	13881.78
251.297	13876.81
251.368	13863.27
251.439	13841.38
251.51	13825.33
251.58	13800.5
251.651	13772.78
251.722	13762.42
251.792	13724.24
251.863	13704.42
251.934	13693.19
252.005	13709.78
252.075	13687.75
252.146	13674.44
252.217	13663.11
252.287	13642.72
252.358	13629.08
252.429	13622.33
252.499	13597.98
252.57	13581.16
252.641	13570.22
252.711	13547.37
252.782	13511.21
252.852	13511.41
252.923	13498.15
252.994	13475.2
253.064	13468.55
253.135	13441.7
253.205	13409.83
253.276	13412.82
253.347	13408.82
253.417	13387.95
253.488	13355.79
253.558	13326.63
253.629	13305.9
253.699	13286.71
253.77	13279.48
253.841	13245.69
253.911	13227.9
253.982	13213.49
254.052	13196.28
254.123	13180.85
254.193	13158.92
254.264	13173.62
254.334	13136.07
254.405	13102.81
254.475	13075.18
254.546	13059.32
254.616	13054.65
254.687	13046.16
254.757	13033.39
254.827	13011.31
254.898	12990.25
254.968	12976.41
255.039	12961.42
255.109	12946.43
255.18	12920.93
255.25	12880.77
255.321	12873.39
255.391	12847.41
255.461	12849.34
255.532	12802.1
255.602	12771.25
255.673	12734.03
255.743	12700.29
255.813	12660.52
255.884	12649.67
255.954	12638.68
256.024	12632.95
256.095	12608.6
256.165	12576.31
256.235	12560.49
256.306	12536.54
256.376	12530.41
256.446	12511.23
256.517	12491.9
256.587	12492.43
256.657	12479.08
256.728	12468.66
256.798	12446.64
256.868	12427.26
256.938	12393.66
257.009	12389.85
257.079	12384.26
257.149	12396.36
257.219	12371.92
257.29	12360.01
257.36	12324.78
257.43	12313.35
257.5	12277.06
257.571	12259.89
257.641	12253.15
257.711	12224.61
257.781	12216.61
257.852	12209.14
257.922	12179.15
257.992	12161.75
258.062	12134.81
258.132	12121.7
258.202	12103.24
258.273	12087.86
258.343	12084.1
258.413	12061.49
258.483	12045.78
258.553	12020.86
258.623	11986.54
258.693	11963.4
258.764	11964.41
258.834	11966.25
258.904	11954.48
258.974	11925.95
259.044	11905.9
259.114	11895.39
259.184	11878.67
259.254	11855.1
259.324	11811.81
259.394	11797.16
259.464	11800.68
259.535	11784.58
259.605	11766.17
259.675	11734.89
259.745	11725.44
259.815	11701.77
259.885	11676.71
259.955	11685.97
260.025	11659.36
260.095	11644.08
260.165	11636.18
260.235	11635.26
260.305	11606.83
260.375	11573.04
260.445	11577.52
260.515	11577.23
260.585	11571.21
260.655	11554.82
260.725	11543.88
260.795	11536.07
260.865	11544.36
260.934	11512.07
261.004	11502.38
261.074	11479.44
261.144	11476.89
261.214	11476.84
261.284	11457.95
261.354	11457.85
261.424	11429.94
261.494	11434.37
261.564	11421.84
261.634	11405.12
261.703	11375.43
261.773	11372.15
261.843	11364.11
261.913	11345.5
261.983	11311.19
262.053	11296.25
262.123	11281.79
262.192	11253.69
262.262	11244.34
262.332	11209.11
262.402	11209.31
262.472	11191.62
262.541	11159.48
262.611	11158.13
262.681	11128.06
262.751	11118.75
262.821	11099.24
262.89	11071.81
262.96	11056.88
263.03	11056.06
263.1	11047.38
263.169	11036.97
263.239	11022.23
263.309	11029.45
263.379	11022.42
263.448	11014.32
263.518	10997.94
263.588	10978.04
263.657	10988.64
263.727	10983.87
263.797	10972.01
263.867	10945.65
263.936	10919.92
264.006	10914.91
264.076	10897.75
264.145	10873.9
264.215	10853.81
264.285	10849.81
264.354	10816.85
264.424	10800.18
264.494	10775.36
264.563	10759.84
264.633	10757.67
264.702	10757.53
264.772	10722.06
264.842	10703.37
264.911	10692
264.981	10664.87
265.05	10651.28
265.12	10621.45
265.19	10605.5
265.259	10598.71
265.329	10592.11
265.398	10575.29
265.468	10588.45
265.537	10575.34
265.607	10576.88
265.676	10570.33
265.746	10561.17
265.815	10562.14
265.885	10545.61
265.955	10513.62
266.024	10492.04
266.094	10447.47
266.163	10435.9
266.232	10428.1
266.302	10406.76
266.371	10399.29
266.441	10390.13
266.51	10383.05
266.58	10376.02
266.649	10355.49
266.719	10352.27
266.788	10343.06
266.858	10350.72
266.927	10314.35
266.996	10299.27
267.066	10278.12
267.135	10258.99
267.205	10251.77
267.274	10236.16
267.343	10232.45
267.413	10225.7
267.482	10229.41
267.552	10240.54
267.621	10212.45
267.69	10190.73
267.76	10179.36
267.829	10163.94
267.898	10148.96
267.968	10124.97
268.037	10113.07
268.106	10106.62
268.176	10085.71
268.245	10074.53
268.314	10057.81
268.384	10063.31
268.453	10051.12
268.522	10049.24
268.592	10046.3
268.661	10030.4
268.73	10028.96
268.799	10007.43
268.869	10018.31
268.938	9984.79
269.007	9961.42
269.076	9954.78
269.146	9951.31
269.215	9951.21
269.284	9955.36
269.353	9944.66
269.422	9934.26
269.492	9917.21
269.561	9882.67
269.63	9867.21
269.699	9844.28
269.768	9829.5
269.838	9817.5
269.907	9819.09
269.976	9782.87
270.045	9750.32
270.114	9735.82
270.183	9717.71
270.253	9708.22
270.322	9674.17
270.391	9667.81
270.46	9674.65
270.529	9671.13
270.598	9671.42
270.667	9658.9
270.736	9635.35
270.806	9629.66
270.875	9636.89
270.944	9627.16
271.013	9646.95
271.082	9644.35
271.151	9641.56
271.22	9617.82
271.289	9607.13
271.358	9589.45
271.427	9597.3
271.496	9593.64
271.565	9579.53
271.634	9571.73
271.703	9600.48
271.772	9604.1
271.841	9591.77
271.91	9567.59
271.979	9553.82
272.048	9526.08
272.117	9520.54
272.186	9511.1
272.255	9508.64
272.324	9499.88
272.393	9493.81
272.462	9476.62
272.531	9461.79
272.6	9451.72
272.669	9459.47
272.738	9447.24
272.807	9439.25
272.876	9418.25
272.945	9443.78
273.013	9444.98
273.082	9443.63
273.151	9398.02
273.22	9392
273.289	9384.25
273.358	9391.52
273.427	9376.12
273.496	9377.37
273.564	9370.19
273.633	9369.47
273.702	9348.72
273.771	9332.73
273.84	9325.31
273.909	9320.5
273.977	9322.52
274.046	9312.79
274.115	9315.2
274.184	9300.28
274.253	9292.96
274.322	9295.12
274.39	9259.64
274.459	9245.24
274.528	9225.55
274.597	9220.44
274.665	9217.41
274.734	9219.77
274.803	9207.87
274.872	9203.59
274.94	9183.85
275.009	9229.75
275.078	9214.54
275.147	9208.33
275.215	9211.7
275.284	9220.8
275.353	9214.15
275.421	9187.86
275.49	9199.71
275.559	9177.56
275.627	9171.98
275.696	9161.29
275.765	9161.29
275.833	9156.76
275.902	9152.82
275.971	9155.9
276.039	9169.04
276.108	9169.47
276.177	9171.21
276.245	9156.76
276.314	9148.34
276.383	9157.87
276.451	9106.1
276.52	9111.1
276.588	9124.44
276.657	9123.72
276.725	9104.31
276.794	9099.11
276.863	9113.36
276.931	9086.4
277	9099.59
277.068	9101.04
277.137	9117.26
277.205	9116.35
277.274	9132.14
277.342	9143.26
277.411	9126.61
277.48	9110.96
277.548	9093.92
277.617	9089.25
277.685	9085.88
277.754	9092.13
277.822	9080.05
277.89	9093.87
277.959	9084.24
278.027	9065.08
278.096	9048.81
278.164	9079.38
278.233	9069.66
278.301	9051.7
278.37	9054.11
278.438	9040.34
278.507	9050.98
278.575	9024.31
278.643	9015.79
278.712	8989.07
278.78	8972.8
278.849	8986.56
278.917	8995.08
278.985	8997.06
279.054	8998.12
279.122	9010.2
279.191	9004.33
279.259	8999.8
279.327	8972.41
279.396	8990.94
279.464	8982.47
279.532	8996.82
279.601	8987.96
279.669	8983.67
279.737	8997.78
279.806	9006.68
279.874	9015.3
279.942	9007.84
280.011	9005.53
280.079	9017.37
280.147	9037.83
280.215	9044.72
280.284	9038.65
280.352	9022.04
280.42	9026.52
280.488	9014.34
280.557	9004.81
280.625	9009.38
280.693	9012.99
280.761	9019.87
280.83	8998.93
280.898	9012.75
280.966	8993.39
281.034	8961.33
281.102	8953.82
281.171	8949.83
281.239	8953.44
281.307	8946.5
281.375	8933.31
281.443	8959.46
281.512	8949.63
281.58	8953.87
281.648	8940.25
281.716	8934.76
281.784	8933.51
281.852	8925.37
281.92	8924.94
281.989	8935.48
282.057	8915.17
282.125	8945.21
282.193	8940.45
282.261	8929.18
282.329	8922.97
282.397	8922.59
282.465	8936.02
282.533	8948.78
282.601	8934.05
282.67	8914.4
282.738	8906.56
282.806	8918.5
282.874	8899.09
282.942	8904.29
283.01	8896.11
283.078	8898.03
283.146	8895.19
283.214	8905.54
283.282	8905.01
283.35	8921.91
283.418	8911.32
283.486	8923.45
283.554	8893.41
283.622	8894.32
283.69	8904.91
283.758	8901.16
283.826	8910.11
283.894	8908.18
283.962	8923.16
284.03	8937.89
284.098	8936.87
284.165	8927.68
284.233	8926.72
284.301	8920.7
284.369	8909.1
284.437	8902.02
284.505	8895.72
284.573	8906.4
284.641	8892.97
284.709	8903.66
284.777	8881.95
284.845	8890.42
284.912	8888.69
284.98	8888.02
285.048	8881.81
285.116	8884.17
285.184	8896.63
285.252	8886.62
285.319	8871.46
285.387	8864.62
285.455	8847.53
285.523	8856.1
285.591	8854.75
285.659	8848.64
285.726	8862.75
285.794	8850.38
285.862	8851.34
285.93	8850.52
285.997	8844.41
286.065	8832.81
286.133	8817.07
286.201	8815.58
286.269	8795.02
286.336	8788.62
286.404	8787.85
286.472	8792.57
286.539	8768.74
286.607	8745.4
286.675	8752.57
286.743	8756.95
286.81	8747.08
286.878	8758.39
286.946	8744.91
287.013	8745.3
287.081	8746.74
287.149	8728.21
287.216	8747.03
287.284	8738.7
287.352	8737.5
287.419	8734.71
287.487	8757.57
287.555	8766.09
287.622	8762.05
287.69	8773.26
287.758	8786.84
287.825	8776.54
287.893	8765.71
287.96	8771.34
288.028	8787.65
288.096	8782.31
288.163	8786.02
288.231	8769.17
288.298	8768.16
288.366	8781.93
288.433	8780.39
288.501	8771.77
288.569	8774.76
288.636	8770.62
288.704	8780.82
288.771	8785.54
288.839	8775.05
288.906	8760.85
288.974	8772.78
289.041	8773.94
289.109	8761.95
289.176	8762.63
289.244	8760.85
289.311	8775.48
289.379	8787.13
289.446	8785.2
289.514	8785.49
289.581	8779.62
289.649	8788.23
289.716	8785.54
289.783	8777.5
289.851	8794.73
289.918	8794.73
289.986	8807.78
290.053	8811.68
290.121	8812.01
290.188	8813.26
290.255	8843.88
290.323	8844.65
290.39	8828.23
290.458	8829.87
290.525	8841.47
290.592	8837.91
290.66	8845.27
290.727	8832.37
290.794	8840.65
290.862	8844.88
290.929	8849.17
290.996	8848.11
291.064	8853.79
291.131	8870.88
291.198	8882.29
291.266	8875.07
291.333	8877.18
291.4	8877.28
291.468	8890.33
291.535	8883.3
291.602	8889.85
291.669	8880.89
291.737	8883.49
291.804	8886.33
291.871	8900.39
291.938	8907.37
292.006	8932.93
292.073	8943.57
292.14	8962.68
292.207	8959.75
292.275	8955.56
292.342	8963.36
292.409	8996.53
292.476	9019.63
292.543	9012.12
292.611	9010.68
292.678	9028.97
292.745	9053.72
292.812	9064.89
292.879	9054.39
292.946	9061.76
293.014	9067.77
293.081	9075.96
293.148	9091.41
293.215	9102.05
293.282	9094.35
293.349	9096.9
293.416	9076.63
293.484	9089.44
293.551	9091.27
293.618	9101.9
293.685	9124.48
293.752	9114.57
293.819	9107.1
293.886	9096.85
293.953	9100.07
294.02	9109.13
294.087	9114.66
294.154	9099.83
294.221	9108.98
294.288	9110.57
294.356	9125.98
294.423	9132
294.49	9124.44
294.557	9129.73
294.624	9124.53
294.691	9148.8
294.758	9152.36
294.825	9159.54
294.892	9151.06
294.959	9149.09
295.026	9155.78
295.093	9148.08
295.16	9150.53
295.226	9151.69
295.293	9167.43
295.36	9172.73
295.427	9186.45
295.494	9200.08
295.561	9213.7
295.628	9236.05
295.695	9248.62
295.762	9250.45
295.829	9265.09
295.896	9280.25
295.963	9288.29
296.03	9293.97
296.096	9296.19
296.163	9307.7
296.23	9324.74
296.297	9336.68
296.364	9339.38
296.431	9350.31
296.498	9348.82
296.564	9369.13
296.631	9370.77
296.698	9360.23
296.765	9374.38
296.832	9356.18
296.899	9336.54
296.965	9349.44
297.032	9327.05
297.099	9342.21
297.166	9342.31
297.233	9336.15
297.299	9323.39
297.366	9321.12
297.433	9324.45
297.5	9337.5
297.566	9335.67
297.633	9336.39
297.7	9338.36
297.767	9328.45
297.833	9330.61
297.9	9329.99
297.967	9319.97
298.033	9326.18
298.1	9351.13
298.167	9340.92
298.234	9345.64
298.3	9351.42
298.367	9348.09
298.434	9349.92
298.5	9340.44
298.567	9336.68
298.634	9333.22
298.7	9354.11
298.767	9356.18
298.834	9369.09
298.9	9353.82
298.967	9342.7
299.033	9340.63
299.1	9354.64
299.167	9378.48
299.233	9369.52
299.3	9383.39
299.366	9392.53
299.433	9410.26
299.5	9390.37
299.566	9398.65
299.633	9418.44
299.699	9424.03
299.766	9417.33
299.832	9420.99
299.899	9428.99
299.965	9443.63
300.032	9439.87
300.099	9445.94
300.165	9447.38
300.232	9443.82
300.298	9447.53
300.365	9459.66
300.431	9460.96
300.498	9455.66
300.564	9453.21
300.631	9461.25
300.697	9476.52
300.763	9478.64
300.83	9481.38
300.896	9487.4
300.963	9501.22
301.029	9507.24
301.096	9512.06
301.162	9522.99
301.229	9521.78
301.295	9509.31
301.361	9506.95
301.428	9508.59
301.494	9494.19
301.561	9497.9
301.627	9499.83
301.693	9503.44
301.76	9511.43
301.826	9501.13
301.892	9498.96
301.959	9508.3
302.025	9507.43
302.092	9499.73
302.158	9509.7
302.224	9502.71
302.291	9492.94
302.357	9478.88
302.423	9464.76
302.49	9460
302.556	9462.94
302.622	9455.13
302.688	9465.92
302.755	9481.43
302.821	9488.6
302.887	9495.92
302.954	9493.23
303.02	9498.81
303.086	9495.3
303.152	9487.93
303.219	9488.03
303.285	9497.99
303.351	9499.15
303.417	9499.87
303.483	9486.92
303.55	9471.85
303.616	9462.84
303.682	9463.51
303.748	9457.83
303.815	9469.44
303.881	9475.55
303.947	9463.32
304.013	9467.56
304.079	9457.5
304.145	9428.84
304.212	9420.8
304.278	9409.97
304.344	9403.9
304.41	9385.31
304.476	9378.57
304.542	9369.28
304.608	9372.94
304.674	9348.19
304.741	9340.34
304.807	9339.28
304.873	9344.91
304.939	9358.92
305.005	9346.84
305.071	9344.91
305.137	9341.3
305.203	9312.89
305.269	9304.75
305.335	9317.22
305.401	9309.61
305.467	9302.78
305.533	9310.77
305.599	9318.14
305.666	9327.33
305.732	9325.89
305.798	9335.42
305.864	9354.49
305.93	9356.76
305.996	9357.29
306.062	9359.36
306.128	9360.61
306.194	9342.07
306.259	9336.44
306.325	9326.56
306.391	9332.29
306.457	9332.63
306.523	9337.88
306.589	9361.81
306.655	9358.49
306.721	9340.77
306.787	9329.89
306.853	9349.73
306.919	9331.33
306.985	9326.28
307.051	9313.04
307.117	9306.1
307.183	9302.06
307.248	9271.77
307.314	9283.76
307.38	9276.78
307.446	9288.53
307.512	9264.84
307.578	9268.93
307.644	9260.31
307.709	9260.79
307.775	9255.55
307.841	9256.94
307.907	9251.84
307.973	9230.7
308.039	9226.85
308.104	9230.46
308.17	9233.92
308.236	9215.72
308.302	9223.33
308.368	9206.24
308.433	9211.2
308.499	9204.46
308.565	9190.4
308.631	9197.14
308.696	9165.41
308.762	9152.99
308.828	9141.14
308.894	9126.32
308.959	9103.06
309.025	9094.69
309.091	9085.92
309.156	9075.62
309.222	9072.64
309.288	9056.6
309.354	9039.03
309.419	9031.86
309.485	9012.55
309.551	9007.11
309.616	8984.97
309.682	8977.55
309.748	8971.68
309.813	8961.72
309.879	8956.04
309.945	8947.76
310.01	8933.8
310.076	8936.83
310.141	8932.4
310.207	8922.05
310.273	8926.19
310.338	8936.83
310.404	8921.81
310.469	8907.94
310.535	8895.81
310.601	8871.65
310.666	8878.72
310.732	8883.2
310.797	8874.1
310.863	8865.73
310.928	8863.22
310.994	8871.6
311.059	8865.39
311.125	8864.28
311.191	8870.3
311.256	8852.88
311.322	8852.2
311.387	8836.85
311.453	9232.66
311.518	9200.94
311.584	9197.67
311.649	9204.02
311.715	9188.91
311.78	9193.19
311.846	9183.09
311.911	9187.47
311.976	9184.96
312.042	9170.38
312.107	9150.55
312.173	9140.1
312.238	9131.73
312.304	9119.89
312.369	9103.67
312.434	9089.33
312.5	9078.64
312.565	9042.83
312.631	9043.94
312.696	9033.06
312.761	9034.84
312.827	8624.06
312.892	8666.08
312.958	8655.44
313.023	8650.58
313.088	8649.14
313.154	8631.14
313.219	8621.66
313.284	8612.32
313.35	8611.36
313.415	8599.71
313.48	8600.38
313.546	8597.74
313.611	8604.86
313.676	8597.35
313.741	8588.35
313.807	8595.62
313.872	8600.1
313.937	8611.79
314.003	8627.48
314.068	8629.93
314.133	8632.73
314.198	8625.94
314.264	8605
314.329	8597.49
314.394	8590.9
314.459	8581.51
314.525	8599.08
314.59	8594.85
314.655	8578.15
314.72	8582.86
314.785	8581.28
314.851	8575.12
314.916	8557.55
314.981	8541.82
315.046	8531.33
315.111	8520.21
315.176	8505.73
315.242	8505.73
315.307	8503.23
315.372	8478.1
315.437	8461.89
315.502	8450.29
315.567	8452.17
315.632	8433.69
315.698	8430.61
315.763	8420.36
315.828	8413.33
315.893	8403.66
315.958	8395.19
316.023	8388.02
316.088	8360.26
316.153	8336.59
316.218	8320.57
316.283	8303.88
316.348	8292.52
316.413	8291.95
316.479	8277.37
316.544	8247.55
316.609	8216.95
316.674	8181.58
316.739	8149.02
316.804	8124.11
316.869	8090.24
316.934	8059.16
316.999	8029.34
317.064	7980.24
317.129	7938.39
317.194	7901.55
317.259	7855.8
317.324	7810.51
317.389	7769.88
317.454	7739.72
317.518	7708.9
317.583	7692.89
317.648	7674.47
317.713	7635.52
317.778	7574.12
317.843	7552.68
317.908	7515.42
317.973	7477.25
318.038	7445.76
318.103	7412.36
318.168	7380.82
318.233	7354
318.297	7303.49
318.362	7268.26
318.427	7232.41
318.492	7212.08
318.557	7176.76
318.622	7154.75
318.687	7132.79
318.751	7095.56
318.816	7068.22
318.881	7035.69
318.946	6981.78
319.011	6935.41
319.075	6900.83
319.14	6872.58
319.205	6827.91
319.27	6799.86
319.335	6756.87
319.399	6722.1
319.464	6692.32
319.529	6642
319.594	6605.16
319.658	6580.15
319.723	6540.63
319.788	6515.43
319.853	6461.55
319.917	6427.57
319.982	6369.66
320.047	6337.26
320.112	6312.49
320.176	6260.31
320.241	6226.57
320.306	6194.51
320.37	6161.11
320.435	6128
320.5	6101.46
320.564	6062.88
320.629	6019.95
320.694	5991.4
320.758	5951.44
320.823	5914.74
320.888	5890.23
320.952	5844.14
321.017	5803.03
321.082	5766.54
321.146	5734.5
321.211	5699.88
321.275	5660.33
321.34	5623.32
321.405	5577.63
321.469	5532.04
321.534	5489.48
321.598	5441.89
321.663	5415.76
321.727	5381.01
321.792	5332.7
321.857	5290.95
321.921	5250.18
321.986	5212.05
322.05	5157.77
322.115	5116.91
322.179	5072.03
322.244	5017.48
322.308	4984.58
322.373	4938.13
322.437	4900.63
322.502	4872.27
322.566	4831.81
322.631	4799.45
322.695	4756.76
322.76	4714.06
322.824	4680.65
322.889	4642.14
322.953	4603.38
323.018	4540.4
323.082	4479.17
323.146	4434.3
323.211	4385.36
323.275	4346.47
323.34	4303.1
323.404	4268.96
323.468	4229.17
323.533	4185.56
323.597	4145.23
323.662	4092.74
323.726	4063.38
323.79	4017.02
323.855	3953.57
323.919	3904.11
323.983	3856.89
324.048	3797.02
324.112	3929.38
324.177	3807.93
324.241	3610.78
324.305	3415.53
324.37	3225.36
324.434	3043.59
324.498	3000.54
324.562	2949.32
324.627	2891.06
324.691	2836.4
324.755	2774.28
324.82	2698.32
324.884	2626.63
324.948	2555.79
325.012	2469.22
325.077	2347.04
