Data from 20250625_urea_1M_1_MAYP1162681_00-55-06-127.txt Node
Date: Thu Jun 26 00:55:06 BST 2025
User: adleo
Spectrometer: MAYP116268
Trigger mode: 0
Integration Time (sec): 1.000000E0
Scans to average: 1
Electric dark correction enabled: true
Nonlinearity correction enabled: true
Boxcar width: 10
XAxis mode: Wavelengths
Number of Pixels in Spectrum: 2068
>>>>>Begin Spectral Data<<<<<
179.565	1130.07
179.642	1180.53
179.718	1215.41
179.795	1249.93
179.871	1281.64
179.948	1300.73
180.024	1320.15
180.101	1342.35
180.177	1353.7
180.254	1374.09
180.33	1394.59
180.407	1443.01
180.483	1531.52
180.56	1616.22
180.636	1694.22
180.712	1682.91
180.789	1688.99
180.865	1701.92
180.942	1711.99
181.018	1722.25
181.095	1733.56
181.171	1736.65
181.248	1739.74
181.324	1758.42
181.4	1765.07
181.477	1776.48
181.553	1785.65
181.63	1805.09
181.706	1820.16
181.782	1831.23
181.859	1831.99
181.935	1839.02
182.011	1837.12
182.088	1855.47
182.164	1872.97
182.24	1885.75
182.317	1894.26
182.393	1893.83
182.469	1904.05
182.546	1915.56
182.622	1921.59
182.698	1921.64
182.775	1935.76
182.851	1947.84
182.927	1938.52
183.003	1937.24
183.08	1930.1
183.156	1940.13
183.232	1937.57
183.308	1928.11
183.385	1934.24
183.461	1949.74
183.537	1951.02
183.613	1960.43
183.69	1950.02
183.766	1941.03
183.842	1948.5
183.918	1954.11
183.995	1965.23
184.071	1969.94
184.147	1962.9
184.223	1950.97
184.299	1958.92
184.375	1947.03
184.452	1952.98
184.528	2009.06
184.604	2018.52
184.68	2030.64
184.756	2038.82
184.832	2042.2
184.908	2045.52
184.985	2047.09
185.061	2034.78
185.137	2041.58
185.213	2031.79
185.289	2032.83
185.365	2026.65
185.441	2026.56
185.517	2040.3
185.593	2037.78
185.669	2033.88
185.745	2046.48
185.822	2060.22
185.898	2053.99
185.974	2062.31
186.05	2056.89
186.126	2015.5
186.202	2007.85
186.278	2003.61
186.354	1993.34
186.43	2001.52
186.506	1999.1
186.582	1994.34
186.658	2000.67
186.734	1980.51
186.81	1984.36
186.886	1986.26
186.962	1995.58
187.038	1990.4
187.114	1981.41
187.19	1987.59
187.266	1980.08
187.341	1977.37
187.417	1970.85
187.493	1970.85
187.569	1976.27
187.645	1967.19
187.721	1958.58
187.797	1965.34
187.873	1969.33
187.949	1963.1
188.025	1955.4
188.101	1956.77
188.176	1960.72
188.252	1956.25
188.328	1966.33
188.404	1964.38
188.48	1959.86
188.556	1952.78
188.632	1953.73
188.707	1954.16
188.783	1951.82
188.859	1948.55
188.935	1939.84
189.011	1948.69
189.086	1942.98
189.162	1935.37
189.238	1934.85
189.314	1931.86
189.39	1926.2
189.465	1918.45
189.541	1935.47
189.617	1922.16
189.693	1919.54
189.768	1926.15
189.844	1944.04
189.92	1935.72
189.996	1946.51
190.071	1959.69
190.147	1960.11
190.223	1967.82
190.298	1961.64
190.374	1949.8
190.45	1958.16
190.526	1967.39
190.601	1963.44
190.677	1963.73
190.753	1989.42
190.828	1990.08
190.904	2004.49
190.98	2021
191.055	2030.6
191.131	2020.66
191.207	2041.49
191.282	2051.05
191.358	2040.02
191.433	2030.12
191.509	2042.67
191.585	2034.35
191.66	2031.92
191.736	2037.87
191.811	2026.88
191.887	2042.29
191.963	2064.41
192.038	2071.26
192.114	2069.92
192.189	2072.25
192.265	2069.69
192.34	2046.32
192.416	2046.8
192.491	2042.19
192.567	2046.9
192.642	2051.8
192.718	2053.89
192.793	2042.33
192.869	2038.34
192.944	2042.66
193.02	2048.47
193.095	2051.89
193.171	2059.93
193.246	2061.54
193.322	2060.45
193.397	2063.63
193.473	2049.46
193.548	2032.86
193.624	2035.66
193.699	2033.48
193.775	2047.99
193.85	2049.6
193.925	2060.3
194.001	2062.44
194.076	2054.36
194.152	2041.18
194.227	2032.29
194.302	2024.2
194.378	2026.3
194.453	2022.35
194.529	2033.1
194.604	2018.59
194.679	2013.17
194.755	1994.16
194.83	2004.43
194.905	2002.77
194.981	2009.57
195.056	2001.96
195.131	2011.38
195.207	2009.86
195.282	2000.49
195.357	1982.94
195.433	1997.87
195.508	1984.22
195.583	1989.31
195.659	2006.58
195.734	2015.23
195.809	2015.76
195.884	2022.08
195.96	2022.17
196.035	2037.77
196.11	2036.35
196.185	2049.42
196.261	2051.04
196.336	2081.33
196.411	2065.82
196.486	2070.39
196.561	2065.49
196.637	2077.57
196.712	2089.61
196.787	2093.65
196.862	2109.53
196.937	2117.62
197.013	2122.28
197.088	2134.55
197.163	2154.49
197.238	2165.68
197.313	2163.3
197.388	2176.24
197.464	2206.6
197.539	2217.4
197.614	2210.26
197.689	2224.49
197.764	2241.44
197.839	2262.85
197.914	2258.94
197.989	2282.55
198.065	2296.11
198.14	2344.68
198.215	2367.81
198.29	2376.62
198.365	2390.99
198.44	2405.51
198.515	2434.26
198.59	2447.88
198.665	2468.73
198.74	2477.63
198.815	2480.92
198.89	2504.1
198.965	2532.68
199.04	2528.92
199.115	2543.82
199.19	2585.15
199.265	2584.34
199.34	2591.15
199.415	2623.79
199.49	2642.98
199.565	2651.55
199.64	2677.85
199.715	2676.22
199.79	2681.42
199.865	2690.32
199.94	2686.28
200.015	2716.06
200.09	2720.54
200.165	2726.16
200.24	2734.16
200.315	2772.98
200.39	2789.7
200.464	2794.13
200.539	2794.75
200.614	2809.71
200.689	2832.4
200.764	2837.69
200.839	2854.36
200.914	2860.65
200.989	2845.96
201.063	2862.5
201.138	2848.22
201.213	2847.07
201.288	2825.92
201.363	2832.87
201.438	2833.11
201.512	2850.11
201.587	2832.62
201.662	2839.72
201.737	2852.92
201.812	2862.74
201.886	2829.93
201.961	2838.08
202.036	2827.7
202.111	2824.6
202.186	2795.88
202.26	2777.06
202.335	2757.04
202.41	2751.52
202.485	2736.8
202.559	2721.6
202.634	2695.02
202.709	2701.97
202.784	2678.96
202.858	2681.01
202.933	2663.48
203.008	2656.38
203.082	2636.23
203.157	2633.33
203.232	2589.66
203.306	2571.98
203.381	2539.35
203.456	2517.88
203.53	2495.14
203.605	2474.1
203.68	2453.19
203.754	2446.06
203.829	2432.67
203.904	2414.97
203.978	2401.92
204.053	2403.73
204.127	2391.35
204.202	2389.16
204.277	2376.02
204.351	2371.69
204.426	2364.26
204.5	2355.98
204.575	2323.53
204.65	2334.53
204.724	2326.19
204.799	2334.66
204.873	2329.32
204.948	2330.94
205.022	2320.24
205.097	2313.24
205.171	2328.37
205.246	2334.56
205.32	2339.93
205.395	2341.51
205.469	2331.8
205.544	2339.9
205.618	2324.52
205.693	2334.42
205.767	2321.38
205.842	2337.57
205.916	2333.67
205.991	2323.91
206.065	2329.72
206.14	2343.13
206.214	2337.51
206.289	2330.46
206.363	2341.74
206.438	2342.84
206.512	2348.27
206.586	2366.73
206.661	2374.87
206.735	2354.08
206.81	2353.89
206.884	2364.65
206.958	2351.32
207.033	2365.88
207.107	2371.17
207.181	2401.88
207.256	2396.65
207.33	2413.83
207.405	2426.88
207.479	2443.73
207.553	2453.78
207.628	2439.5
207.702	2450.45
207.776	2443.55
207.851	2450.78
207.925	2463.26
207.999	2464.02
208.073	2463.31
208.148	2463.93
208.222	2451.31
208.296	2481.29
208.371	2499.92
208.445	2509.2
208.519	2538.2
208.593	2553.01
208.668	2552.01
208.742	2550.15
208.816	2553.29
208.89	2569.34
208.965	2567.77
209.039	2576.73
209.113	2594.25
209.187	2616.15
209.261	2617.01
209.336	2640.34
209.41	2660.07
209.484	2666.79
209.558	2691.18
209.632	2706.8
209.707	2725.15
209.781	2754.11
209.855	2775.61
209.929	2795.93
210.003	2811.65
210.077	2821.28
210.151	2875.8
210.226	2919.39
210.3	2959.46
210.374	2998.21
210.448	3019.04
210.522	3045.75
210.596	3077.32
210.67	3104.51
210.744	3167.29
210.818	3223.32
210.892	3267.26
210.966	3289.2
211.041	3330.52
211.115	3360.05
211.189	3417.03
211.263	3468.1
211.337	3510.3
211.411	3566.93
211.485	3607.73
211.559	3666.31
211.633	3718.82
211.707	3743.58
211.781	3805.26
211.855	3836.18
211.929	3888.91
212.003	3936.54
212.077	4014.18
212.151	4088.82
212.225	4170.15
212.299	4240.36
212.373	4307.08
212.447	4391.2
212.52	4507.28
212.594	4607.04
212.668	4706.3
212.742	4790.37
212.816	4887.15
212.89	4987.8
212.964	5091.02
213.038	5206.04
213.112	5327.16
213.186	5454.43
213.26	5553.2
213.333	5629.43
213.407	5760.41
213.481	5889.25
213.555	6031.76
213.629	6158.52
213.703	6282.82
213.777	6423.4
213.85	6546.95
213.924	6724.62
213.998	6869.61
214.072	7014.89
214.146	7148.24
214.219	7302.8
214.293	7452.74
214.367	7612.45
214.441	7782.13
214.515	7929.58
214.588	8069.98
214.662	8207.61
214.736	8352.31
214.81	8524.41
214.883	8705.92
214.957	8860.78
215.031	9018.2
215.105	9166.58
215.178	9317.71
215.252	9484.01
215.326	9632.66
215.4	9786.9
215.473	9912.67
215.547	10066.48
215.621	10221.52
215.694	10387.24
215.768	10532.83
215.842	10687
215.915	10835.99
215.989	10976.5
216.063	11135.52
216.136	11301.16
216.21	11459.56
216.284	11641.68
216.357	11812.97
216.431	11968.02
216.504	12142.21
216.578	12331.93
216.652	12503.76
216.725	12674.78
216.799	12844.36
216.873	13002.71
216.946	13165.01
217.02	13316.13
217.093	13466.96
217.167	13601.6
217.24	13743.08
217.314	13895.89
217.387	14050.2
217.461	14197.46
217.535	14358.28
217.608	14485.63
217.682	14624.8
217.755	14778.47
217.829	14905.87
217.902	15041.47
217.976	15176.53
218.049	15295.11
218.123	15399.56
218.196	15535.68
218.27	15657.53
218.343	15771.04
218.417	15902.24
218.49	16024.52
218.563	16158.71
218.637	16287.88
218.71	16428.33
218.784	16562.31
218.857	16691
218.931	16807.87
219.004	16917.23
219.077	17033.57
219.151	17158.78
219.224	17270.25
219.298	17377.87
219.371	17494.98
219.444	17587.51
219.518	17699.99
219.591	17811.85
219.665	17941.77
219.738	18038.83
219.811	18116.8
219.885	18214.44
219.958	18311.21
220.031	18400.02
220.105	18490.14
220.178	18577.94
220.251	18651.43
220.325	18729.26
220.398	18807.23
220.471	18888.05
220.544	18974.5
220.618	19040.33
220.691	19117.48
220.764	19186.05
220.838	19264.22
220.911	19327.64
220.984	19420.79
221.057	19487
221.131	19547.38
221.204	19586.61
221.277	19661.45
221.35	19756.48
221.424	19817.25
221.497	19878.16
221.57	19948.33
221.643	20017.82
221.716	20075.55
221.79	20119.6
221.863	20175.26
221.936	20227.07
222.009	20277.72
222.082	20330.68
222.155	20375.26
222.229	20439.16
222.302	20485.28
222.375	20529.23
222.448	20570.68
222.521	20596.95
222.594	20632.71
222.667	20662.68
222.74	20714.2
222.814	20747.6
222.887	20768.13
222.96	20805
223.033	20841.63
223.106	20864.66
223.179	20903.13
223.252	20934.21
223.325	20973.68
223.398	21006.12
223.471	21034.07
223.544	21062.94
223.617	21098.42
223.69	21118.8
223.763	21120.59
223.837	21145.98
223.91	21171.1
223.983	21181.46
224.056	21199.39
224.129	21225.27
224.202	21265.22
224.275	21267.59
224.348	21270.96
224.42	21286.19
224.493	21296.21
224.566	21310.29
224.639	21332.56
224.712	21336.46
224.785	21334.39
224.858	21341.47
224.931	21338.2
225.004	21333.66
225.077	21339.3
225.15	21313.86
225.223	21318.43
225.296	21362.59
225.369	21355.55
225.442	21340.13
225.514	21348.13
225.587	21347.5
225.66	21352.42
225.733	21343.89
225.806	21358.73
225.879	21366.1
225.952	21355.84
226.025	21361
226.097	21373.58
226.17	21368.23
226.243	21340.8
226.316	21341.43
226.389	21344.18
226.461	21366.06
226.534	21373.96
226.607	21378.16
226.68	21399.89
226.753	21412.42
226.825	21381.77
226.898	21389.53
226.971	21394.01
227.044	21390.44
227.117	21388.23
227.189	21388.9
227.262	21390.01
227.335	21383.21
227.407	21366.01
227.48	21380.9
227.553	21380.71
227.626	21368.37
227.698	21367.5
227.771	21367.74
227.844	21362.44
227.916	21359.93
227.989	21328.65
228.062	21323.3
228.134	21325.33
228.207	21316.84
228.28	21287.3
228.352	21275.68
228.425	21281.18
228.498	21274.86
228.57	21267.49
228.643	21269.61
228.716	21254.67
228.788	21243.97
228.861	21231.68
228.934	21242.62
229.006	21222.95
229.079	21209.41
229.151	21178.47
229.224	21152.63
229.296	21147.62
229.369	21155.04
229.442	21150.8
229.514	21133.5
229.587	21128.25
229.659	21100
229.732	21088.87
229.804	21096.29
229.877	21101.79
229.949	21100.24
230.022	21106.9
230.094	21097.55
230.167	21097.31
230.239	21076.73
230.312	21063.04
230.384	21070.65
230.457	21056.34
230.529	21051.33
230.602	21035.37
230.674	21025.01
230.747	21020.87
230.819	21016.29
230.892	20972.48
230.964	20952.14
231.037	20941.73
231.109	20924.72
231.181	20919.46
231.254	20889.1
231.326	20868.18
231.399	20851.46
231.471	20818.59
231.544	20780.71
231.616	20765.87
231.688	20743.41
231.761	20720.61
231.833	20694.39
231.905	20648.8
231.978	20631.31
232.05	20589.81
232.122	20574.05
232.195	20549.86
232.267	20541.09
232.339	20514.68
232.412	20517.23
232.484	20498.77
232.556	20470.68
232.629	20461.28
232.701	20442.87
232.773	20436.75
232.846	20414.92
232.918	20381.91
232.99	20363.02
233.062	20352.99
233.135	20335.98
233.207	20297.52
233.279	20280.17
233.351	20262.78
233.424	20242.2
233.496	20207.16
233.568	20226.73
233.64	20193.48
233.713	20178.34
233.785	20142.25
233.857	20126.68
233.929	20084.56
234.001	20070.06
234.074	20063.94
234.146	20021.58
234.218	20006.88
234.29	19980.28
234.362	19952.9
234.434	19918.54
234.507	19872.76
234.579	19829.63
234.651	19789.97
234.723	19782.12
234.795	19774.98
234.867	19751.76
234.939	19742.55
235.012	19718.94
235.084	19684
235.156	19655.18
235.228	19612.15
235.3	19586.13
235.372	19552.54
235.444	19539.33
235.516	19501.36
235.588	19478.37
235.66	19459.53
235.732	19410.62
235.804	19427.19
235.876	19412.21
235.948	19405.46
236.02	19383.15
236.092	19352.07
236.164	19322.72
236.236	19283.49
236.308	19242.68
236.38	19214.15
236.452	19174.15
236.524	19152.8
236.596	19128.51
236.668	19119.17
236.74	19099.07
236.812	19073.53
236.884	19058.3
236.956	19028.95
237.028	18985.29
237.1	18938.41
237.172	18921.64
237.244	18908.24
237.316	18840.48
237.388	18790.03
237.46	18755.19
237.532	18743.33
237.604	18716.54
237.675	18710.23
237.747	18684.59
237.819	18642.23
237.891	18619.44
237.963	18583.63
238.035	18542.96
238.107	18480.94
238.178	18457.08
238.25	18434.34
238.322	18435.49
238.394	18390.97
238.466	18350.82
238.538	18333.72
238.609	18314.34
238.681	18263.94
238.753	18229.43
238.825	18200.13
238.897	18187.41
238.968	18162.69
239.04	18127.27
239.112	18121.87
239.184	18077.83
239.255	18040.38
239.327	18014.07
239.399	17979.9
239.471	17958.79
239.542	17937.44
239.614	17924.82
239.686	17865.78
239.758	17833.4
239.829	17788.58
239.901	17762.37
239.973	17737.02
240.044	17713.26
240.116	17687.09
240.188	17654.37
240.259	17627.52
240.331	17591.57
240.403	17557.89
240.474	17513.65
240.546	17472.88
240.618	17419.28
240.689	17383.19
240.761	17360.2
240.833	17343.86
240.904	17309.4
240.976	17280.97
241.048	17251.96
241.119	17220.2
241.191	17205.07
241.262	17195.14
241.334	17150.03
241.405	17120.63
241.477	17080.63
241.549	17046.94
241.62	17017.25
241.692	17002.03
241.763	16978.12
241.835	16950.17
241.906	16927.37
241.978	16889.78
242.049	16869.1
242.121	16850.31
242.192	16839.08
242.264	16787.94
242.335	16745.58
242.407	16728.28
242.478	16689.91
242.55	16665.09
242.621	16635.07
242.693	16599.21
242.764	16565.95
242.836	16541.81
242.907	16513.95
242.979	16501.61
243.05	16469.37
243.122	16438.38
243.193	16402.52
243.264	16349.65
243.336	16326.9
243.407	16306.17
243.479	16295.47
243.55	16273.64
243.622	16246.94
243.693	16206.84
243.764	16201.63
243.836	16171.56
243.907	16135.17
243.978	16116.03
244.05	16089.47
244.121	16045.28
244.192	16026.04
244.264	15978.67
244.335	15952.25
244.407	15917.55
244.478	15894.85
244.549	15869.11
244.62	15827.08
244.692	15797.87
244.763	15775.55
244.834	15734.82
244.906	15694.58
244.977	15667.87
245.048	15654.19
245.119	15620.16
245.191	15583.23
245.262	15520.14
245.333	15499.65
245.405	15470.39
245.476	15437.52
245.547	15407.59
245.618	15388.79
245.689	15351.96
245.761	15327.86
245.832	15294.75
245.903	15267.42
245.974	15227.65
246.045	15195.74
246.117	15193.38
246.188	15150.62
246.259	15118.52
246.33	15094.8
246.401	15064.58
246.473	15025.63
246.544	14985.67
246.615	14971.5
246.686	14951.64
246.757	14951.4
246.828	14917.08
246.899	14901.75
246.97	14857.21
247.042	14828.77
247.113	14804.72
247.184	14803.22
247.255	14774.35
247.326	14746.1
247.397	14726.62
247.468	14707.01
247.539	14675.91
247.61	14628
247.681	14616.62
247.752	14610.16
247.823	14569.57
247.894	14543.64
247.965	14498.71
248.037	14469.21
248.108	14423.13
248.179	14394.25
248.25	14368.51
248.321	14342.29
248.392	14310.71
248.463	14314.28
248.534	14284.05
248.605	14272.15
248.675	14248.29
248.746	14234.11
248.817	14223.94
248.888	14195.98
248.959	14154.19
249.03	14137.17
249.101	14117.5
249.172	14086.94
249.243	14025.67
249.314	14020.22
249.385	13995.98
249.456	13975.01
249.527	13946.47
249.598	13930.22
249.669	13905.2
249.739	13886.55
249.81	13873.05
249.881	13836.85
249.952	13807.63
250.023	13787.48
250.094	13744.97
250.165	13701.1
250.235	13673.62
250.306	13649.76
250.377	13619.1
250.448	13597.55
250.519	13559.56
250.59	13550.74
250.66	13523.02
250.731	13535.65
250.802	13507.79
250.873	13491.59
250.944	13478.19
251.014	13449.46
251.085	13455.2
251.156	13433.21
251.227	13423.19
251.297	13412.82
251.368	13394.26
251.439	13381.92
251.51	13368.28
251.58	13344.08
251.651	13318.53
251.722	13307.83
251.792	13263.43
251.863	13240.29
251.934	13237.4
252.005	13242.56
252.075	13225.69
252.146	13212.67
252.217	13193.05
252.287	13180.9
252.358	13153.62
252.429	13158.49
252.499	13139.06
252.57	13119
252.641	13109.7
252.711	13092.73
252.782	13054.89
252.852	13064.48
252.923	13034.88
252.994	13017.67
253.064	13007.26
253.135	12982.87
253.205	12950.96
253.276	12950.09
253.347	12948.07
253.417	12923.82
253.488	12895.62
253.558	12866.84
253.629	12853.92
253.699	12839.94
253.77	12832.81
253.841	12816.32
253.911	12795.06
253.982	12775.73
254.052	12756.88
254.123	12735.96
254.193	12709.4
254.264	12737.55
254.334	12700.72
254.405	12675.75
254.475	12644.76
254.546	12619.11
254.616	12612.75
254.687	12603.11
254.757	12583.83
254.827	12558.71
254.898	12542.51
254.968	12528.92
255.039	12502.7
255.109	12489.35
255.18	12455.99
255.25	12408.94
255.321	12390.38
255.391	12355.87
255.461	12363.63
255.532	12325.16
255.602	12308.82
255.673	12272.96
255.743	12240.18
255.813	12193.71
255.884	12184.8
255.954	12170.72
256.024	12178.77
256.095	12167.68
256.165	12134.04
256.235	12127
256.306	12099.53
256.376	12091.57
256.446	12077.59
256.517	12075.33
256.587	12064.68
256.657	12049.78
256.728	12034.55
256.798	12024.43
256.868	12001.97
256.938	11962.78
257.009	11947.4
257.079	11933.81
257.149	11945.33
257.219	11897.32
257.29	11888.07
257.36	11854.76
257.43	11845.75
257.5	11804.97
257.571	11773.26
257.641	11769.25
257.711	11737.92
257.781	11736.04
257.852	11716.91
257.922	11684.66
257.992	11652.47
258.062	11633.91
258.132	11625.86
258.202	11613.86
258.273	11592.75
258.343	11599.59
258.413	11582.48
258.483	11566.77
258.553	11545.08
258.623	11513.46
258.693	11505.51
258.764	11512.93
258.834	11512.31
258.904	11497.7
258.974	11468.98
259.044	11453.51
259.114	11430.76
259.184	11412.3
259.254	11384.88
259.324	11348.49
259.394	11334.08
259.464	11337.07
259.535	11311.24
259.605	11288.1
259.675	11261.94
259.745	11253.5
259.815	11223.48
259.885	11197.84
259.955	11204.15
260.025	11175.67
260.095	11164.2
260.165	11152.97
260.235	11150.08
260.305	11126.71
260.375	11098.42
260.445	11105.12
260.515	11107.28
260.585	11108.15
260.655	11096.39
260.725	11090.42
260.795	11093.69
260.865	11093.5
260.934	11071.24
261.004	11065.69
261.074	11052.44
261.144	11058.56
261.214	11049.55
261.284	11030.66
261.354	11029.17
261.424	11003.91
261.494	11003.86
261.564	10982.9
261.634	10972.44
261.703	10932.25
261.773	10922.47
261.843	10908.98
261.913	10887.87
261.983	10852.75
262.053	10838.43
262.123	10819.98
262.192	10796.13
262.262	10781.52
262.332	10751.22
262.402	10742.35
262.472	10733.34
262.541	10695.85
262.611	10689.97
262.681	10669.64
262.751	10663.76
262.821	10647.57
262.89	10623.04
262.96	10617.65
263.03	10621.16
263.1	10612.35
263.169	10601.22
263.239	10593.46
263.309	10599.29
263.379	10595.19
263.448	10586.04
263.518	10577.99
263.588	10565.22
263.657	10571.63
263.727	10568.74
263.797	10561.03
263.867	10539.74
263.936	10508.27
264.006	10509.09
264.076	10484.62
264.145	10465.3
264.215	10445.93
264.285	10439.86
264.354	10406.76
264.424	10384.98
264.494	10356.41
264.563	10336.42
264.633	10343.98
264.702	10329.58
264.772	10297.05
264.842	10281.78
264.911	10273.98
264.981	10243.67
265.05	10227
265.12	10206.19
265.19	10189.52
265.259	10182.05
265.329	10178.44
265.398	10168.85
265.468	10181.81
265.537	10171.79
265.607	10163.36
265.676	10157.15
265.746	10145.2
265.815	10146.5
265.885	10130.12
265.955	10104.83
266.024	10088.12
266.094	10051.22
266.163	10053.39
266.232	10053.72
266.302	10038.45
266.371	10026.36
266.441	10010.42
266.51	10006.13
266.58	9981.37
266.649	9956.23
266.719	9952.23
266.788	9940.47
266.858	9937.63
266.927	9901.17
266.996	9887.87
267.066	9877.71
267.135	9855.36
267.205	9853.63
267.274	9847.89
267.343	9851.65
267.413	9842.07
267.482	9839.8
267.552	9841.73
267.621	9807.39
267.69	9776.95
267.76	9763.46
267.829	9751.37
267.898	9745.78
267.968	9726.86
268.037	9725.6
268.106	9726.28
268.176	9700.85
268.245	9686.78
268.314	9677.44
268.384	9674.5
268.453	9661.26
268.522	9648.69
268.592	9649.75
268.661	9626.72
268.73	9615.12
268.799	9587.66
268.869	9600.33
268.938	9575.77
269.007	9559.73
269.076	9553.42
269.146	9552.27
269.215	9547.11
269.284	9551.16
269.353	9532.28
269.422	9522.56
269.492	9504.11
269.561	9466.26
269.63	9462.84
269.699	9448.49
269.768	9433.66
269.838	9428.07
269.907	9425.14
269.976	9403.9
270.045	9373.04
270.114	9360.85
270.183	9346.02
270.253	9347.27
270.322	9307.5
270.391	9298.45
270.46	9298.26
270.529	9298.74
270.598	9293.44
270.667	9278.51
270.736	9258.63
270.806	9253.43
270.875	9252.75
270.944	9247.36
271.013	9266.76
271.082	9256.8
271.151	9251.69
271.22	9221.22
271.289	9206.77
271.358	9190.64
271.427	9190.64
271.496	9182.27
271.565	9175.72
271.634	9172.97
271.703	9190.55
271.772	9197.24
271.841	9187.57
271.91	9164.5
271.979	9149.77
272.048	9132.2
272.117	9134.6
272.186	9118.38
272.255	9124.64
272.324	9119.97
272.393	9107.98
272.462	9096.66
272.531	9088.96
272.6	9076.92
272.669	9092.38
272.738	9084.34
272.807	9078.18
272.876	9054.73
272.945	9076.78
273.013	9075.82
273.082	9074.28
273.151	9031.95
273.22	9030.22
273.289	9023.58
273.358	9042.74
273.427	9037.78
273.496	9035.33
273.564	9034.65
273.633	9034.75
273.702	9014.24
273.771	9006.2
273.84	9006.3
273.909	8997.63
273.977	8993.01
274.046	8984.49
274.115	8982.51
274.184	8964.03
274.253	8961.91
274.322	8975.82
274.39	8945.16
274.459	8929.32
274.528	8898.95
274.597	8893.32
274.665	8887.83
274.734	8888.84
274.803	8864.67
274.872	8849.56
274.94	8841.52
275.009	8888.96
275.078	8875.48
275.147	8868.89
275.215	8859.31
275.284	8866.67
275.353	8859.11
275.421	8834.81
275.49	8843.76
275.559	8837.94
275.627	8833.36
275.696	8822.73
275.765	8812.96
275.833	8808.38
275.902	8807.76
275.971	8823.64
276.039	8835.53
276.108	8840.1
276.177	8835
276.245	8827.01
276.314	8828.74
276.383	8827.06
276.451	8771.39
276.52	8768.84
276.588	8782.36
276.657	8788.43
276.725	8777.21
276.794	8773.46
276.863	8789.82
276.931	8768.31
277	8772.64
277.068	8781.88
277.137	8796.42
277.205	8800.31
277.274	8817.93
277.342	8823.75
277.411	8797.19
277.48	8778.08
277.548	8766.14
277.617	8767.11
277.685	8764.99
277.754	8766.19
277.822	8757.67
277.89	8761.76
277.959	8757.63
278.027	8736.5
278.096	8722.63
278.164	8746.75
278.233	8741.03
278.301	8730.68
278.37	8739.29
278.438	8724.03
278.507	8723.74
278.575	8696.94
278.643	8685.05
278.712	8666.57
278.78	8655.3
278.849	8673.06
278.917	8687.84
278.985	8678.74
279.054	8683.7
279.122	8691.01
279.191	8688.94
279.259	8686.87
279.327	8667.09
279.396	8686.58
279.464	8681.1
279.532	8687.02
279.601	8679.7
279.669	8671.61
279.737	8679.75
279.806	8681.24
279.874	8687.93
279.942	8687.98
280.011	8684.13
280.079	8696.79
280.147	8710.55
280.215	8711.71
280.284	8701.02
280.352	8683.6
280.42	8692.79
280.488	8683.45
280.557	8675.75
280.625	8672.53
280.693	8671.76
280.761	8670.7
280.83	8651.35
280.898	8667.04
280.966	8649.33
281.034	8616.94
281.102	8604.52
281.171	8597.11
281.239	8604.19
281.307	8594.47
281.375	8582.44
281.443	8610.64
281.512	8604.81
281.58	8611.41
281.648	8602.79
281.716	8604.72
281.784	8602.36
281.852	8593.94
281.92	8588.07
281.989	8598.85
282.057	8587.16
282.125	8614.93
282.193	8612.04
282.261	8614.21
282.329	8606.26
282.397	8616.47
282.465	8618.87
282.533	8638.07
282.601	8629.7
282.67	8609.15
282.738	8602.75
282.806	8614.1
282.874	8595.91
282.942	8597.21
283.01	8587.92
283.078	8589.41
283.146	8585.8
283.214	8601.44
283.282	8602.5
283.35	8616.36
283.418	8609.38
283.486	8615.69
283.554	8589.31
283.622	8587.77
283.69	8583.53
283.758	8581.08
283.826	8585.32
283.894	8596.19
283.962	8605.77
284.03	8618.91
284.098	8619.15
284.165	8619.39
284.233	8621.22
284.301	8613.9
284.369	8606.3
284.437	8599.03
284.505	8593.45
284.573	8608.42
284.641	8593.83
284.709	8603.46
284.777	8588.11
284.845	8592.15
284.912	8598.98
284.98	8596.24
285.048	8589.89
285.116	8593.84
285.184	8599.42
285.252	8593.74
285.319	8577.47
285.387	8573.24
285.455	8556.39
285.523	8559.81
285.591	8552.5
285.659	8547.54
285.726	8557.93
285.794	8540.47
285.862	8531.08
285.93	8532.82
285.997	8523.96
286.065	8518.52
286.133	8504.33
286.201	8503.36
286.269	8487.77
286.336	8471.36
286.404	8468.62
286.472	8474.35
286.539	8457.22
286.607	8438.79
286.675	8439.12
286.743	8448.41
286.81	8443.45
286.878	8453.51
286.946	8443.5
287.013	8435.71
287.081	8434.31
287.149	8424.16
287.216	8444.9
287.284	8442.01
287.352	8441.43
287.419	8435.8
287.487	8451.34
287.555	8461.4
287.622	8445.67
287.69	8458.86
287.758	8474.5
287.825	8471.37
287.893	8468.19
287.96	8471.56
288.028	8489.41
288.096	8489.12
288.163	8487.97
288.231	8476.47
288.298	8471.37
288.366	8486.67
288.433	8489.07
288.501	8480.99
288.569	8484.12
288.636	8479.35
288.704	8493.84
288.771	8498.55
288.839	8491.39
288.906	8481.66
288.974	8484.07
289.041	8493.69
289.109	8473.05
289.176	8476.71
289.244	8484.26
289.311	8494.13
289.379	8503.17
289.446	8502.98
289.514	8504.04
289.581	8498.55
289.649	8502.21
289.716	8503.75
289.783	8489.65
289.851	8510.73
289.918	8514.14
289.986	8521.02
290.053	8522.66
290.121	8524.54
290.188	8528.39
290.255	8559.72
290.323	8554.9
290.39	8551.82
290.458	8552.35
290.525	8568.23
290.592	8560.77
290.66	8560.63
290.727	8552.69
290.794	8562.02
290.862	8559.76
290.929	8562.26
290.996	8564.24
291.064	8573.38
291.131	8586.91
291.198	8606.97
291.266	8601.68
291.333	8595.71
291.4	8600.19
291.468	8612.8
291.535	8605.58
291.602	8603.51
291.669	8593.35
291.737	8597.3
291.804	8588.49
291.871	8605.19
291.938	8612.8
292.006	8638.16
292.073	8647.02
292.14	8655.49
292.207	8654.38
292.275	8657.08
292.342	8665.4
292.409	8694.33
292.476	8712.53
292.543	8705.45
292.611	8700.35
292.678	8718.98
292.745	8746.17
292.812	8755.07
292.879	8750.31
292.946	8753
293.014	8768.84
293.081	8776.11
293.148	8787.56
293.215	8807.44
293.282	8801.18
293.349	8809.12
293.416	8791.79
293.484	8806.19
293.551	8814.9
293.618	8825.68
293.685	8845.95
293.752	8840.55
293.819	8830.2
293.886	8821.88
293.953	8830.49
294.02	8841.47
294.087	8844.21
294.154	8832.13
294.221	8845.18
294.288	8847.29
294.356	8866.35
294.423	8867.7
294.49	8858.94
294.557	8873.91
294.624	8865.06
294.691	8877.62
294.758	8877.14
294.825	8884.79
294.892	8873.67
294.959	8873.09
295.026	8877.23
295.093	8874.3
295.16	8879.59
295.226	8883.06
295.293	8900.2
295.36	8902.75
295.427	8909.73
295.494	8917.43
295.561	8933.36
295.628	8956.04
295.695	8975.93
295.762	8975.59
295.829	8986.52
295.896	9006.78
295.963	9006.93
296.03	9020.31
296.096	9036
296.163	9047.8
296.23	9058.73
296.297	9073.31
296.364	9074.66
296.431	9085.49
296.498	9080.58
296.564	9097.14
296.631	9103.16
296.698	9088.23
296.765	9104.27
296.832	9090.98
296.899	9079.04
296.965	9092.23
297.032	9064.4
297.099	9073.36
297.166	9074.46
297.233	9067.96
297.299	9053.28
297.366	9051.74
297.433	9049.28
297.5	9053.38
297.566	9049.91
297.633	9046.78
297.7	9047.55
297.767	9046.78
297.833	9047.89
297.9	9042.98
297.967	9026.9
298.033	9035.62
298.1	9066.48
298.167	9065.47
298.234	9077.94
298.3	9085.54
298.367	9082.03
298.434	9089.39
298.5	9079.09
298.567	9082.36
298.634	9087.9
298.7	9103.54
298.767	9114.43
298.834	9127.57
298.9	9123.04
298.967	9117.6
299.033	9124.54
299.1	9137.34
299.167	9146.3
299.233	9142.93
299.3	9161.08
299.366	9172.92
299.433	9186.79
299.5	9156.55
299.566	9151.54
299.633	9166.42
299.699	9174.22
299.766	9172.63
299.832	9174.56
299.899	9183.08
299.965	9190.88
300.032	9181.01
300.099	9185.01
300.165	9186.88
300.232	9180.05
300.298	9172.2
300.365	9184.24
300.431	9194.49
300.498	9190.64
300.564	9196.61
300.631	9203.45
300.697	9213.61
300.763	9211.25
300.83	9210.38
300.896	9224.34
300.963	9231.71
301.029	9233.54
301.096	9238.69
301.162	9238.5
301.229	9237.01
301.295	9223.52
301.361	9223.14
301.428	9229.06
301.494	9218.28
301.561	9217.75
301.627	9220.83
301.693	9230.65
301.76	9232.48
301.826	9220.78
301.892	9223.47
301.959	9235.03
302.025	9233.97
302.092	9224.2
302.158	9230.5
302.224	9222.65
302.291	9216.44
302.357	9215
302.423	9206.09
302.49	9197.38
302.556	9207.87
302.622	9202.24
302.688	9215.91
302.755	9227.95
302.821	9234.5
302.887	9247.02
302.954	9242.25
303.02	9243.89
303.086	9243.6
303.152	9238.35
303.219	9235.12
303.285	9244.42
303.351	9244.8
303.417	9240.57
303.483	9233.63
303.55	9226.6
303.616	9222.7
303.682	9223.47
303.748	9209.27
303.815	9220.2
303.881	9229.01
303.947	9221.07
304.013	9222.37
304.079	9211.05
304.145	9190.88
304.212	9187.7
304.278	9173.11
304.344	9164.64
304.41	9157.76
304.476	9151.35
304.542	9148.03
304.608	9150.05
304.674	9132.19
304.741	9123.33
304.807	9126.55
304.873	9133.58
304.939	9148.41
305.005	9135.85
305.071	9128.67
305.137	9134.55
305.203	9107.01
305.269	9097.09
305.335	9094.97
305.401	9089.96
305.467	9087.84
305.533	9100.22
305.599	9100.55
305.666	9111.15
305.732	9114.9
305.798	9129.3
305.864	9148.56
305.93	9152.41
305.996	9149.62
306.062	9141.58
306.128	9135.37
306.194	9120.73
306.259	9116.64
306.325	9104.12
306.391	9111.2
306.457	9116.69
306.523	9121.21
306.589	9142.73
306.655	9133.58
306.721	9124.44
306.787	9114.42
306.853	9123.09
306.919	9099.45
306.985	9094.69
307.051	9080.77
307.117	9075
307.183	9060.26
307.248	9027.96
307.314	9026.99
307.38	9027.04
307.446	9034.79
307.512	9026.22
307.578	9027.23
307.644	9024.35
307.709	9023.48
307.775	9011.73
307.841	9008.31
307.907	9004.08
307.973	8987.13
308.039	8993.15
308.104	8997.91
308.17	8999.84
308.236	8988.24
308.302	8998.2
308.368	8986.07
308.433	8983.09
308.499	8972.98
308.565	8960.99
308.631	8963.4
308.696	8937.89
308.762	8929.61
308.828	8922.19
308.894	8903.66
308.959	8882.43
309.025	8867.08
309.091	8860.29
309.156	8853.65
309.222	8850.86
309.288	8831.65
309.354	8809.8
309.419	8802
309.485	8786.79
309.551	8787.99
309.616	8770.13
309.682	8757.57
309.748	8753
309.813	8748.86
309.879	8745.39
309.945	8734.66
310.01	8724.41
310.076	8729.75
310.141	8713.67
310.207	8701.83
310.273	8705.78
310.338	8713.67
310.404	8695.43
310.469	8682.82
310.535	8667.13
310.601	8644.71
310.666	8655.63
310.732	8656.45
310.797	8645.48
310.863	8632.72
310.928	8623.05
310.994	8623.09
311.059	8619.58
311.125	8618.09
311.191	8632.39
311.256	8617.95
311.322	8618.29
311.387	8600.14
311.453	8964.09
311.518	8943.35
311.584	8940.17
311.649	8942
311.715	8928.33
311.78	8928.81
311.846	8921.84
311.911	8932.76
311.976	8932.18
312.042	8908.41
312.107	8903.07
312.173	8890.56
312.238	8887.57
312.304	8879.73
312.369	8872.12
312.434	8858.41
312.5	8849.7
312.565	8811.2
312.631	8809.61
312.696	8800.47
312.761	8806.82
312.827	8429.5
312.892	8462.12
312.958	8454.38
313.023	8444.65
313.088	8439.94
313.154	8426.66
313.219	8414.58
313.284	8404.29
313.35	8399.57
313.415	8392.02
313.48	8384.37
313.546	8384.08
313.611	8385.09
313.676	8379.02
313.741	8362.33
313.807	8366.95
313.872	8364.54
313.937	8376.62
314.003	8388.31
314.068	8388.65
314.133	8392.84
314.198	8379.8
314.264	8360.21
314.329	8346.4
314.394	8346.02
314.459	8341.64
314.525	8357.42
314.59	8357.95
314.655	8343.95
314.72	8345.49
314.785	8348.18
314.851	8338.99
314.916	8321.91
314.981	8305.46
315.046	8288.28
315.111	8282.08
315.176	8268.89
315.242	8269.95
315.307	8262.3
315.372	8245.94
315.437	8232.81
315.502	8219.14
315.567	8229.68
315.632	8217.22
315.698	8221.02
315.763	8214.47
315.828	8205.48
315.893	8204.56
315.958	8197.78
316.023	8189.12
316.088	8173.15
316.153	8149.24
316.218	8147.22
316.283	8131.64
316.348	8119.23
316.413	8119.86
316.479	8110.38
316.544	8080.81
316.609	8051.7
316.674	8020.15
316.739	7980.76
316.804	7951.04
316.869	7918.44
316.934	7886.11
316.999	7855.09
317.064	7812.82
317.129	7770.79
317.194	7732.76
317.259	7686.68
317.324	7639.04
317.389	7599.9
317.454	7562.06
317.518	7535.43
317.583	7507.59
317.648	7483.46
317.713	7452.3
317.778	7393.71
317.843	7367.55
317.908	7330.55
317.973	7294.21
318.038	7268.73
318.103	7238.84
318.168	7215.2
318.233	7189.87
318.297	7136.82
318.362	7099.68
318.427	7059.51
318.492	7034.24
318.557	6996.05
318.622	6967.89
318.687	6942.58
318.751	6905.55
318.816	6875.81
318.881	6838.49
318.946	6787.04
319.011	6750.15
319.075	6709.85
319.14	6681.52
319.205	6637.72
319.27	6609.1
319.335	6566.17
319.399	6524.44
319.464	6500.1
319.529	6449.16
319.594	6407.63
319.658	6383.05
319.723	6348.68
319.788	6321.71
319.853	6271.98
319.917	6249.9
319.982	6198.83
320.047	6167.54
320.112	6139.76
320.176	6092.16
320.241	6064.61
320.306	6033.71
320.37	5997.11
320.435	5962.13
320.5	5936.18
320.564	5895.98
320.629	5856.85
320.694	5829.51
320.758	5785
320.823	5741.02
320.888	5715.66
320.952	5675.48
321.017	5637.64
321.082	5594.54
321.146	5562.32
321.211	5526.28
321.275	5485.48
321.34	5446.57
321.405	5406.11
321.469	5363.32
321.534	5324.56
321.598	5278.17
321.663	5253.63
321.727	5220.71
321.792	5181.95
321.857	5140.69
321.921	5106.92
321.986	5068.42
322.05	5014.63
322.115	4985.23
322.179	4944.77
322.244	4890
322.308	4858.2
322.373	4811.38
322.437	4780.74
322.502	4757.27
322.566	4717.98
322.631	4680.74
322.695	4646.05
322.76	4599.64
322.824	4567.96
322.889	4530.41
322.953	4483.72
323.018	4421.09
323.082	4360.35
323.146	4314.11
323.211	4264.46
323.275	4224.19
323.34	4178.73
323.404	4144.08
323.468	4099.94
323.533	4059.5
323.597	4019.18
323.662	3966.7
323.726	3939.12
323.79	3894.58
323.855	3831.57
323.919	3788.39
323.983	3744.1
324.048	3679.79
324.112	3824.51
324.177	3702.81
324.241	3510.49
324.305	3325.47
324.37	3140.36
324.434	2963.71
324.498	2921.74
324.562	2875.89
324.627	2818.48
324.691	2770.55
324.755	2711.29
324.82	2641.93
324.884	2570.89
324.948	2506.74
325.012	2424.13
325.077	2304.99
