Data from 20250625_urea_1M_1_MAYP1162681_21-05-06-244.txt Node
Date: Wed Jun 25 21:05:06 BST 2025
User: adleo
Spectrometer: MAYP116268
Trigger mode: 0
Integration Time (sec): 1.000000E0
Scans to average: 1
Electric dark correction enabled: true
Nonlinearity correction enabled: true
Boxcar width: 10
XAxis mode: Wavelengths
Number of Pixels in Spectrum: 2068
>>>>>Begin Spectral Data<<<<<
179.565	1186.84
179.642	1242.24
179.718	1280.59
179.795	1317.52
179.871	1346.8
179.948	1363.95
180.024	1384.24
180.101	1405.82
180.177	1417.57
180.254	1438.67
180.33	1460.9
180.407	1512.17
180.483	1603.77
180.56	1694.08
180.636	1777.21
180.712	1764.19
180.789	1773.17
180.865	1783.29
180.942	1792.32
181.018	1801.92
181.095	1815.8
181.171	1818.66
181.248	1819.18
181.324	1837.29
181.4	1844.61
181.477	1855.78
181.553	1870.09
181.63	1890.58
181.706	1908.88
181.782	1919.96
181.859	1920.34
181.935	1925.47
182.011	1924.19
182.088	1941.73
182.164	1956.71
182.24	1971.36
182.317	1982
182.393	1980.29
182.469	1993.27
182.546	2002.45
182.622	2006.01
182.698	2003.06
182.775	2017.76
182.851	2029.5
182.927	2019.09
183.003	2015.33
183.08	2010.15
183.156	2016.38
183.232	2014.05
183.308	1998.5
183.385	2004.49
183.461	2020.52
183.537	2020.94
183.613	2033.6
183.69	2022.42
183.766	2013.9
183.842	2016.95
183.918	2022.7
183.995	2035.4
184.071	2041.25
184.147	2039.21
184.223	2027.99
184.299	2035.98
184.375	2023.42
184.452	2034.37
184.528	2091.79
184.604	2102.07
184.68	2115.29
184.756	2123.94
184.832	2125.66
184.908	2135.78
184.985	2137.68
185.061	2123.75
185.137	2134.79
185.213	2121.33
185.289	2124.56
185.365	2119.14
185.441	2119.66
185.517	2133.8
185.593	2129.89
185.669	2125.47
185.745	2133.75
185.822	2149.34
185.898	2143.92
185.974	2153.05
186.05	2142.15
186.126	2102.47
186.202	2097.05
186.278	2093.76
186.354	2086.25
186.43	2092.91
186.506	2088.39
186.582	2084.92
186.658	2091.58
186.734	2070.79
186.81	2076.4
186.886	2079.59
186.962	2087.72
187.038	2083.63
187.114	2074.07
187.19	2078.63
187.266	2070.02
187.341	2072.31
187.417	2067.22
187.493	2065.98
187.569	2071.22
187.645	2066.22
187.721	2055.76
187.797	2062.32
187.873	2063.51
187.949	2054.05
188.025	2051.1
188.101	2054
188.176	2059.94
188.252	2056.66
188.328	2063.55
188.404	2061.51
188.48	2056.09
188.556	2049.76
188.632	2049.95
188.707	2051.47
188.783	2051.19
188.859	2046.25
188.935	2035.3
189.011	2043.53
189.086	2039.02
189.162	2031.74
189.238	2028.84
189.314	2025.79
189.39	2021.04
189.465	2016.33
189.541	2036.02
189.617	2020.04
189.693	2015.48
189.768	2019.57
189.844	2042.74
189.92	2034.47
189.996	2041.51
190.071	2052.59
190.147	2053.35
190.223	2064.77
190.298	2055.87
190.374	2043.65
190.45	2056.72
190.526	2065.14
190.601	2059.62
190.677	2062.38
190.753	2087.7
190.828	2090.89
190.904	2106.3
190.98	2120.33
191.055	2132.18
191.131	2122.62
191.207	2142.97
191.282	2150.82
191.358	2140.59
191.433	2128.17
191.509	2142.48
191.585	2140.34
191.66	2144.05
191.736	2153.52
191.811	2140.86
191.887	2154.9
191.963	2177.69
192.038	2183.2
192.114	2183.11
192.189	2187.91
192.265	2181.54
192.34	2157.84
192.416	2158.03
192.491	2153.27
192.567	2158.22
192.642	2160.13
192.718	2158.84
192.793	2146.71
192.869	2142.38
192.944	2143.19
193.02	2147.66
193.095	2151.23
193.171	2156.75
193.246	2154.94
193.322	2152.28
193.397	2155.99
193.473	2148.28
193.548	2129.44
193.624	2133.86
193.699	2130.34
193.775	2142.15
193.85	2143.05
193.925	2153.8
194.001	2153.37
194.076	2143.19
194.152	2130.96
194.227	2123.35
194.302	2116.31
194.378	2118.74
194.453	2116.74
194.529	2131.68
194.604	2117.64
194.679	2113.27
194.755	2092.39
194.83	2104.58
194.905	2097.49
194.981	2105.39
195.056	2094.35
195.131	2099.54
195.207	2096.06
195.282	2088.12
195.357	2069.38
195.433	2087.07
195.508	2074.04
195.583	2081.5
195.659	2097.87
195.734	2102.1
195.809	2100.39
195.884	2107.95
195.96	2109.71
196.035	2127.55
196.11	2124.93
196.185	2137.49
196.261	2136.16
196.336	2168.36
196.411	2152.85
196.486	2159.55
196.561	2153.13
196.637	2165.07
196.712	2184.3
196.787	2188.91
196.862	2205.46
196.937	2217.31
197.013	2222.93
197.088	2231.73
197.163	2250.53
197.238	2267.05
197.313	2269.14
197.388	2282.18
197.464	2311.22
197.539	2322.78
197.614	2313.7
197.689	2324.83
197.764	2341.78
197.839	2364.91
197.914	2360.1
197.989	2381.95
198.065	2399.51
198.14	2449
198.215	2471.67
198.29	2482.62
198.365	2496.67
198.44	2504.38
198.515	2530.57
198.59	2544.76
198.665	2571.61
198.74	2580.43
198.815	2579.52
198.89	2601.76
198.965	2629.68
199.04	2625.29
199.115	2639.77
199.19	2681.78
199.265	2685.59
199.34	2693.73
199.415	2726.67
199.49	2751.01
199.565	2761.2
199.64	2784.31
199.715	2781.12
199.79	2787.07
199.865	2792.46
199.94	2786.7
200.015	2822.96
200.09	2832.31
200.165	2839.17
200.24	2847.89
200.315	2889.15
200.39	2907.07
200.464	2910.64
200.539	2913.7
200.614	2930.37
200.689	2950.49
200.764	2959.84
200.839	2974.41
200.914	2980.09
200.989	2970.12
201.063	2980.18
201.138	2964.79
201.213	2965.41
201.288	2945.2
201.363	2953.07
201.438	2950.26
201.512	2968.55
201.587	2950.14
201.662	2951.05
201.737	2961.54
201.812	2968.17
201.886	2932.1
201.961	2941.83
202.036	2929.92
202.111	2925.72
202.186	2897.05
202.26	2882.17
202.335	2858.53
202.41	2855.05
202.485	2838.47
202.559	2819.31
202.634	2790.53
202.709	2800.24
202.784	2780.23
202.858	2782.76
202.933	2762.5
203.008	2757.79
203.082	2741.21
203.157	2737.3
203.232	2695.72
203.306	2674.94
203.381	2642.5
203.456	2621.63
203.53	2595.79
203.605	2579.27
203.68	2558.93
203.754	2553.26
203.829	2540.4
203.904	2522.35
203.978	2514.21
204.053	2518.78
204.127	2504.02
204.202	2502.69
204.277	2485.69
204.351	2479.74
204.426	2466.35
204.5	2461.69
204.575	2428.84
204.65	2434.89
204.724	2428.03
204.799	2436.69
204.873	2433.31
204.948	2432.31
205.022	2421.03
205.097	2412.41
205.171	2426.69
205.246	2433.6
205.32	2433.79
205.395	2433.5
205.469	2424.7
205.544	2425.32
205.618	2407.32
205.693	2419.32
205.767	2410.8
205.842	2432.75
205.916	2423.76
205.991	2417.71
206.065	2420.76
206.14	2437.89
206.214	2436.41
206.289	2429.69
206.363	2442.6
206.438	2447.03
206.512	2458.31
206.586	2478.5
206.661	2486.69
206.735	2463.51
206.81	2460.94
206.884	2474.08
206.958	2460.46
207.033	2475.41
207.107	2481.98
207.181	2514.23
207.256	2509.09
207.33	2526.8
207.405	2534.33
207.479	2557.76
207.553	2565.85
207.628	2552.85
207.702	2561.47
207.776	2554.33
207.851	2559.52
207.925	2573.34
207.999	2570.1
208.073	2566.19
208.148	2568.43
208.222	2560.38
208.296	2594.8
208.371	2616.44
208.445	2631.06
208.519	2662.35
208.593	2676.11
208.668	2675.45
208.742	2678.55
208.816	2681.83
208.89	2698.13
208.965	2700.04
209.039	2706.37
209.113	2727.77
209.187	2751.29
209.261	2754.48
209.336	2777.49
209.41	2800.94
209.484	2806.71
209.558	2832.63
209.632	2850.02
209.707	2866.99
209.781	2898.83
209.855	2921.81
209.929	2949.68
210.003	2965.7
210.077	2975.33
210.151	3033.26
210.226	3082.26
210.3	3124.02
210.374	3165.74
210.448	3189.83
210.522	3223.76
210.596	3258.54
210.67	3291.55
210.744	3362.29
210.818	3419.78
210.892	3470.42
210.966	3493.14
211.041	3539.97
211.115	3575.1
211.189	3642.52
211.263	3707.38
211.337	3754.8
211.411	3819.74
211.485	3859.51
211.559	3926.4
211.633	3986.05
211.707	4016.51
211.781	4086.55
211.855	4121.27
211.929	4182.64
212.003	4239.86
212.077	4330.02
212.151	4423.62
212.225	4519.66
212.299	4602.38
212.373	4687.72
212.447	4781.3
212.52	4911.24
212.594	5027.08
212.668	5151.09
212.742	5251.78
212.816	5364.24
212.89	5483.96
212.964	5606.85
213.038	5738.07
213.112	5880.55
213.186	6030.34
213.26	6153.32
213.333	6252.96
213.407	6406.52
213.481	6564.61
213.555	6728.33
213.629	6867.27
213.703	7015.35
213.777	7184.34
213.85	7330.8
213.924	7530.65
213.998	7705.68
214.072	7880.07
214.146	8038.75
214.219	8214.05
214.293	8393.05
214.367	8572.97
214.441	8769.6
214.515	8948.87
214.588	9118.45
214.662	9270.19
214.736	9447.51
214.81	9647.93
214.883	9853.14
214.957	10036.23
215.031	10225.08
215.105	10403.92
215.178	10598.4
215.252	10790.93
215.326	10959.53
215.4	11143.26
215.473	11300.85
215.547	11480.8
215.621	11661.25
215.694	11869.98
215.768	12042.82
215.842	12219.99
215.915	12401.71
215.989	12569.94
216.063	12749.97
216.136	12949.87
216.21	13147.45
216.284	13345.76
216.357	13532.31
216.431	13716.16
216.504	13916.3
216.578	14125.6
216.652	14320.69
216.725	14502.99
216.799	14694.12
216.873	14868.57
216.946	15044.7
217.02	15211.34
217.093	15380.14
217.167	15535.3
217.24	15676.05
217.314	15840.56
217.387	16005.98
217.461	16169.47
217.535	16336.81
217.608	16476.44
217.682	16628.45
217.755	16793.24
217.829	16933.44
217.902	17077.4
217.976	17224.73
218.049	17356.83
218.123	17477.45
218.196	17627.05
218.27	17763.91
218.343	17880.29
218.417	18021.54
218.49	18160.82
218.563	18308.57
218.637	18435.99
218.71	18582.3
218.784	18717.52
218.857	18856.17
218.931	18978.33
219.004	19099.77
219.077	19225.88
219.151	19349.78
219.224	19457.97
219.298	19574.3
219.371	19700.37
219.444	19804.7
219.518	19913.47
219.591	20018.86
219.665	20148.65
219.738	20244.16
219.811	20329.22
219.885	20434.91
219.958	20532.21
220.031	20610.29
220.105	20705.33
220.178	20800.03
220.251	20877.62
220.325	20974.3
220.398	21056.86
220.471	21141.54
220.544	21224.49
220.618	21285.46
220.691	21372.26
220.764	21440.51
220.838	21507.17
220.911	21564.05
220.984	21659.29
221.057	21721.71
221.131	21793.68
221.204	21828.82
221.277	21907.87
221.35	21994.16
221.424	22046.03
221.497	22109.22
221.57	22175.41
221.643	22232.73
221.716	22286.62
221.79	22333.04
221.863	22377.44
221.936	22427.39
222.009	22472.65
222.082	22516.33
222.155	22561.6
222.229	22602.82
222.302	22650.88
222.375	22685.64
222.448	22723.34
222.521	22746.34
222.594	22779.51
222.667	22796.05
222.74	22829.12
222.814	22848.17
222.887	22866.68
222.96	22905.4
223.033	22927
223.106	22948.94
223.179	22978.69
223.252	23000.82
223.325	23026.28
223.398	23042.96
223.471	23054.82
223.544	23070.93
223.617	23079.03
223.69	23096.53
223.763	23115.19
223.837	23130.71
223.91	23142.82
223.983	23142
224.056	23133.17
224.129	23144.51
224.202	23163.65
224.275	23173
224.348	23168.03
224.42	23161.62
224.493	23144.41
224.566	23147.01
224.639	23157.19
224.712	23148.36
224.785	23156.7
224.858	23153.13
224.931	23146.67
225.004	23134.72
225.077	23133.37
225.15	23110.7
225.223	23100.19
225.296	23119.48
225.369	23091.61
225.442	23079.75
225.514	23072.57
225.587	23083.32
225.66	23090.46
225.733	23076.62
225.806	23064.13
225.879	23056.61
225.952	23033.03
226.025	23043.35
226.097	23057.91
226.17	23037.04
226.243	23010.71
226.316	22991.37
226.389	22972.18
226.461	22963.12
226.534	22950.82
226.607	22930.24
226.68	22944.46
226.753	22940.89
226.825	22894.7
226.898	22906.08
226.971	22886.26
227.044	22881.97
227.117	22855.74
227.189	22832.89
227.262	22830.96
227.335	22817.6
227.407	22781.59
227.48	22776.82
227.553	22751.6
227.626	22717.65
227.698	22702.47
227.771	22684.48
227.844	22651.41
227.916	22639.98
227.989	22609.76
228.062	22590.81
228.134	22595.15
228.207	22570.61
228.28	22537.39
228.352	22516.61
228.425	22495.16
228.498	22485.81
228.57	22452.69
228.643	22451.14
228.716	22429.06
228.788	22396.43
228.861	22365.14
228.934	22367.74
229.006	22336.12
229.079	22312.11
229.151	22276.63
229.224	22234.84
229.296	22217.63
229.369	22247.37
229.442	22244.91
229.514	22220.71
229.587	22206.35
229.659	22165.33
229.732	22147.73
229.804	22145.75
229.877	22148.89
229.949	22135.49
230.022	22139.68
230.094	22121.89
230.167	22099.38
230.239	22055.47
230.312	22034.64
230.384	22039.13
230.457	22013.77
230.529	21996.9
230.602	21973.33
230.674	21958.1
230.747	21954.92
230.819	21935.83
230.892	21850.21
230.964	21822.3
231.037	21800.95
231.109	21780.56
231.181	21757.38
231.254	21714
231.326	21675.87
231.399	21638.32
231.471	21603.61
231.544	21541.62
231.616	21536.03
231.688	21507.21
231.761	21484.99
231.833	21457.71
231.905	21402.81
231.978	21382.66
232.05	21355.86
232.122	21327.14
232.195	21296.15
232.267	21285.93
232.339	21253.68
232.412	21259.32
232.484	21223.65
232.556	21190.83
232.629	21171.99
232.701	21163.22
232.773	21146.11
232.846	21115.65
232.918	21084.41
232.99	21062.63
233.062	21048.41
233.135	21013.71
233.207	20982.62
233.279	20960.69
233.351	20943.25
233.424	20919.15
233.496	20875.73
233.568	20863.97
233.64	20823.19
233.713	20793.36
233.785	20758.32
233.857	20732.35
233.929	20684.63
234.001	20671.04
234.074	20673.31
234.146	20634.08
234.218	20598.61
234.29	20560.82
234.362	20523.33
234.434	20478.08
234.507	20434.17
234.579	20390.94
234.651	20352.05
234.723	20321.45
234.795	20306.9
234.867	20272.34
234.939	20260.97
235.012	20239.33
235.084	20209.26
235.156	20200.54
235.228	20159.72
235.3	20118.51
235.372	20091.72
235.444	20079.91
235.516	20023.77
235.588	19978.66
235.66	19951.48
235.732	19901.32
235.804	19928.78
235.876	19909.41
235.948	19900.3
236.02	19867.82
236.092	19839.05
236.164	19808.12
236.236	19769.47
236.308	19724.55
236.38	19689.86
236.452	19640.9
236.524	19604.99
236.596	19584.08
236.668	19549.24
236.74	19525.96
236.812	19506.49
236.884	19483.22
236.956	19440.18
237.028	19406.45
237.1	19356.62
237.172	19337.35
237.244	19325.97
237.316	19257.35
237.388	19218.85
237.46	19175.96
237.532	19160.87
237.604	19123.48
237.675	19103.14
237.747	19085.41
237.819	19049.94
237.891	19028.59
237.963	18997.8
238.035	18966.91
238.107	18902.05
238.178	18880.07
238.25	18838.53
238.322	18818.15
238.394	18769.43
238.466	18732.51
238.538	18704.27
238.609	18685.19
238.681	18631.65
238.753	18587.27
238.825	18557.63
238.897	18528
238.968	18512.62
239.04	18461.4
239.112	18454.55
239.184	18411.33
239.255	18374.32
239.327	18350.13
239.399	18309.45
239.471	18278.61
239.542	18246.85
239.614	18238.9
239.686	18186.09
239.758	18169.56
239.829	18122.47
239.901	18100.16
239.973	18067.63
240.044	18042.14
240.116	18011.83
240.188	17974.67
240.259	17946.87
240.331	17906.43
240.403	17881.47
240.474	17835.74
240.546	17804.36
240.618	17751.5
240.689	17718.05
240.761	17685.57
240.833	17673.04
240.904	17638.83
240.976	17608.27
241.048	17586.2
241.119	17557.53
241.191	17528.13
241.262	17510.54
241.334	17477.19
241.405	17440.47
241.477	17406.1
241.549	17366.49
241.62	17338.1
241.692	17322.92
241.763	17306.78
241.835	17275.5
241.906	17247.31
241.978	17203.26
242.049	17190.01
242.121	17167.69
242.192	17151.74
242.264	17103.4
242.335	17052.27
242.407	17029.09
242.478	16991.35
242.55	16963.49
242.621	16918.82
242.693	16885.42
242.764	16857.51
242.836	16834.23
242.907	16813.17
242.979	16793.8
243.05	16773.8
243.122	16751.97
243.193	16720.45
243.264	16665.94
243.336	16630.42
243.407	16606.51
243.479	16594.12
243.55	16555.86
243.622	16527.61
243.693	16502.21
243.764	16499.13
243.836	16454.59
243.907	16415.51
243.978	16391.5
244.05	16368.66
244.121	16329.91
244.192	16309.81
244.264	16258.53
244.335	16222.62
244.407	16179.24
244.478	16152.97
244.549	16118.22
244.62	16074.7
244.692	16040.58
244.763	16030.21
244.834	16001.73
244.906	15965.92
244.977	15935.74
245.048	15925.91
245.119	15900.08
245.191	15853.76
245.262	15793.46
245.333	15784.11
245.405	15767.62
245.476	15740.78
245.547	15701.98
245.618	15683.42
245.689	15657.63
245.761	15628.33
245.832	15602.88
245.903	15585.14
245.974	15552.89
246.045	15516.16
246.117	15504.4
246.188	15462.9
246.259	15411.56
246.33	15383.65
246.401	15349.53
246.473	15313.18
246.544	15277.47
246.615	15256.4
246.686	15230.57
246.757	15227.39
246.828	15186.32
246.899	15162.94
246.97	15118.49
247.042	15088.71
247.113	15069.23
247.184	15061.42
247.255	15030.86
247.326	15001.22
247.397	14973.36
247.468	14946.41
247.539	14928.86
247.61	14891.84
247.681	14883.7
247.752	14881.34
247.823	14845.86
247.894	14828.31
247.965	14787.92
248.037	14756.73
248.108	14713.92
248.179	14682.73
248.25	14647.54
248.321	14634
248.392	14596.45
248.463	14593.31
248.534	14570.13
248.605	14556.34
248.675	14530.7
248.746	14510.69
248.817	14496.76
248.888	14473.09
248.959	14440.65
249.03	14420.84
249.101	14386.28
249.172	14346.84
249.243	14295.31
249.314	14283.69
249.385	14262.24
249.456	14250.48
249.527	14221.99
249.598	14205.46
249.669	14182.22
249.739	14171.61
249.81	14145.58
249.881	14113.91
249.952	14098.53
250.023	14069.61
250.094	14024.78
250.165	13984.62
250.235	13967.99
250.306	13942.88
250.377	13906.48
250.448	13885.66
250.519	13842.85
250.59	13843.28
250.66	13825.88
250.731	13826.31
250.802	13802.89
250.873	13783.41
250.944	13766.92
251.014	13742.29
251.085	13742.58
251.156	13730.34
251.227	13713.8
251.297	13710.09
251.368	13708.4
251.439	13691.34
251.51	13684.54
251.58	13658.85
251.651	13630.98
251.722	13618.16
251.792	13583.64
251.863	13568.17
251.934	13563.44
252.005	13574.39
252.075	13549.61
252.146	13532.54
252.217	13517.36
252.287	13507.04
252.358	13485.16
252.429	13478.12
252.499	13452.04
252.57	13431.6
252.641	13426.2
252.711	13408.32
252.782	13379.83
252.852	13375.73
252.923	13349.26
252.994	13330.85
253.064	13317.54
253.135	13295.71
253.205	13259.16
253.276	13256.37
253.347	13250.39
253.417	13216.07
253.488	13188.06
253.558	13163.52
253.629	13149.83
253.699	13129.88
253.77	13121.34
253.841	13094.64
253.911	13079.89
253.982	13061.08
254.052	13054.53
254.123	13026.47
254.193	13010.37
254.264	13026.04
254.334	12984.82
254.405	12953.68
254.475	12927.07
254.546	12914.59
254.616	12911.89
254.687	12908.85
254.757	12893.95
254.827	12867.73
254.898	12854.91
254.968	12840.4
255.039	12810.99
255.109	12803.57
255.18	12783.03
255.25	12738.93
255.321	12726.49
255.391	12684.31
255.461	12695.93
255.532	12645.75
255.602	12622.7
255.673	12583.27
255.743	12548.42
255.813	12511.83
255.884	12511.78
255.954	12495.73
256.024	12496.26
256.095	12475.05
256.165	12445.41
256.235	12428.44
256.306	12405.16
256.376	12396.58
256.446	12382.36
256.517	12369.87
256.587	12357.53
256.657	12344.66
256.728	12330.54
256.798	12310
256.868	12287.73
256.938	12256.88
257.009	12249.03
257.079	12241.07
257.149	12245.65
257.219	12208.82
257.29	12201.21
257.36	12165.35
257.43	12155.27
257.5	12113.77
257.571	12091.35
257.641	12077.09
257.711	12052.74
257.781	12044.21
257.852	12036.79
257.922	11995.53
257.992	11983.53
258.062	11965.79
258.132	11955.71
258.202	11934.7
258.273	11921.4
258.343	11932.1
258.413	11896.24
258.483	11876.52
258.553	11846.73
258.623	11816.18
258.693	11796.75
258.764	11791.35
258.834	11785.95
258.904	11768.12
258.974	11739.73
259.044	11720.65
259.114	11707.78
259.184	11690.04
259.254	11668.35
259.324	11624.39
259.394	11618.22
259.464	11612.58
259.535	11584.34
259.605	11556.43
259.675	11538.5
259.745	11526.07
259.815	11498.26
259.885	11483.37
259.955	11493.15
260.025	11467.22
260.095	11450.59
260.165	11446.93
260.235	11447.56
260.305	11423.12
260.375	11398.88
260.445	11412.13
260.515	11419.51
260.585	11421.97
260.655	11402.4
260.725	11397.92
260.795	11398.64
260.865	11400.09
260.934	11372.76
261.004	11372.28
261.074	11359.26
261.144	11355.84
261.214	11356.13
261.284	11337.48
261.354	11336.28
261.424	11310.1
261.494	11316.32
261.564	11304.61
261.634	11291.89
261.703	11256.8
261.773	11246.34
261.843	11240.27
261.913	11213.04
261.983	11170.73
262.053	11153.43
262.123	11138.73
262.192	11109.38
262.262	11100.9
262.332	11074.78
262.402	11065.96
262.472	11044.66
262.541	11005.82
262.611	10998.88
262.681	10971.51
262.751	10958.83
262.821	10939.8
262.89	10911.37
262.96	10901.15
263.03	10909.68
263.1	10906.16
263.169	10893.97
263.239	10884.67
263.309	10884.62
263.379	10882.74
263.448	10873.44
263.518	10859.71
263.588	10844.72
263.657	10847.47
263.727	10839.23
263.797	10823.28
263.867	10815.09
263.936	10782.08
264.006	10786.95
264.076	10768.3
264.145	10752.35
264.215	10735
264.285	10737.51
264.354	10710.19
264.424	10686.92
264.494	10654.54
264.563	10633.48
264.633	10642.39
264.702	10633.81
264.772	10603.84
264.842	10584.91
264.911	10578.4
264.981	10551.51
265.05	10536
265.12	10515.23
265.19	10496.59
265.259	10498.71
265.329	10491.57
265.398	10486.76
265.468	10497.5
265.537	10484.11
265.607	10474.62
265.676	10469.36
265.746	10446.09
265.815	10442.24
265.885	10427.74
265.955	10401.19
266.024	10377.73
266.094	10336.1
266.163	10332.97
266.232	10321.94
266.302	10307.97
266.371	10296.55
266.441	10282.58
266.51	10276.12
266.58	10256.03
266.649	10241.29
266.719	10232.42
266.788	10217.49
266.858	10222.69
266.927	10181.5
266.996	10173.07
267.066	10162.33
267.135	10144.31
267.205	10142.86
267.274	10131.74
267.343	10134.15
267.413	10124.32
267.482	10121.72
267.552	10125.76
267.621	10095.56
267.69	10073.21
267.76	10064.39
267.829	10054.13
267.898	10039.2
267.968	10023.64
268.037	10028.26
268.106	10023.64
268.176	9992.42
268.245	9975.76
268.314	9953.69
268.384	9958.85
268.453	9943.43
268.522	9935.92
268.592	9933.03
268.661	9912.8
268.73	9909.95
268.799	9889.96
268.869	9891.6
268.938	9870.5
269.007	9850.23
269.076	9836.6
269.146	9834
269.215	9820.36
269.284	9825.23
269.353	9818.92
269.422	9805.43
269.492	9779.67
269.561	9735.21
269.63	9736.42
269.699	9725.34
269.768	9719.66
269.838	9713.97
269.907	9711.13
269.976	9679.2
270.045	9646.31
270.114	9640.19
270.183	9631.76
270.253	9625.16
270.322	9595.93
270.391	9581.1
270.46	9582.64
270.529	9583.41
270.598	9584.09
270.667	9568.48
270.736	9543.82
270.806	9535.25
270.875	9533.85
270.944	9525.91
271.013	9545.75
271.082	9538.09
271.151	9532.21
271.22	9498.17
271.289	9475.97
271.358	9456.37
271.427	9456.51
271.496	9455.45
271.565	9437.35
271.634	9426.17
271.703	9449.49
271.772	9459.5
271.841	9450.35
271.91	9432.25
271.979	9425.31
272.048	9396.32
272.117	9398.73
272.186	9380.05
272.255	9376.87
272.324	9374.17
272.393	9364.16
272.462	9350.91
272.531	9339.21
272.6	9327.65
272.669	9340.46
272.738	9327.61
272.807	9327.51
272.876	9308.25
272.945	9325.35
273.013	9331.12
273.082	9325.97
273.151	9273.34
273.22	9266.21
273.289	9257.01
273.358	9260.72
273.427	9248.4
273.496	9258.6
273.564	9252.15
273.633	9257.25
273.702	9235.44
273.771	9222.97
273.84	9222.3
273.909	9224.61
273.977	9220.13
274.046	9204.92
274.115	9202.22
274.184	9194.08
274.253	9182.34
274.322	9192.35
274.39	9164.09
274.459	9142.28
274.528	9113.87
274.597	9115.94
274.665	9110.12
274.734	9111.85
274.803	9099.67
274.872	9087.34
274.94	9070.25
275.009	9109.31
275.078	9096.41
275.147	9099.68
275.215	9091.5
275.284	9093.81
275.353	9081.24
275.421	9056.16
275.49	9072.92
275.559	9063.58
275.627	9055.25
275.696	9055.15
275.765	9048.8
275.833	9042.2
275.902	9047.31
275.971	9065.41
276.039	9075.85
276.108	9076.14
276.177	9077.63
276.245	9066.85
276.314	9062.66
276.383	9062.71
276.451	9016.24
276.52	9014.84
276.588	9019.7
276.657	9023.84
276.725	9009.88
276.794	9000.93
276.863	9017.34
276.931	8987.88
277	8996.93
277.068	9005.88
277.137	9017.58
277.205	9020.71
277.274	9030.39
277.342	9037.37
277.411	9010.27
277.48	9001.36
277.548	8991.64
277.617	8987.16
277.685	8978.79
277.754	8983.7
277.822	8969.83
277.89	8976.48
277.959	8972.87
278.027	8951.78
278.096	8940.32
278.164	8969.26
278.233	8966.47
278.301	8952.12
278.37	8957.95
278.438	8935.99
278.507	8937.39
278.575	8908.03
278.643	8897.58
278.712	8882.85
278.78	8868.31
278.849	8884.72
278.917	8886.5
278.985	8886.7
279.054	8886.94
279.122	8898.06
279.191	8894.49
279.259	8894.69
279.327	8874.85
279.396	8892.23
279.464	8890.55
279.532	8902.77
279.601	8895.89
279.669	8892.86
279.737	8901.18
279.806	8909.46
279.874	8918.61
279.942	8917.41
280.011	8919.43
280.079	8927.61
280.147	8941.43
280.215	8943.54
280.284	8936.28
280.352	8923.28
280.42	8920.87
280.488	8916.44
280.557	8912.5
280.625	8919.57
280.693	8918.13
280.761	8918.08
280.83	8897.48
280.898	8905.51
280.966	8881.49
281.034	8857.95
281.102	8840.14
281.171	8838.07
281.239	8843.8
281.307	8835.77
281.375	8823.01
281.443	8847.66
281.512	8842.89
281.58	8852.04
281.648	8840.05
281.716	8836.2
281.784	8838.18
281.852	8833.99
281.92	8830.09
281.989	8837.99
282.057	8818.39
282.125	8854.41
282.193	8856.81
282.261	8855.03
282.329	8854.55
282.397	8859.75
282.465	8855.03
282.533	8868.12
282.601	8848.58
282.67	8819.65
282.738	8811.52
282.806	8821.53
282.874	8805.83
282.942	8808.91
283.01	8799.62
283.078	8805.59
283.146	8801.4
283.214	8810.41
283.282	8808.34
283.35	8816.04
283.418	8809.06
283.486	8817.29
283.554	8784.74
283.622	8778.87
283.69	8776.56
283.758	8772.37
283.826	8782.29
283.894	8796.63
283.962	8817.72
284.03	8836.15
284.098	8838.27
284.165	8834.66
284.233	8830.57
284.301	8815.89
284.369	8801.21
284.437	8785.42
284.505	8776.75
284.573	8788.55
284.641	8771.22
284.709	8779.3
284.777	8763.18
284.845	8765.59
284.912	8767.46
284.98	8767.22
285.048	8759.14
285.116	8763.85
285.184	8773.43
285.252	8762.75
285.319	8741.76
285.387	8737.38
285.455	8717.36
285.523	8725.44
285.591	8724.19
285.659	8722.75
285.726	8735.5
285.794	8724.82
285.862	8724.05
285.93	8723.57
285.997	8713.8
286.065	8705.57
286.133	8692.48
286.201	8690.31
286.269	8679.63
286.336	8666.05
286.404	8664.99
286.472	8675.97
286.539	8649.02
286.607	8628.27
286.675	8629.57
286.743	8629.77
286.81	8613.45
286.878	8625.67
286.946	8615.18
287.013	8616.24
287.081	8615.71
287.149	8604.64
287.216	8626.25
287.284	8620.52
287.352	8621.68
287.419	8624.95
287.487	8647.28
287.555	8654.36
287.622	8649.98
287.69	8652.63
287.758	8664.22
287.825	8649.26
287.893	8637.23
287.96	8646.08
288.028	8657.87
288.096	8655.61
288.163	8663.79
288.231	8659.51
288.298	8659.51
288.366	8679.77
288.433	8671.49
288.501	8663.46
288.569	8666.87
288.636	8653.64
288.704	8673.76
288.771	8675.82
288.839	8672.26
288.906	8656.38
288.974	8669.71
289.041	8670.82
289.109	8658.31
289.176	8658.79
289.244	8666.97
289.311	8681.36
289.379	8691.42
289.446	8694.35
289.514	8697
289.581	8699.26
289.649	8694.45
289.716	8688.34
289.783	8675.29
289.851	8694.93
289.918	8695.94
289.986	8699.26
290.053	8707.83
290.121	8703.3
290.188	8702.53
290.255	8724.53
290.323	8717.07
290.39	8709.75
290.458	8711.68
290.525	8725.93
290.592	8725.73
290.66	8732.52
290.727	8721.11
290.794	8732.04
290.862	8730.55
290.929	8728.67
290.996	8721.88
291.064	8735.6
291.131	8759.28
291.198	8770.88
291.266	8766.69
291.333	8767.66
291.4	8773.43
291.468	8787.87
291.535	8776.61
291.602	8786.09
291.669	8774.11
291.737	8783.68
291.804	8774.88
291.871	8792.83
291.938	8799.04
292.006	8828.16
292.073	8831.34
292.14	8842.8
292.207	8836.97
292.275	8840.05
292.342	8850.64
292.409	8879.24
292.476	8899.99
292.543	8887.47
292.611	8887.57
292.678	8907.64
292.745	8934.84
292.812	8939.65
292.879	8926.89
292.946	8934.11
293.014	8943.4
293.081	8953.42
293.148	8966.61
293.215	8984.95
293.282	8975.95
293.349	8985.57
293.416	8958.71
293.484	8974.11
293.551	8980.71
293.618	8999.53
293.685	9017.68
293.752	9016.53
293.819	9008.1
293.886	8994.96
293.953	9004.2
294.02	9014.79
294.087	9018.11
294.154	9007.42
294.221	9022.69
294.288	9031.11
294.356	9047.96
294.423	9054.8
294.49	9046.56
294.557	9058.26
294.624	9046.28
294.691	9070.15
294.758	9071.74
294.825	9084.79
294.892	9078.92
294.959	9077.81
295.026	9079.35
295.093	9076.12
295.16	9071.69
295.226	9068.32
295.293	9092.78
295.36	9090.09
295.427	9093.22
295.494	9104.77
295.561	9112.38
295.628	9134.87
295.695	9149.56
295.762	9151.29
295.829	9157.84
295.896	9178.01
295.963	9183.45
296.03	9195.49
296.096	9195.82
296.163	9202.56
296.23	9209.79
296.297	9218.6
296.364	9221.05
296.431	9228.27
296.498	9222.45
296.564	9250.76
296.631	9258.31
296.698	9241.99
296.765	9261.97
296.832	9254.75
296.899	9238.48
296.965	9254.17
297.032	9230.77
297.099	9242.66
297.166	9247.09
297.233	9245.17
297.299	9235.15
297.366	9232.6
297.433	9230.43
297.5	9235.78
297.566	9236.6
297.633	9242.52
297.7	9245.31
297.767	9242.76
297.833	9246.76
297.9	9245.17
297.967	9220.47
298.033	9228.94
298.1	9250.42
298.167	9243
298.234	9249.46
298.3	9256.15
298.367	9253.26
298.434	9259.66
298.5	9248.88
298.567	9247.24
298.634	9244.74
298.7	9254.7
298.767	9258.8
298.834	9269.97
298.9	9267.51
298.967	9254.27
299.033	9263.37
299.1	9280.37
299.167	9292.21
299.233	9291.35
299.3	9305.55
299.366	9332.75
299.433	9346.57
299.5	9325.58
299.566	9332.32
299.633	9348.31
299.699	9359.62
299.766	9351.68
299.832	9355.87
299.899	9362.03
299.965	9370.17
300.032	9363.57
300.099	9373.78
300.165	9377.58
300.232	9376.28
300.298	9372.38
300.365	9385.67
300.431	9375.99
300.498	9359.19
300.564	9364.24
300.631	9371.08
300.697	9381.53
300.763	9370.55
300.83	9376.43
300.896	9380.57
300.963	9377.54
301.029	9369.88
301.096	9366.07
301.162	9379.46
301.229	9370.65
301.295	9360.01
301.361	9364.24
301.428	9366.22
301.494	9346.04
301.561	9345.03
301.627	9342.62
301.693	9348.79
301.76	9353.99
301.826	9359.38
301.892	9374.69
301.959	9384.18
302.025	9377.15
302.092	9368.34
302.158	9376.48
302.224	9363.09
302.291	9363.57
302.357	9369.3
302.423	9361.06
302.49	9355.43
302.556	9361.88
302.622	9360.78
302.688	9369.68
302.755	9375.51
302.821	9384.61
302.887	9393.04
302.954	9394.05
303.02	9404.02
303.086	9406.91
303.152	9401.27
303.219	9392.84
303.285	9395.49
303.351	9400.55
303.417	9399.54
303.483	9391.35
303.55	9384.04
303.616	9382.45
303.682	9376.28
303.748	9364.44
303.815	9388.9
303.881	9399.16
303.947	9381
304.013	9377.39
304.079	9367.04
304.145	9351.29
304.212	9344.84
304.278	9331.36
304.344	9327.46
304.41	9312.68
304.476	9299.92
304.542	9297.12
304.608	9300.21
304.674	9282
304.741	9269.29
304.807	9266.93
304.873	9277.38
304.939	9285.76
305.005	9266.69
305.071	9267.85
305.137	9268.62
305.203	9239.43
305.269	9235.44
305.335	9248.58
305.401	9247.57
305.467	9245.31
305.533	9247.19
305.599	9253.78
305.666	9265.24
305.732	9266.3
305.798	9280.41
305.864	9302.08
305.93	9302.37
305.996	9295.53
306.062	9289.95
306.128	9284.41
306.194	9269.43
306.259	9266.16
306.325	9256.48
306.391	9270.3
306.457	9274.63
306.523	9272.9
306.589	9296.06
306.655	9282.29
306.721	9261.2
306.787	9248.11
306.853	9261.59
306.919	9247.91
306.985	9232.7
307.051	9227.12
307.117	9212.57
307.183	9202.41
307.248	9174.2
307.314	9180.6
307.38	9185.71
307.446	9193.17
307.512	9178.82
307.578	9185.13
307.644	9175.84
307.709	9180.65
307.775	9168.08
307.841	9164.09
307.907	9163.41
307.973	9137.03
308.039	9137.03
308.104	9144.92
308.17	9147.18
308.236	9129.61
308.302	9127.73
308.368	9122.77
308.433	9119.12
308.499	9111.46
308.565	9095.62
308.631	9097.16
308.696	9072.56
308.762	9054.55
308.828	9052.68
308.894	9035.54
308.959	9017.25
309.025	9006.99
309.091	8997.41
309.156	8997.7
309.222	8995.73
309.288	8981.91
309.354	8965.74
309.419	8960.78
309.485	8940.9
309.551	8942.72
309.616	8927.85
309.682	8926.41
309.748	8911.49
309.813	8902.77
309.879	8893.67
309.945	8881.88
310.01	8875.29
310.076	8870.52
310.141	8863.78
310.207	8843.51
310.273	8847.17
310.338	8844.86
310.404	8827.87
310.469	8814.39
310.535	8797.21
310.601	8772.76
310.666	8774.73
310.732	8784.26
310.797	8772.18
310.863	8759.57
310.928	8754.85
310.994	8754.22
311.059	8747.05
311.125	8751.38
311.191	8760.19
311.256	8749.32
311.322	8753.74
311.387	8726.12
311.453	9066.54
311.518	9032.28
311.584	9034.21
311.649	9039.79
311.715	9027.61
311.78	9025.74
311.846	9015.73
311.911	9019.29
311.976	9019.72
312.042	9007.78
312.107	8991.61
312.173	8978.33
312.238	8975.63
312.304	8962.4
312.369	8955.03
312.434	8942.04
312.5	8933.42
312.565	8899.64
312.631	8902.86
312.696	8887.08
312.761	8898.15
312.827	8546.22
312.892	8589.77
312.958	8581.88
313.023	8575.77
313.088	8578.46
313.154	8563.35
313.219	8550.89
313.284	8542.61
313.35	8537.7
313.415	8520.19
313.48	8513.11
313.546	8515.95
313.611	8522.79
313.676	8515.95
313.741	8501.42
313.807	8511.57
313.872	8510.66
313.937	8520.38
314.003	8528.56
314.068	8531.98
314.133	8532.36
314.198	8522.11
314.264	8505.07
314.329	8492.37
314.394	8487.99
314.459	8483.47
314.525	8500.79
314.59	8496.41
314.655	8481.78
314.72	8480.77
314.785	8483.71
314.851	8476.58
314.916	8463.11
314.981	8447.04
315.046	8437.42
315.111	8432.75
315.176	8413.4
315.242	8412.87
315.307	8404.89
315.372	8380.97
315.437	8371.06
315.502	8358.93
315.567	8368.17
315.632	8346.52
315.698	8345.36
315.763	8340.79
315.828	8332.03
315.893	8329.72
315.958	8326.74
316.023	8314.72
316.088	8295.81
316.153	8276.18
316.218	8268.82
316.283	8245.73
316.348	8227.4
316.413	8226.15
316.479	8210.9
316.544	8185.7
316.609	8158.13
316.674	8127.73
316.739	8097.82
316.804	8072.08
316.869	8043.66
316.934	8010.17
316.999	7979.25
317.064	7930.87
317.129	7885.22
317.194	7847.04
317.259	7798.94
317.324	7749.51
317.389	7718.45
317.454	7687.48
317.518	7656.52
317.583	7631.85
317.648	7613.43
317.713	7582.08
317.778	7523.33
317.843	7488.76
317.908	7450.45
317.973	7416.37
318.038	7389.78
318.103	7356.67
318.168	7327.16
318.233	7300.38
318.297	7254.14
318.362	7220.22
318.427	7187.88
318.492	7164.14
318.557	7122.72
318.622	7096.87
318.687	7083.46
318.751	7041.33
318.816	7008.08
318.881	6973.16
318.946	6920.45
319.011	6876.59
319.075	6838.78
319.14	6803.92
319.205	6768.42
319.27	6736.06
319.335	6693.55
319.399	6656.52
319.464	6634.24
319.529	6578.16
319.594	6538.34
319.658	6508.57
319.723	6473.67
319.788	6444.53
319.853	6395.18
319.917	6362.25
319.982	6312.71
320.047	6272.05
320.112	6244.17
320.176	6199.24
320.241	6170.97
320.306	6142.47
320.37	6111.61
320.435	6084.55
320.5	6060.03
320.564	6025.48
320.629	5990.03
320.694	5960.38
320.758	5920.81
320.823	5874.95
320.888	5853.8
320.952	5808.86
321.017	5771.4
321.082	5731.17
321.146	5700.52
321.211	5669.55
321.275	5637.67
321.34	5599.51
321.405	5554.07
321.469	5514.18
321.534	5475.56
321.598	5425.28
321.663	5393.3
321.727	5358.89
321.792	5308.71
321.857	5265.29
321.921	5224.61
321.986	5182.89
322.05	5130.87
322.115	5092.64
322.179	5052.98
322.244	5001.98
322.308	4968.46
322.373	4922.29
322.437	4887.34
322.502	4858.74
322.566	4812.97
322.631	4778.74
322.695	4739.82
322.76	4706.27
322.824	4673.2
322.889	4634.58
322.953	4593.91
323.018	4532.95
323.082	4472.68
323.146	4423.75
323.211	4372.67
323.275	4333.64
323.34	4293.08
323.404	4253.64
323.468	4212.46
323.533	4167.43
323.597	4125.09
323.662	4074.79
323.726	4044.39
323.79	4006.1
323.855	3944.85
323.919	3902.08
323.983	3854.86
324.048	3790.74
324.112	3938.99
324.177	3816.38
324.241	3616.65
324.305	3424.13
324.37	3236.82
324.434	3055.2
324.498	3017.4
324.562	2975.1
324.627	2918.01
324.691	2864.11
324.755	2808.94
324.82	2737.84
324.884	2670.21
324.948	2603.82
325.012	2518.84
325.077	2400.72
