Data from 20250625_urea_1M_1_MAYP1162681_22-35-05-768.txt Node
Date: Wed Jun 25 22:35:05 BST 2025
User: adleo
Spectrometer: MAYP116268
Trigger mode: 0
Integration Time (sec): 1.000000E0
Scans to average: 1
Electric dark correction enabled: true
Nonlinearity correction enabled: true
Boxcar width: 10
XAxis mode: Wavelengths
Number of Pixels in Spectrum: 2068
>>>>>Begin Spectral Data<<<<<
179.565	1166.49
179.642	1220.53
179.718	1257.36
179.795	1297.12
179.871	1327.91
179.948	1346.26
180.024	1363.67
180.101	1384.31
180.177	1395.69
180.254	1417.7
180.33	1438.61
180.407	1488.74
180.483	1583
180.56	1667.95
180.636	1750.22
180.712	1737.29
180.789	1746.18
180.865	1759.15
180.942	1766.51
181.018	1775.92
181.095	1786.67
181.171	1789.28
181.248	1790.52
181.324	1810.2
181.4	1812.67
181.477	1820.65
181.553	1832.82
181.63	1852.97
181.706	1869.23
181.782	1877.5
181.859	1877.64
181.935	1881.97
182.011	1880.16
182.088	1891.71
182.164	1910.45
182.24	1921.95
182.317	1931.32
182.393	1927.42
182.469	1940.44
182.546	1952.81
182.622	1958.51
182.698	1957.46
182.775	1969.78
182.851	1980.72
182.927	1973.11
183.003	1971.06
183.08	1968.78
183.156	1978.01
183.232	1975.34
183.308	1964.26
183.385	1971.06
183.461	1984.23
183.537	1984.37
183.613	1994.31
183.69	1986.61
183.766	1977.71
183.842	1983.99
183.918	1990.03
183.995	2000.78
184.071	2002.16
184.147	1994.98
184.223	1984.38
184.299	1994.98
184.375	1982.81
184.452	1989.61
184.528	2042.23
184.604	2054.64
184.68	2065.43
184.756	2073.61
184.832	2077.85
184.908	2083.65
184.985	2086.69
185.061	2073.47
185.137	2082.7
185.213	2073.38
185.289	2075.52
185.365	2066.29
185.441	2063.96
185.517	2076.33
185.593	2077.71
185.669	2076.29
185.745	2088.08
185.822	2102.15
185.898	2093.59
185.974	2104.1
186.05	2096.58
186.126	2055.62
186.202	2044.92
186.278	2042.83
186.354	2031.12
186.43	2036.64
186.506	2034.41
186.582	2031.79
186.658	2038.78
186.734	2021
186.81	2020.86
186.886	2024.71
186.962	2039.02
187.038	2037.26
187.114	2028.79
187.19	2031.88
187.266	2022.85
187.341	2024.23
187.417	2016.62
187.493	2015.86
187.569	2015.53
187.645	2011.2
187.721	2000.17
187.797	2009.68
187.873	2009.96
187.949	2004.68
188.025	1999.21
188.101	2002.59
188.176	2009.01
188.252	2004.35
188.328	2011.1
188.404	2009.39
188.48	2003.78
188.556	1996.02
188.632	1996.4
188.707	1995.4
188.783	1992.98
188.859	1991.55
188.935	1980.8
189.011	1989.55
189.086	1984.94
189.162	1978.38
189.238	1978.09
189.314	1975.91
189.39	1970.96
189.465	1966.68
189.541	1983.33
189.617	1971.53
189.693	1964.97
189.768	1969.78
189.844	1993.23
189.92	1985.05
189.996	1999.32
190.071	2009.64
190.147	2011.78
190.223	2021.25
190.298	2015.97
190.374	2003.65
190.45	2013.4
190.526	2020.1
190.601	2015.35
190.677	2016.01
190.753	2043.66
190.828	2046.28
190.904	2060.64
190.98	2076.43
191.055	2086.28
191.131	2077.48
191.207	2098.02
191.282	2110.91
191.358	2097.78
191.433	2088.08
191.509	2102.29
191.585	2095.87
191.66	2096.53
191.736	2103.91
191.811	2092.06
191.887	2105.95
191.963	2130.78
192.038	2135.3
192.114	2135.54
192.189	2142.86
192.265	2141.48
192.34	2120.02
192.416	2118.4
192.491	2114.22
192.567	2113.5
192.642	2114.26
192.718	2114.64
192.793	2102.23
192.869	2094
192.944	2098.38
193.02	2102.71
193.095	2106.51
193.171	2116.31
193.246	2117.93
193.322	2112.12
193.397	2112.31
193.473	2101.99
193.548	2086.57
193.624	2092.47
193.699	2091.05
193.775	2103.04
193.85	2103.85
193.925	2110.46
194.001	2109.32
194.076	2105.89
194.152	2094.9
194.227	2089.62
194.302	2080.16
194.378	2081.45
194.453	2079.83
194.529	2092.24
194.604	2077.69
194.679	2072.41
194.755	2049.16
194.83	2059.29
194.905	2059.67
194.981	2070.33
195.056	2061.96
195.131	2064.81
195.207	2062.15
195.282	2054.02
195.357	2033.18
195.433	2047.64
195.508	2036.36
195.583	2044.54
195.659	2056.2
195.734	2063.95
195.809	2065.05
195.884	2071.99
195.96	2072.85
196.035	2086.35
196.11	2080.98
196.185	2089.73
196.261	2088.21
196.336	2118.55
196.411	2105.13
196.486	2107.08
196.561	2101.47
196.637	2110.93
196.712	2127.02
196.787	2130.82
196.862	2144.33
196.937	2155.36
197.013	2162.02
197.088	2171.25
197.163	2188.96
197.238	2205.57
197.313	2206.91
197.388	2217.33
197.464	2246.02
197.539	2257.16
197.614	2251.16
197.689	2263.82
197.764	2282.96
197.839	2306.13
197.914	2302.22
197.989	2324.36
198.065	2342.16
198.14	2387.68
198.215	2410.67
198.29	2420.24
198.365	2431.62
198.44	2445.52
198.515	2474.37
198.59	2488.32
198.665	2514.51
198.74	2524.56
198.815	2521.18
198.89	2544.56
198.965	2573.9
199.04	2572.8
199.115	2589.8
199.19	2630.42
199.265	2636.09
199.34	2646.23
199.415	2680.93
199.49	2699.93
199.565	2709.45
199.64	2730.22
199.715	2729.56
199.79	2734.18
199.865	2741.56
199.94	2742.47
200.015	2772.25
200.09	2779.59
200.165	2788.12
200.24	2795.98
200.315	2835.38
200.39	2855.3
200.464	2859.35
200.539	2860.87
200.614	2877.41
200.689	2899.57
200.764	2907.49
200.839	2922.21
200.914	2925.07
200.989	2912.48
201.063	2927.06
201.138	2907.73
201.213	2906.68
201.288	2887.8
201.363	2895.05
201.438	2895.81
201.512	2909.53
201.587	2890.61
201.662	2894.9
201.737	2904.62
201.812	2914.44
201.886	2883.72
201.961	2894.4
202.036	2883.45
202.111	2879.97
202.186	2851.01
202.26	2833.61
202.335	2812.11
202.41	2807.34
202.485	2792.72
202.559	2775.42
202.634	2750.03
202.709	2761.22
202.784	2741.3
202.858	2743.21
202.933	2726.06
203.008	2719.29
203.082	2700.67
203.157	2702.86
203.232	2659.24
203.306	2637.32
203.381	2604.82
203.456	2578.24
203.53	2550.97
203.605	2533.46
203.68	2511.59
203.754	2502.93
203.829	2485.88
203.904	2469.07
203.978	2456.97
204.053	2460.31
204.127	2446.98
204.202	2443.07
204.277	2425.13
204.351	2421.51
204.426	2413.98
204.5	2407.75
204.575	2373.05
204.65	2382.01
204.724	2370.19
204.799	2379
204.873	2374.71
204.948	2372.76
205.022	2364.81
205.097	2359.33
205.171	2375.23
205.246	2383.09
205.32	2381.9
205.395	2384.66
205.469	2374.34
205.544	2380.58
205.618	2363.96
205.693	2373.34
205.767	2362.01
205.842	2382.15
205.916	2376.06
205.991	2365.73
206.065	2371.59
206.14	2389.9
206.214	2383.76
206.289	2376.99
206.363	2385.09
206.438	2389.8
206.512	2395.32
206.586	2414.03
206.661	2418.7
206.735	2392.19
206.81	2392.53
206.884	2407.66
206.958	2393.57
207.033	2409.56
207.107	2414.28
207.181	2443.71
207.256	2441.33
207.33	2462.84
207.405	2476.09
207.479	2494.47
207.553	2501.46
207.628	2483.33
207.702	2492.52
207.776	2489.04
207.851	2497.38
207.925	2517.24
207.999	2513.38
208.073	2511.81
208.148	2513.29
208.222	2504.48
208.296	2535.18
208.371	2548.52
208.445	2561.57
208.519	2592.33
208.593	2605.04
208.668	2603.9
208.742	2607
208.816	2609
208.89	2622.2
208.965	2622.91
209.039	2633.15
209.113	2652.16
209.187	2678.72
209.261	2678.53
209.336	2701.54
209.41	2721.55
209.484	2722.7
209.558	2751.34
209.632	2771.82
209.707	2789.07
209.781	2816.66
209.855	2844.74
209.929	2870.16
210.003	2885.32
210.077	2896.71
210.151	2955.11
210.226	3003.05
210.3	3044.76
210.374	3086.51
210.448	3109.93
210.522	3139.18
210.596	3170.66
210.67	3204.62
210.744	3275.35
210.818	3331.96
210.892	3379.87
210.966	3409.03
211.041	3459.19
211.115	3490.31
211.189	3550.74
211.263	3606.89
211.337	3657.26
211.411	3714.63
211.485	3760.46
211.559	3824.84
211.633	3881.28
211.707	3911.36
211.781	3978.13
211.855	4011.16
211.929	4067.5
212.003	4122.84
212.077	4207.27
212.151	4298.5
212.225	4386.96
212.299	4463.62
212.373	4545.73
212.447	4639
212.52	4761.8
212.594	4868.61
212.668	4986.21
212.742	5081.2
212.816	5189.06
212.89	5304.68
212.964	5421.81
213.038	5548.49
213.112	5692.47
213.186	5833.1
213.26	5940.98
213.333	6034.45
213.407	6181.38
213.481	6332.71
213.555	6493.7
213.629	6635.92
213.703	6774.49
213.777	6931.06
213.85	7070.03
213.924	7262.37
213.998	7421.91
214.072	7584.73
214.146	7737.93
214.219	7906.58
214.293	8075.23
214.367	8252.98
214.441	8441.92
214.515	8615.69
214.588	8776.96
214.662	8920.02
214.736	9090.7
214.81	9292.02
214.883	9489.62
214.957	9664.55
215.031	9840.5
215.105	10005.38
215.178	10179.32
215.252	10357.74
215.326	10523.18
215.4	10697.24
215.473	10839.29
215.547	11010.83
215.621	11182.1
215.694	11375.4
215.768	11543.3
215.842	11719.25
215.915	11899.71
215.989	12054.48
216.063	12223.47
216.136	12411.88
216.21	12595.04
216.284	12788.28
216.357	12973.05
216.431	13154.82
216.504	13346.1
216.578	13540.16
216.652	13723.87
216.725	13900.88
216.799	14083.48
216.873	14266.85
216.946	14453.39
217.02	14627.27
217.093	14794.63
217.167	14947.19
217.24	15101.68
217.314	15258.05
217.387	15413.46
217.461	15563.12
217.535	15736.07
217.608	15879.17
217.682	16030.13
217.755	16194.68
217.829	16326.94
217.902	16474.23
217.976	16611.2
218.049	16741.82
218.123	16870.93
218.196	17016.05
218.27	17141.21
218.343	17262.13
218.417	17397.36
218.49	17508.59
218.563	17647.29
218.637	17775.58
218.71	17924.83
218.784	18048.58
218.857	18184.58
218.931	18313.35
219.004	18431.37
219.077	18551.7
219.151	18674.54
219.224	18786
219.298	18886.33
219.371	19007.63
219.444	19095.87
219.518	19207.28
219.591	19314.36
219.665	19442.84
219.738	19539.89
219.811	19630.3
219.885	19743.5
219.958	19838.24
220.031	19940.5
220.105	20035.63
220.178	20124.45
220.251	20187.68
220.325	20283.44
220.398	20358.09
220.471	20444.93
220.544	20526.23
220.618	20587.68
220.691	20667.05
220.764	20731.97
220.838	20820.46
220.911	20876.12
220.984	20967.45
221.057	21039.5
221.131	21105.44
221.204	21137.58
221.277	21215.57
221.35	21314.57
221.424	21363.97
221.497	21422.39
221.57	21471.84
221.643	21519.6
221.716	21585.35
221.79	21643.86
221.863	21678.76
221.936	21721.32
222.009	21753.71
222.082	21807.99
222.155	21851.66
222.229	21903.81
222.302	21946.62
222.375	21965.56
222.448	22013.48
222.521	22041.39
222.594	22068.09
222.667	22084.48
222.74	22125.89
222.814	22148.59
222.887	22165.61
222.96	22199.64
223.033	22225.77
223.106	22262.41
223.179	22301.6
223.252	22305.89
223.325	22332.99
223.398	22352.56
223.471	22378.16
223.544	22400.86
223.617	22409.83
223.69	22430.17
223.763	22437.98
223.837	22453.79
223.91	22479.97
223.983	22480.12
224.056	22472.26
224.129	22492.99
224.202	22523.94
224.275	22529.77
224.348	22530.69
224.42	22519.31
224.493	22507.5
224.566	22511.45
224.639	22515.65
224.712	22511.93
224.785	22513.91
224.858	22502.63
224.931	22504.7
225.004	22496.41
225.077	22501.76
225.15	22477.03
225.223	22476.07
225.296	22497.09
225.369	22482.72
225.442	22473.95
225.514	22470.96
225.587	22486.87
225.66	22475.78
225.733	22471.78
225.806	22463.77
225.879	22456.01
225.952	22447.67
226.025	22451.39
226.097	22465.75
226.17	22458.91
226.243	22435.72
226.316	22431.19
226.389	22431.72
226.461	22433.5
226.534	22435.67
226.607	22422.7
226.68	22441.41
226.753	22425.69
226.825	22385.29
226.898	22390.45
226.971	22387.07
227.044	22394.3
227.117	22379.65
227.189	22379.02
227.262	22374.2
227.335	22360.41
227.407	22337.56
227.48	22326.91
227.553	22316.64
227.626	22281.21
227.698	22266.99
227.771	22250.64
227.844	22238.69
227.916	22224.9
227.989	22197.81
228.062	22175.01
228.134	22186.77
228.207	22159.92
228.28	22140.16
228.352	22121.12
228.425	22112.2
228.498	22102.61
228.57	22064.86
228.643	22055.85
228.716	22022.68
228.788	21995.49
228.861	21986.38
228.934	21993.85
229.006	21971.68
229.079	21950.23
229.151	21930.8
229.224	21894.31
229.296	21877.2
229.369	21911
229.442	21901.45
229.514	21867.23
229.587	21861.16
229.659	21811.99
229.732	21805.92
229.804	21800.85
229.877	21820.43
229.949	21810.01
230.022	21810.21
230.094	21794.35
230.167	21776.61
230.239	21752.17
230.312	21729.42
230.384	21729.52
230.457	21705.13
230.529	21692.21
230.602	21685.7
230.674	21661.31
230.747	21653.7
230.819	21642.08
230.892	21562.93
230.964	21535.51
231.037	21530.01
231.109	21506.06
231.181	21500.99
231.254	21458.39
231.326	21432.31
231.399	21394.42
231.471	21360.35
231.544	21313.4
231.616	21302.84
231.688	21286.94
231.761	21266.6
231.833	21239.61
231.905	21189.48
231.978	21163.99
232.05	21140.61
232.122	21114.34
232.195	21090.44
232.267	21083.4
232.339	21066.82
232.412	21055.16
232.484	21033.13
232.556	21011.15
232.629	21010.58
232.701	20986.48
232.773	20979.01
232.846	20951.44
232.918	20929.13
232.99	20916.02
233.062	20902.86
233.135	20888.98
233.207	20842.23
233.279	20826.9
233.351	20808.06
233.424	20784.59
233.496	20743.48
233.568	20737.46
233.64	20697.02
233.713	20667.58
233.785	20630.51
233.857	20599.53
233.929	20556.39
234.001	20543.19
234.074	20525.02
234.146	20463.86
234.218	20435.19
234.29	20401.55
234.362	20374.37
234.434	20321.5
234.507	20267.52
234.579	20208.2
234.651	20161.21
234.723	20144.54
234.795	20116.1
234.867	20081.41
234.939	20065.55
235.012	20045.07
235.084	20013.5
235.156	19991.1
235.228	19958.66
235.3	19920.88
235.372	19886.33
235.444	19868.93
235.516	19810.81
235.588	19769.22
235.66	19748.6
235.732	19709.32
235.804	19728.6
235.876	19703.16
235.948	19692.99
236.02	19665.9
236.092	19644.36
236.164	19613.38
236.236	19573.77
236.308	19538.1
236.38	19519.99
236.452	19480.23
236.524	19460.81
236.596	19444.28
236.668	19410.55
236.74	19387.13
236.812	19362.64
236.884	19346.21
236.956	19318.31
237.028	19283.23
237.1	19253.54
237.172	19246.12
237.244	19235.66
237.316	19165.6
237.388	19118.13
237.46	19079.63
237.532	19059.29
237.604	19010.38
237.675	18993.65
237.747	18965.27
237.819	18923.63
237.891	18886.09
237.963	18842.63
238.035	18798.44
238.107	18728.8
238.178	18715.74
238.25	18672.52
238.322	18662.98
238.394	18610.11
238.466	18571.03
238.538	18550.26
238.609	18523.56
238.681	18465.83
238.753	18414.89
238.825	18383.81
238.897	18360.39
238.968	18342.9
239.04	18297.94
239.112	18304.25
239.184	18266.47
239.255	18242.47
239.327	18217.07
239.399	18182.86
239.471	18168.06
239.542	18139.05
239.614	18132.59
239.686	18071.68
239.758	18054.62
239.829	18015.06
239.901	17999.2
239.973	17966.19
240.044	17934.63
240.116	17894.1
240.188	17860.22
240.259	17831.45
240.331	17797.23
240.403	17774.63
240.474	17724.08
240.546	17696.46
240.618	17638.63
240.689	17593.96
240.761	17567.84
240.833	17554.15
240.904	17524.46
240.976	17487.02
241.048	17468.85
241.119	17437.72
241.191	17417.67
241.262	17398.63
241.334	17363.36
241.405	17326.35
241.477	17299.98
241.549	17264.13
241.62	17244.99
241.692	17215.89
241.763	17198.68
241.835	17162.68
241.906	17131.16
241.978	17088.94
242.049	17067.54
242.121	17048.51
242.192	17038.15
242.264	16975.83
242.335	16922.77
242.407	16898.67
242.478	16863.54
242.55	16826.04
242.621	16782.57
242.693	16748.49
242.764	16711.53
242.836	16671.24
242.907	16645.26
242.979	16616.54
243.05	16596.82
243.122	16572.82
243.193	16543.9
243.264	16492.48
243.336	16464.14
243.407	16444.38
243.479	16435.85
243.55	16407.12
243.622	16380.61
243.693	16343.84
243.764	16343.07
243.836	16309.23
243.907	16276.51
243.978	16249.23
244.05	16231.68
244.121	16191.34
244.192	16175.48
244.264	16138.85
244.335	16108.34
244.407	16069.69
244.478	16042.12
244.549	16011.13
244.62	15963.22
244.692	15932.8
244.763	15919.11
244.834	15875.49
244.906	15831.44
244.977	15804.59
245.048	15792.54
245.119	15764.39
245.191	15733.59
245.262	15679.22
245.333	15663.66
245.405	15640.42
245.476	15610.63
245.547	15587.21
245.618	15564.41
245.689	15534.62
245.761	15507.82
245.832	15484.4
245.903	15462.47
245.974	15436.15
246.045	15405.11
246.117	15390.93
246.188	15360.09
246.259	15320.27
246.33	15303.88
246.401	15276.74
246.473	15239.19
246.544	15197.07
246.615	15173.4
246.686	15131.56
246.757	15128.81
246.828	15091.41
246.899	15077.28
246.97	15041.23
247.042	14995.72
247.113	14989.46
247.184	14989.55
247.255	14958.85
247.326	14928.29
247.397	14899.7
247.468	14870.68
247.539	14845.81
247.61	14807.34
247.681	14786.9
247.752	14773.07
247.823	14733.49
247.894	14710.6
247.965	14667.69
248.037	14642.24
248.108	14601.99
248.179	14584.93
248.25	14550.22
248.321	14534.12
248.392	14493.43
248.463	14490.3
248.534	14468.22
248.605	14447.4
248.675	14407.53
248.746	14389.22
248.817	14369.6
248.888	14347.52
248.959	14311.12
249.03	14292.66
249.101	14277.28
249.172	14253.32
249.243	14204.06
249.314	14199.62
249.385	14180
249.456	14165.69
249.527	14142.31
249.598	14122.06
249.669	14098.29
249.739	14087.16
249.81	14071.73
249.881	14035.34
249.952	14008.58
250.023	13979.32
250.094	13935.02
250.165	13895.54
250.235	13867.97
250.306	13844.25
250.377	13817.35
250.448	13806.16
250.519	13764.47
250.59	13759.65
250.66	13734.96
250.731	13733.32
250.802	13709.85
250.873	13686.71
250.944	13670.46
251.014	13637.59
251.085	13640.19
251.156	13625
251.227	13603.89
251.297	13593.53
251.368	13580.94
251.439	13572.31
251.51	13565.52
251.58	13536.74
251.651	13515.48
251.722	13502.46
251.792	13462.74
251.863	13436.71
251.934	13419.93
252.005	13423.21
252.075	13392.12
252.146	13376.55
252.217	13362.81
252.287	13353.94
252.358	13329.45
252.429	13329.74
252.499	13301.83
252.57	13287.9
252.641	13271.7
252.711	13254.2
252.782	13224.79
252.852	13222.87
252.923	13203.24
252.994	13181.84
253.064	13175.09
253.135	13147.66
253.205	13124.04
253.276	13130.36
253.347	13130.07
253.417	13101.77
253.488	13081.62
253.558	13056.6
253.629	13036.36
253.699	13018.23
253.77	13009.07
253.841	12991.28
253.911	12973.78
253.982	12963.9
254.052	12945.53
254.123	12932.04
254.193	12912.85
254.264	12920.71
254.334	12890.77
254.405	12849.03
254.475	12820.3
254.546	12798.7
254.616	12797.35
254.687	12780.77
254.757	12762.64
254.827	12737.24
254.898	12726.73
254.968	12702.53
255.039	12676.84
255.109	12669.46
255.18	12646.71
255.25	12594.89
255.321	12582.16
255.391	12543.36
255.461	12542.1
255.532	12500.07
255.602	12480.74
255.673	12447.29
255.743	12419.95
255.813	12379.22
255.884	12369.39
255.954	12361.53
256.024	12364.42
256.095	12340.71
256.165	12308.17
256.235	12294.38
256.306	12265.8
256.376	12254.66
256.446	12247.87
256.517	12234.08
256.587	12225.74
256.657	12204.2
256.728	12192.44
256.798	12170.99
256.868	12152.62
256.938	12119.55
257.009	12109.09
257.079	12095.31
257.149	12098.78
257.219	12061.13
257.29	12050.58
257.36	12014.23
257.43	12006.67
257.5	11961.21
257.571	11942.46
257.641	11933.4
257.711	11906.79
257.781	11900.38
257.852	11893.3
257.922	11855.8
257.992	11840.42
258.062	11811.02
258.132	11807.93
258.202	11789.81
258.273	11781.04
258.343	11783.01
258.413	11764.84
258.483	11744.36
258.553	11714.81
258.623	11686.81
258.693	11670.37
258.764	11669.89
258.834	11672.16
258.904	11644.25
258.974	11621.31
259.044	11598.22
259.114	11585.11
259.184	11569.59
259.254	11550.55
259.324	11502.65
259.394	11493.3
259.464	11487.17
259.535	11470.21
259.605	11444.28
259.675	11415.03
259.745	11397.82
259.815	11367.94
259.885	11346.88
259.955	11356.47
260.025	11334.78
260.095	11313.14
260.165	11301.96
260.235	11297.19
260.305	11281.09
260.375	11266.92
260.445	11277.09
260.515	11281
260.585	11278.68
260.655	11263.36
260.725	11258.97
260.795	11259.55
260.865	11259.93
260.934	11240.9
261.004	11233.67
261.074	11225.67
261.144	11228.8
261.214	11227.16
261.284	11208.46
261.354	11205.28
261.424	11179.84
261.494	11181.28
261.564	11168.65
261.634	11159.26
261.703	11120.95
261.773	11105.77
261.843	11090.34
261.913	11070.3
261.983	11037.33
262.053	11028.71
262.123	11003.55
262.192	10968.28
262.262	10959.75
262.332	10931.17
262.402	10918.07
262.472	10904.04
262.541	10868.67
262.611	10865.4
262.681	10837.3
262.751	10832.77
262.821	10811.81
262.89	10778.85
262.96	10767.43
263.03	10773.65
263.1	10767.38
263.169	10758.56
263.239	10751.72
263.309	10756.01
263.379	10744.54
263.448	10731.34
263.518	10717.8
263.588	10714.62
263.657	10718.71
263.727	10713.65
263.797	10695.06
263.867	10683.2
263.936	10654.73
264.006	10648.75
264.076	10627.55
264.145	10605.15
264.215	10586.45
264.285	10583.42
264.354	10559.47
264.424	10540.1
264.494	10509.5
264.563	10481.51
264.633	10488.21
264.702	10474.14
264.772	10439.25
264.842	10423.45
264.911	10416.41
264.981	10386.06
265.05	10364.24
265.12	10353.39
265.19	10340.53
265.259	10338.65
265.329	10329.93
265.398	10322.66
265.468	10335.62
265.537	10325.21
265.607	10317.74
265.676	10316.92
265.746	10307.62
265.815	10304.98
265.885	10285.75
265.955	10264.03
266.024	10251.94
266.094	10213.64
266.163	10214.7
266.232	10217.63
266.302	10201.45
266.371	10189.89
266.441	10176.78
266.51	10173.89
266.58	10152.41
266.649	10129.96
266.719	10126.01
266.788	10118.68
266.858	10114.97
266.927	10079.23
266.996	10063.77
267.066	10059.96
267.135	10024.8
267.205	10013.52
267.274	10000.28
267.343	9997.87
267.413	9995.17
267.482	9995.8
267.552	10005.14
267.621	9975.23
267.69	9943.92
267.76	9937.65
267.829	9928.31
267.898	9916.46
267.968	9900.08
268.037	9890.98
268.106	9887.46
268.176	9865.55
268.245	9846.23
268.314	9832.16
268.384	9827.49
268.453	9818.05
268.522	9803.99
268.592	9802.64
268.661	9782.46
268.73	9782.65
268.799	9765.22
268.869	9759.68
268.938	9733.71
269.007	9713.63
269.076	9704.33
269.146	9705.06
269.215	9695.81
269.284	9702.17
269.353	9686.32
269.422	9676.11
269.492	9659.79
269.561	9621.74
269.63	9613.12
269.699	9603.1
269.768	9586.73
269.838	9579.7
269.907	9576.47
269.976	9556.87
270.045	9530.87
270.114	9525.67
270.183	9508.14
270.253	9502.21
270.322	9472.69
270.391	9461.81
270.46	9462.53
270.529	9455.36
270.598	9451.51
270.667	9432.92
270.736	9406.19
270.806	9393.67
270.875	9386.16
270.944	9382.55
271.013	9403.4
271.082	9394.53
271.151	9384.47
271.22	9366.8
271.289	9351.34
271.358	9335.93
271.427	9328.47
271.496	9325.1
271.565	9309.74
271.634	9300.78
271.703	9323.27
271.772	9328.62
271.841	9315.33
271.91	9287.55
271.979	9282.15
272.048	9261.49
272.117	9266.07
272.186	9251.77
272.255	9264.62
272.324	9261.69
272.393	9250.23
272.462	9237.37
272.531	9229.47
272.6	9217.34
272.669	9219.51
272.738	9212.04
272.807	9214.98
272.876	9196.16
272.945	9221.05
273.013	9225.67
273.082	9227.55
273.151	9181.71
273.22	9177.23
273.289	9167.07
273.358	9176.7
273.427	9168.47
273.496	9166.74
273.564	9159.27
273.633	9164.18
273.702	9138.57
273.771	9130.29
273.84	9122.39
273.909	9112.19
273.977	9110.21
274.046	9098.56
274.115	9105.98
274.184	9090.19
274.253	9078.63
274.322	9088.12
274.39	9056.48
274.459	9039.1
274.528	9009.07
274.597	9001.75
274.665	8997.08
274.734	9005.74
274.803	8995.2
274.872	8983.69
274.94	8969.16
275.009	9018.43
275.078	9001.86
275.147	9004.8
275.215	9001.62
275.284	9009.33
275.353	9004.46
275.421	8985.06
275.49	8999.6
275.559	8980.87
275.627	8974.23
275.696	8967.88
275.765	8959.21
275.833	8948.05
275.902	8951.22
275.971	8968.55
276.039	8981.94
276.108	8978.76
276.177	8972.4
276.245	8965.95
276.314	8961.43
276.383	8966.67
276.451	8914.56
276.52	8923.76
276.588	8930.69
276.657	8930.59
276.725	8913.79
276.794	8913.46
276.863	8920.15
276.931	8898.39
277	8906.57
277.068	8916.1
277.137	8929.05
277.205	8934.35
277.274	8955.14
277.342	8958.99
277.411	8935.55
277.48	8923.18
277.548	8918.95
277.617	8920.87
277.685	8912.74
277.754	8912.79
277.822	8904.07
277.89	8912.4
277.959	8899.93
278.027	8886.5
278.096	8880.34
278.164	8908.89
278.233	8895.03
278.301	8881.21
278.37	8882.66
278.438	8870.24
278.507	8865.86
278.575	8841.02
278.643	8833.36
278.712	8808.53
278.78	8800.34
278.849	8812.91
278.917	8829.13
278.985	8820.32
279.054	8820.46
279.122	8826.96
279.191	8823.83
279.259	8818.68
279.327	8794.66
279.396	8804.72
279.464	8797.84
279.532	8802.7
279.601	8793.89
279.669	8790.52
279.737	8808.81
279.806	8816.08
279.874	8824.36
279.942	8826.77
280.011	8818.06
280.079	8824.55
280.147	8841.78
280.215	8842.84
280.284	8838.08
280.352	8815.07
280.42	8820.8
280.488	8811.36
280.557	8805.25
280.625	8809.48
280.693	8814.1
280.761	8812.23
280.83	8792.2
280.898	8801.54
280.966	8777.52
281.034	8750.42
281.102	8741.18
281.171	8731.75
281.239	8739.55
281.307	8729.92
281.375	8720.73
281.443	8742.92
281.512	8738.97
281.58	8741.47
281.648	8723.18
281.716	8716.78
281.784	8716.93
281.852	8710.62
281.92	8710.19
281.989	8723.19
282.057	8711.68
282.125	8738.83
282.193	8736.57
282.261	8737.39
282.329	8730.7
282.397	8736.47
282.465	8732.72
282.533	8741.72
282.601	8722.18
282.67	8694.22
282.738	8683.19
282.806	8692.87
282.874	8685.55
282.942	8689.02
283.01	8683.48
283.078	8692.05
283.146	8695.61
283.214	8703.45
283.282	8706.2
283.35	8718.23
283.418	8707.55
283.486	8710.67
283.554	8681.45
283.622	8680.97
283.69	8683.71
283.758	8682.13
283.826	8684.63
283.894	8698.15
283.962	8720.54
284.03	8739.11
284.098	8743.49
284.165	8742.72
284.233	8738.53
284.301	8725.54
284.369	8713.6
284.437	8704.46
284.505	8700.27
284.573	8707.97
284.641	8696.76
284.709	8701.76
284.777	8681.26
284.845	8688.29
284.912	8691.94
284.98	8690.21
285.048	8682.22
285.116	8685.06
285.184	8694.69
285.252	8697
285.319	8685.54
285.387	8671.73
285.455	8659.74
285.523	8668.65
285.591	8663.5
285.659	8665.57
285.726	8678.71
285.794	8667.26
285.862	8666.92
285.93	8659.17
285.997	8657.92
286.065	8654.89
286.133	8642.18
286.201	8639.39
286.269	8622.78
286.336	8612.34
286.404	8606.13
286.472	8617.88
286.539	8595.64
286.607	8578.89
286.675	8578.7
286.743	8587.51
286.81	8582.7
286.878	8589.53
286.946	8572.16
287.013	8570.52
287.081	8565.61
287.149	8550.74
287.216	8572.3
287.284	8565.13
287.352	8570.76
287.419	8560.27
287.487	8572.25
287.555	8575.24
287.622	8573.22
287.69	8581.16
287.758	8589.63
287.825	8583.71
287.893	8577.55
287.96	8582.55
288.028	8590.92
288.096	8587.84
288.163	8582.55
288.231	8569.46
288.298	8568.02
288.366	8579.28
288.433	8579.71
288.501	8568.5
288.569	8572.83
288.636	8562.77
288.704	8576.73
288.771	8577.5
288.839	8572.64
288.906	8566.33
288.974	8577.16
289.041	8576.73
289.109	8562.43
289.176	8567.73
289.244	8577.69
289.311	8583.27
289.379	8598.87
289.446	8599.3
289.514	8606.95
289.581	8610.51
289.649	8611.91
289.716	8617.39
289.783	8612.15
289.851	8628.99
289.918	8635.1
289.986	8637.94
290.053	8638.04
290.121	8637.17
290.188	8644.34
290.255	8670
290.323	8660.13
290.39	8658.69
290.458	8662.01
290.525	8678.76
290.592	8669.42
290.66	8664.75
290.727	8659.36
290.794	8663.11
290.862	8660.08
290.929	8654.79
290.996	8655.03
291.064	8669.23
291.131	8677.17
291.198	8688.33
291.266	8685.45
291.333	8687.85
291.4	8693.96
291.468	8714.66
291.535	8706.63
291.602	8709.9
291.669	8699.89
291.737	8708.45
291.804	8701.62
291.871	8719.57
291.938	8723.57
292.006	8755.1
292.073	8766.36
292.14	8775.21
292.207	8770.64
292.275	8777.62
292.342	8787.92
292.409	8811.89
292.476	8831.58
292.543	8823.59
292.611	8827.25
292.678	8841.59
292.745	8865.66
292.812	8884.05
292.879	8876.4
292.946	8882.94
293.014	8887.61
293.081	8898.06
293.148	8913.22
293.215	8929.39
293.282	8930.11
293.349	8941.04
293.416	8921.06
293.484	8934.4
293.551	8948.69
293.618	8964.19
293.685	8983.88
293.752	8975.99
293.819	8971.37
293.886	8960.29
293.953	8965.2
294.02	8977.48
294.087	8981.86
294.154	8967.18
294.221	8968.62
294.288	8966.26
294.356	8982.68
294.423	8996.93
294.49	8994.86
294.557	9000.35
294.624	8992.55
294.691	9007.43
294.758	9006.03
294.825	9013.01
294.892	9005.84
294.959	8997.17
295.026	9005.84
295.093	8996.02
295.16	8995.05
295.226	8993.75
295.293	9013.78
295.36	9015.85
295.427	9023.12
295.494	9035.21
295.561	9049.12
295.628	9076.81
295.695	9094.43
295.762	9094.86
295.829	9092.31
295.896	9107.28
295.963	9122.11
296.03	9130.58
296.096	9126.35
296.163	9133.23
296.23	9146.62
296.297	9159.66
296.364	9164.86
296.431	9167.85
296.498	9166.12
296.564	9189.7
296.631	9190.14
296.698	9178.97
296.765	9202.7
296.832	9185.61
296.899	9169.92
296.965	9182.63
297.032	9157.05
297.099	9167.74
297.166	9173.95
297.233	9174.48
297.299	9159.9
297.366	9151.95
297.433	9154.21
297.5	9164.42
297.566	9166.2
297.633	9164.9
297.7	9163.56
297.767	9158.74
297.833	9159.03
297.9	9163.8
297.967	9147
298.033	9153.21
298.1	9171.84
298.167	9157.35
298.234	9161.39
298.3	9171.98
298.367	9166.59
298.434	9176.03
298.5	9169.38
298.567	9159.47
298.634	9153.4
298.7	9167.51
298.767	9171.98
298.834	9185.42
298.9	9174.78
298.967	9160.43
299.033	9166.64
299.1	9183.69
299.167	9195.29
299.233	9190.04
299.3	9198.75
299.366	9216.71
299.433	9237.32
299.5	9215.17
299.566	9223.36
299.633	9249.89
299.699	9255.86
299.766	9255.43
299.832	9256.15
299.899	9263.47
299.965	9274.44
300.032	9275.41
300.099	9286.1
300.165	9286.43
300.232	9285.52
300.298	9289.03
300.365	9307.81
300.431	9311.23
300.498	9297.07
300.564	9305.4
300.631	9319.9
300.697	9329.86
300.763	9325.24
300.83	9326.25
300.896	9339.16
300.963	9342.14
301.029	9335.02
301.096	9335.21
301.162	9345.42
301.229	9335.11
301.295	9318.31
301.361	9321.73
301.428	9322.54
301.494	9304.63
301.561	9309.83
301.627	9306.12
301.693	9308.44
301.76	9311.66
301.826	9303.38
301.892	9313.97
301.959	9312.58
302.025	9309.16
302.092	9304.87
302.158	9310.26
302.224	9303.47
302.291	9292.26
302.357	9286.24
302.423	9277.47
302.49	9278.63
302.556	9284.26
302.622	9287.54
302.688	9296.64
302.755	9310.12
302.821	9320.76
302.887	9328.51
302.954	9329.04
303.02	9335.16
303.086	9340.02
303.152	9333.71
303.219	9330.97
303.285	9337.08
303.351	9349.7
303.417	9343.63
303.483	9335.69
303.55	9328.42
303.616	9326.3
303.682	9327.31
303.748	9322.5
303.815	9343.16
303.881	9345.56
303.947	9331.45
304.013	9332.51
304.079	9326.93
304.145	9307.47
304.212	9298.57
304.278	9289.37
304.344	9280.94
304.41	9268.71
304.476	9258.12
304.542	9251.28
304.608	9252.2
304.674	9226.63
304.741	9208.24
304.807	9211.46
304.873	9218.73
304.939	9225.96
305.005	9205.54
305.071	9197.74
305.137	9198.46
305.203	9167.69
305.269	9157.53
305.335	9165.14
305.401	9156.19
305.467	9150.07
305.533	9159.08
305.599	9169.72
305.666	9177.81
305.732	9173.71
305.798	9180.65
305.864	9200.15
305.93	9206.12
305.996	9203.28
306.062	9212.09
306.128	9211.22
306.194	9197.6
306.259	9189.12
306.325	9190.04
306.391	9198.85
306.457	9205.3
306.523	9200.53
306.589	9224.08
306.655	9217.34
306.721	9197.74
306.787	9184.65
306.853	9199.28
306.919	9173.77
306.985	9159.66
307.051	9151.57
307.117	9143.58
307.183	9135.59
307.248	9105.25
307.314	9104
307.38	9102.27
307.446	9103.91
307.512	9095.48
307.578	9099.57
307.644	9087.25
307.709	9075.6
307.775	9066.79
307.841	9066.4
307.907	9067.56
307.973	9045.55
308.039	9045.79
308.104	9046.71
308.17	9046.85
308.236	9026.15
308.302	9028.27
308.368	9019.51
308.433	9020.18
308.499	9012.28
308.565	8997.55
308.631	8999.43
308.696	8978.49
308.762	8963.57
308.828	8959.28
308.894	8938.34
308.959	8917.69
309.025	8916.2
309.091	8916.92
309.156	8911.39
309.222	8909.99
309.288	8896.56
309.354	8876.01
309.419	8870.57
309.485	8858.15
309.551	8864.4
309.616	8859.69
309.682	8856.75
309.748	8848.23
309.813	8837.69
309.879	8833.41
309.945	8823.3
310.01	8819.11
310.076	8816.7
310.141	8817.62
310.207	8796.73
310.273	8799.28
310.338	8804.19
310.404	8783.06
310.469	8767.61
310.535	8751
310.601	8726.02
310.666	8734.35
310.732	8740.51
310.797	8728.57
310.863	8717.12
310.928	8706.67
310.994	8704.99
311.059	8703.06
311.125	8703.98
311.191	8708.6
311.256	8694.11
311.322	8696.32
311.387	8674.76
311.453	9035.86
311.518	9001.84
311.584	9008.39
311.649	9010.17
311.715	9000.73
311.78	9005.98
311.846	8996.35
311.911	9004.68
311.976	9003.14
312.042	8977.15
312.107	8960.35
312.173	8952.17
312.238	8951.4
312.304	8942.55
312.369	8923.15
312.434	8907.99
312.5	8892.59
312.565	8861.84
312.631	8866.75
312.696	8857.46
312.761	8862.8
312.827	8486.69
312.892	8525.86
312.958	8514.94
313.023	8510.89
313.088	8501.7
313.154	8487.32
313.219	8480.2
313.284	8466.48
313.35	8462.24
313.415	8459.45
313.48	8460.71
313.546	8461.91
313.611	8469.66
313.676	8459.6
313.741	8459.12
313.807	8466.1
313.872	8472.93
313.937	8472.64
314.003	8479.33
314.068	8474.42
314.133	8472.64
314.198	8468.74
314.264	8441.89
314.329	8434.81
314.394	8425.33
314.459	8420.23
314.525	8436.11
314.59	8426.35
314.655	8416.14
314.72	8422.26
314.785	8422.35
314.851	8409.22
314.916	8386.65
314.981	8363.99
315.046	8352.44
315.111	8338.11
315.176	8320.78
315.242	8317.99
315.307	8322.27
315.372	8300.33
315.437	8300.04
315.502	8292.3
315.567	8293.93
315.632	8284.45
315.698	8282.29
315.763	8280.75
315.828	8267.62
315.893	8255.39
315.958	8255.39
316.023	8246.06
316.088	8222.77
316.153	8202.71
316.218	8191.51
316.283	8183.19
316.348	8169.04
316.413	8169
316.479	8157.02
316.544	8133.31
316.609	8098.87
316.674	8060.34
316.739	8032.59
316.804	8001.56
316.869	7964
316.934	7934.42
316.999	7904.22
317.064	7854.15
317.129	7812.55
317.194	7786.73
317.259	7745.41
317.324	7695.03
317.389	7656.51
317.454	7622.85
317.518	7588.09
317.583	7570.69
317.648	7542.18
317.713	7508.72
317.778	7450.26
317.843	7427.04
317.908	7384.69
317.973	7357.2
318.038	7336.05
318.103	7299.57
318.168	7268.43
318.233	7245.93
318.297	7198.98
318.362	7164.95
318.427	7129.59
318.492	7112.1
318.557	7070.06
318.622	7042.86
318.687	7025.18
318.751	6983.97
318.816	6953.84
318.881	6925.6
318.946	6872.37
319.011	6831.49
319.075	6794.98
319.14	6768.43
319.205	6721.83
319.27	6694.66
319.335	6650.62
319.399	6611.62
319.464	6582
319.529	6526.45
319.594	6486.07
319.658	6458.89
319.723	6420.77
319.788	6391.69
319.853	6335.22
319.917	6304.31
319.982	6256.02
320.047	6221.13
320.112	6202.51
320.176	6157.01
320.241	6123.84
320.306	6098.99
320.37	6061.32
320.435	6030.66
320.5	6002.79
320.564	5968.34
320.629	5929.68
320.694	5900.32
320.758	5856.87
320.823	5820.56
320.888	5798.79
320.952	5753.67
321.017	5715.78
321.082	5676.65
321.146	5648.84
321.211	5616.05
321.275	5578.51
321.34	5537.72
321.405	5492.14
321.469	5441.33
321.534	5399.83
321.598	5351.52
321.663	5324.24
321.727	5296.3
321.792	5252.74
321.857	5209.85
321.921	5172.63
321.986	5134.31
322.05	5079.23
322.115	5048.58
322.179	5004.71
322.244	4953.67
322.308	4925.37
322.373	4877.2
322.437	4840.67
322.502	4810.35
322.566	4767.5
322.631	4736.09
322.695	4701.64
322.76	4659.05
322.824	4632.3
322.889	4595.94
322.953	4552.12
323.018	4483.11
323.082	4418.87
323.146	4367.8
323.211	4318.92
323.275	4276.82
323.34	4236.37
323.404	4205.3
323.468	4162.35
323.533	4122.63
323.597	4078.95
323.662	4027.66
323.726	3996.64
323.79	3954.67
323.855	3894.72
323.919	3849.81
323.983	3801.97
324.048	3737.37
324.112	3881.2
324.177	3758.41
324.241	3562.07
324.305	3373.57
324.37	3189.22
324.434	3011.8
324.498	2973.63
324.562	2927.95
324.627	2870.89
324.691	2816.04
324.755	2755.64
324.82	2683.58
324.884	2610.11
324.948	2547.24
325.012	2461.03
325.077	2344.74
