Data from 20250625_urea_1M_1_MAYP1162681_08-35-05-902.txt Node
Date: Thu Jun 26 08:35:05 BST 2025
User: adleo
Spectrometer: MAYP116268
Trigger mode: 0
Integration Time (sec): 1.000000E0
Scans to average: 1
Electric dark correction enabled: true
Nonlinearity correction enabled: true
Boxcar width: 10
XAxis mode: Wavelengths
Number of Pixels in Spectrum: 2068
>>>>>Begin Spectral Data<<<<<
179.565	1123.52
179.642	1174.47
179.718	1211.91
179.795	1251.19
179.871	1282.71
179.948	1299.76
180.024	1318.37
180.101	1339.47
180.177	1351.04
180.254	1372.09
180.33	1389.98
180.407	1440.64
180.483	1530.47
180.56	1615.04
180.636	1692.37
180.712	1678.12
180.789	1685.67
180.865	1698.5
180.942	1705.81
181.018	1717.22
181.095	1729.15
181.171	1733.04
181.248	1734.66
181.324	1751.86
181.4	1756.19
181.477	1761.99
181.553	1776.53
181.63	1798.48
181.706	1813.08
181.782	1824
181.859	1824.38
181.935	1834.08
182.011	1828.76
182.088	1843.54
182.164	1859.95
182.24	1872.82
182.317	1883.71
182.393	1881.47
182.469	1891.93
182.546	1905.86
182.622	1907.85
182.698	1906.71
182.775	1920.83
182.851	1934.48
182.927	1925.58
183.003	1921.07
183.08	1919.26
183.156	1926.06
183.232	1920.78
183.308	1909.95
183.385	1916.46
183.461	1932.19
183.537	1931.43
183.613	1944.18
183.69	1935.76
183.766	1927.63
183.842	1936.47
183.918	1943.56
183.995	1955.49
184.071	1960.96
184.147	1956.11
184.223	1946.75
184.299	1954.5
184.375	1942.09
184.452	1946.37
184.528	2002.16
184.604	2012.29
184.68	2027.41
184.756	2031.97
184.832	2037.49
184.908	2043.29
184.985	2044.53
185.061	2030.93
185.137	2038.73
185.213	2026.41
185.289	2027.79
185.365	2020.94
185.441	2017.71
185.517	2028.98
185.593	2026.08
185.669	2019.66
185.745	2027.84
185.822	2044
185.898	2037.06
185.974	2046.81
186.05	2039.2
186.126	2002.04
186.202	1995.96
186.278	1987.59
186.354	1982.17
186.43	1986.12
186.506	1982.74
186.582	1981.74
186.658	1987.64
186.734	1971.14
186.81	1973.23
186.886	1975.51
186.962	1986.45
187.038	1982.93
187.114	1975.75
187.19	1982.4
187.266	1976.99
187.341	1977.22
187.417	1968.09
187.493	1971.71
187.569	1972.8
187.645	1966.1
187.721	1952.12
187.797	1960.48
187.873	1966
187.949	1958.63
188.025	1954.16
188.101	1957.77
188.176	1961.86
188.252	1956.68
188.328	1961.29
188.404	1961.15
188.48	1956.25
188.556	1949.74
188.632	1949.55
188.707	1950.26
188.783	1947.07
188.859	1943.56
188.935	1932.05
189.011	1940.61
189.086	1932.71
189.162	1927.67
189.238	1929.24
189.314	1927.53
189.39	1921.02
189.465	1913.31
189.541	1926.29
189.617	1910.37
189.693	1907.33
189.768	1909.75
189.844	1933.77
189.92	1925.88
189.996	1933.11
190.071	1944.19
190.147	1944.19
190.223	1956.27
190.298	1949.94
190.374	1939.86
190.45	1950.27
190.526	1961.59
190.601	1954.65
190.677	1954.7
190.753	1981.53
190.828	1981.1
190.904	1994.18
190.98	2009.54
191.055	2019.29
191.131	2013.87
191.207	2034.6
191.282	2043.73
191.358	2034.36
191.433	2021.13
191.509	2035.25
191.585	2032.59
191.66	2035.11
191.736	2043.1
191.811	2032.25
191.887	2045.38
191.963	2067.16
192.038	2072.06
192.114	2068.5
192.189	2073.25
192.265	2069.64
192.34	2046.32
192.416	2048.27
192.491	2045.32
192.567	2045.89
192.642	2047.37
192.718	2047.32
192.793	2037.47
192.869	2031.63
192.944	2034.57
193.02	2039.66
193.095	2044.7
193.171	2053.69
193.246	2052.69
193.322	2047.89
193.397	2047.46
193.473	2034.14
193.548	2017.83
193.624	2022.78
193.699	2024.3
193.775	2042.33
193.85	2046.08
193.925	2054.93
194.001	2053.17
194.076	2045.99
194.152	2038.28
194.227	2031.1
194.302	2020.83
194.378	2023.5
194.453	2021.07
194.529	2031.72
194.604	2019.79
194.679	2012.18
194.755	1992.02
194.83	2003.01
194.905	2003.87
194.981	2012.57
195.056	2007.01
195.131	2010.38
195.207	2009.05
195.282	2000.73
195.357	1981.23
195.433	1996.92
195.508	1984.51
195.583	1994.11
195.659	2007.1
195.734	2016.18
195.809	2018.28
195.884	2030.68
195.96	2029.54
196.035	2045.81
196.11	2042.05
196.185	2052.89
196.261	2056.12
196.336	2084.8
196.411	2070.39
196.486	2073.1
196.561	2066.63
196.637	2075.52
196.712	2092.98
196.787	2096.03
196.862	2110.82
196.937	2120.04
197.013	2124.94
197.088	2137.36
197.163	2156.49
197.238	2173
197.313	2169.58
197.388	2181.14
197.464	2206.74
197.539	2220.82
197.614	2212.55
197.689	2223.82
197.764	2238.53
197.839	2256.99
197.914	2253.66
197.989	2274.41
198.065	2287.25
198.14	2336.35
198.215	2359.43
198.29	2368.76
198.365	2380.75
198.44	2390.03
198.515	2417.6
198.59	2433.55
198.665	2454.78
198.74	2461.64
198.815	2459.64
198.89	2481.11
198.965	2510.16
199.04	2505.44
199.115	2515.58
199.19	2556.58
199.265	2560.86
199.34	2572.72
199.415	2604.64
199.49	2625.16
199.565	2633.78
199.64	2659.6
199.715	2654.93
199.79	2662.36
199.865	2670.6
199.94	2669.74
200.015	2701.38
200.09	2704.67
200.165	2706.43
200.24	2714.29
200.315	2751.43
200.39	2768.82
200.464	2773.54
200.539	2776.16
200.614	2790.83
200.689	2814.99
200.764	2823.62
200.839	2841.43
200.914	2843.62
200.989	2832.47
201.063	2843.62
201.138	2831.1
201.213	2829.05
201.288	2810.7
201.363	2814.71
201.438	2817.42
201.512	2833.9
201.587	2816.03
201.662	2818.75
201.737	2834.09
201.812	2840.72
201.886	2812.58
201.961	2821.59
202.036	2811.83
202.111	2808.63
202.186	2784.73
202.26	2768.62
202.335	2745.07
202.41	2741.02
202.485	2725.26
202.559	2708.25
202.634	2683.2
202.709	2692.53
202.784	2674.38
202.858	2674.67
202.933	2658.66
203.008	2648.7
203.082	2628.32
203.157	2627.56
203.232	2590.14
203.306	2565.46
203.381	2534.35
203.456	2510.97
203.53	2486.66
203.605	2467.67
203.68	2442.95
203.754	2434.91
203.829	2420.48
203.904	2403.06
203.978	2390.2
204.053	2393.87
204.127	2384.87
204.202	2380.16
204.277	2361.26
204.351	2355.03
204.426	2348.6
204.5	2343.84
204.575	2309.43
204.65	2318.53
204.724	2309.24
204.799	2315.9
204.873	2315.47
204.948	2318.33
205.022	2304.72
205.097	2300.15
205.171	2314.47
205.246	2324.38
205.32	2325.28
205.395	2326.09
205.469	2316.34
205.544	2319.05
205.618	2302.11
205.693	2311.2
205.767	2301.83
205.842	2321.3
205.916	2317.16
205.991	2308.02
206.065	2310.68
206.14	2328.38
206.214	2323
206.289	2319.09
206.363	2331.37
206.438	2332.23
206.512	2338.56
206.586	2358.74
206.661	2363.36
206.735	2342.04
206.81	2339.99
206.884	2352.65
206.958	2340.52
207.033	2356.12
207.107	2362.17
207.181	2393.45
207.256	2387.98
207.33	2407.87
207.405	2419.35
207.479	2433.16
207.553	2439.87
207.628	2423.97
207.702	2434.26
207.776	2430.07
207.851	2433.21
207.925	2446.59
207.999	2445.59
208.073	2441.74
208.148	2444.97
208.222	2436.02
208.296	2467.53
208.371	2487.21
208.445	2497.06
208.519	2520.96
208.593	2530.86
208.668	2529.81
208.742	2531.34
208.816	2531.48
208.89	2544.34
208.965	2542.68
209.039	2553.44
209.113	2571.82
209.187	2593.33
209.261	2594.29
209.336	2612.86
209.41	2632.72
209.484	2637.39
209.558	2661.83
209.632	2676.74
209.707	2690.7
209.781	2713.66
209.855	2731.1
209.929	2750.94
210.003	2764.71
210.077	2769.62
210.151	2824.7
210.226	2864.42
210.3	2896.14
210.374	2929.78
210.448	2942.36
210.522	2964.68
210.596	2984.27
210.67	3003.63
210.744	3060.33
210.818	3100.33
210.892	3136.19
210.966	3145.54
211.041	3171
211.115	3183.69
211.189	3224.18
211.263	3260.1
211.337	3289.05
211.411	3324.75
211.485	3342.41
211.559	3377.05
211.633	3410.15
211.707	3408.95
211.781	3445.45
211.855	3449.32
211.929	3476.66
212.003	3496.22
212.077	3544.28
212.151	3600.59
212.225	3652.55
212.299	3683.05
212.373	3719.35
212.447	3762.4
212.52	3840.38
212.594	3899.54
212.668	3963.71
212.742	4010.65
212.816	4067.92
212.89	4124.85
212.964	4184.93
213.038	4250.18
213.112	4329.4
213.186	4413.76
213.26	4466.83
213.333	4496.55
213.407	4573.94
213.481	4651.24
213.555	4741.41
213.629	4812.29
213.703	4877.67
213.777	4957.51
213.85	5025.33
213.924	5145.03
213.998	5236.61
214.072	5322.33
214.146	5402.47
214.219	5500.56
214.293	5592.02
214.367	5692.16
214.441	5797.38
214.515	5890.11
214.588	5971.32
214.662	6041.41
214.736	6121.78
214.81	6233.93
214.883	6351.18
214.957	6444.42
215.031	6542.57
215.105	6630.64
215.178	6721.84
215.252	6822.03
215.326	6914.55
215.4	7005.65
215.473	7068.18
215.547	7161.9
215.621	7260.64
215.694	7376.59
215.768	7462.01
215.842	7555.46
215.915	7650.87
215.989	7735.17
216.063	7832.95
216.136	7945.78
216.21	8052.4
216.284	8176.9
216.357	8282.98
216.431	8382.23
216.504	8502.47
216.578	8636.5
216.652	8751.74
216.725	8861.82
216.799	8974.46
216.873	9082.15
216.946	9208.37
217.02	9312.59
217.093	9420.21
217.167	9505.35
217.24	9600.32
217.314	9706.41
217.387	9818.18
217.461	9920.39
217.535	10041.92
217.608	10138.16
217.682	10243.28
217.755	10362.75
217.829	10461.91
217.902	10570.07
217.976	10679.24
218.049	10769.59
218.123	10848.04
218.196	10958.29
218.27	11051.43
218.343	11139.43
218.417	11241.11
218.49	11331.52
218.563	11450.71
218.637	11547.24
218.71	11664.94
218.784	11765.33
218.857	11862.55
218.931	11956.53
219.004	12049.56
219.077	12151.27
219.151	12242.75
219.224	12327.93
219.298	12419.13
219.371	12515.05
219.444	12590.83
219.518	12674.9
219.591	12761.13
219.665	12880.63
219.738	12968.08
219.811	13046.65
219.885	13132.02
219.958	13224.63
220.031	13306.96
220.105	13379.71
220.178	13461.95
220.251	13530.64
220.325	13616.69
220.398	13706.4
220.471	13782.76
220.544	13869.63
220.618	13933.55
220.691	14014.92
220.764	14090.84
220.838	14165.66
220.911	14226.88
220.984	14317.94
221.057	14395.84
221.131	14473.84
221.204	14513.56
221.277	14598.06
221.35	14700.44
221.424	14772.46
221.497	14833.29
221.57	14902.52
221.643	14971.88
221.716	15040.18
221.79	15107.14
221.863	15160.5
221.936	15211.88
222.009	15277.49
222.082	15329.5
222.155	15386.09
222.229	15464.32
222.302	15530.88
222.375	15575.61
222.448	15643.29
222.521	15696.07
222.594	15759.5
222.667	15809.87
222.74	15875.03
222.814	15914.65
222.887	15947.09
222.96	16008.5
223.033	16070.91
223.106	16124.27
223.179	16183.65
223.252	16239.13
223.325	16289.15
223.398	16336.24
223.471	16388.97
223.544	16436.25
223.617	16489.95
223.69	16536.89
223.763	16574.43
223.837	16612.17
223.91	16668.18
223.983	16686.25
224.056	16711.99
224.129	16743.94
224.202	16792.86
224.275	16822.98
224.348	16859.56
224.42	16895.32
224.493	16916.53
224.566	16947.28
224.639	16991.9
224.712	17012.58
224.785	17041.3
224.858	17067.52
224.931	17099.47
225.004	17129.5
225.077	17164.73
225.15	17171.48
225.223	17203.04
225.296	17245.45
225.369	17264.73
225.442	17284.58
225.514	17336.3
225.587	17379.91
225.66	17414.47
225.733	17443.53
225.806	17469.94
225.879	17499.81
225.952	17521.26
226.025	17567.77
226.097	17604.54
226.17	17616.44
226.243	17629.31
226.316	17650.85
226.389	17681.11
226.461	17703.47
226.534	17727.67
226.607	17743.72
226.68	17785.88
226.753	17806.36
226.825	17806.46
226.898	17844.34
226.971	17872.34
227.044	17886.03
227.117	17896.96
227.189	17927.9
227.262	17958.7
227.335	17991.27
227.407	18003.56
227.48	18032.43
227.553	18042.65
227.626	18045.54
227.698	18069.44
227.771	18102.16
227.844	18116.28
227.916	18133.92
227.989	18144.91
228.062	18160.14
228.134	18195.46
228.207	18212.66
228.28	18219.07
228.352	18233.43
228.425	18239.55
228.498	18261.91
228.57	18263.02
228.643	18301.09
228.716	18301.38
228.788	18300.56
228.861	18298.59
228.934	18329.04
229.006	18338.54
229.079	18341.91
229.151	18351.69
229.224	18345.24
229.296	18349.91
229.369	18377.96
229.442	18399.16
229.514	18406.68
229.587	18419.64
229.659	18410.44
229.732	18411.93
229.804	18440.17
229.877	18470.29
229.949	18492.55
230.022	18513.8
230.094	18527.2
230.167	18527.01
230.239	18523.1
230.312	18536.79
230.384	18564.02
230.457	18566.09
230.529	18573.8
230.602	18593.37
230.674	18606.04
230.747	18623.2
230.819	18647.34
230.892	18624.98
230.964	18627.24
231.037	18631.82
231.109	18639.68
231.181	18652.74
231.254	18663.72
231.326	18658.66
231.399	18655.92
231.471	18651.15
231.544	18629.27
231.616	18648.69
231.688	18646.28
231.761	18650.62
231.833	18641.36
231.905	18624.21
231.978	18633.85
232.05	18632.06
232.122	18621.56
232.195	18618.23
232.267	18629.85
232.339	18621.89
232.412	18637.65
232.484	18631.44
232.556	18633.6
232.629	18645.75
232.701	18654.81
232.773	18646.09
232.846	18652.06
232.918	18650.18
232.99	18655.63
233.062	18658.81
233.135	18656.01
233.207	18636.26
233.279	18633.03
233.351	18638.57
233.424	18623.44
233.496	18605.17
233.568	18612.06
233.64	18599.44
233.713	18587.05
233.785	18576.74
233.857	18561.27
233.929	18533.85
234.001	18545.8
234.074	18543.2
234.146	18517.9
234.218	18502.14
234.29	18487.4
234.362	18459.01
234.434	18427.93
234.507	18397.14
234.579	18370.39
234.651	18345.77
234.723	18346.63
234.795	18341.04
234.867	18324.66
234.939	18331.36
235.012	18309.48
235.084	18300.47
235.156	18301.14
235.228	18273.05
235.3	18248.71
235.372	18229.87
235.444	18228.9
235.516	18185.15
235.588	18177.63
235.66	18164.95
235.732	18131.27
235.804	18161.34
235.876	18153.68
235.948	18154.93
236.02	18146.3
236.092	18124.47
236.164	18105.2
236.236	18082.31
236.308	18053.87
236.38	18037.59
236.452	18012.29
236.524	18000.29
236.596	18001.68
236.668	17987.85
236.74	17981.78
236.812	17964.05
236.884	17961.11
236.956	17941.69
237.028	17918.65
237.1	17885.98
237.172	17878.94
237.244	17883.47
237.316	17833.06
237.388	17811.38
237.46	17782.99
237.532	17769.35
237.604	17750.17
237.675	17742.27
237.747	17732.92
237.819	17713.45
237.891	17696.78
237.963	17668.1
238.035	17639.09
238.107	17579.77
238.178	17560.59
238.25	17529.69
238.322	17540.54
238.394	17498.8
238.466	17480.68
238.538	17468.54
238.609	17454.18
238.681	17409.84
238.753	17381.79
238.825	17360.15
238.897	17340.1
238.968	17340.2
239.04	17309.89
239.112	17307.77
239.184	17278.46
239.255	17248.92
239.327	17229.02
239.399	17195.91
239.471	17182.8
239.542	17160
239.614	17146.7
239.686	17102.65
239.758	17090.03
239.829	17047.18
239.901	17041.93
239.973	17009.11
240.044	16991.04
240.116	16966.55
240.188	16943.18
240.259	16918.21
240.331	16895.42
240.403	16874.6
240.474	16830.4
240.546	16802.31
240.618	16766.74
240.689	16739.7
240.761	16715.84
240.833	16713.39
240.904	16693.91
240.976	16668.32
241.048	16647.07
241.119	16629.96
241.191	16620.95
241.262	16614.34
241.334	16586.82
241.405	16556.51
241.477	16521.42
241.549	16485.51
241.62	16458.57
241.692	16442.38
241.763	16422.52
241.835	16392.64
241.906	16372.01
241.978	16334.85
242.049	16322.9
242.121	16311.96
242.192	16298.89
242.264	16260.58
242.335	16212.86
242.407	16190.35
242.478	16152.42
242.55	16132.03
242.621	16100.37
242.693	16058.82
242.764	16031.2
242.836	16000.6
242.907	15977.61
242.979	15963.87
243.05	15942.52
243.122	15921.65
243.193	15892.87
243.264	15844.67
243.336	15816.23
243.407	15791.75
243.479	15779.6
243.55	15758.3
243.622	15730.87
243.693	15696.31
243.764	15689.57
243.836	15657.32
243.907	15627.14
243.978	15605.55
244.05	15584.29
244.121	15540.82
244.192	15526.36
244.264	15473.96
244.335	15454.49
244.407	15415.59
244.478	15404.21
244.549	15382.86
244.62	15344.78
244.692	15315.09
244.763	15306.27
244.834	15276.14
244.906	15242.5
244.977	15217.14
245.048	15201.96
245.119	15167.3
245.191	15138.24
245.262	15083.96
245.333	15072.39
245.405	15039.13
245.476	15019.12
245.547	14991.99
245.618	14977.48
245.689	14949.91
245.761	14938.29
245.832	14904.59
245.903	14884.25
245.974	14852.15
246.045	14814.93
246.117	14806.98
246.188	14768.9
246.259	14728.99
246.33	14699.15
246.401	14671.53
246.473	14636.39
246.544	14595.56
246.615	14571.31
246.686	14541.18
246.757	14536.07
246.828	14493.17
246.899	14495.97
246.97	14453.54
247.042	14419.03
247.113	14395.12
247.184	14386.25
247.255	14355.74
247.326	14328.69
247.397	14302.13
247.468	14271.14
247.539	14253.06
247.61	14208.28
247.681	14195.26
247.752	14180.46
247.823	14145.61
247.894	14126.66
247.965	14092.05
248.037	14059.51
248.108	14022.35
248.179	13997.57
248.25	13971.2
248.321	13958.95
248.392	13912.48
248.463	13910.36
248.534	13889.34
248.605	13873.53
248.675	13846.01
248.746	13828.36
248.817	13821.08
248.888	13804.07
248.959	13768.88
249.03	13745.26
249.101	13726.07
249.172	13704.14
249.243	13663.59
249.314	13657.76
249.385	13629.27
249.456	13610.04
249.527	13582.99
249.598	13565.59
249.669	13540.33
249.739	13521.91
249.81	13498.68
249.881	13462.52
249.952	13438.57
250.023	13407.66
250.094	13371.8
250.165	13340.22
250.235	13312.65
250.306	13278.23
250.377	13250.08
250.448	13235.62
250.519	13201.39
250.59	13192.04
250.66	13162.49
250.731	13153.09
250.802	13134.77
250.873	13116.02
250.944	13099.09
251.014	13075.71
251.085	13075.23
251.156	13056.29
251.227	13044.91
251.297	13040.91
251.368	13037.92
251.439	13026.54
251.51	13022.35
251.58	12990.44
251.651	12965.66
251.722	12958.62
251.792	12927.53
251.863	12902.03
251.934	12892.68
252.005	12900.2
252.075	12883.95
252.146	12876.96
252.217	12868.67
252.287	12849.68
252.358	12825.82
252.429	12826.25
252.499	12798.1
252.57	12775.92
252.641	12766.04
252.711	12748.83
252.782	12711.33
252.852	12703.61
252.923	12675.46
252.994	12657.67
253.064	12648.52
253.135	12624.99
253.205	12595.06
253.276	12598.53
253.347	12591.01
253.417	12560.06
253.488	12533.93
253.558	12509.98
253.629	12486.74
253.699	12468.52
253.77	12453.82
253.841	12438.34
253.911	12422.68
253.982	12412.02
254.052	12402.19
254.123	12387.25
254.193	12360.54
254.264	12371.24
254.334	12342.32
254.405	12318.8
254.475	12292.53
254.546	12272.23
254.616	12259.36
254.687	12245.48
254.757	12225
254.827	12209.18
254.898	12201.67
254.968	12180.02
255.039	12148.64
255.109	12135.72
255.18	12104.88
255.25	12072.97
255.321	12057.45
255.391	12024.04
255.461	12033.25
255.532	11990.97
255.602	11967.07
255.673	11936.12
255.743	11913.37
255.813	11874.23
255.884	11867.53
255.954	11852.78
256.024	11854.76
256.095	11839.87
256.165	11815.81
256.235	11801.06
256.306	11777.45
256.376	11774.02
256.446	11765.16
256.517	11754.74
256.587	11747.42
256.657	11740.33
256.728	11726.5
256.798	11705.53
256.868	11684.57
256.938	11647.21
257.009	11643.69
257.079	11627.4
257.149	11636.18
257.219	11597.91
257.29	11589.38
257.36	11549.76
257.43	11540.31
257.5	11508.07
257.571	11488.26
257.641	11478.09
257.711	11450.14
257.781	11435.87
257.852	11414.61
257.922	11381.21
257.992	11362.47
258.062	11338.47
258.132	11326.27
258.202	11305.69
258.273	11290.17
258.343	11288.05
258.413	11273.5
258.483	11252.2
258.553	11229.31
258.623	11200.29
258.693	11190.36
258.764	11191.33
258.834	11190.89
258.904	11166.7
258.974	11137.26
259.044	11126.37
259.114	11113.69
259.184	11101.79
259.254	11087.28
259.324	11044.92
259.394	11032.44
259.464	11040.44
259.535	11021.41
259.605	11002.47
259.675	10978.42
259.745	10968.5
259.815	10939.92
259.885	10909.99
259.955	10922.09
260.025	10904.94
260.095	10893.42
260.165	10877.71
260.235	10875.35
260.305	10853.91
260.375	10840.94
260.445	10851.69
260.515	10842.97
260.585	10836.89
260.655	10821.33
260.725	10816.56
260.795	10812.13
260.865	10811.16
260.934	10782.97
261.004	10780.75
261.074	10758.2
261.144	10757.77
261.214	10761.63
261.284	10746.79
261.354	10740.71
261.424	10710.45
261.494	10703.61
261.564	10683.9
261.634	10676.72
261.703	10641.5
261.773	10630.9
261.843	10625.6
261.913	10598.76
261.983	10568.74
262.053	10556.41
262.123	10534
262.192	10497.68
262.262	10497.72
262.332	10471.95
262.402	10456.62
262.472	10433.4
262.541	10403.82
262.611	10406.09
262.681	10371.68
262.751	10362.34
262.821	10354.19
262.89	10329.72
262.96	10324.95
263.03	10327.07
263.1	10317.62
263.169	10305.48
263.239	10301.53
263.309	10295.9
263.379	10288.53
263.448	10276.58
263.518	10265.21
263.588	10261.31
263.657	10268.92
263.727	10264.77
263.797	10250.03
263.867	10235.77
263.936	10216.36
264.006	10214.87
264.076	10194.78
264.145	10181.77
264.215	10165.63
264.285	10155.71
264.354	10122.71
264.424	10100.79
264.494	10073.91
264.563	10054.02
264.633	10059.56
264.702	10045.01
264.772	10014.66
264.842	9996.88
264.911	9990.52
264.981	9961.23
265.05	9944.04
265.12	9929.78
265.19	9911.57
265.259	9909.26
265.329	9905.93
265.398	9891.87
265.468	9901.6
265.537	9883.87
265.607	9872.31
265.676	9869.76
265.746	9860.99
265.815	9865.71
265.885	9858.15
265.955	9828.92
266.024	9809.36
266.094	9772.27
266.163	9777
266.232	9777.48
266.302	9765.24
266.371	9750.75
266.441	9744.73
266.51	9740.39
266.58	9720.26
266.649	9696.32
266.719	9694.54
266.788	9682.31
266.858	9685.58
266.927	9654.13
266.996	9637.61
267.066	9633.08
267.135	9606.65
267.205	9601.4
267.274	9594.41
267.343	9591.81
267.413	9584.06
267.482	9581.89
267.552	9582.42
267.621	9549
267.69	9517.98
267.76	9511.87
267.829	9504.55
267.898	9487.93
267.968	9467.42
268.037	9466.46
268.106	9469.92
268.176	9440.88
268.245	9428.02
268.314	9413.14
268.384	9415.12
268.453	9406.31
268.522	9395.57
268.592	9393.4
268.661	9375.78
268.73	9363.3
268.799	9339.32
268.869	9351.07
268.938	9331.09
269.007	9312.6
269.076	9301.28
269.146	9301.77
269.215	9295.46
269.284	9296.42
269.353	9285.68
269.422	9277.98
269.492	9259.49
269.561	9216.54
269.63	9212.64
269.699	9198.49
269.768	9183.32
269.838	9175.81
269.907	9174.03
269.976	9148.37
270.045	9122.85
270.114	9110.05
270.183	9096.28
270.253	9093.97
270.322	9066.86
270.391	9053
270.46	9060.27
270.529	9058.15
270.598	9057.57
270.667	9039.61
270.736	9020.4
270.806	9008.89
270.875	9003.74
270.944	8988.44
271.013	9007.74
271.082	8999.65
271.151	8998.06
271.22	8974.04
271.289	8957.53
271.358	8945.83
271.427	8946.79
271.496	8940.1
271.565	8933.56
271.634	8925.28
271.703	8941.7
271.772	8944.92
271.841	8937.75
271.91	8917.24
271.979	8914.69
272.048	8892.11
272.117	8891.44
272.186	8879.12
272.255	8885.42
272.324	8885.18
272.393	8883.21
272.462	8877.09
272.531	8871.22
272.6	8860.05
272.669	8871.94
272.738	8858.42
272.807	8855.33
272.876	8837.62
272.945	8863.71
273.013	8860.82
273.082	8863.14
273.151	8825.68
273.22	8818.27
273.289	8812.3
273.358	8822.7
273.427	8812.88
273.496	8813.21
273.564	8807.44
273.633	8806.96
273.702	8787.8
273.771	8777.31
273.84	8766.57
273.909	8757.04
273.977	8749.2
274.046	8737.07
274.115	8735.14
274.184	8726.43
274.253	8710.36
274.322	8713.39
274.39	8675.08
274.459	8661.31
274.528	8637.92
274.597	8632.34
274.665	8629.93
274.734	8636.48
274.803	8624.59
274.872	8615.78
274.94	8602.5
275.009	8653.06
275.078	8641.31
275.147	8639
275.215	8634.67
275.284	8647.28
275.353	8641.94
275.421	8624.9
275.49	8636.65
275.559	8624.37
275.627	8616.87
275.696	8617.3
275.765	8615.23
275.833	8609.94
275.902	8611.29
275.971	8625.34
276.039	8636.79
276.108	8638.28
276.177	8638
276.245	8622.64
276.314	8611.29
276.383	8611.14
276.451	8557.89
276.52	8560.34
276.588	8565.3
276.657	8565.06
276.725	8557.22
276.794	8550.77
276.863	8565.11
276.931	8546.43
277	8555.39
277.068	8561.11
277.137	8574.25
277.205	8571.65
277.274	8592.34
277.342	8599.37
277.411	8576.27
277.48	8567.08
277.548	8555.15
277.617	8554.42
277.685	8552.11
277.754	8562.41
277.822	8555.24
277.89	8565.69
277.959	8559.67
278.027	8548.46
278.096	8537.34
278.164	8558.76
278.233	8554.05
278.301	8533.26
278.37	8537.01
278.438	8524.64
278.507	8523.1
278.575	8498.9
278.643	8497.41
278.712	8476.43
278.78	8469.88
278.849	8482.39
278.917	8486.34
278.985	8486
279.054	8483.59
279.122	8487.49
279.191	8485.28
279.259	8482.77
279.327	8459.82
279.396	8469.68
279.464	8463.67
279.532	8476.37
279.601	8469.25
279.669	8464.24
279.737	8480.6
279.806	8484.36
279.874	8496.39
279.942	8500.05
280.011	8493.36
280.079	8505
280.147	8522.23
280.215	8519.25
280.284	8508.33
280.352	8493.5
280.42	8497.69
280.488	8491.58
280.557	8492.4
280.625	8494.85
280.693	8498.27
280.761	8500.05
280.83	8487.97
280.898	8496.29
280.966	8476.47
281.034	8444.32
281.102	8433.64
281.171	8423.63
281.239	8431.29
281.307	8419.64
281.375	8408.81
281.443	8437.97
281.512	8430.47
281.58	8434.8
281.648	8421.37
281.716	8426.14
281.784	8426.52
281.852	8418.63
281.92	8418.39
281.989	8422.58
282.057	8402.32
282.125	8427.44
282.193	8426.33
282.261	8424.7
282.329	8423.59
282.397	8429.12
282.465	8433.26
282.533	8447.65
282.601	8440.86
282.67	8415.17
282.738	8407.8
282.806	8416.66
282.874	8403.81
282.942	8405.73
283.01	8401.59
283.078	8405.25
283.146	8404.19
283.214	8413.33
283.282	8418.92
283.35	8428.68
283.418	8426.13
283.486	8433.78
283.554	8404.96
283.622	8405.44
283.69	8407.75
283.758	8404.38
283.826	8411.12
283.894	8420.21
283.962	8437.58
284.03	8459.57
284.098	8464.05
284.165	8460.87
284.233	8465.35
284.301	8459.29
284.369	8448.36
284.437	8440.04
284.505	8435.51
284.573	8452.02
284.641	8439.03
284.709	8442.69
284.777	8419.59
284.845	8423.58
284.912	8428.92
284.98	8436.86
285.048	8423.34
285.116	8425.22
285.184	8427.19
285.252	8421.9
285.319	8404.96
285.387	8395.91
285.455	8368.58
285.523	8375.27
285.591	8368.59
285.659	8363.87
285.726	8371.86
285.794	8353.91
285.862	8351.84
285.93	8350.98
285.997	8343.76
286.065	8342.46
286.133	8334.09
286.201	8337.21
286.269	8327.83
286.336	8315.23
286.404	8308.87
286.472	8323.79
286.539	8304.55
286.607	8295.36
286.675	8292.81
286.743	8300.7
286.81	8289.19
286.878	8297.9
286.946	8281.88
287.013	8283.52
287.081	8280.34
287.149	8264.56
287.216	8289.67
287.284	8281.83
287.352	8284.09
287.419	8276.63
287.487	8294.2
287.555	8292.99
287.622	8288.28
287.69	8286.11
287.758	8300.31
287.825	8295.93
287.893	8285.01
287.96	8288.04
288.028	8297.32
288.096	8299.34
288.163	8302.57
288.231	8302.76
288.298	8307.52
288.366	8326.87
288.433	8325.57
288.501	8321.33
288.569	8326.48
288.636	8319.98
288.704	8337.35
288.771	8349.29
288.839	8344.04
288.906	8329.51
288.974	8342.99
289.041	8345.68
289.109	8335.77
289.176	8340.2
289.244	8343.76
289.311	8353.96
289.379	8369.11
289.446	8369.69
289.514	8371.71
289.581	8373.25
289.649	8366.85
289.716	8365.94
289.783	8350.88
289.851	8370.8
289.918	8372.48
289.986	8387.01
290.053	8392.02
290.121	8388.7
290.188	8386.77
290.255	8408.66
290.323	8403.08
290.39	8393.03
290.458	8399.95
290.525	8416.51
290.592	8412.99
290.66	8417.85
290.727	8418.48
290.794	8428.58
290.862	8427.52
290.929	8425.89
290.996	8425.17
291.064	8432.96
291.131	8445.18
291.198	8463.71
291.266	8456.11
291.333	8458.85
291.4	8456.25
291.468	8466.79
291.535	8460.63
291.602	8464.05
291.669	8460.77
291.737	8467.03
291.804	8470.73
291.871	8481.47
291.938	8488.4
292.006	8518.09
292.073	8522.81
292.14	8531.38
292.207	8523.48
292.275	8529.93
292.342	8541.87
292.409	8565.21
292.476	8593.17
292.543	8584.03
292.611	8581.72
292.678	8600.1
292.745	8619.2
292.812	8628.49
292.879	8628.2
292.946	8630.03
293.014	8642.07
293.081	8647.12
293.148	8665.55
293.215	8680.28
293.282	8677.92
293.349	8689.33
293.416	8662.08
293.484	8679.46
293.551	8681.24
293.618	8699.67
293.685	8716.37
293.752	8707.08
293.819	8704.24
293.886	8692.16
293.953	8702.36
294.02	8715.7
294.087	8721.28
294.154	8715.36
294.221	8726
294.288	8722.73
294.356	8740.63
294.423	8746.07
294.49	8742.51
294.557	8744.91
294.624	8738.66
294.691	8753.19
294.758	8751.22
294.825	8763.1
294.892	8753.05
294.959	8753.82
295.026	8758.63
295.093	8761.18
295.16	8766.28
295.226	8769.46
295.293	8787.56
295.36	8789.92
295.427	8798.48
295.494	8807.92
295.561	8818.8
295.628	8845.09
295.695	8861.84
295.762	8867.04
295.829	8875.75
295.896	8890.96
295.963	8907.18
296.03	8909.97
296.096	8914.88
296.163	8921.19
296.23	8937.12
296.297	8953.63
296.364	8954.98
296.431	8961.96
296.498	8948.05
296.564	8969.9
296.631	8973.61
296.698	8959.65
296.765	8977.7
296.832	8966.77
296.899	8958.78
296.965	8981.55
297.032	8955.41
297.099	8978.86
297.166	8987.04
297.233	8980.73
297.299	8975.25
297.366	8972.21
297.433	8977.03
297.5	8989.21
297.566	8993.49
297.633	8992.05
297.7	8988.68
297.767	8989.69
297.833	8983.72
297.9	8988.29
297.967	8972.12
298.033	8978.95
298.1	9006.45
298.167	8999.51
298.234	9002.64
298.3	9011.31
298.367	8998.11
298.434	9011.11
298.5	8992.58
298.567	8983.14
298.634	8986.37
298.7	9002.49
298.767	9006.06
298.834	9022.47
298.9	9012.75
298.967	9002.2
299.033	9005.82
299.1	9021.94
299.167	9033.35
299.233	9036.1
299.3	9048.71
299.366	9068.35
299.433	9076.97
299.5	9055.01
299.566	9055.45
299.633	9072.39
299.699	9079.52
299.766	9080.05
299.832	9080.67
299.899	9089.87
299.965	9102.39
300.032	9095.93
300.099	9096.03
300.165	9094.39
300.232	9085.49
300.298	9085.78
300.365	9094.83
300.431	9099.98
300.498	9091.94
300.564	9101.9
300.631	9109.22
300.697	9120.97
300.763	9123.28
300.83	9125.93
300.896	9141.09
300.963	9154.62
301.029	9156.84
301.096	9156.69
301.162	9158.62
301.229	9152.6
301.295	9133.15
301.361	9131.66
301.428	9135.36
301.494	9124.58
301.561	9129.2
301.627	9127.9
301.693	9129.01
301.76	9135.94
301.826	9126.6
301.892	9128.38
301.959	9126.79
302.025	9122.61
302.092	9114.61
302.158	9107.44
302.224	9106.28
302.291	9090.3
302.357	9083.8
302.423	9076.77
302.49	9068.68
302.556	9080.19
302.622	9076.82
302.688	9089.38
302.755	9107.1
302.821	9106.14
302.887	9116.64
302.954	9116.01
303.02	9125.83
303.086	9131.51
303.152	9123.23
303.219	9120.44
303.285	9130.07
303.351	9137.44
303.417	9136.52
303.483	9128.43
303.55	9125.16
303.616	9127.33
303.682	9135.8
303.748	9130.02
303.815	9145.48
303.881	9154.82
303.947	9145.57
304.013	9145.48
304.079	9142.25
304.145	9113.36
304.212	9119.14
304.278	9105.13
304.344	9094.4
304.41	9078.08
304.476	9067.82
304.542	9066.28
304.608	9067.53
304.674	9050.15
304.741	9045.15
304.807	9049.19
304.873	9050.49
304.939	9070.23
305.005	9047.79
305.071	9045.67
305.137	9043.6
305.203	9011.35
305.269	9005.62
305.335	9009.9
305.401	9006.49
305.467	9003.65
305.533	9014.86
305.599	9019.19
305.666	9025.74
305.732	9028.68
305.798	9040.52
305.864	9065.51
305.93	9070.95
305.996	9071.43
306.062	9074.7
306.128	9068.35
306.194	9055.21
306.259	9060.65
306.325	9044.66
306.391	9050.73
306.457	9048.51
306.523	9049.81
306.589	9071.33
306.655	9061.17
306.721	9044.52
306.787	9025.41
306.853	9036.29
306.919	9019.82
306.985	9014.19
307.051	9012.31
307.117	9006.83
307.183	9002.83
307.248	8970
307.314	8971.3
307.38	8967.64
307.446	8969.85
307.512	8958.01
307.578	8959.31
307.644	8951.7
307.709	8949.3
307.775	8949.34
307.841	8941.98
307.907	8937.02
307.973	8916.56
308.039	8917.48
308.104	8920.07
308.17	8923.01
308.236	8901.3
308.302	8904.86
308.368	8886.04
308.433	8879.69
308.499	8873.48
308.565	8859.32
308.631	8864.47
308.696	8844.06
308.762	8833.47
308.828	8823.12
308.894	8810.61
308.959	8792.27
309.025	8778.36
309.091	8765.51
309.156	8751.84
309.222	8755.84
309.288	8743.03
309.354	8730.18
309.419	8729.7
309.485	8715.5
309.551	8726.24
309.616	8715.17
309.682	8711.56
309.748	8707.66
309.813	8704.39
309.879	8691.29
309.945	8678.97
310.01	8670.79
310.076	8669.4
310.141	8661.02
310.207	8653.9
310.273	8649.33
310.338	8650
310.404	8639.22
310.469	8633.25
310.535	8624.97
310.601	8596.63
310.666	8602.26
310.732	8605.34
310.797	8594.46
310.863	8585.51
310.928	8572.8
310.994	8578.1
311.059	8573.81
311.125	8567.89
311.191	8572.03
311.256	8561.88
311.322	8566.89
311.387	8545.91
311.453	8811.89
311.518	8789.18
311.584	8778.98
311.649	8784.27
311.715	8769.41
311.78	8769.69
311.846	8759.88
311.911	8765.17
311.976	8770.66
312.042	8752.13
312.107	8737.89
312.173	8725.9
312.238	8720.03
312.304	8716.95
312.369	8706.75
312.434	8689.81
312.5	8681.15
312.565	8652.62
312.631	8655.74
312.696	8647.95
312.761	8647.18
312.827	8376.62
312.892	8410.64
312.958	8414.63
313.023	8406.69
313.088	8407.37
313.154	8387.59
313.219	8376.96
313.284	8361.32
313.35	8361.03
313.415	8350.11
313.48	8344.63
313.546	8342.12
313.611	8349.1
313.676	8334.33
313.741	8320.52
313.807	8330.34
313.872	8337.55
313.937	8344.34
314.003	8356.42
314.068	8349.92
314.133	8357.14
314.198	8337.94
314.264	8319.99
314.329	8305.41
314.394	8304.73
314.459	8302.09
314.525	8321.86
314.59	8323.93
314.655	8316.18
314.72	8315.17
314.785	8317.24
314.851	8311.18
314.916	8294.1
314.981	8271.39
315.046	8268.03
315.111	8259.18
315.176	8242.34
315.242	8242.34
315.307	8230.45
315.372	8205.43
315.437	8193.26
315.502	8183.59
315.567	8187.97
315.632	8169.49
315.698	8166.03
315.763	8156.6
315.828	8152.22
315.893	8147.17
315.958	8142.89
316.023	8133.8
316.088	8114.07
316.153	8093.25
316.218	8085.07
316.283	8067.81
316.348	8060.21
316.413	8047.75
316.479	8033.75
316.544	8001.87
316.609	7971.76
316.674	7941.46
316.739	7911.41
316.804	7890.05
316.869	7853.46
316.934	7825.56
316.999	7799.59
317.064	7752.76
317.129	7712.7
317.194	7673.61
317.259	7624.03
317.324	7570.48
317.389	7532.11
317.454	7496.87
317.518	7471.68
317.583	7448.98
317.648	7432.88
317.713	7399.28
317.778	7345.73
317.843	7321.79
317.908	7290.7
317.973	7256.48
318.038	7233.22
318.103	7203.66
318.168	7174.4
318.233	7146.24
318.297	7095.54
318.362	7059.93
318.427	7025.54
318.492	7002.24
318.557	6960.4
318.622	6940.27
318.687	6925.14
318.751	6885.46
318.816	6852.56
318.881	6819.03
318.946	6768.83
319.011	6722.34
319.075	6684.78
319.14	6657.84
319.205	6613.28
319.27	6581.59
319.335	6535.35
319.399	6491.51
319.464	6464.48
319.529	6413.11
319.594	6381.23
319.658	6356.18
319.723	6316.14
319.788	6288.98
319.853	6238.87
319.917	6210.84
319.982	6158.09
320.047	6120.13
320.112	6093.98
320.176	6049.36
320.241	6020.13
320.306	5991.87
320.37	5954.26
320.435	5925.24
320.5	5898.47
320.564	5868.01
320.629	5826.86
320.694	5800.87
320.758	5765.15
320.823	5723.52
320.888	5699.64
320.952	5653.41
321.017	5614.43
321.082	5576.8
321.146	5545.88
321.211	5510.17
321.275	5475.9
321.34	5436.75
321.405	5396.2
321.469	5352.45
321.534	5313.11
321.598	5259.21
321.663	5230.73
321.727	5201.75
321.792	5156.32
321.857	5114.02
321.921	5074.45
321.986	5039.25
322.05	4982.32
322.115	4946.4
322.179	4904.6
322.244	4850.02
322.308	4816.08
322.373	4774
322.437	4742.5
322.502	4718.21
322.566	4683.7
322.631	4648.86
322.695	4611.92
322.76	4570.1
322.824	4539
322.889	4500.21
322.953	4463.52
323.018	4397.89
323.082	4336.34
323.146	4285.65
323.211	4238.64
323.275	4195.89
323.34	4150.96
323.404	4122.66
323.468	4085.94
323.533	4044.79
323.597	4003.8
323.662	3960.78
323.726	3927.8
323.79	3879.87
323.855	3817.01
323.919	3769.38
323.983	3725.71
324.048	3665.75
324.112	3818.7
324.177	3700.37
324.241	3510.58
324.305	3322.65
324.37	3142.89
324.434	2968.58
324.498	2932.36
324.562	2887.31
324.627	2833.92
324.691	2787.11
324.755	2728.17
324.82	2656.37
324.884	2587.77
324.948	2526.75
325.012	2439.34
325.077	2328.03
