Data from 20250625_urea_1M_1_MAYP1162681_07-15-06-299.txt Node
Date: Thu Jun 26 07:15:06 BST 2025
User: adleo
Spectrometer: MAYP116268
Trigger mode: 0
Integration Time (sec): 1.000000E0
Scans to average: 1
Electric dark correction enabled: true
Nonlinearity correction enabled: true
Boxcar width: 10
XAxis mode: Wavelengths
Number of Pixels in Spectrum: 2068
>>>>>Begin Spectral Data<<<<<
179.565	1127.23
179.642	1178.21
179.718	1216.43
179.795	1252.97
179.871	1280.12
179.948	1296.32
180.024	1317.14
180.101	1337.97
180.177	1349.46
180.254	1369.09
180.33	1388.7
180.407	1435.83
180.483	1524.67
180.56	1607.05
180.636	1685.58
180.712	1673.31
180.789	1678.78
180.865	1690.08
180.942	1698.35
181.018	1707
181.095	1719.31
181.171	1722.92
181.248	1724.25
181.324	1739.46
181.4	1744.64
181.477	1756.85
181.553	1767.78
181.63	1783.89
181.706	1796.34
181.782	1807.13
181.859	1809.08
181.935	1811.69
182.011	1810.26
182.088	1825
182.164	1843.97
182.24	1855.9
182.317	1865.36
182.393	1865.02
182.469	1877.29
182.546	1889.45
182.622	1894.4
182.698	1892.59
182.775	1903.81
182.851	1917.36
182.927	1909.85
183.003	1905.29
183.08	1897.11
183.156	1905.19
183.232	1904.91
183.308	1897.06
183.385	1900.34
183.461	1912.61
183.537	1916.46
183.613	1924.82
183.69	1917.12
183.766	1905.71
183.842	1914.17
183.918	1920.88
183.995	1932.14
184.071	1934.38
184.147	1927.15
184.223	1914.18
184.299	1922.69
184.375	1913.37
184.452	1918.27
184.528	1972.73
184.604	1983.38
184.68	1996.31
184.756	2002.44
184.832	2005.82
184.908	2010.62
184.985	2012.95
185.061	2000.31
185.137	2009.34
185.213	2002.02
185.289	2003.63
185.365	1998.83
185.441	1995.36
185.517	2005.64
185.593	2001.36
185.669	1999.5
185.745	2011.1
185.822	2029.93
185.898	2022.41
185.974	2034.06
186.05	2025.74
186.126	1985.07
186.202	1979.12
186.278	1974.04
186.354	1968.28
186.43	1972.13
186.506	1967.86
186.582	1965.81
186.658	1973.18
186.734	1954.64
186.81	1956.02
186.886	1959.3
186.962	1971.76
187.038	1968
187.114	1961.39
187.19	1970.18
187.266	1961.58
187.341	1965.38
187.417	1958.11
187.493	1957.83
187.569	1956.02
187.645	1951.12
187.721	1944.13
187.797	1951.21
187.873	1956.54
187.949	1950.22
188.025	1946.84
188.101	1951.83
188.176	1955.78
188.252	1947.55
188.328	1955.78
188.404	1953.3
188.48	1946.17
188.556	1936.76
188.632	1936.66
188.707	1934.19
188.783	1931.1
188.859	1925.73
188.935	1911.32
189.011	1917.4
189.086	1914.41
189.162	1908.56
189.238	1908.42
189.314	1903.28
189.39	1899.1
189.465	1892.11
189.541	1908.14
189.617	1894.06
189.693	1888.5
189.768	1894.83
189.844	1920.32
189.92	1911.71
189.996	1922.36
190.071	1933.06
190.147	1933.87
190.223	1945.9
190.298	1940.81
190.374	1930.64
190.45	1944.42
190.526	1953.12
190.601	1949.42
190.677	1951.56
190.753	1979.44
190.828	1981.53
190.904	1994.79
190.98	2008.68
191.055	2020.24
191.131	2010.06
191.207	2027.94
191.282	2036.87
191.358	2026.41
191.433	2013.76
191.509	2027.21
191.585	2023.88
191.66	2027.69
191.736	2032.77
191.811	2021.79
191.887	2036.29
191.963	2056.79
192.038	2058.12
192.114	2060.45
192.189	2066.54
192.265	2061.17
192.34	2039.04
192.416	2041.47
192.491	2035.81
192.567	2036.85
192.642	2039.52
192.718	2041.13
192.793	2030.2
192.869	2025.25
192.944	2027.34
193.02	2036.62
193.095	2041.09
193.171	2045.75
193.246	2044.08
193.322	2045.7
193.397	2045.18
193.473	2033.14
193.548	2017.88
193.624	2024.44
193.699	2020.59
193.775	2033
193.85	2034.15
193.925	2041.52
194.001	2037.76
194.076	2031.2
194.152	2022.4
194.227	2013.51
194.302	2005.47
194.378	2007.33
194.453	2003.9
194.529	2015.08
194.604	1997.53
194.679	1988.83
194.755	1970.86
194.83	1981.71
194.905	1975.95
194.981	1984.04
195.056	1977.33
195.131	1979.47
195.207	1977.86
195.282	1969.82
195.357	1951.79
195.433	1968.72
195.508	1955.79
195.583	1964.39
195.659	1979.52
195.734	1983.56
195.809	1983.61
195.884	1991.02
195.96	1994.31
196.035	2012.57
196.11	2008.81
196.185	2024.36
196.261	2026.59
196.336	2055.5
196.411	2039.62
196.486	2046.23
196.561	2041.47
196.637	2049.74
196.712	2065.25
196.787	2072.01
196.862	2086.89
196.937	2096.59
197.013	2099.35
197.088	2110.34
197.163	2127.51
197.238	2141.84
197.313	2144.46
197.388	2157.54
197.464	2186.23
197.539	2197.18
197.614	2188.42
197.689	2201.7
197.764	2214.17
197.839	2235.43
197.914	2233.43
197.989	2255.61
198.065	2270.83
198.14	2318.97
198.215	2343.15
198.29	2356.34
198.365	2368.19
198.44	2376.47
198.515	2400.75
198.59	2412.74
198.665	2436.83
198.74	2445.02
198.815	2447.54
198.89	2468.58
198.965	2498.92
199.04	2492.16
199.115	2506.82
199.19	2548.24
199.265	2549.72
199.34	2560.57
199.415	2591.11
199.49	2610.06
199.565	2619.3
199.64	2638.88
199.715	2631.73
199.79	2637.54
199.865	2641.83
199.94	2636.83
200.015	2669.08
200.09	2675.27
200.165	2682.94
200.24	2692.71
200.315	2732.14
200.39	2747.29
200.464	2750.62
200.539	2753.1
200.614	2770.87
200.689	2789.98
200.764	2796.89
200.839	2813.22
200.914	2817.42
200.989	2808.84
201.063	2820.46
201.138	2806.8
201.213	2805.41
201.288	2793.41
201.363	2800.55
201.438	2802.84
201.512	2818.46
201.587	2797.02
201.662	2803.79
201.737	2817.89
201.812	2822.23
201.886	2787.99
201.961	2798.24
202.036	2790.15
202.111	2784.33
202.186	2757.24
202.26	2738.99
202.335	2718.92
202.41	2715.83
202.485	2702.11
202.559	2682.39
202.634	2658.66
202.709	2662.76
202.784	2647.99
202.858	2646.04
202.933	2629.56
203.008	2621.03
203.082	2606.08
203.157	2610.08
203.232	2566.13
203.306	2544.03
203.381	2514.87
203.456	2496.68
203.53	2469.42
203.605	2450.43
203.68	2428.38
203.754	2423.34
203.829	2414.48
203.904	2393.82
203.978	2382.63
204.053	2383.35
204.127	2370.31
204.202	2367.88
204.277	2356.65
204.351	2349.84
204.426	2343.03
204.5	2332.51
204.575	2300.35
204.65	2305.21
204.724	2298.35
204.799	2309.67
204.873	2305.1
204.948	2303.24
205.022	2290.06
205.097	2287.4
205.171	2300.43
205.246	2305.19
205.32	2306.19
205.395	2303.39
205.469	2296.92
205.544	2301.53
205.618	2286.21
205.693	2299.01
205.767	2287.35
205.842	2303.68
205.916	2298.68
205.991	2287.45
206.065	2292.88
206.14	2308.33
206.214	2306.05
206.289	2300.86
206.363	2310.42
206.438	2313.38
206.512	2317.04
206.586	2335.93
206.661	2341.5
206.735	2320.24
206.81	2322.62
206.884	2337.28
206.958	2327.43
207.033	2341.27
207.107	2347.65
207.181	2379.51
207.256	2373.13
207.33	2390.93
207.405	2404.17
207.479	2423.17
207.553	2433.21
207.628	2420.6
207.702	2431.45
207.776	2424.74
207.851	2426.64
207.925	2442.41
207.999	2439.17
208.073	2440.27
208.148	2443.55
208.222	2437.08
208.296	2466.86
208.371	2481.68
208.445	2488.06
208.519	2516.91
208.593	2531.43
208.668	2528.81
208.742	2528.77
208.816	2532.38
208.89	2546.39
208.965	2543.1
209.039	2551.2
209.113	2567.91
209.187	2588.28
209.261	2588.14
209.336	2609.52
209.41	2628.29
209.484	2629.44
209.558	2656.69
209.632	2671.16
209.707	2683.6
209.781	2705.13
209.855	2724.62
209.929	2749.85
210.003	2764.52
210.077	2765.76
210.151	2814.41
210.226	2853.27
210.3	2884.7
210.374	2915.38
210.448	2929.78
210.522	2948.99
210.596	2969.63
210.67	2989.8
210.744	3050.61
210.818	3095.23
210.892	3130.09
210.966	3142.39
211.041	3176.45
211.115	3192.14
211.189	3237.26
211.263	3278.33
211.337	3308.1
211.411	3351.06
211.485	3370.87
211.559	3410.47
211.633	3447.44
211.707	3449.83
211.781	3493.59
211.855	3501.95
211.929	3533.35
212.003	3558.83
212.077	3615.91
212.151	3669.55
212.225	3724.53
212.299	3761.49
212.373	3802.28
212.447	3851.46
212.52	3932.79
212.594	3992.5
212.668	4063.86
212.742	4111.71
212.816	4172.16
212.89	4233.26
212.964	4298.82
213.038	4372.17
213.112	4457.01
213.186	4543.69
213.26	4608.88
213.333	4644.4
213.407	4728.94
213.481	4816.66
213.555	4911.84
213.629	4990.17
213.703	5067.1
213.777	5158.09
213.85	5231.26
213.924	5356.85
213.998	5452.73
214.072	5546.67
214.146	5632.64
214.219	5726.11
214.293	5830.6
214.367	5933.69
214.441	6049.6
214.515	6145.29
214.588	6236.15
214.662	6312.85
214.736	6409.04
214.81	6524.94
214.883	6649.5
214.957	6750.8
215.031	6852.93
215.105	6947.1
215.178	7049.05
215.252	7160.19
215.326	7253.8
215.4	7351.34
215.473	7429.38
215.547	7529.14
215.621	7639.71
215.694	7766.81
215.768	7872.32
215.842	7979.52
215.915	8089.25
215.989	8184.41
216.063	8295.22
216.136	8413.59
216.21	8534.41
216.284	8661.8
216.357	8780.39
216.431	8889.98
216.504	9021.39
216.578	9164.81
216.652	9297.81
216.725	9414.43
216.799	9536.12
216.873	9652.22
216.946	9785.37
217.02	9893.53
217.093	10008.31
217.167	10094.72
217.24	10193.48
217.314	10301.58
217.387	10402.3
217.461	10506.03
217.535	10634.29
217.608	10733.88
217.682	10838.35
217.755	10953.51
217.829	11048.93
217.902	11157.98
217.976	11267.57
218.049	11359.76
218.123	11448.98
218.196	11551.24
218.27	11655.98
218.343	11744.28
218.417	11858.46
218.49	11955.73
218.563	12073.33
218.637	12181.93
218.71	12310.29
218.784	12415.66
218.857	12522.48
218.931	12633.11
219.004	12732.94
219.077	12828.96
219.151	12926.62
219.224	13019.13
219.298	13110.86
219.371	13217.93
219.444	13301.32
219.518	13396.53
219.591	13499.64
219.665	13614.76
219.738	13706.69
219.811	13778.18
219.885	13883.41
219.958	13965.75
220.031	14045.19
220.105	14126.42
220.178	14207.26
220.251	14280.39
220.325	14366.53
220.398	14444.19
220.471	14523.87
220.544	14614.3
220.618	14684.63
220.691	14763.21
220.764	14843.27
220.838	14922.86
220.911	14995.88
220.984	15084.53
221.057	15162.71
221.131	15226.82
221.204	15266.59
221.277	15351.43
221.35	15452.84
221.424	15510.64
221.497	15585.39
221.57	15660.83
221.643	15731.59
221.716	15798.92
221.79	15860.28
221.863	15917.25
221.936	15980.54
222.009	16036.6
222.082	16093.13
222.155	16155.07
222.229	16235.8
222.302	16297.16
222.375	16354.27
222.448	16409.41
222.521	16462.04
222.594	16512.11
222.667	16564.65
222.74	16629.33
222.814	16665.67
222.887	16705.43
222.96	16764.33
223.033	16818.93
223.106	16858.6
223.179	16912.38
223.252	16952.86
223.325	17002.7
223.398	17051.71
223.471	17096.05
223.544	17143.47
223.617	17187.52
223.69	17229.89
223.763	17248.63
223.837	17297.69
223.91	17343.86
223.983	17364.15
224.056	17386.47
224.129	17420.3
224.202	17466.37
224.275	17493.55
224.348	17519.38
224.42	17540.63
224.493	17561.94
224.566	17590.03
224.639	17626.75
224.712	17646.13
224.785	17683.14
224.858	17699.19
224.931	17721.98
225.004	17742.17
225.077	17764.34
225.15	17762.8
225.223	17787.76
225.296	17836.77
225.369	17840.48
225.442	17862.07
225.514	17899.33
225.587	17930.7
225.66	17959.56
225.733	17979.08
225.806	18010.55
225.879	18044.09
225.952	18067.71
226.025	18099.61
226.097	18130.5
226.17	18156.47
226.243	18158.98
226.316	18171.99
226.389	18202.21
226.461	18225.96
226.534	18253.62
226.607	18283.98
226.68	18336.8
226.753	18358.82
226.825	18354.05
226.898	18387.35
226.971	18400.8
227.044	18420.03
227.117	18443.16
227.189	18467.73
227.262	18495.97
227.335	18508.36
227.407	18524.5
227.48	18542
227.553	18554.33
227.626	18562.19
227.698	18571.54
227.771	18597.22
227.844	18599.49
227.916	18614.76
227.989	18612.69
228.062	18624.3
228.134	18654.28
228.207	18660.25
228.28	18666.23
228.352	18680.64
228.425	18692.35
228.498	18702.23
228.57	18703
228.643	18722.76
228.716	18722.52
228.788	18717.84
228.861	18728.15
228.934	18736.3
229.006	18740.54
229.079	18746.32
229.151	18751.24
229.224	18745.07
229.296	18756.49
229.369	18800.25
229.442	18820.58
229.514	18828.53
229.587	18843.66
229.659	18826.07
229.732	18828.29
229.804	18841.35
229.877	18869.06
229.949	18881.54
230.022	18908.86
230.094	18915.8
230.167	18918.45
230.239	18915.66
230.312	18920.43
230.384	18942.89
230.457	18961.01
230.529	18962.84
230.602	18966.55
230.674	18971.7
230.747	18990.02
230.819	19005.97
230.892	18977.39
230.964	18982.31
231.037	18994.98
231.109	18999.22
231.181	19008.71
231.254	19003.03
231.326	19004.33
231.399	18998.3
231.471	18992.18
231.544	18976.86
231.616	18979.46
231.688	18982.93
231.761	18983.94
231.833	18982.55
231.905	18961.34
231.978	18957.87
232.05	18957.68
232.122	18959.32
232.195	18945.59
232.267	18952.77
232.339	18938.89
232.412	18952.14
232.484	18934.89
232.556	18915.61
232.629	18919.56
232.701	18924.53
232.773	18917.49
232.846	18900.05
232.918	18891.56
232.99	18888.63
233.062	18887.42
233.135	18886.17
233.207	18868.92
233.279	18870.22
233.351	18869.35
233.424	18858.36
233.496	18837.54
233.568	18849.45
233.64	18816.82
233.713	18808.82
233.785	18799.14
233.857	18794.46
233.929	18766.95
234.001	18773.4
234.074	18785.35
234.146	18759.72
234.218	18747.24
234.29	18730.56
234.362	18712.83
234.434	18686.04
234.507	18656.98
234.579	18628.11
234.651	18608.45
234.723	18593.37
234.795	18574.96
234.867	18547.25
234.939	18545.13
235.012	18528.26
235.084	18514.72
235.156	18526.04
235.228	18498.82
235.3	18473.32
235.372	18455.49
235.444	18452.31
235.516	18412.32
235.588	18389.96
235.66	18373.23
235.732	18337.72
235.804	18373.57
235.876	18364.32
235.948	18364.75
236.02	18345.43
236.092	18322.68
236.164	18307.79
236.236	18285.09
236.308	18265.48
236.38	18260.71
236.452	18235.94
236.524	18227.17
236.596	18218.93
236.668	18201.48
236.74	18191.8
236.812	18177.53
236.884	18163.46
236.956	18145.29
237.028	18113.78
237.1	18086.88
237.172	18081.29
237.244	18074.55
237.316	18025.88
237.388	17990.7
237.46	17959.9
237.532	17952.48
237.604	17928.1
237.675	17915.81
237.747	17903.28
237.819	17866.6
237.891	17832.72
237.963	17799.23
238.035	17755.33
238.107	17703.76
238.178	17685.4
238.25	17653.5
238.322	17647.33
238.394	17609.89
238.466	17579.43
238.538	17564.83
238.609	17541.5
238.681	17502.71
238.753	17480.2
238.825	17452.54
238.897	17437.07
238.968	17430.61
239.04	17401.5
239.112	17403.14
239.184	17367.19
239.255	17336.49
239.327	17323.38
239.399	17305.26
239.471	17284.06
239.542	17276.68
239.614	17260.05
239.686	17213.45
239.758	17200.05
239.829	17159.57
239.901	17149.5
239.973	17121.88
240.044	17105.11
240.116	17078.8
240.188	17047.52
240.259	17016.82
240.331	16985.4
240.403	16970.02
240.474	16924.63
240.546	16893.83
240.618	16843.9
240.689	16809.44
240.761	16783.65
240.833	16772.14
240.904	16739.65
240.976	16715.79
241.048	16691.07
241.119	16671.21
241.191	16645.57
241.262	16638.39
241.334	16610.44
241.405	16580.8
241.477	16550.58
241.549	16514.91
241.62	16491.83
241.692	16471.92
241.763	16452.26
241.835	16419.24
241.906	16393.65
241.978	16349.79
242.049	16337.5
242.121	16324.78
242.192	16317.5
242.264	16286.56
242.335	16243.13
242.407	16223.18
242.478	16184.57
242.55	16152.9
242.621	16115.12
242.693	16090.92
242.764	16058.72
242.836	16034.29
242.907	16011.06
242.979	15996.02
243.05	15980.59
243.122	15962.42
243.193	15930.08
243.264	15878.6
243.336	15853.4
243.407	15834.94
243.479	15828.72
243.55	15802.55
243.622	15776.42
243.693	15744.56
243.764	15730.58
243.836	15688.7
243.907	15663.82
243.978	15638.33
244.05	15618.95
244.121	15580.39
244.192	15566.6
244.264	15519.17
244.335	15490.73
244.407	15442.15
244.478	15414.05
244.549	15378.33
244.62	15338.56
244.692	15314.9
244.763	15307.67
244.834	15282.6
244.906	15245.34
244.977	15224.76
245.048	15203.45
245.119	15169.57
245.191	15140.98
245.262	15088.59
245.333	15085.69
245.405	15061.45
245.476	15043.61
245.547	15021.54
245.618	15008.18
245.689	14973.96
245.761	14961.47
245.832	14929.76
245.903	14908.79
245.974	14884.4
246.045	14861.89
246.117	14851.86
246.188	14810.31
246.259	14773.62
246.33	14746.34
246.401	14714.28
246.473	14669.12
246.544	14632.77
246.615	14620.24
246.686	14586.4
246.757	14581.92
246.828	14540.02
246.899	14521.23
246.97	14480.93
247.042	14449.35
247.113	14434.41
247.184	14426.26
247.255	14394.01
247.326	14377.57
247.397	14354
247.468	14329.8
247.539	14300.01
247.61	14254.41
247.681	14243.76
247.752	14231.27
247.823	14191.31
247.894	14175.83
247.965	14147.58
248.037	14125.94
248.108	14080.77
248.179	14054.74
248.25	14023.55
248.321	14012.46
248.392	13974.81
248.463	13975.05
248.534	13947.34
248.605	13921.02
248.675	13898.41
248.746	13874.55
248.817	13849.53
248.888	13832.99
248.959	13788.79
249.03	13773.7
249.101	13753.02
249.172	13731.47
249.243	13681.77
249.314	13676.27
249.385	13651.93
249.456	13633.95
249.527	13603.34
249.598	13584.68
249.669	13556.09
249.739	13538.3
249.81	13519.17
249.881	13488.31
249.952	13463.63
250.023	13441.02
250.094	13406.46
250.165	13365.73
250.235	13350.78
250.306	13333.33
250.377	13305.37
250.448	13292.5
250.519	13251.52
250.59	13247.81
250.66	13214.74
250.731	13215.8
250.802	13197.29
250.873	13178.3
250.944	13154.87
251.014	13131.88
251.085	13140.17
251.156	13133.27
251.227	13118.86
251.297	13108.3
251.368	13097.36
251.439	13082.66
251.51	13065.64
251.58	13036.43
251.651	13015.7
251.722	12990.05
251.792	12956.65
251.863	12928.98
251.934	12920.59
252.005	12928.01
252.075	12904.68
252.146	12900.73
252.217	12886.36
252.287	12870.94
252.358	12848.04
252.429	12850.83
252.499	12821.53
252.57	12796.55
252.641	12779.88
252.711	12755.1
252.782	12719.71
252.852	12718.51
252.923	12695.76
252.994	12678.64
253.064	12675.9
253.135	12652.32
253.205	12632.27
253.276	12623.21
253.347	12619.06
253.417	12596.79
253.488	12572.11
253.558	12546.03
253.629	12523.52
253.699	12511.86
253.77	12501.49
253.841	12474.35
253.911	12462.54
253.982	12450.06
254.052	12441.14
254.123	12425.18
254.193	12411.11
254.264	12432.7
254.334	12404.99
254.405	12373.9
254.475	12344.3
254.546	12317.98
254.616	12311.23
254.687	12305.16
254.757	12294.89
254.827	12274.26
254.898	12250.06
254.968	12228.61
255.039	12206.2
255.109	12190.34
255.18	12155.83
255.25	12111.87
255.321	12102.71
255.391	12063.57
255.461	12065.3
255.532	12019.7
255.602	11996.57
255.673	11964.71
255.743	11929.42
255.813	11880.84
255.884	11882.19
255.954	11875.78
256.024	11874.96
256.095	11850.71
256.165	11810.75
256.235	11790.12
256.306	11768.29
256.376	11764.48
256.446	11762.41
256.517	11753.44
256.587	11746.36
256.657	11734.79
256.728	11720.77
256.798	11695.51
256.868	11677.05
256.938	11650.88
257.009	11642.54
257.079	11628.27
257.149	11636.95
257.219	11593.91
257.29	11586.49
257.36	11539.4
257.43	11523.25
257.5	11485.13
257.571	11464.45
257.641	11459.92
257.711	11430.33
257.781	11417.27
257.852	11403.68
257.922	11356.93
257.992	11333.79
258.062	11313.02
258.132	11306.61
258.202	11293.98
258.273	11286.71
258.343	11292.06
258.413	11265.89
258.483	11246.61
258.553	11222.95
258.623	11192.2
258.693	11182.32
258.764	11185.74
258.834	11192.15
258.904	11183.47
258.974	11164.39
259.044	11149.26
259.114	11138.61
259.184	11127.96
259.254	11108.34
259.324	11073.36
259.394	11067.33
259.464	11070.27
259.535	11051.86
259.605	11025.6
259.675	11001.99
259.745	10992.64
259.815	10959.77
259.885	10943.15
259.955	10952.54
260.025	10929.99
260.095	10916.02
260.165	10904.84
260.235	10902
260.305	10876.31
260.375	10845.42
260.445	10849.9
260.515	10851.83
260.585	10847.25
260.655	10831.59
260.725	10828.36
260.795	10827.83
260.865	10837.47
260.934	10814.77
261.004	10805.18
261.074	10791.11
261.144	10787.07
261.214	10775.98
261.284	10756.47
261.354	10751.12
261.424	10725.82
261.494	10723.22
261.564	10707.13
261.634	10705.58
261.703	10666.89
261.773	10657.06
261.843	10650.9
261.913	10632.59
261.983	10600.06
262.053	10591.58
262.123	10572.55
262.192	10543.88
262.262	10532.85
262.332	10488.57
262.402	10478.21
262.472	10459.18
262.541	10427.62
262.611	10424.63
262.681	10400.69
262.751	10400.64
262.821	10374.67
262.89	10345.38
262.96	10341.28
263.03	10341.72
263.1	10329.86
263.169	10323.36
263.239	10317.63
263.309	10324.23
263.379	10316.37
263.448	10304.67
263.518	10281.59
263.588	10269.93
263.657	10273.54
263.727	10265.45
263.797	10255.48
263.867	10236.69
263.936	10211.11
264.006	10207.93
264.076	10182.88
264.145	10166.36
264.215	10139.23
264.285	10142.08
264.354	10108.89
264.424	10087.07
264.494	10058.26
264.563	10033.74
264.633	10033.74
264.702	10024.92
264.772	9989.7
264.842	9968.99
264.911	9958.49
264.981	9934.36
265.05	9926.02
265.12	9910.17
265.19	9896.15
265.259	9890.81
265.329	9877.9
265.398	9867.69
265.468	9882.67
265.537	9874.38
265.607	9865.33
265.676	9864.99
265.746	9850.16
265.815	9856.8
265.885	9841.29
265.955	9821.98
266.024	9806.86
266.094	9771.46
266.163	9765.92
266.232	9766.01
266.302	9753.64
266.371	9749.45
266.441	9738.66
266.51	9729.22
266.58	9708.6
266.649	9684.57
266.719	9684.95
266.788	9687.36
266.858	9698.87
266.927	9665.4
266.996	9651.91
267.066	9649.6
267.135	9627.64
267.205	9624.94
267.274	9618.68
267.343	9621.62
267.413	9610.64
267.482	9609.92
267.552	9618.15
267.621	9584.54
267.69	9556.41
267.76	9546.06
267.829	9532
267.898	9527.57
267.968	9512.3
268.037	9505.46
268.106	9506.43
268.176	9485.38
268.245	9466.65
268.314	9443.38
268.384	9436.64
268.453	9424.27
268.522	9410.98
268.592	9409
268.661	9388.05
268.73	9377.36
268.799	9348.95
268.869	9350.4
268.938	9323.53
269.007	9304.03
269.076	9301
269.146	9299.36
269.215	9292.28
269.284	9303.74
269.353	9278.32
269.422	9259.49
269.492	9246.59
269.561	9209.52
269.63	9201.77
269.699	9186.5
269.768	9175.76
269.838	9166.09
269.907	9168.74
269.976	9146.44
270.045	9119.15
270.114	9114.43
270.183	9098.93
270.253	9094.54
270.322	9070.62
270.391	9066.96
270.46	9075.82
270.529	9071.73
270.598	9070.67
270.667	9050.74
270.736	9025.17
270.806	9025.94
270.875	9025.22
270.944	9013.13
271.013	9032.82
271.082	9027.48
271.151	9025.17
271.22	8999.99
271.289	8989.69
271.358	8977.61
271.427	8974.96
271.496	8967.74
271.565	8954.64
271.634	8947.18
271.703	8975.06
271.772	8981.51
271.841	8965.82
271.91	8935.97
271.979	8933.81
272.048	8908.39
272.117	8913.49
272.186	8894.19
272.255	8897.08
272.324	8899.24
272.393	8897.36
272.462	8882.49
272.531	8874.06
272.6	8861.11
272.669	8869.97
272.738	8859.14
272.807	8851.05
272.876	8837.34
272.945	8859.72
273.013	8860.92
273.082	8865.98
273.151	8821.83
273.22	8816.1
273.289	8814.47
273.358	8829.58
273.427	8815.28
273.496	8815.38
273.564	8811.1
273.633	8812.92
273.702	8794.1
273.771	8784.19
273.84	8775.96
273.909	8770.9
273.977	8771.38
274.046	8759.79
274.115	8765.99
274.184	8750.69
274.253	8736.11
274.322	8739.57
274.39	8709.06
274.459	8700.3
274.528	8672.53
274.597	8669.54
274.665	8666.08
274.734	8666.7
274.803	8651.93
274.872	8639.17
274.94	8624.59
275.009	8676.88
275.078	8663.51
275.147	8662.45
275.215	8658.64
275.284	8668.46
275.353	8659.32
275.421	8623.8
275.49	8637.14
275.559	8623.37
275.627	8617.84
275.696	8613.6
275.765	8608.69
275.833	8599.41
275.902	8596.76
275.971	8606.87
276.039	8620.44
276.108	8615.19
276.177	8610.62
276.245	8603.35
276.314	8598.16
276.383	8608.89
276.451	8549.57
276.52	8553.95
276.588	8559.19
276.657	8564.68
276.725	8551.3
276.794	8555.49
276.863	8577.96
276.931	8556.2
277	8559.62
277.068	8566.84
277.137	8585.08
277.205	8584.26
277.274	8603.85
277.342	8612.51
277.411	8593.45
277.48	8579.59
277.548	8576.03
277.617	8579.21
277.685	8573.77
277.754	8581.85
277.822	8576.03
277.89	8587.44
277.959	8577.53
278.027	8557.03
278.096	8538.4
278.164	8562.95
278.233	8546.54
278.301	8527.68
278.37	8533.26
278.438	8519.25
278.507	8526.67
278.575	8500.73
278.643	8499.72
278.712	8484.22
278.78	8469.83
278.849	8478.92
278.917	8489.94
278.985	8480.08
279.054	8478.16
279.122	8485.13
279.191	8486
279.259	8475.17
279.327	8455.92
279.396	8476.23
279.464	8476.52
279.532	8489.75
279.601	8484.7
279.669	8487.34
279.737	8508.76
279.806	8510.15
279.874	8528.01
279.942	8527.53
280.011	8522.96
280.079	8524.3
280.147	8538.45
280.215	8542.64
280.284	8540.18
280.352	8524.11
280.42	8535.32
280.488	8531.09
280.557	8523.15
280.625	8520.79
280.693	8520.45
280.761	8519.3
280.83	8498.17
280.898	8508.95
280.966	8486.57
281.034	8453.95
281.102	8436.58
281.171	8427.34
281.239	8432.73
281.307	8416.75
281.375	8403.47
281.443	8423.39
281.512	8422.24
281.58	8425.51
281.648	8404.34
281.716	8404.87
281.784	8401.88
281.852	8394.57
281.92	8393.94
281.989	8406.07
282.057	8393.66
282.125	8432.83
282.193	8429.9
282.261	8431.73
282.329	8426.53
282.397	8435.57
282.465	8440.19
282.533	8457.22
282.601	8442.12
282.67	8426.14
282.738	8420.03
282.806	8430.9
282.874	8421.09
282.942	8427.58
283.01	8425.18
283.078	8434.03
283.146	8429.7
283.214	8435.71
283.282	8434.46
283.35	8441.97
283.418	8432.87
283.486	8440.57
283.554	8404.04
283.622	8398.51
283.69	8397.4
283.758	8394.03
283.826	8399.13
283.894	8416.36
283.962	8438.21
284.03	8448.41
284.098	8447.11
284.165	8443.84
284.233	8442.11
284.301	8439.41
284.369	8423.53
284.437	8408.95
284.505	8408.86
284.573	8424.11
284.641	8417.04
284.709	8425.36
284.777	8409.96
284.845	8414.97
284.912	8414.82
284.98	8416.7
285.048	8415.88
285.116	8417.66
285.184	8430.66
285.252	8426.23
285.319	8401.74
285.387	8383.21
285.455	8371.66
285.523	8379.26
285.591	8374.98
285.659	8366.61
285.726	8373.35
285.794	8366.95
285.862	8366.66
285.93	8361.41
285.997	8356.36
286.065	8351.16
286.133	8341.68
286.201	8340.72
286.269	8332.93
286.336	8322.29
286.404	8320.08
286.472	8330.57
286.539	8309.93
286.607	8290.2
286.675	8291.5
286.743	8298.09
286.81	8303.77
286.878	8317.29
286.946	8307.38
287.013	8306.71
287.081	8317
287.149	8303.53
287.216	8318.25
287.284	8317.29
287.352	8321.43
287.419	8312.19
287.487	8326.96
287.555	8330.76
287.622	8324.65
287.69	8325.76
287.758	8340.15
287.825	8335.14
287.893	8319.99
287.96	8327.78
288.028	8338.56
288.096	8337.98
288.163	8337.55
288.231	8319.07
288.298	8316.47
288.366	8327.15
288.433	8323.69
288.501	8307.76
288.569	8316.71
288.636	8312.67
288.704	8322.01
288.771	8329.03
288.839	8325.28
288.906	8316.86
288.974	8327.73
289.041	8330.19
289.109	8321.19
289.176	8325.52
289.244	8326.48
289.311	8342.27
289.379	8352.66
289.446	8353.38
289.514	8351.79
289.581	8357.23
289.649	8361.7
289.716	8367
289.783	8364.69
289.851	8383.93
289.918	8392.4
289.986	8392.69
290.053	8396.1
290.121	8398.27
290.188	8394.47
290.255	8422.62
290.323	8419.54
290.39	8412.27
290.458	8420.02
290.525	8430.03
290.592	8423.43
290.66	8426.7
290.727	8416.31
290.794	8422.9
290.862	8418.57
290.929	8421.65
290.996	8417.13
291.064	8422.86
291.131	8430.94
291.198	8437.48
291.266	8434.69
291.333	8432.05
291.4	8445.57
291.468	8461.64
291.535	8452.69
291.602	8458.23
291.669	8446.92
291.737	8454.38
291.804	8457.36
291.871	8469.97
291.938	8477.72
292.006	8499.52
292.073	8511.5
292.14	8522.13
292.207	8522.81
292.275	8528.82
292.342	8540.32
292.409	8571.32
292.476	8595.04
292.543	8582.92
292.611	8582.44
292.678	8600.77
292.745	8626.76
292.812	8632.1
292.879	8622.09
292.946	8624.78
293.014	8635.04
293.081	8641.34
293.148	8647.93
293.215	8659.97
293.282	8650.29
293.349	8657.22
293.416	8646.11
293.484	8655.78
293.551	8667.18
293.618	8682.78
293.685	8699
293.752	8690.33
293.819	8681.72
293.886	8675.7
293.953	8688.41
294.02	8703.86
294.087	8713.05
294.154	8698.66
294.221	8705.74
294.288	8706.94
294.356	8723.01
294.423	8730.23
294.49	8727.15
294.557	8736.3
294.624	8719.07
294.691	8746.07
294.758	8744.05
294.825	8752.95
294.892	8748.81
294.959	8746.93
295.026	8750.74
295.093	8753.63
295.16	8756.03
295.226	8758.1
295.293	8778.03
295.36	8773.03
295.427	8776.97
295.494	8781.64
295.561	8793.53
295.628	8819.43
295.695	8836.91
295.762	8845.23
295.829	8853.76
295.896	8868.87
295.963	8881.43
296.03	8901.17
296.096	8900.3
296.163	8916.28
296.23	8926.82
296.297	8942.27
296.364	8947.04
296.431	8953.78
296.498	8949.06
296.564	8973.13
296.631	8972.36
296.698	8952.96
296.765	8983.48
296.832	8974.72
296.899	8960.95
296.965	8980.3
297.032	8955.7
297.099	8969.23
297.166	8968.6
297.233	8966.34
297.299	8955.6
297.366	8954.88
297.433	8951.32
297.5	8956.71
297.566	8954.74
297.633	8954.21
297.7	8950.6
297.767	8948.96
297.833	8945.45
297.9	8948.14
297.967	8931.87
298.033	8946.84
298.1	8976.31
298.167	8959.17
298.234	8964.94
298.3	8971.25
298.367	8963.84
298.434	8979.34
298.5	8971.88
298.567	8970.38
298.634	8965.09
298.7	8982.47
298.767	8989.93
298.834	9001.91
298.9	9000.04
298.967	8985.79
299.033	8992
299.1	9009.76
299.167	9019.87
299.233	9019.25
299.3	9032.34
299.366	9042.45
299.433	9054.49
299.5	9030.32
299.566	9039.08
299.633	9053.09
299.699	9064.98
299.766	9054.97
299.832	9050.59
299.899	9057.81
299.965	9068.59
300.032	9062.33
300.099	9072.4
300.165	9067.87
300.232	9068.21
300.298	9068.74
300.365	9086.31
300.431	9088.86
300.498	9080
300.564	9085.44
300.631	9102.1
300.697	9106.87
300.763	9108.07
300.83	9106.96
300.896	9120.25
300.963	9128.29
301.029	9132.33
301.096	9130.99
301.162	9150.58
301.229	9148.12
301.295	9127.33
301.361	9131.61
301.428	9137.87
301.494	9117.46
301.561	9116.97
301.627	9119.29
301.693	9119.91
301.76	9119.33
301.826	9112.88
301.892	9121.64
301.959	9125.88
302.025	9116.01
302.092	9108.93
302.158	9115.34
302.224	9113.41
302.291	9098.63
302.357	9091.55
302.423	9085.15
302.49	9075.38
302.556	9079.66
302.622	9072.54
302.688	9089.77
302.755	9100.32
302.821	9103.64
302.887	9114.23
302.954	9112.11
303.02	9114.61
303.086	9119.14
303.152	9121.07
303.219	9109.75
303.285	9110.38
303.351	9121.94
303.417	9123.43
303.483	9119
303.55	9110.53
303.616	9107.25
303.682	9108.89
303.748	9104.46
303.815	9114.14
303.881	9125.84
303.947	9112.45
304.013	9113.7
304.079	9099.45
304.145	9072.92
304.212	9075.19
304.278	9068.54
304.344	9066.43
304.41	9052.66
304.476	9040.48
304.542	9027.58
304.608	9036.96
304.674	9022.18
304.741	9011.97
304.807	9012.26
304.873	9019.24
304.939	9036.14
305.005	9014
305.071	9013.8
305.137	9012.17
305.203	8986.07
305.269	8979.53
305.335	8991.66
305.401	8991.9
305.467	8999.07
305.533	9007.4
305.599	9008.41
305.666	9018.09
305.732	9017.9
305.798	9025.84
305.864	9046.25
305.93	9051.07
305.996	9047.98
306.062	9044.9
306.128	9037.68
306.194	9024.06
306.259	9019.2
306.325	9009.95
306.391	9020.35
306.457	9022.85
306.523	9024.39
306.589	9049.14
306.655	9045.96
306.721	9023.67
306.787	9012.5
306.853	9020.78
306.919	9001.96
306.985	8999.36
307.051	8987.18
307.117	8980.11
307.183	8976.5
307.248	8951.75
307.314	8961.52
307.38	8959.45
307.446	8963.4
307.512	8951.61
307.578	8955.89
307.644	8950.16
307.709	8945.78
307.775	8941.35
307.841	8939.76
307.907	8936.39
307.973	8908.09
308.039	8903.66
308.104	8911.75
308.17	8909.48
308.236	8894.75
308.302	8895.67
308.368	8882.96
308.433	8880.41
308.499	8878.05
308.565	8866.5
308.631	8870.35
308.696	8840.98
308.762	8831.31
308.828	8830.11
308.894	8814.27
308.959	8795.5
309.025	8786.5
309.091	8774.71
309.156	8766.62
309.222	8765.22
309.288	8755.69
309.354	8745.35
309.419	8741.93
309.485	8726.09
309.551	8726.86
309.616	8711.7
309.682	8714.35
309.748	8701.11
309.813	8695.15
309.879	8681.77
309.945	8667.14
310.01	8655.82
310.076	8662.32
310.141	8657.75
310.207	8636.14
310.273	8641.24
310.338	8643.55
310.404	8626.08
310.469	8620.11
310.535	8606.59
310.601	8582.86
310.666	8583.05
310.732	8585.08
310.797	8571.12
310.863	8562.02
310.928	8556.3
310.994	8553.75
311.059	8548.07
311.125	8550.33
311.191	8565.35
311.256	8557.26
311.322	8562.75
311.387	8543.36
311.453	8819.81
311.518	8794.16
311.584	8794.4
311.649	8795.17
311.715	8781.89
311.78	8778.09
311.846	8764.47
311.911	8776.26
311.976	8781.99
312.042	8770.77
312.107	8754.22
312.173	8744.84
312.238	8736.56
312.304	8725.78
312.369	8718.9
312.434	8704.13
312.5	8692.2
312.565	8650.81
312.631	8651.1
312.696	8640.37
312.761	8645.66
312.827	8352.94
312.892	8384.99
312.958	8381.72
313.023	8372.77
313.088	8367.81
313.154	8357.18
313.219	8346.98
313.284	8334.9
313.35	8324.51
313.415	8307.77
313.48	8302.09
313.546	8308.06
313.611	8316.53
313.676	8309.69
313.741	8297.86
313.807	8307.05
313.872	8310.7
313.937	8319.7
314.003	8327.3
314.068	8326.2
314.133	8328.84
314.198	8319.51
314.264	8297.13
314.329	8284.14
314.394	8278.99
314.459	8275.91
314.525	8292.75
314.59	8290.35
314.655	8272.11
314.72	8275.43
314.785	8278.27
314.851	8277.74
314.916	8254.6
314.981	8239.83
315.046	8230.69
315.111	8221.5
315.176	8208.13
315.242	8208.22
315.307	8201.68
315.372	8182.05
315.437	8172.72
315.502	8158.04
315.567	8165.07
315.632	8149.05
315.698	8149.77
315.763	8146.83
315.828	8137.6
315.893	8122.4
315.958	8117.34
316.023	8111.67
316.088	8096.03
316.153	8078.48
316.218	8065.78
316.283	8054.19
316.348	8040.34
316.413	8036.01
316.479	8027.98
316.544	7995.85
316.609	7970.93
316.674	7941.31
316.739	7912.12
316.804	7885.28
316.869	7857.82
316.934	7823.53
316.999	7797.9
317.064	7745.93
317.129	7707.45
317.194	7674.81
317.259	7637.45
317.324	7588.99
317.389	7546.88
317.454	7514.04
317.518	7483.65
317.583	7465.1
317.648	7438.56
317.713	7401.98
317.778	7346.27
317.843	7317.76
317.908	7284.74
317.973	7244.56
318.038	7214.72
318.103	7176.37
318.168	7148.88
318.233	7122.31
318.297	7078.24
318.362	7046.19
318.427	7018.05
318.492	6989.07
318.557	6949.15
318.622	6924.36
318.687	6902.13
318.751	6867.21
318.816	6829.69
318.881	6793.43
318.946	6738.33
319.011	6700.63
319.075	6671.04
319.14	6641.56
319.205	6598.53
319.27	6567.37
319.335	6527.04
319.399	6489.54
319.464	6471.68
319.529	6421.51
319.594	6378.83
319.658	6347.82
319.723	6304.72
319.788	6277.22
319.853	6230.18
319.917	6201.91
319.982	6155.74
320.047	6128.14
320.112	6105.16
320.176	6062.12
320.241	6029.88
320.306	6007.09
320.37	5971.54
320.435	5932.87
320.5	5909.6
320.564	5875.78
320.629	5836.36
320.694	5811.08
320.758	5776.46
320.823	5733.05
320.888	5707.25
320.952	5661.28
321.017	5625.61
321.082	5595.02
321.146	5559.78
321.211	5528.05
321.275	5487.69
321.34	5448.3
321.405	5401.76
321.469	5354.32
321.534	5315.17
321.598	5271.28
321.663	5240.75
321.727	5207.21
321.792	5161.31
321.857	5116.37
321.921	5073.64
321.986	5035.52
322.05	4980.79
322.115	4942.14
322.179	4894.16
322.244	4841.45
322.308	4815.55
322.373	4774.62
322.437	4736.36
322.502	4715.05
322.566	4669.39
322.631	4638.48
322.695	4595.17
322.76	4556.95
322.824	4526.23
322.889	4485.28
322.953	4445.25
323.018	4382.24
323.082	4324.47
323.146	4273.31
323.211	4224.73
323.275	4187.81
323.34	4145.74
323.404	4109.56
323.468	4069.88
323.533	4033.46
323.597	3993.71
323.662	3941.04
323.726	3905.72
323.79	3859.9
323.855	3797.8
323.919	3754.38
323.983	3709.9
324.048	3651.05
324.112	3800.73
324.177	3680.17
324.241	3491.24
324.305	3302.84
324.37	3120.5
324.434	2943.84
324.498	2910.35
324.562	2865.89
324.627	2808.85
324.691	2758.26
324.755	2703.04
324.82	2631.24
324.884	2562.35
324.948	2495.9
325.012	2416.12
325.077	2304.97
