Data from 20250625_urea_1M_1_MAYP1162681_09-35-05-608.txt Node
Date: Thu Jun 26 09:35:05 BST 2025
User: adleo
Spectrometer: MAYP116268
Trigger mode: 0
Integration Time (sec): 1.000000E0
Scans to average: 1
Electric dark correction enabled: true
Nonlinearity correction enabled: true
Boxcar width: 10
XAxis mode: Wavelengths
Number of Pixels in Spectrum: 2068
>>>>>Begin Spectral Data<<<<<
179.565	1138.21
179.642	1187.11
179.718	1225.18
179.795	1262.38
179.871	1288.83
179.948	1305.37
180.024	1324.07
180.101	1345.67
180.177	1358.97
180.254	1379.82
180.33	1401.34
180.407	1448.95
180.483	1538.88
180.56	1624.35
180.636	1704.2
180.712	1690.47
180.789	1699.02
180.865	1710.42
180.942	1716.98
181.018	1726.29
181.095	1738.84
181.171	1743.07
181.248	1745.68
181.324	1760.08
181.4	1767.78
181.477	1780.52
181.553	1793.73
181.63	1815.78
181.706	1830.18
181.782	1839.12
181.859	1838.45
181.935	1841.92
182.011	1841.68
182.088	1856.8
182.164	1872.59
182.24	1883.99
182.317	1893.35
182.393	1888.17
182.469	1902.63
182.546	1914.79
182.622	1920.88
182.698	1917.5
182.775	1928.49
182.851	1942.08
182.927	1935.71
183.003	1930.96
183.08	1924.78
183.156	1930.67
183.232	1926.92
183.308	1915.18
183.385	1921.73
183.461	1938.9
183.537	1941.32
183.613	1952.54
183.69	1944.56
183.766	1933.43
183.842	1940.28
183.918	1947.36
183.995	1960.05
184.071	1962.76
184.147	1956.34
184.223	1943.37
184.299	1952.21
184.375	1943.56
184.452	1947.79
184.528	2000.59
184.604	2009.43
184.68	2022.31
184.756	2029.88
184.832	2032.73
184.908	2037.63
184.985	2039.29
185.061	2023.5
185.137	2033.4
185.213	2019.94
185.289	2022.51
185.365	2019.99
185.441	2018.99
185.517	2031.74
185.593	2031.45
185.669	2028.55
185.745	2040.87
185.822	2055.32
185.898	2048.14
185.974	2055.41
186.05	2047.61
186.126	2009.8
186.202	2001.95
186.278	1999.24
186.354	1990.49
186.43	1997.53
186.506	1995.49
186.582	1993.21
186.658	2001.19
186.734	1979.84
186.81	1983.46
186.886	1986.74
186.962	1994.58
187.038	1991.35
187.114	1981.6
187.19	1986.59
187.266	1976.89
187.341	1975.7
187.417	1970.76
187.493	1972.94
187.569	1974.18
187.645	1968.48
187.721	1958.3
187.797	1966.43
187.873	1967.05
187.949	1964.19
188.025	1955.39
188.101	1960.76
188.176	1965.04
188.252	1961.29
188.328	1970.6
188.404	1968.51
188.48	1962.09
188.556	1954.34
188.632	1955.86
188.707	1957.62
188.783	1954.06
188.859	1949.64
188.935	1944.03
189.011	1950.68
189.086	1946.69
189.162	1938.94
189.238	1938.13
189.314	1932.81
189.39	1928.15
189.465	1924.11
189.541	1938.8
189.617	1928.1
189.693	1925.01
189.768	1928.91
189.844	1949.18
189.92	1939.34
189.996	1947.32
190.071	1955.36
190.147	1958.4
190.223	1965.82
190.298	1960.21
190.374	1948.61
190.45	1960.64
190.526	1965.39
190.601	1961.11
190.677	1958.21
190.753	1986.28
190.828	1992.32
190.904	2008.01
190.98	2022.42
191.055	2030.7
191.131	2020.33
191.207	2036.11
191.282	2043.34
191.358	2033.4
191.433	2021.6
191.509	2034.67
191.585	2032.15
191.66	2037.58
191.736	2040.71
191.811	2033.25
191.887	2046.9
191.963	2068.82
192.038	2071.2
192.114	2072.44
192.189	2076.48
192.265	2073.49
192.34	2051.03
192.416	2048.37
192.491	2044.8
192.567	2048.94
192.642	2051.93
192.718	2052.7
192.793	2043.28
192.869	2040
192.944	2042.76
193.02	2050.03
193.095	2054.88
193.171	2061.16
193.246	2058.59
193.322	2059.92
193.397	2059.02
193.473	2046.08
193.548	2031.72
193.624	2037.8
193.699	2034.67
193.775	2048.13
193.85	2052.36
193.925	2064.35
194.001	2061.83
194.076	2056.74
194.152	2044.75
194.227	2035.9
194.302	2026.73
194.378	2031.15
194.453	2027.92
194.529	2039.47
194.604	2023.68
194.679	2017.55
194.755	1999.34
194.83	2009.95
194.905	2007.86
194.981	2015.47
195.056	2008.62
195.131	2011.86
195.207	2011.71
195.282	2003.87
195.357	1986.13
195.433	2002.1
195.508	1988.31
195.583	1996.3
195.659	2010.62
195.734	2017.18
195.809	2018.09
195.884	2025.17
195.96	2024.12
196.035	2039.82
196.11	2037.63
196.185	2049.71
196.261	2052.13
196.336	2084.42
196.411	2069.72
196.486	2072.48
196.561	2067.01
196.637	2077.05
196.712	2095.65
196.787	2098.17
196.862	2112.06
196.937	2120.33
197.013	2121.81
197.088	2131.89
197.163	2151.64
197.238	2163.82
197.313	2164.54
197.388	2176.91
197.464	2207.36
197.539	2216.45
197.614	2208.17
197.689	2220.21
197.764	2235.72
197.839	2254.04
197.914	2246.33
197.989	2271.84
198.065	2287.68
198.14	2335.87
198.215	2356.53
198.29	2365.43
198.365	2378.47
198.44	2388.75
198.515	2416.65
198.59	2433.93
198.665	2459.21
198.74	2468.07
198.815	2473.69
198.89	2494.49
198.965	2523.49
199.04	2519.4
199.115	2535.49
199.19	2574.67
199.265	2577.77
199.34	2586.39
199.415	2617.98
199.49	2640.21
199.565	2649.17
199.64	2670.93
199.715	2669.07
199.79	2678.31
199.865	2686.84
199.94	2682.89
200.015	2712.81
200.09	2716.43
200.165	2721.57
200.24	2731.01
200.315	2769.73
200.39	2783.55
200.464	2786.74
200.539	2790.65
200.614	2804.65
200.689	2828.39
200.764	2836.82
200.839	2853.73
200.914	2860.21
200.989	2850.82
201.063	2865.17
201.138	2845.17
201.213	2846.65
201.288	2826.92
201.363	2832.54
201.438	2829.68
201.512	2846.59
201.587	2829.91
201.662	2837.49
201.737	2849.07
201.812	2852.88
201.886	2818.88
201.961	2827.79
202.036	2818.55
202.111	2811.98
202.186	2785.17
202.26	2768.15
202.335	2747.33
202.41	2741.8
202.485	2725.08
202.559	2708.88
202.634	2681.87
202.709	2691.91
202.784	2673.29
202.858	2672.48
202.933	2653.52
203.008	2647.85
203.082	2630.37
203.157	2630.99
203.232	2590.66
203.306	2569.74
203.381	2544.16
203.456	2522.49
203.53	2497.9
203.605	2479.15
203.68	2457.95
203.754	2452.43
203.829	2438.58
203.904	2422.01
203.978	2409.48
204.053	2415.1
204.127	2402.96
204.202	2399.49
204.277	2382.92
204.351	2374.26
204.426	2365.55
204.5	2356.65
204.575	2322.81
204.65	2331.72
204.724	2321.72
204.799	2329.57
204.873	2323.99
204.948	2318
205.022	2308.77
205.097	2301.58
205.171	2316.38
205.246	2324.42
205.32	2326.28
205.395	2325.66
205.469	2314.91
205.544	2320.29
205.618	2299.2
205.693	2309.25
205.767	2295.83
205.842	2315.25
205.916	2311.59
205.991	2304.3
206.065	2308.59
206.14	2324.33
206.214	2322.09
206.289	2317.52
206.363	2326.71
206.438	2332.8
206.512	2341.56
206.586	2358.07
206.661	2364.74
206.735	2344.95
206.81	2344.95
206.884	2356.61
206.958	2345.42
207.033	2358.32
207.107	2365.41
207.181	2401.98
207.256	2395.79
207.33	2417.54
207.405	2428.88
207.479	2446.5
207.553	2453.63
207.628	2443.07
207.702	2453.92
207.776	2443.64
207.851	2448.97
207.925	2465.59
207.999	2466.4
208.073	2462.88
208.148	2468.36
208.222	2459.74
208.296	2486.86
208.371	2506.88
208.445	2518.45
208.519	2547.54
208.593	2562.54
208.668	2559.49
208.742	2559.96
208.816	2563.77
208.89	2579.68
208.965	2579.26
209.039	2586.35
209.113	2601.74
209.187	2620.11
209.261	2617.06
209.336	2641.11
209.41	2659.93
209.484	2662.07
209.558	2680.37
209.632	2697.04
209.707	2708.85
209.781	2733.82
209.855	2753.88
209.929	2774.87
210.003	2786.54
210.077	2790.45
210.151	2842.06
210.226	2881.59
210.3	2914.36
210.374	2947.14
210.448	2958.3
210.522	2977.09
210.596	2994.63
210.67	3013.93
210.744	3073.74
210.818	3116.49
210.892	3148.5
210.966	3157.7
211.041	3185.69
211.115	3199.9
211.189	3243.79
211.263	3280.04
211.337	3306.62
211.411	3341.26
211.485	3352.72
211.559	3388.84
211.633	3414.97
211.707	3409.34
211.781	3442.35
211.855	3439.86
211.929	3458.23
212.003	3472.02
212.077	3516.82
212.151	3570.4
212.225	3619.63
212.299	3647.83
212.373	3680.69
212.447	3720.44
212.52	3797.99
212.594	3851.94
212.668	3912.52
212.742	3949.28
212.816	3997.99
212.89	4048.61
212.964	4104.03
213.038	4172.53
213.112	4242.74
213.186	4322.3
213.26	4370.2
213.333	4393.45
213.407	4466.18
213.481	4547.11
213.555	4633.38
213.629	4692.45
213.703	4755.8
213.777	4832.7
213.85	4893.42
213.924	5011.42
213.998	5097.71
214.072	5173.44
214.146	5248.97
214.219	5339.07
214.293	5421.54
214.367	5516.7
214.441	5619.5
214.515	5702.65
214.588	5770.47
214.662	5834.44
214.736	5908.98
214.81	6018.07
214.883	6125.2
214.957	6214.95
215.031	6297.28
215.105	6379.91
215.178	6472.79
215.252	6563.91
215.326	6644.53
215.4	6727.59
215.473	6781.55
215.547	6862.69
215.621	6958.28
215.694	7068.05
215.768	7147.68
215.842	7246.1
215.915	7338.16
215.989	7413.44
216.063	7503.49
216.136	7610.32
216.21	7719.12
216.284	7841.08
216.357	7945.21
216.431	8050.44
216.504	8162.71
216.578	8290.15
216.652	8404.83
216.725	8517.81
216.799	8632.06
216.873	8731.91
216.946	8846.44
217.02	8948.76
217.093	9047.86
217.167	9121.38
217.24	9200.39
217.314	9295.57
217.387	9390.66
217.461	9484.17
217.535	9598.64
217.608	9697.55
217.682	9794.99
217.755	9901.96
217.829	9990.6
217.902	10090.17
217.976	10183.62
218.049	10272.5
218.123	10358.12
218.196	10455.34
218.27	10535.08
218.343	10620.42
218.417	10723.67
218.49	10818.26
218.563	10928.22
218.637	11031.87
218.71	11150.76
218.784	11251.91
218.857	11361.02
218.931	11456.53
219.004	11548.01
219.077	11644.6
219.151	11736.26
219.224	11820.18
219.298	11907.32
219.371	12006.37
219.444	12074.82
219.518	12174.64
219.591	12269.17
219.665	12382.2
219.738	12468.15
219.811	12540.5
219.885	12627.36
219.958	12723.82
220.031	12801.57
220.105	12881.02
220.178	12957.18
220.251	13030.55
220.325	13112.36
220.398	13191.94
220.471	13270.62
220.544	13357.29
220.618	13425.7
220.691	13510.1
220.764	13593.6
220.838	13673.38
220.911	13741.16
220.984	13835.64
221.057	13907.56
221.131	13986.72
221.204	14024.9
221.277	14114.27
221.35	14230.11
221.424	14293.31
221.497	14356.79
221.57	14431.22
221.643	14505.94
221.716	14584.75
221.79	14643.03
221.863	14709.56
221.936	14770.58
222.009	14835.85
222.082	14900.2
222.155	14962.15
222.229	15037.58
222.302	15102.61
222.375	15157.8
222.448	15216.37
222.521	15273.63
222.594	15328.97
222.667	15360.78
222.74	15436.22
222.814	15488.71
222.887	15526.64
222.96	15595.09
223.033	15656.83
223.106	15704.36
223.179	15759.4
223.252	15802.11
223.325	15858.16
223.398	15907.71
223.471	15960.35
223.544	16005.9
223.617	16054.48
223.69	16102.2
223.763	16129.91
223.837	16172.28
223.91	16224.76
223.983	16251.8
224.056	16283.23
224.129	16324.68
224.202	16383.34
224.275	16410.81
224.348	16434.14
224.42	16462.96
224.493	16475.39
224.566	16497.95
224.639	16540.75
224.712	16564.65
224.785	16599.4
224.858	16632.46
224.931	16664.18
225.004	16676.03
225.077	16716.37
225.15	16724.66
225.223	16748.66
225.296	16800.14
225.369	16813.1
225.442	16831.13
225.514	16870.74
225.587	16902.99
225.66	16940.53
225.733	16977.11
225.806	17011.28
225.879	17039.76
225.952	17058.85
226.025	17113.88
226.097	17152.29
226.17	17178.17
226.243	17191.47
226.316	17217.45
226.389	17238.17
226.461	17267.04
226.534	17308.87
226.607	17324.92
226.68	17364.54
226.753	17387.43
226.825	17395.24
226.898	17440.78
226.971	17462.95
227.044	17488.06
227.117	17521.89
227.189	17539.09
227.262	17559.67
227.335	17585.26
227.407	17604.01
227.48	17632.3
227.553	17643.96
227.626	17660.1
227.698	17674.46
227.771	17699.48
227.844	17714.8
227.916	17736.78
227.989	17743.28
228.062	17754.32
228.134	17803.57
228.207	17819.96
228.28	17832.49
228.352	17844.1
228.425	17857.35
228.498	17883.09
228.57	17886.27
228.643	17907.42
228.716	17920.05
228.788	17922.46
228.861	17928.24
228.934	17958.79
229.006	17974.12
229.079	17984.77
229.151	17990.12
229.224	17994.02
229.296	18015.56
229.369	18048.96
229.442	18078.93
229.514	18087.95
229.587	18117.87
229.659	18097.44
229.732	18117.25
229.804	18142.11
229.877	18177.82
229.949	18194.54
230.022	18226.01
230.094	18237.34
230.167	18247.41
230.239	18254.78
230.312	18269
230.384	18303.26
230.457	18306.39
230.529	18315.4
230.602	18323.21
230.674	18341.48
230.747	18357.72
230.819	18369.91
230.892	18346.44
230.964	18353.72
231.037	18366.39
231.109	18366.97
231.181	18390.24
231.254	18381.14
231.326	18381.96
231.399	18380.8
231.471	18374.97
231.544	18353.72
231.616	18378.87
231.688	18388.51
231.761	18392.17
231.833	18392.51
231.905	18363.98
231.978	18372.61
232.05	18370.1
232.122	18385.28
232.195	18383.45
232.267	18405.71
232.339	18403.16
232.412	18414.2
232.484	18404.75
232.556	18390.63
232.629	18408.8
232.701	18410.39
232.773	18412.56
232.846	18411.4
232.918	18407.69
232.99	18411.16
233.062	18421.13
233.135	18414.77
233.207	18395.21
233.279	18394.77
233.351	18395.4
233.424	18390.39
233.496	18368.08
233.568	18384.65
233.64	18355.79
233.713	18344.27
233.785	18331.65
233.857	18328.66
233.929	18310.25
234.001	18316.27
234.074	18321.53
234.146	18296.03
234.218	18281.91
234.29	18281.67
234.362	18270.68
234.434	18242.49
234.507	18222.21
234.579	18185.97
234.651	18167.36
234.723	18159.75
234.795	18142.26
234.867	18130.31
234.939	18136.23
235.012	18131.99
235.084	18123.85
235.156	18126.4
235.228	18110.31
235.3	18092.09
235.372	18077.01
235.444	18085.34
235.516	18058.55
235.588	18054.55
235.66	18035.42
235.732	18018.65
235.804	18046.21
235.876	18034.69
235.948	18043.66
236.02	18030.55
236.092	18031.9
236.164	18014.17
236.236	17996.77
236.308	17980.48
236.38	17970.41
236.452	17946.22
236.524	17929.69
236.596	17933.35
236.668	17927.32
236.74	17912.19
236.812	17895.33
236.884	17885.01
236.956	17868.53
237.028	17833.69
237.1	17801.21
237.172	17804.87
237.244	17797.74
237.316	17749.11
237.388	17729.31
237.46	17700.78
237.532	17696.49
237.604	17662.42
237.675	17661.26
237.747	17659.67
237.819	17641.84
237.891	17621.84
237.963	17594.99
238.035	17570.61
238.107	17498.75
238.178	17478.8
238.25	17453.02
238.322	17463.28
238.394	17433.4
238.466	17407.91
238.538	17398.8
238.609	17398.66
238.681	17354.99
238.753	17325.98
238.825	17302.32
238.897	17277.65
238.968	17267.24
239.04	17231.28
239.112	17235.91
239.184	17201.69
239.255	17165.26
239.327	17142.22
239.399	17121.93
239.471	17109.55
239.542	17093.11
239.614	17088.87
239.686	17048.24
239.758	17037.4
239.829	16996.97
239.901	16971.33
239.973	16946.26
240.044	16922.65
240.116	16892.58
240.188	16866.65
240.259	16843.95
240.331	16818.4
240.403	16794.5
240.474	16758.26
240.546	16732.04
240.618	16694.73
240.689	16664.61
240.761	16644.8
240.833	16635.02
240.904	16608.03
240.976	16579.21
241.048	16555.83
241.119	16545.42
241.191	16524.6
241.262	16513.71
241.334	16481.37
241.405	16465.32
241.477	16433.7
241.549	16411.68
241.62	16382.71
241.692	16369.07
241.763	16354.42
241.835	16328.2
241.906	16307.38
241.978	16268.68
242.049	16256.24
242.121	16231.8
242.192	16219.27
242.264	16173.53
242.335	16125.09
242.407	16100.94
242.478	16073.28
242.55	16053.42
242.621	16015.3
242.693	15986.86
242.764	15957.12
242.836	15926.61
242.907	15901.6
242.979	15876.97
243.05	15855.52
243.122	15839.85
243.193	15808.86
243.264	15760.56
243.336	15728.85
243.407	15713.95
243.479	15702.82
243.55	15685.13
243.622	15665.71
243.693	15635.77
243.764	15629.36
243.836	15589.4
243.907	15562.22
243.978	15538.65
244.05	15516.86
244.121	15481.24
244.192	15464.42
244.264	15420.46
244.335	15406.29
244.407	15366.76
244.478	15352.45
244.549	15322.17
244.62	15278.94
244.692	15251.9
244.763	15234.01
244.834	15201.57
244.906	15165.32
244.977	15146.04
245.048	15132.74
245.119	15097.5
245.191	15067.47
245.262	15022.64
245.333	15026.6
245.405	14997.63
245.476	14978.63
245.547	14950.63
245.618	14930.53
245.689	14903.77
245.761	14883.19
245.832	14845.83
245.903	14827.23
245.974	14795.94
246.045	14766.44
246.117	14756.17
246.188	14716.45
246.259	14681.65
246.33	14653.59
246.401	14632.1
246.473	14590.59
246.544	14555.74
246.615	14540.12
246.686	14509.51
246.757	14498.57
246.828	14456.92
246.899	14448.72
246.97	14392.37
247.042	14358.77
247.113	14338.53
247.184	14339.25
247.255	14310.04
247.326	14292.06
247.397	14268.1
247.468	14252.48
247.539	14229.92
247.61	14197.38
247.681	14188.08
247.752	14179.74
247.823	14148.6
247.894	14125.41
247.965	14092.39
248.037	14058.31
248.108	14011.84
248.179	13985.95
248.25	13951.92
248.321	13935.48
248.392	13893.34
248.463	13901.97
248.534	13876.76
248.605	13854.2
248.675	13813.95
248.746	13799.49
248.817	13779.82
248.888	13759.77
248.959	13715.32
249.03	13701.34
249.101	13673.81
249.172	13644.02
249.243	13597.6
249.314	13584.92
249.385	13564.43
249.456	13547.17
249.527	13525.92
249.598	13521.38
249.669	13504.32
249.739	13492.27
249.81	13478.48
249.881	13442.61
249.952	13415.86
250.023	13393.25
250.094	13366.69
250.165	13337.91
250.235	13315.54
250.306	13297.51
250.377	13264.83
250.448	13250.75
250.519	13209.25
250.59	13203.17
250.66	13180.71
250.731	13170.1
250.802	13153.62
250.873	13127.73
250.944	13112.4
251.014	13080.15
251.085	13075.57
251.156	13052
251.227	13041.05
251.297	13033.73
251.368	13029.24
251.439	13020.28
251.51	13011.02
251.58	12973.86
251.651	12956.69
251.722	12948.07
251.792	12901.79
251.863	12874.79
251.934	12863.46
252.005	12869.88
252.075	12848.38
252.146	12837.58
252.217	12834.64
252.287	12826.49
252.358	12809.81
252.429	12803.59
252.499	12780.79
252.57	12765.8
252.641	12758.33
252.711	12736.59
252.782	12698.99
252.852	12695.08
252.923	12667.94
252.994	12643.55
253.064	12643.98
253.135	12602.48
253.205	12567.68
253.276	12569.36
253.347	12572.69
253.417	12544.68
253.488	12515.33
253.558	12490.89
253.629	12467.27
253.699	12447.6
253.77	12431.07
253.841	12402.96
253.911	12387.59
253.982	12372.16
254.052	12352.44
254.123	12332.78
254.193	12315.71
254.264	12331.57
254.334	12302.22
254.405	12274.84
254.475	12251.65
254.546	12226.73
254.616	12232.37
254.687	12220.75
254.757	12207.5
254.827	12180.22
254.898	12168.16
254.968	12151.82
255.039	12131.77
255.109	12124.49
255.18	12100.44
255.25	12060.53
255.321	12054.41
255.391	12018.69
255.461	12024.76
255.532	11980.95
255.602	11965.14
255.673	11928.8
255.743	11898.52
255.813	11857.17
255.884	11852.45
255.954	11838.71
256.024	11838.28
256.095	11816.92
256.165	11791.67
256.235	11776.87
256.306	11753.35
256.376	11753.83
256.446	11739.51
256.517	11715.95
256.587	11709.39
256.657	11697.24
256.728	11682.21
256.798	11662.54
256.868	11645.43
256.938	11612.22
257.009	11607.5
257.079	11594.77
257.149	11604.03
257.219	11567.83
257.29	11562.53
257.36	11525.18
257.43	11521.76
257.5	11482.77
257.571	11456.02
257.641	11441.66
257.711	11411
257.781	11406.18
257.852	11387.05
257.922	11355.53
257.992	11343.62
258.062	11320.1
258.132	11304.54
258.202	11288.3
258.273	11271.62
258.343	11272.49
258.413	11247.77
258.483	11230.08
258.553	11203.67
258.623	11171.14
258.693	11155.67
258.764	11150.41
258.834	11146.46
258.904	11129.16
258.974	11101.5
259.044	11083.33
259.114	11076.78
259.184	11070.76
259.254	11047
259.324	11006.37
259.394	10988.98
259.464	10994.9
259.535	10971.29
259.605	10946.47
259.675	10921.27
259.745	10912.84
259.815	10886.62
259.885	10867.4
259.955	10875.59
260.025	10850.77
260.095	10837.09
260.165	10828.17
260.235	10823.31
260.305	10806.34
260.375	10771.7
260.445	10783.7
260.515	10789.62
260.585	10778.01
260.655	10756.13
260.725	10753.96
260.795	10753.24
260.865	10763.26
260.934	10731.41
261.004	10727.8
261.074	10719.46
261.144	10721.87
261.214	10718.45
261.284	10702.45
261.354	10693.3
261.424	10667.08
261.494	10668.09
261.564	10662.31
261.634	10655.52
261.703	10629.21
261.773	10622.13
261.843	10621.69
261.913	10601.99
261.983	10569.9
262.053	10561.27
262.123	10549.27
262.192	10522
262.262	10512.99
262.332	10483.65
262.402	10477.39
262.472	10465.77
262.541	10431.09
262.611	10426.22
262.681	10397.79
262.751	10382.57
262.821	10373.66
262.89	10344.07
262.96	10335.16
263.03	10328.13
263.1	10317.91
263.169	10306.01
263.239	10297.15
263.309	10302.74
263.379	10305.63
263.448	10295.51
263.518	10284.67
263.588	10264.49
263.657	10266.75
263.727	10260.29
263.797	10250.66
263.867	10232.54
263.936	10199.88
264.006	10196.37
264.076	10170.69
264.145	10155.32
264.215	10142.12
264.285	10127.53
264.354	10102.58
264.424	10081.72
264.494	10049.2
264.563	10029.21
264.633	10026.22
264.702	10009.65
264.772	9975.16
264.842	9948.57
264.911	9938.5
264.981	9912
265.05	9895.1
265.12	9875.01
265.19	9854.97
265.259	9846.73
265.329	9840.81
265.398	9830.79
265.468	9848.81
265.537	9837.87
265.607	9826.84
265.676	9826.41
265.746	9825.3
265.815	9825.11
265.885	9808.83
265.955	9797.51
266.024	9771.99
266.094	9744.53
266.163	9742.22
266.232	9741.83
266.302	9726.33
266.371	9716.07
266.441	9703.83
266.51	9704.36
266.58	9690.2
266.649	9679.27
266.719	9675.61
266.788	9667.81
266.858	9671.42
266.927	9632.89
266.996	9629.61
267.066	9630.48
267.135	9606.35
267.205	9601.78
267.274	9594.07
267.343	9594.31
267.413	9577.7
267.482	9584.87
267.552	9591.71
267.621	9561.23
267.69	9530.21
267.76	9518.22
267.829	9506.43
267.898	9495.25
267.968	9474.98
268.037	9468.19
268.106	9459.04
268.176	9435.78
268.245	9422.49
268.314	9405.2
268.384	9402.26
268.453	9392.87
268.522	9376.98
268.592	9371.78
268.661	9349.68
268.73	9332.49
268.799	9309.37
268.869	9319.29
268.938	9295.07
269.007	9272.54
269.076	9272.83
269.146	9276.44
269.215	9275.86
269.284	9285.73
269.353	9273.02
269.422	9260.46
269.492	9248.08
269.561	9214.48
269.63	9206.39
269.699	9191.27
269.768	9179.04
269.838	9176.44
269.907	9171.38
269.976	9145.91
270.045	9118.62
270.114	9111.3
270.183	9104.7
270.253	9101.19
270.322	9071.92
270.391	9062.96
270.46	9065.71
270.529	9055.41
270.598	9048.18
270.667	9037.4
270.736	9008.99
270.806	9002.59
270.875	9006.78
270.944	8994.89
271.013	9019.92
271.082	9016.98
271.151	9007.11
271.22	8985.93
271.289	8970
271.358	8953.68
271.427	8955.12
271.496	8953.24
271.565	8940.97
271.634	8937.7
271.703	8957.15
271.772	8961.62
271.841	8947.86
271.91	8928.5
271.979	8925.86
272.048	8901.12
272.117	8897.02
272.186	8887.44
272.255	8885.28
272.324	8878.73
272.393	8876.23
272.462	8857.69
272.531	8844.02
272.6	8835.98
272.669	8838.63
272.738	8826.02
272.807	8827.7
272.876	8811.2
272.945	8832.76
273.013	8831.36
273.082	8827.47
273.151	8791.22
273.22	8785.01
273.289	8779.09
273.358	8784.62
273.427	8770.62
273.496	8782.12
273.564	8778.85
273.633	8776.82
273.702	8762.14
273.771	8754.78
273.84	8746.79
273.909	8739.33
273.977	8741.78
274.046	8734.81
274.115	8740.44
274.184	8725.95
274.253	8711.46
274.322	8719.6
274.39	8691.01
274.459	8676.86
274.528	8656.55
274.597	8649.23
274.665	8647.31
274.734	8655.78
274.803	8643.98
274.872	8633.49
274.94	8611.21
275.009	8661.44
275.078	8650.46
275.147	8648.39
275.215	8646.9
275.284	8651.57
275.353	8646.08
275.421	8622.36
275.49	8633.57
275.559	8625.44
275.627	8620.19
275.696	8609.13
275.765	8603.83
275.833	8594.06
275.902	8597.29
275.971	8603.16
276.039	8618.94
276.108	8617.69
276.177	8615.96
276.245	8601.81
276.314	8599.07
276.383	8603.3
276.451	8539.89
276.52	8547.78
276.588	8552.16
276.657	8545.76
276.725	8536.14
276.794	8538.74
276.863	8548.5
276.931	8532.28
277	8536.57
277.068	8547.44
277.137	8568.33
277.205	8566.5
277.274	8583.58
277.342	8590.13
277.411	8577.47
277.48	8562.17
277.548	8555.72
277.617	8554.33
277.685	8552.5
277.754	8557.12
277.822	8552.11
277.89	8567.03
277.959	8555.39
278.027	8545.09
278.096	8538.74
278.164	8559.91
278.233	8546.63
278.301	8535.18
278.37	8539.8
278.438	8525.56
278.507	8528.01
278.575	8502.79
278.643	8500.92
278.712	8480.42
278.78	8470.89
278.849	8477.77
278.917	8482.72
278.985	8472.96
279.054	8472.72
279.122	8483.88
279.191	8476.76
279.259	8472.43
279.327	8450.87
279.396	8468.05
279.464	8459.05
279.532	8470.41
279.601	8469.92
279.669	8469.39
279.737	8487.92
279.806	8487.2
279.874	8501.3
279.942	8495.67
280.011	8497.55
280.079	8500.58
280.147	8518.82
280.215	8524.21
280.284	8517.32
280.352	8508.81
280.42	8522.91
280.488	8515.5
280.557	8508.47
280.625	8518.19
280.693	8521.7
280.761	8517.23
280.83	8496.1
280.898	8508.18
280.966	8481.72
281.034	8450.05
281.102	8435.47
281.171	8424.5
281.239	8428.64
281.307	8417.38
281.375	8407.32
281.443	8427.87
281.512	8423.1
281.58	8430.85
281.648	8411.27
281.716	8410.74
281.784	8412.95
281.852	8405.45
281.92	8404.87
281.989	8411.22
282.057	8393.61
282.125	8422.54
282.193	8427.11
282.261	8433.41
282.329	8427.44
282.397	8435.57
282.465	8440.53
282.533	8452.75
282.601	8440.05
282.67	8423.2
282.738	8413.97
282.806	8428.5
282.874	8410.02
282.942	8411.32
283.01	8399.48
283.078	8405.35
283.146	8403.81
283.214	8412.76
283.282	8411.07
283.35	8423.15
283.418	8422.09
283.486	8422.91
283.554	8395.19
283.622	8389.17
283.69	8383.3
283.758	8386.62
283.826	8393.5
283.894	8402.02
283.962	8419.01
284.03	8441.67
284.098	8441.14
284.165	8433.64
284.233	8427.58
284.301	8424.69
284.369	8416.46
284.437	8410.98
284.505	8404.1
284.573	8425.32
284.641	8406.74
284.709	8414.2
284.777	8394.09
284.845	8396.54
284.912	8407.03
284.98	8407.51
285.048	8403.13
285.116	8407.8
285.184	8414.63
285.252	8413.24
285.319	8394.47
285.387	8381.09
285.455	8356.31
285.523	8365.22
285.591	8369.4
285.659	8372.1
285.726	8384.03
285.794	8370.46
285.862	8368.1
285.93	8373.4
285.997	8360.74
286.065	8361.99
286.133	8355.01
286.201	8358
286.269	8349.24
286.336	8337.84
286.404	8332.88
286.472	8338.89
286.539	8317
286.607	8296.6
286.675	8295.59
286.743	8306.51
286.81	8306.56
286.878	8321.33
286.946	8307.24
287.013	8308.78
287.081	8308.58
287.149	8293.04
287.216	8315.46
287.284	8308.58
287.352	8300.98
287.419	8301.03
287.487	8317.68
287.555	8313.78
287.622	8302.33
287.69	8299.73
287.758	8310.08
287.825	8302.81
287.893	8296.94
287.96	8302.38
288.028	8317.53
288.096	8314.45
288.163	8314.45
288.231	8303.43
288.298	8297.42
288.366	8313.83
288.433	8307.24
288.501	8298.24
288.569	8303.87
288.636	8296.99
288.704	8312.1
288.771	8323.35
288.839	8315.22
288.906	8297.28
288.974	8309.64
289.041	8316.19
289.109	8307.14
289.176	8315.71
289.244	8321.19
289.311	8334.13
289.379	8345.1
289.446	8344.19
289.514	8351.21
289.581	8352.37
289.649	8355.78
289.716	8358.86
289.783	8348.71
289.851	8372
289.918	8374.55
289.986	8385.23
290.053	8387.16
290.121	8382.44
290.188	8384.51
290.255	8411.5
290.323	8413.28
290.39	8403.85
290.458	8410.25
290.525	8434.55
290.592	8430.17
290.66	8434.45
290.727	8424.97
290.794	8436.57
290.862	8436.62
290.929	8440.52
290.996	8438.88
291.064	8450.43
291.131	8464.67
291.198	8473.14
291.266	8468.19
291.333	8464.72
291.4	8463.09
291.468	8478.97
291.535	8479.88
291.602	8484.6
291.669	8476.7
291.737	8479.98
291.804	8484.79
291.871	8494.36
291.938	8492.97
292.006	8513.33
292.073	8522.57
292.14	8536.42
292.207	8534.07
292.275	8533.34
292.342	8540.95
292.409	8565.59
292.476	8591.05
292.543	8577.53
292.611	8585.08
292.678	8593.31
292.745	8616.22
292.812	8627.39
292.879	8620.12
292.946	8619.4
293.014	8635.23
293.081	8645.87
293.148	8661.12
293.215	8673.35
293.282	8671.57
293.349	8678.21
293.416	8666.75
293.484	8681.14
293.551	8692.89
293.618	8708.96
293.685	8731.87
293.752	8719.31
293.819	8710.5
293.886	8686.87
293.953	8697.5
294.02	8704.19
294.087	8713.72
294.154	8708.57
294.221	8719.26
294.288	8725.95
294.356	8740.44
294.423	8744.96
294.49	8730.57
294.557	8744.77
294.624	8735.24
294.691	8753.05
294.758	8761.91
294.825	8760.8
294.892	8749.3
294.959	8746.41
295.026	8749.92
295.093	8749.97
295.16	8761.66
295.226	8769.08
295.293	8797.43
295.36	8800.94
295.427	8805.9
295.494	8818.66
295.561	8834.88
295.628	8852.69
295.695	8866.12
295.762	8877.82
295.829	8881.91
295.896	8897.22
295.963	8902.08
296.03	8912.81
296.096	8916.08
296.163	8922.68
296.23	8940.59
296.297	8954.98
296.364	8954.06
296.431	8958.93
296.498	8949.49
296.564	8967.98
296.631	8966.15
296.698	8950.45
296.765	8971.39
296.832	8967.54
296.899	8949.78
296.965	8959.98
297.032	8941.06
297.099	8950.74
297.166	8950.02
297.233	8946.41
297.299	8940.2
297.366	8942.32
297.433	8949.58
297.5	8955.65
297.566	8951.03
297.633	8947.37
297.7	8949.68
297.767	8944.96
297.833	8951.46
297.9	8955.36
297.967	8938.75
298.033	8950.5
298.1	8981.7
298.167	8972.31
298.234	8974.43
298.3	8987.19
298.367	8979.24
298.434	8982.61
298.5	8973.75
298.567	8969.57
298.634	8966.92
298.7	8983.24
298.767	8980.49
298.834	8989.11
298.9	8984.34
298.967	8977.94
299.033	8986.94
299.1	9002.45
299.167	9016.07
299.233	9011.16
299.3	9020.98
299.366	9032.39
299.433	9047.22
299.5	9015.25
299.566	9021.6
299.633	9034.79
299.699	9043.56
299.766	9043.31
299.832	9052.85
299.899	9064.88
299.965	9079.81
300.032	9079.62
300.099	9084.96
300.165	9090.74
300.232	9084.67
300.298	9087.03
300.365	9102.53
300.431	9104.55
300.498	9090.25
300.564	9100.27
300.631	9109.32
300.697	9128.34
300.763	9133.78
300.83	9131.27
300.896	9141.53
300.963	9148.03
301.029	9152.6
301.096	9154.29
301.162	9159.05
301.229	9152.7
301.295	9141.96
301.361	9144.61
301.428	9140.81
301.494	9123.72
301.561	9129.83
301.627	9132.77
301.693	9134.12
301.76	9131.9
301.826	9127.76
301.892	9140.57
301.959	9142.35
302.025	9134.55
302.092	9122.13
302.158	9123.81
302.224	9116.59
302.291	9111.97
302.357	9108.5
302.423	9102.53
302.49	9100.41
302.556	9115.92
302.622	9113.94
302.688	9116.78
302.755	9123.86
302.821	9133.49
302.887	9147.3
302.954	9141.67
303.02	9150.58
303.086	9154.14
303.152	9149.42
303.219	9145.43
303.285	9154.77
303.351	9159.82
303.417	9160.02
303.483	9152.51
303.55	9145
303.616	9146.39
303.682	9146.87
303.748	9135.46
303.815	9147.69
303.881	9141.92
303.947	9126.46
304.013	9125.45
304.079	9122.22
304.145	9106.86
304.212	9110.38
304.278	9097.91
304.344	9085.06
304.41	9069.07
304.476	9056.8
304.542	9052.08
304.608	9050.54
304.674	9030.65
304.741	9028.1
304.807	9031.47
304.873	9033.88
304.939	9050.92
305.005	9039.32
305.071	9035.95
305.137	9037.54
305.203	9012.31
305.269	9011.25
305.335	9022.9
305.401	9022.85
305.467	9019.39
305.533	9021.99
305.599	9022.9
305.666	9039.46
305.732	9043.65
305.798	9052.8
305.864	9080.82
305.93	9086.4
305.996	9085.49
306.062	9086.69
306.128	9079.95
306.194	9064.45
306.259	9061.85
306.325	9051.4
306.391	9054.97
306.457	9063.87
306.523	9071.77
306.589	9096.75
306.655	9092.57
306.721	9073.5
306.787	9051.45
306.853	9063.35
306.919	9040.53
306.985	9029.17
307.051	9015.83
307.117	9007.94
307.183	9000.19
307.248	8970.62
307.314	8972.41
307.38	8972.98
307.446	8977.22
307.512	8967.35
307.578	8972.41
307.644	8963.69
307.709	8958.78
307.775	8951.22
307.841	8937.6
307.907	8927.06
307.973	8903.18
308.039	8903.8
308.104	8908.52
308.17	8916.13
308.236	8898.51
308.302	8905.44
308.368	8897.59
308.433	8892.68
308.499	8889.22
308.565	8881.95
308.631	8881.8
308.696	8858.89
308.762	8850.03
308.828	8841.08
308.894	8822.89
308.959	8797.28
309.025	8792.8
309.091	8791.79
309.156	8787.75
309.222	8793.14
309.288	8781.49
309.354	8759.55
309.419	8750.5
309.485	8730.23
309.551	8731.87
309.616	8720.37
309.682	8718.25
309.748	8706.6
309.813	8699.82
309.879	8691.44
309.945	8679.27
310.01	8672.53
310.076	8672.29
310.141	8658.71
310.207	8648.27
310.273	8650.72
310.338	8660.01
310.404	8639.46
310.469	8620.45
310.535	8604.18
310.601	8576.37
310.666	8580.27
310.732	8586.91
310.797	8574.54
310.863	8568.96
310.928	8558.41
310.994	8555.33
311.059	8552.45
311.125	8551.82
311.191	8557.55
311.256	8546.24
311.322	8547.92
311.387	8526.22
311.453	8914.35
311.518	8895.34
311.584	8884.95
311.649	8887.74
311.715	8877.35
311.78	8880.81
311.846	8866.66
311.911	8870.71
311.976	8873.26
312.042	8851.12
312.107	8844
312.173	8841.26
312.238	8828.89
312.304	8820.76
312.369	8815.8
312.434	8800.5
312.5	8793.76
312.565	8765.9
312.631	8765.8
312.696	8751.56
312.761	8757.43
312.827	8356.36
312.892	8393.12
312.958	8392.5
313.023	8383.93
313.088	8381.62
313.154	8364.35
313.219	8360.02
313.284	8349.96
313.35	8348.71
313.415	8345.54
313.48	8338.75
313.546	8334.18
313.611	8345.44
313.676	8340.05
313.741	8328.7
313.807	8333.7
313.872	8334.04
313.937	8339.67
314.003	8344.24
314.068	8343.81
314.133	8345.1
314.198	8338.8
314.264	8319.02
314.329	8306.27
314.394	8300.45
314.459	8294.05
314.525	8317.53
314.59	8317.58
314.655	8308.05
314.72	8310.5
314.785	8314.21
314.851	8302.28
314.916	8283.8
314.981	8265.28
315.046	8258.31
315.111	8249.74
315.176	8236.66
315.242	8239.45
315.307	8237.86
315.372	8219.24
315.437	8210.24
315.502	8203.17
315.567	8207.93
315.632	8186.38
315.698	8186.14
315.763	8187.05
315.828	8178.83
315.893	8171.37
315.958	8166.94
316.023	8157.18
316.088	8136.16
316.153	8110.62
316.218	8106.48
316.283	8090.47
316.348	8079.26
316.413	8069.98
316.479	8056.12
316.544	8025.68
316.609	7994.94
316.674	7955.32
316.739	7927.28
316.804	7897.8
316.869	7862.41
316.934	7827.1
316.999	7800.56
317.064	7754.54
317.129	7709.77
317.194	7673.85
317.259	7629.36
317.324	7576.91
317.389	7539.42
317.454	7511
317.518	7486.72
317.583	7465.47
317.648	7445.95
317.713	7412.83
317.778	7358.8
317.843	7328.47
317.908	7291.33
317.973	7254.32
318.038	7230.14
318.103	7198
318.168	7176.18
318.233	7144.12
318.297	7106.59
318.362	7071.37
318.427	7032.51
318.492	7012.71
318.557	6969.72
318.622	6944.21
318.687	6924.28
318.751	6886.09
318.816	6852.51
318.881	6816.72
318.946	6764.12
319.011	6719.88
319.075	6685.16
319.14	6655.92
319.205	6614.09
319.27	6591.33
319.335	6552.49
319.399	6514.46
319.464	6489.25
319.529	6438.79
319.594	6406.43
319.658	6370.67
319.723	6334.29
319.788	6308.66
319.853	6250
319.917	6228.55
319.982	6176.33
320.047	6140.53
320.112	6118.98
320.176	6073.49
320.241	6038.71
320.306	6010.49
320.37	5976.29
320.435	5941.7
320.5	5914.3
320.564	5882.79
320.629	5839.33
320.694	5816.21
320.758	5779.77
320.823	5735.6
320.888	5710.18
320.952	5664.77
321.017	5628.96
321.082	5587.3
321.146	5558.29
321.211	5532.36
321.275	5493.72
321.34	5455.96
321.405	5417.57
321.469	5372.9
321.534	5334.76
321.598	5286.32
321.663	5254.97
321.727	5225.46
321.792	5181.52
321.857	5142.38
321.921	5106.35
321.986	5064.55
322.05	5002.53
322.115	4964.27
322.179	4922.8
322.244	4867.17
322.308	4834.71
322.373	4789.13
322.437	4754.62
322.502	4726.8
322.566	4680.99
322.631	4643.27
322.695	4605.61
322.76	4565.94
322.824	4533.74
322.889	4494.94
322.953	4453.67
323.018	4390.71
323.082	4327.53
323.146	4279.29
323.211	4230.65
323.275	4186.6
323.34	4147.21
323.404	4116.29
323.468	4073.84
323.533	4036.89
323.597	3995.99
323.662	3951.02
323.726	3919.05
323.79	3879.86
323.855	3823.36
323.919	3780.98
323.983	3738.18
324.048	3674.73
324.112	3843.22
324.177	3721.17
324.241	3527.94
324.305	3344.6
324.37	3163.26
324.434	2989.42
324.498	2952.59
324.562	2908.51
324.627	2855.12
324.691	2806.07
324.755	2750.71
324.82	2688.43
324.884	2617.97
324.948	2558.5
325.012	2474.16
325.077	2368.01
