Data from 20250625_urea_1M_1_MAYP1162681_09-55-05-521.txt Node
Date: Thu Jun 26 09:55:05 BST 2025
User: adleo
Spectrometer: MAYP116268
Trigger mode: 0
Integration Time (sec): 1.000000E0
Scans to average: 1
Electric dark correction enabled: true
Nonlinearity correction enabled: true
Boxcar width: 10
XAxis mode: Wavelengths
Number of Pixels in Spectrum: 2068
>>>>>Begin Spectral Data<<<<<
179.565	1119.96
179.642	1171.9
179.718	1209.41
179.795	1248.32
179.871	1278.99
179.948	1297.6
180.024	1317.65
180.101	1338.2
180.177	1351.85
180.254	1373.77
180.33	1395.64
180.407	1444.44
180.483	1532.99
180.56	1616.9
180.636	1696.03
180.712	1683.06
180.789	1690.99
180.865	1704.72
180.942	1714.13
181.018	1722.35
181.095	1735.51
181.171	1740.83
181.248	1743.64
181.324	1760.27
181.4	1765.64
181.477	1774.77
181.553	1784.98
181.63	1803.47
181.706	1820.77
181.782	1830.28
181.859	1830.28
181.935	1836.5
182.011	1834.41
182.088	1851.53
182.164	1871.64
182.24	1885.09
182.317	1895.07
182.393	1890.27
182.469	1903.77
182.546	1915.37
182.622	1918.41
182.698	1915.75
182.775	1927.73
182.851	1938.38
182.927	1929.49
183.003	1924.69
183.08	1917.75
183.156	1925.59
183.232	1924.16
183.308	1910.28
183.385	1915.32
183.461	1932.48
183.537	1930.92
183.613	1940.57
183.69	1930.06
183.766	1919.31
183.842	1925.68
183.918	1932.29
183.995	1944.13
184.071	1948.41
184.147	1944.89
184.223	1935.86
184.299	1946.75
184.375	1934.67
184.452	1942.95
184.528	1996.31
184.604	2007.34
184.68	2019.51
184.756	2026.83
184.832	2029.59
184.908	2035.15
184.985	2036.01
185.061	2018.37
185.137	2025.79
185.213	2012.81
185.289	2015.66
185.365	2006.96
185.441	2005.11
185.517	2015.33
185.593	2016.43
185.669	2013.67
185.745	2021.8
185.822	2036.82
185.898	2027.83
185.974	2037.77
186.05	2030.68
186.126	1992.58
186.202	1985.88
186.278	1984.88
186.354	1976.7
186.43	1983.5
186.506	1979.98
186.582	1980.89
186.658	1988.16
186.734	1969.72
186.81	1974.99
186.886	1975.85
186.962	1987.83
187.038	1984.74
187.114	1976.22
187.19	1982.69
187.266	1971.66
187.341	1976.23
187.417	1967.76
187.493	1967.62
187.569	1971.95
187.645	1964.48
187.721	1955.35
187.797	1962.01
187.873	1964.48
187.949	1959.87
188.025	1952.74
188.101	1960.1
188.176	1961.96
188.252	1955.54
188.328	1964
188.404	1961.96
188.48	1958.63
188.556	1952.68
188.632	1952.54
188.707	1953.64
188.783	1950.35
188.859	1946.17
188.935	1932.52
189.011	1940.51
189.086	1936.28
189.162	1927.96
189.238	1925.72
189.314	1922.3
189.39	1917.74
189.465	1910.51
189.541	1926.2
189.617	1912.18
189.693	1906.24
189.768	1908.95
189.844	1933.39
189.92	1925.22
189.996	1936.53
190.071	1949.71
190.147	1949.94
190.223	1958.27
190.298	1952.94
190.374	1942.15
190.45	1954.31
190.526	1961.4
190.601	1958.4
190.677	1958.5
190.753	1984.9
190.828	1988.66
190.904	2002.88
190.98	2017.43
191.055	2029.27
191.131	2020.85
191.207	2041.77
191.282	2047.15
191.358	2039.49
191.433	2027.83
191.509	2042.38
191.585	2036.58
191.66	2035.15
191.736	2043.52
191.811	2034.87
191.887	2049.14
191.963	2071.59
192.038	2076.44
192.114	2077.29
192.189	2080.48
192.265	2077.29
192.34	2056.74
192.416	2057.36
192.491	2052.98
192.567	2057.55
192.642	2057.59
192.718	2056.69
192.793	2045.7
192.869	2043.99
192.944	2044.14
193.02	2053.27
193.095	2057.55
193.171	2066.25
193.246	2066.82
193.322	2060.02
193.397	2062.35
193.473	2049.41
193.548	2029.53
193.624	2036.33
193.699	2036.57
193.775	2052.03
193.85	2054.55
193.925	2062.45
194.001	2060.97
194.076	2052.27
194.152	2038.9
194.227	2036.24
194.302	2028.54
194.378	2033.39
194.453	2030.25
194.529	2044.09
194.604	2027.54
194.679	2021.83
194.755	2002.96
194.83	2012.42
194.905	2014.47
194.981	2018.65
195.056	2012.14
195.131	2019.46
195.207	2018.08
195.282	2007.67
195.357	1988.83
195.433	2002.34
195.508	1990.73
195.583	1997.82
195.659	2010.52
195.734	2017.37
195.809	2014.99
195.884	2021.98
195.96	2018.41
196.035	2034.63
196.11	2030.72
196.185	2041.95
196.261	2043.42
196.336	2073.24
196.411	2060.3
196.486	2062.97
196.561	2057.12
196.637	2068.48
196.712	2084.13
196.787	2083.18
196.862	2098.4
196.937	2108.86
197.013	2115.19
197.088	2124.65
197.163	2144.88
197.238	2163.82
197.313	2162.97
197.388	2177.91
197.464	2208.27
197.539	2220.07
197.614	2213.6
197.689	2224.97
197.764	2239.67
197.839	2256.23
197.914	2251.9
197.989	2271.08
198.065	2284.87
198.14	2333.44
198.215	2356.09
198.29	2365
198.365	2378.09
198.44	2388.03
198.515	2412.69
198.59	2426.69
198.665	2452.35
198.74	2461.73
198.815	2463.06
198.89	2486.72
198.965	2516.11
199.04	2512.88
199.115	2527.54
199.19	2569.06
199.265	2572.53
199.34	2579.63
199.415	2612.69
199.49	2633.26
199.565	2646.36
199.64	2666.41
199.715	2664.93
199.79	2671.6
199.865	2680.94
199.94	2678.56
200.015	2709.72
200.09	2715.43
200.165	2720.53
200.24	2729.54
200.315	2768.5
200.39	2782.7
200.464	2786.6
200.539	2784.65
200.614	2796.32
200.689	2819.53
200.764	2826.92
200.839	2844.78
200.914	2852.59
200.989	2845.39
201.063	2856.83
201.138	2839.07
201.213	2843.79
201.288	2823.16
201.363	2826.83
201.438	2826.35
201.512	2845.54
201.587	2827.53
201.662	2832.87
201.737	2845.92
201.812	2853.03
201.886	2819.78
201.961	2829.17
202.036	2819.98
202.111	2812.4
202.186	2786.93
202.26	2770.63
202.335	2750.56
202.41	2747.66
202.485	2733.03
202.559	2713.78
202.634	2686.77
202.709	2695.77
202.784	2673.76
202.858	2675.62
202.933	2656.52
203.008	2649.09
203.082	2629.04
203.157	2631.04
203.232	2590.38
203.306	2569.79
203.381	2536.92
203.456	2517.82
203.53	2496.9
203.605	2475.77
203.68	2456.91
203.754	2449.58
203.829	2432.68
203.904	2413.3
203.978	2398.77
204.053	2398.49
204.127	2385.11
204.202	2384.59
204.277	2369.17
204.351	2364.07
204.426	2355.98
204.5	2350.36
204.575	2317.24
204.65	2325.91
204.724	2314.38
204.799	2323.61
204.873	2319.42
204.948	2318.76
205.022	2306.81
205.097	2298.57
205.171	2316.04
205.246	2320.7
205.32	2322.75
205.395	2324.22
205.469	2315
205.544	2320.47
205.618	2310.24
205.693	2321.71
205.767	2308.91
205.842	2328.76
205.916	2324.14
205.991	2318.62
206.065	2323.86
206.14	2336.51
206.214	2330.6
206.289	2325.89
206.363	2334.51
206.438	2338.41
206.512	2346.88
206.586	2360.69
206.661	2370.59
206.735	2347.8
206.81	2353.18
206.884	2368.55
206.958	2355.18
207.033	2368.03
207.107	2373.08
207.181	2403.56
207.256	2399.42
207.33	2418.36
207.405	2429.55
207.479	2445.74
207.553	2451.45
207.628	2439.74
207.702	2452.97
207.776	2451.31
207.851	2456.45
207.925	2471.93
207.999	2470.41
208.073	2467.22
208.148	2470.74
208.222	2455.93
208.296	2486.72
208.371	2500.78
208.445	2511.35
208.519	2539.96
208.593	2553.1
208.668	2551.48
208.742	2548.52
208.816	2550.62
208.89	2565.43
208.965	2565.96
209.039	2577.39
209.113	2596.11
209.187	2616.39
209.261	2616.34
209.336	2635.1
209.41	2651.11
209.484	2651.25
209.558	2672.69
209.632	2686.98
209.707	2699.13
209.781	2725.14
209.855	2746.68
209.929	2767.57
210.003	2777.72
210.077	2782
210.151	2830.75
210.226	2866.02
210.3	2899.7
210.374	2927.67
210.448	2940.3
210.522	2960.28
210.596	2980.93
210.67	3000.38
210.744	3054.18
210.818	3096.55
210.892	3128.7
210.966	3140
211.041	3169.8
211.115	3183.3
211.189	3219.54
211.263	3255.07
211.337	3277.49
211.411	3311
211.485	3324.22
211.559	3360.96
211.633	3388.95
211.707	3388.38
211.781	3427.93
211.855	3425.64
211.929	3450.97
212.003	3467.86
212.077	3508.84
212.151	3553.02
212.225	3595.85
212.299	3623.09
212.373	3652.03
212.447	3692.64
212.52	3766.98
212.594	3821.31
212.668	3880.41
212.742	3925.76
212.816	3974.27
212.89	4027.31
212.964	4079.78
213.038	4146.3
213.112	4218.15
213.186	4291.81
213.26	4339
213.333	4357.36
213.407	4429.66
213.481	4504.36
213.555	4585.47
213.629	4650.39
213.703	4713.63
213.777	4790.53
213.85	4854.84
213.924	4969.95
213.998	5051.63
214.072	5130.47
214.146	5200.71
214.219	5284.04
214.293	5362.96
214.367	5453.21
214.441	5552.88
214.515	5630.89
214.588	5702.25
214.662	5762.29
214.736	5842.47
214.81	5946.38
214.883	6055.7
214.957	6142.52
215.031	6225.8
215.105	6303.18
215.178	6382.19
215.252	6471.29
215.326	6548.63
215.4	6630.97
215.473	6681.98
215.547	6766.87
215.621	6857.36
215.694	6964.55
215.768	7045.13
215.842	7134.25
215.915	7221.87
215.989	7300.22
216.063	7386.75
216.136	7488.23
216.21	7585.57
216.284	7695.44
216.357	7793.01
216.431	7889.87
216.504	7997.36
216.578	8126.33
216.652	8242.77
216.725	8350.88
216.799	8462.61
216.873	8563.94
216.946	8674.81
217.02	8772.58
217.093	8871.5
217.167	8949.72
217.24	9036.96
217.314	9133.38
217.387	9231.97
217.461	9323.25
217.535	9432.65
217.608	9537.15
217.682	9634.38
217.755	9750.93
217.829	9846.44
217.902	9947.01
217.976	10042.09
218.049	10135.25
218.123	10209.25
218.196	10300.69
218.27	10389.86
218.343	10469.8
218.417	10570.88
218.49	10656.11
218.563	10766.59
218.637	10867.45
218.71	10976.88
218.784	11077.07
218.857	11178.8
218.931	11274.84
219.004	11375.47
219.077	11471.18
219.151	11555.86
219.224	11641.46
219.298	11725.57
219.371	11820.47
219.444	11890.79
219.518	11980.25
219.591	12065.18
219.665	12183.13
219.738	12275.34
219.811	12350.05
219.885	12439.51
219.958	12524.79
220.031	12604.99
220.105	12686.94
220.178	12759.93
220.251	12832.04
220.325	12915.97
220.398	12999.02
220.471	13083.48
220.544	13163.65
220.618	13238.56
220.691	13321.23
220.764	13396.34
220.838	13477.9
220.911	13543.37
220.984	13635.39
221.057	13717.2
221.131	13791.58
221.204	13827.4
221.277	13915.71
221.35	14025.47
221.424	14087.28
221.497	14161.17
221.57	14233.92
221.643	14307.62
221.716	14379.4
221.79	14440.86
221.863	14497.5
221.936	14554.82
222.009	14612.81
222.082	14683.04
222.155	14731.25
222.229	14806.06
222.302	14878.51
222.375	14933.51
222.448	15003.6
222.521	15065.88
222.594	15115.29
222.667	15166.72
222.74	15230.11
222.814	15271.37
222.887	15307.81
222.96	15379.43
223.033	15440.79
223.106	15503.26
223.179	15557.68
223.252	15610.37
223.325	15662.71
223.398	15716.55
223.471	15776.66
223.544	15823.8
223.617	15867.61
223.69	15920.87
223.763	15955.38
223.837	15997.94
223.91	16036.6
223.983	16059.88
224.056	16091.3
224.129	16136.52
224.202	16180.91
224.275	16228.53
224.348	16264.34
224.42	16295.33
224.493	16318.75
224.566	16342.51
224.639	16376.83
224.712	16406.33
224.785	16440.93
224.858	16475.73
224.931	16507.64
225.004	16524.07
225.077	16562.19
225.15	16576.12
225.223	16607.93
225.296	16651.6
225.369	16661.67
225.442	16688.08
225.514	16719.22
225.587	16755.99
225.66	16798.31
225.733	16833.3
225.806	16856.77
225.879	16877.39
225.952	16900.53
226.025	16930.6
226.097	16975.95
226.17	17004.29
226.243	17015.95
226.316	17043.95
226.389	17068.77
226.461	17094.89
226.534	17122.37
226.607	17142.03
226.68	17192.2
226.753	17215.23
226.825	17223.72
226.898	17270.56
226.971	17299.33
227.044	17331.09
227.117	17350.61
227.189	17375.09
227.262	17410.13
227.335	17435.38
227.407	17467.09
227.48	17490.18
227.553	17516.49
227.626	17534.18
227.698	17559.43
227.771	17586.22
227.844	17597.26
227.916	17625.31
227.989	17636.59
228.062	17658.8
228.134	17693.98
228.207	17708.44
228.28	17724.44
228.352	17748.01
228.425	17750.9
228.498	17774.9
228.57	17780.82
228.643	17807.81
228.716	17815.62
228.788	17818.46
228.861	17826.51
228.934	17842.41
229.006	17850.08
229.079	17870.56
229.151	17870.56
229.224	17864.15
229.296	17881.59
229.369	17914.94
229.442	17937.59
229.514	17941.11
229.587	17965.54
229.659	17964.91
229.732	17971.85
229.804	17994.99
229.877	18024.53
229.949	18054.07
230.022	18083.22
230.094	18099.94
230.167	18115.17
230.239	18119.37
230.312	18132.57
230.384	18176.81
230.457	18196.09
230.529	18218.64
230.602	18223.36
230.674	18242.16
230.747	18267.41
230.819	18293.33
230.892	18272.08
230.964	18279.21
231.037	18295.45
231.109	18295.74
231.181	18311.6
231.254	18305.09
231.326	18304.51
231.399	18306.01
231.471	18303.79
231.544	18279.07
231.616	18294.15
231.688	18293.29
231.761	18289.05
231.833	18286.78
231.905	18259.7
231.978	18259.89
232.05	18256.13
232.122	18258.64
232.195	18252.52
232.267	18269.82
232.339	18256.42
232.412	18274.73
232.484	18274.25
232.556	18269.96
232.629	18297.77
232.701	18306.3
232.773	18312.32
232.846	18303.84
232.918	18301.24
232.99	18307.7
233.062	18320.13
233.135	18325.91
233.207	18319.16
233.279	18328.32
233.351	18328.71
233.424	18320.56
233.496	18304.27
233.568	18325.38
233.64	18306.63
233.713	18309.77
233.785	18294.92
233.857	18292.8
233.929	18273
234.001	18274.97
234.074	18281.67
234.146	18255.46
234.218	18241.53
234.29	18238.45
234.362	18217.14
234.434	18198.35
234.507	18178.45
234.579	18158.35
234.651	18131.9
234.723	18128.19
234.795	18122.45
234.867	18113.78
234.939	18110.4
235.012	18106.93
235.084	18096.72
235.156	18102.07
235.228	18080.91
235.3	18060.53
235.372	18051.37
235.444	18052.28
235.516	18017.59
235.588	18010.46
235.66	17986.12
235.732	17956.96
235.804	18000.62
235.876	18011.71
235.948	18011.61
236.02	17995.13
236.092	17983.03
236.164	17970.6
236.236	17950.5
236.308	17929.11
236.38	17917.4
236.452	17897.73
236.524	17884.05
236.596	17877.16
236.668	17857.69
236.74	17840.34
236.812	17827.38
236.884	17815.76
236.956	17797.98
237.028	17781.45
237.1	17755.52
237.172	17761.69
237.244	17762.65
237.316	17692.92
237.388	17662.51
237.46	17637.36
237.532	17635
237.604	17602.37
237.675	17599.19
237.747	17590.56
237.819	17567.38
237.891	17546.18
237.963	17517.36
238.035	17492.1
238.107	17429.45
238.178	17426.66
238.25	17394.99
238.322	17391.24
238.394	17355.67
238.466	17329.11
238.538	17316.92
238.609	17299.96
238.681	17262.08
238.753	17237.16
238.825	17220.3
238.897	17201.26
238.968	17195.43
239.04	17163.33
239.112	17169.16
239.184	17134.75
239.255	17109.35
239.327	17088.1
239.399	17063.38
239.471	17061.11
239.542	17039.86
239.614	17040.05
239.686	16990.8
239.758	16984.43
239.829	16951.76
239.901	16944.14
239.973	16928.96
240.044	16905.73
240.116	16880.48
240.188	16850.16
240.259	16827.46
240.331	16797.82
240.403	16786.4
240.474	16742.35
240.546	16711.26
240.618	16659.94
240.689	16628.32
240.761	16604.27
240.833	16597.57
240.904	16572.41
240.976	16540.26
241.048	16518.24
241.119	16502.77
241.191	16481.61
241.262	16470.52
241.334	16445.41
241.405	16413.07
241.477	16384.83
241.549	16351.62
241.62	16323.91
241.692	16309.02
241.763	16291.81
241.835	16274.6
241.906	16246.75
241.978	16206.4
242.049	16190.35
242.121	16185.1
242.192	16180.62
242.264	16136.42
242.335	16092.8
242.407	16071.5
242.478	16046.87
242.55	16022.77
242.621	15983.63
242.693	15958.52
242.764	15922.03
242.836	15892.63
242.907	15861.4
242.979	15840.82
243.05	15825.54
243.122	15809.34
243.193	15779.6
243.264	15733.67
243.336	15703.49
243.407	15680.99
243.479	15677.95
243.55	15653.27
243.622	15630.42
243.693	15598.85
243.764	15593.98
243.836	15564.73
243.907	15541.83
243.978	15519.13
244.05	15501.82
244.121	15464.95
244.192	15451.89
244.264	15414.96
244.335	15387.3
244.407	15348.44
244.478	15322.75
244.549	15294.02
244.62	15253.82
244.692	15230.45
244.763	15216.71
244.834	15180.17
244.906	15148.65
244.977	15128.16
245.048	15117.07
245.119	15081.64
245.191	15043.03
245.262	14996.81
245.333	14980.37
245.405	14952.8
245.476	14927.92
245.547	14909.95
245.618	14898.04
245.689	14868.97
245.761	14850.22
245.832	14825.49
245.903	14811.8
245.974	14789.29
246.045	14755.98
246.117	14744.89
246.188	14700.16
246.259	14660.83
246.33	14636.63
246.401	14608.76
246.473	14558.73
246.544	14523.78
246.615	14506.86
246.686	14481.94
246.757	14472.44
246.828	14431.95
246.899	14419.37
246.97	14375.31
247.042	14333.9
247.113	14309.27
247.184	14303.24
247.255	14281.65
247.326	14255.52
247.397	14230.64
247.468	14197.77
247.539	14181.81
247.61	14151.25
247.681	14142.67
247.752	14128.06
247.823	14091.57
247.894	14073.54
247.965	14047.61
248.037	14014.25
248.108	13976.79
248.179	13956.25
248.25	13927.72
248.321	13922.9
248.392	13887.03
248.463	13885.44
248.534	13859.46
248.605	13841.43
248.675	13812.84
248.746	13784.45
248.817	13764.68
248.888	13750.17
248.959	13713.78
249.03	13696.04
249.101	13662.87
249.172	13634.57
249.243	13593.94
249.314	13594.13
249.385	13574.56
249.456	13558.17
249.527	13533.87
249.598	13514.39
249.669	13487.78
249.739	13465.75
249.81	13443.82
249.881	13407.57
249.952	13384.09
250.023	13365.19
250.094	13328.7
250.165	13297.99
250.235	13272.54
250.306	13257.55
250.377	13220.19
250.448	13207.75
250.519	13159.16
250.59	13155.54
250.66	13131.25
250.731	13126.09
250.802	13096.35
250.873	13072.58
250.944	13050.07
251.014	13028.57
251.085	13034.45
251.156	13021.92
251.227	13014.25
251.297	13002.44
251.368	12998.73
251.439	12991.4
251.51	12980.22
251.58	12950.91
251.651	12919.09
251.722	12920.88
251.792	12879.13
251.863	12855.8
251.934	12846.59
252.005	12858.84
252.075	12836.32
252.146	12828.85
252.217	12828.37
252.287	12819.89
252.358	12800.99
252.429	12801.57
252.499	12780.65
252.57	12754.28
252.641	12736.3
252.711	12712.53
252.782	12676.67
252.852	12672.52
252.923	12640.22
252.994	12617.04
253.064	12608.07
253.135	12582.81
253.205	12549.74
253.276	12548.39
253.347	12552.59
253.417	12523.86
253.488	12499.56
253.558	12477.29
253.629	12454.83
253.699	12429.67
253.77	12415.64
253.841	12390.67
253.911	12372.55
253.982	12357.51
254.052	12350.85
254.123	12332.92
254.193	12317.3
254.264	12335.72
254.334	12306.36
254.405	12279.51
254.475	12257.63
254.546	12239.46
254.616	12235.55
254.687	12220.85
254.757	12209.18
254.827	12176.36
254.898	12163.68
254.968	12144.79
255.039	12123.53
255.109	12117.26
255.18	12086.7
255.25	12043.32
255.321	12034.36
255.391	12001.44
255.461	11996.52
255.532	11955.31
255.602	11940.75
255.673	11902.91
255.743	11873.12
255.813	11828.64
255.884	11820.59
255.954	11805.84
256.024	11799.43
256.095	11778.75
256.165	11747.95
256.235	11734.79
256.306	11719.17
256.376	11712.91
256.446	11701
256.517	11686.78
256.587	11678.59
256.657	11665.09
256.728	11656.66
256.798	11634.97
256.868	11617.72
256.938	11586
257.009	11569.86
257.079	11551.3
257.149	11557.57
257.219	11524.36
257.29	11517.56
257.36	11482.24
257.43	11473.03
257.5	11440.21
257.571	11426.47
257.641	11420.35
257.711	11389.84
257.781	11379.58
257.852	11364.4
257.922	11330.18
257.992	11311.09
258.062	11284.63
258.132	11283.33
258.202	11264.01
258.273	11248.87
258.343	11245.16
258.413	11230.08
258.483	11213.16
258.553	11192.34
258.623	11166.99
258.693	11148.78
258.764	11145.31
258.834	11151.52
258.904	11135.18
258.974	11110.8
259.044	11091.62
259.114	11081.31
259.184	11062.8
259.254	11045.7
259.324	11008.78
259.394	10999.19
259.464	10999.14
259.535	10980.2
259.605	10949.07
259.675	10926.09
259.745	10915.49
259.815	10885.03
259.885	10863.06
259.955	10877.37
260.025	10852.8
260.095	10837.33
260.165	10828.17
260.235	10830.34
260.305	10797.24
260.375	10770.93
260.445	10780.9
260.515	10773.67
260.585	10764.13
260.655	10757.58
260.725	10746.4
260.795	10741.82
260.865	10739.8
260.934	10718.93
261.004	10713.97
261.074	10704.24
261.144	10710.26
261.214	10704.86
261.284	10692
261.354	10689.01
261.424	10660
261.494	10662.17
261.564	10649.06
261.634	10641.54
261.703	10601.31
261.773	10591.24
261.843	10581.8
261.913	10559.73
261.983	10534.53
262.053	10522.53
262.123	10507.31
262.192	10487.26
262.262	10482.74
262.332	10452.48
262.402	10436.87
262.472	10416.63
262.541	10381.99
262.611	10371.88
262.681	10350.96
262.751	10345.38
262.821	10330.78
262.89	10309.96
262.96	10295.46
263.03	10298.93
263.1	10287.66
263.169	10278.41
263.239	10276.62
263.309	10277.68
263.379	10272.39
263.448	10258.27
263.518	10245.17
263.588	10224.79
263.657	10216.45
263.727	10214
263.797	10208.07
263.867	10196.61
263.936	10175.84
264.006	10180.76
264.076	10166.3
264.145	10149.73
264.215	10124.73
264.285	10114.66
264.354	10078.2
264.424	10061.39
264.494	10032.68
264.563	10014.47
264.633	10022.65
264.702	10007.63
264.772	9980.55
264.842	9964.99
264.911	9960.8
264.981	9931.85
265.05	9920.15
265.12	9909.36
265.19	9887.53
265.259	9883.63
265.329	9875.73
265.398	9863.74
265.468	9875.97
265.537	9855.84
265.607	9848.28
265.676	9850.11
265.746	9841.01
265.815	9841.73
265.885	9827.86
265.955	9805.51
266.024	9780.85
266.094	9741.93
266.163	9743.04
266.232	9743.57
266.302	9722.38
266.371	9708.32
266.441	9698.97
266.51	9695.94
266.58	9679.76
266.649	9664.54
266.719	9657.89
266.788	9646.52
266.858	9649.65
266.927	9606.74
266.996	9595.95
267.066	9588.53
267.135	9563.97
267.205	9557.28
267.274	9551.21
267.343	9547.31
267.413	9531.37
267.482	9538.36
267.552	9538.89
267.621	9515.33
267.69	9484.03
267.76	9477.29
267.829	9471.8
267.898	9465.4
267.968	9446.42
268.037	9443.92
268.106	9448.35
268.176	9422.83
268.245	9404.53
268.314	9383.63
268.384	9385.55
268.453	9377.32
268.522	9367.16
268.592	9366.72
268.661	9353.77
268.73	9342.98
268.799	9322.76
268.869	9332.01
268.938	9298.78
269.007	9284.92
269.076	9272.93
269.146	9271.29
269.215	9268.06
269.284	9267.97
269.353	9246.16
269.422	9233.45
269.492	9211.54
269.561	9161.56
269.63	9159.54
269.699	9148.61
269.768	9141.87
269.838	9136.33
269.907	9131.86
269.976	9108.65
270.045	9086.02
270.114	9075.57
270.183	9064.21
270.253	9061.52
270.322	9030.32
270.391	9029.55
270.46	9036.77
270.529	9031.86
270.598	9035.62
270.667	9019.97
270.736	9001.05
270.806	8997.58
270.875	8996.48
270.944	8987.14
271.013	9013.37
271.082	9003.02
271.151	8999.27
271.22	8976.64
271.289	8962.83
271.358	8949.73
271.427	8946.55
271.496	8935.24
271.565	8921.09
271.634	8912.19
271.703	8931.69
271.772	8939
271.841	8926.97
271.91	8896.35
271.979	8886.72
272.048	8866.65
272.117	8869.2
272.186	8857.31
272.255	8857.21
272.324	8859.14
272.393	8857.17
272.462	8842.63
272.531	8834.01
272.6	8818.03
272.669	8821.98
272.738	8810.23
272.807	8806.19
272.876	8781.64
272.945	8802.97
273.013	8805.52
273.082	8807.59
273.151	8768.45
273.22	8760.8
273.289	8750.69
273.358	8763.59
273.427	8756.85
273.496	8751.65
273.564	8741.21
273.633	8735.24
273.702	8717.67
273.771	8706.84
273.84	8699.14
273.909	8690.29
273.977	8687.49
274.046	8685.28
274.115	8685.47
274.184	8672
274.253	8665.02
274.322	8676.66
274.39	8653.85
274.459	8645.91
274.528	8622.09
274.597	8615.93
274.665	8614.96
274.734	8626.66
274.803	8610.15
274.872	8606.59
274.94	8589.36
275.009	8646.61
275.078	8636.02
275.147	8638.38
275.215	8634.24
275.284	8639.78
275.353	8637.23
275.421	8615.43
275.49	8622.79
275.559	8613.74
275.627	8608.11
275.696	8600.8
275.765	8596.76
275.833	8583.43
275.902	8572.94
275.971	8586.22
276.039	8598.49
276.108	8600.27
276.177	8597.62
276.245	8589.3
276.314	8587.08
276.383	8589.49
276.451	8524.73
276.52	8530.99
276.588	8539.51
276.657	8537.39
276.725	8532.14
276.794	8529.21
276.863	8547.78
276.931	8528.96
277	8531.85
277.068	8541.23
277.137	8557.6
277.205	8559.52
277.274	8574.97
277.342	8590.66
277.411	8568.33
277.48	8557.6
277.548	8549.61
277.617	8550.29
277.685	8547.16
277.754	8546.39
277.822	8544.32
277.89	8557.51
277.959	8546.39
278.027	8531.76
278.096	8525.55
278.164	8546.49
278.233	8537.11
278.301	8520.89
278.37	8524.35
278.438	8515.69
278.507	8514.39
278.575	8486.96
278.643	8477.34
278.712	8458.81
278.78	8442.64
278.849	8455.78
278.917	8465.93
278.985	8458.95
279.054	8455.3
279.122	8466.89
279.191	8466.32
279.259	8460.16
279.327	8440.67
279.396	8457.6
279.464	8446.15
279.532	8447.02
279.601	8442.4
279.669	8434.75
279.737	8452.36
279.806	8460.3
279.874	8472.96
279.942	8471.8
280.011	8468.87
280.079	8482.73
280.147	8499.66
280.215	8501.93
280.284	8494.18
280.352	8476.57
280.42	8483.54
280.488	8475.56
280.557	8472.28
280.625	8474.93
280.693	8478.68
280.761	8483.45
280.83	8465.74
280.898	8487.29
280.966	8473.53
281.034	8445.09
281.102	8437.88
281.171	8421.71
281.239	8420.94
281.307	8409.77
281.375	8403.28
281.443	8428.83
281.512	8422.72
281.58	8430.61
281.648	8419.59
281.716	8425.75
281.784	8429.74
281.852	8428.68
281.92	8427.72
281.989	8433.06
282.057	8412.23
282.125	8441.2
282.193	8444.33
282.261	8441.2
282.329	8430.76
282.397	8436.15
282.465	8434.22
282.533	8455.44
282.601	8448.9
282.67	8431.77
282.738	8423.73
282.806	8428.54
282.874	8413.96
282.942	8418.05
283.01	8409.44
283.078	8414.06
283.146	8405.64
283.214	8413.96
283.282	8415.6
283.35	8427.34
283.418	8426.19
283.486	8433.93
283.554	8407.8
283.622	8403.9
283.69	8406.16
283.758	8400.29
283.826	8401.78
283.894	8416.46
283.962	8425.02
284.03	8434.94
284.098	8442.83
284.165	8436.33
284.233	8438.69
284.301	8433.4
284.369	8426.9
284.437	8416.07
284.505	8405.54
284.573	8420.26
284.641	8408.52
284.709	8413.57
284.777	8402.26
284.845	8407.37
284.912	8412.56
284.98	8408.91
285.048	8394.09
285.116	8398.66
285.184	8414.63
285.252	8411.94
285.319	8387.64
285.387	8374.41
285.455	8365.99
285.523	8362.86
285.591	8358.58
285.659	8361.08
285.726	8377.1
285.794	8357.09
285.862	8359.16
285.93	8363.15
285.997	8362
286.065	8355.89
286.133	8345.88
286.201	8340.39
286.269	8327.35
286.336	8315.18
286.404	8319.08
286.472	8331.97
286.539	8314.07
286.607	8297.71
286.675	8302.09
286.743	8318.88
286.81	8316.72
286.878	8323.64
286.946	8314.46
287.013	8318.11
287.081	8311.42
287.149	8287.08
287.216	8310.27
287.284	8305.6
287.352	8306.75
287.419	8302.23
287.487	8319.07
287.555	8316.86
287.622	8310.27
287.69	8310.12
287.758	8324.51
287.825	8309.45
287.893	8298.86
287.96	8304.97
288.028	8309.69
288.096	8310.03
288.163	8305.07
288.231	8298.57
288.298	8294.48
288.366	8312.19
288.433	8307.24
288.501	8302.52
288.569	8309.54
288.636	8302.81
288.704	8318.98
288.771	8328.98
288.839	8315.99
288.906	8308.15
288.974	8323.12
289.041	8322.92
289.109	8312.15
289.176	8316.29
289.244	8330.38
289.311	8339.52
289.379	8352.03
289.446	8359.97
289.514	8361.22
289.581	8370.65
289.649	8373.64
289.716	8374.79
289.783	8363.34
289.851	8385.38
289.918	8384.85
289.986	8395.19
290.053	8397.12
290.121	8394.47
290.188	8394.76
290.255	8418.43
290.323	8409.72
290.39	8401.35
290.458	8409.24
290.525	8421.03
290.592	8416.17
290.66	8417.37
290.727	8417.66
290.794	8425.98
290.862	8425.07
290.929	8424.97
290.996	8417.99
291.064	8423.14
291.131	8434.55
291.198	8446.39
291.266	8442.87
291.333	8447.06
291.4	8448.89
291.468	8458.85
291.535	8455.67
291.602	8460.72
291.669	8459.86
291.737	8464.38
291.804	8464.53
291.871	8484.16
291.938	8492.24
292.006	8518.57
292.073	8528.68
292.14	8536.91
292.207	8529.3
292.275	8530.07
292.342	8539.65
292.409	8564.87
292.476	8585.51
292.543	8579.98
292.611	8586.77
292.678	8604.14
292.745	8629.45
292.812	8639.22
292.879	8640.23
292.946	8641.82
293.014	8648.27
293.081	8650.39
293.148	8662.03
293.215	8668.63
293.282	8657.22
293.349	8665.02
293.416	8643.55
293.484	8652.74
293.551	8664.1
293.618	8679.36
293.685	8696.88
293.752	8691.05
293.819	8685.95
293.886	8675.36
293.953	8680.9
294.02	8686.05
294.087	8692.98
294.154	8681.19
294.221	8698.13
294.288	8700.2
294.356	8714.16
294.423	8719.26
294.49	8715.79
294.557	8735.38
294.624	8734.42
294.691	8751.56
294.758	8755.69
294.825	8766.33
294.892	8764.21
294.959	8760.94
295.026	8764.6
295.093	8760.75
295.16	8762.09
295.226	8759.5
295.293	8789.82
295.36	8796.71
295.427	8810.23
295.494	8825.11
295.561	8834.21
295.628	8856.5
295.695	8868.97
295.762	8875.61
295.829	8888.03
295.896	8900.35
295.963	8906.32
296.03	8923.12
296.096	8927.36
296.163	8932.07
296.23	8945.41
296.297	8953.64
296.364	8956.09
296.431	8960.43
296.498	8955.76
296.564	8975.83
296.631	8988.01
296.698	8959.8
296.765	8976.79
296.832	8964.61
296.899	8942.7
296.965	8961.43
297.032	8933.74
297.099	8948.04
297.166	8952.62
297.233	8947.13
297.299	8941.69
297.366	8934.23
297.433	8930.09
297.5	8942.08
297.566	8950.26
297.633	8948
297.7	8946.55
297.767	8941.6
297.833	8952.96
297.9	8955.65
297.967	8940.3
298.033	8951.71
298.1	8977.08
298.167	8968.75
298.234	8973.8
298.3	8985.4
298.367	8979.48
298.434	8987.86
298.5	8976.83
298.567	8966.48
298.634	8963.31
298.7	8978.9
298.767	8987.38
298.834	8999.51
298.9	8994.16
298.967	8981.7
299.033	8989.11
299.1	9004.03
299.167	9017.08
299.233	9012.51
299.3	9028.68
299.366	9043.26
299.433	9055.5
299.5	9036.53
299.566	9036.38
299.633	9049.62
299.699	9058.53
299.766	9047.84
299.832	9048.47
299.899	9055.98
299.965	9070.42
300.032	9067.72
300.099	9076.49
300.165	9080.44
300.232	9071.14
300.298	9068.69
300.365	9080.92
300.431	9078.27
300.498	9073.98
300.564	9080.24
300.631	9086.5
300.697	9093.34
300.763	9096.51
300.83	9096.18
300.896	9109.85
300.963	9124.82
301.029	9132.81
301.096	9129.97
301.162	9146.01
301.229	9142.49
301.295	9136.57
301.361	9137.72
301.428	9144.32
301.494	9127.61
301.561	9130.12
301.627	9135.41
301.693	9142.35
301.76	9145.47
301.826	9144.17
301.892	9155.15
301.959	9156.36
302.025	9150.87
302.092	9147.02
302.158	9152.7
302.224	9145.81
302.291	9133.1
302.357	9124.92
302.423	9107.54
302.49	9103.78
302.556	9111.48
302.622	9111.44
302.688	9120.3
302.755	9131.56
302.821	9136.42
302.887	9142.88
302.954	9135.85
303.02	9144.7
303.086	9147.11
303.152	9142.92
303.219	9141.29
303.285	9143.07
303.351	9148.03
303.417	9153.18
303.483	9144.27
303.55	9138.21
303.616	9132.48
303.682	9131.8
303.748	9121.26
303.815	9142.06
303.881	9145.14
303.947	9128.87
304.013	9128.19
304.079	9120.2
304.145	9098.01
304.212	9095.31
304.278	9094.73
304.344	9087.75
304.41	9068.11
304.476	9054.2
304.542	9048.32
304.608	9045.72
304.674	9025.45
304.741	9024.59
304.807	9023.67
304.873	9029.26
304.939	9040.38
305.005	9023.14
305.071	9025.89
305.137	9029.06
305.203	8997.19
305.269	8999.36
305.335	9012.41
305.401	9009.95
305.467	9002.3
305.533	9012.89
305.599	9014.19
305.666	9015.2
305.732	9017.32
305.798	9026.03
305.864	9048.85
305.93	9049.86
305.996	9046.93
306.062	9048.71
306.128	9040.43
306.194	9028.73
306.259	9027.24
306.325	9016.02
306.391	9022.42
306.457	9028.29
306.523	9027.81
306.589	9055.45
306.655	9045.77
306.721	9024.01
306.787	9008.6
306.853	9025.07
306.919	9011.21
306.985	9008.94
307.051	8998.35
307.117	8985.16
307.183	8980.78
307.248	8954.93
307.314	8962.44
307.38	8971.92
307.446	8979.77
307.512	8965.95
307.578	8964.94
307.644	8954.35
307.709	8955.89
307.775	8951.75
307.841	8947.32
307.907	8949.15
307.973	8926.82
308.039	8919.31
308.104	8927.25
308.17	8932.25
308.236	8917.09
308.302	8912.95
308.368	8897.79
308.433	8897.06
308.499	8896.1
308.565	8883.97
308.631	8884.16
308.696	8858.75
308.762	8834.44
308.828	8825.05
308.894	8810.33
308.959	8785.4
309.025	8777.21
309.091	8763.83
309.156	8758.49
309.222	8758.15
309.288	8742.99
309.354	8722.53
309.419	8722.49
309.485	8712.28
309.551	8710.84
309.616	8689.32
309.682	8689.47
309.748	8683.4
309.813	8673.92
309.879	8662.81
309.945	8652.46
310.01	8648.46
310.076	8650.58
310.141	8656.26
310.207	8639.94
310.273	8641.77
310.338	8646.25
310.404	8632.29
310.469	8625.12
310.535	8617.47
310.601	8589.65
310.666	8600.33
310.732	8608.8
310.797	8599.51
310.863	8583.92
310.928	8572.37
310.994	8575.4
311.059	8567.37
311.125	8562.79
311.191	8579.78
311.256	8570.07
311.322	8575.5
311.387	8550.67
311.453	8800.56
311.518	8771.25
311.584	8770.44
311.649	8779.72
311.715	8767.79
311.78	8767.79
311.846	8761.25
311.911	8763.12
311.976	8768.9
312.042	8745.99
312.107	8729.34
312.173	8713.51
312.238	8710.67
312.304	8707.59
312.369	8697.25
312.434	8684.25
312.5	8673.76
312.565	8635.94
312.631	8639.07
312.696	8630.07
312.761	8632.67
312.827	8369.74
312.892	8407.66
312.958	8401.88
313.023	8394.04
313.088	8397.17
313.154	8375.04
313.219	8359.98
313.284	8347.51
313.35	8335.82
313.415	8325.91
313.48	8325.86
313.546	8328.99
313.611	8329.86
313.676	8318.45
313.741	8313.35
313.807	8320.81
313.872	8327.11
313.937	8331.59
314.003	8340.92
314.068	8339.29
314.133	8344.58
314.198	8334.72
314.264	8307.24
314.329	8291.74
314.394	8284.62
314.459	8278.66
314.525	8300.69
314.59	8298.09
314.655	8285.58
314.72	8292.41
314.785	8294.58
314.851	8284.09
314.916	8263.6
314.981	8243.44
315.046	8233.72
315.111	8222.71
315.176	8210.63
315.242	8209.48
315.307	8206.11
315.372	8186.48
315.437	8177.53
315.502	8165.98
315.567	8172.81
315.632	8158.33
315.698	8160.16
315.763	8154.87
315.828	8152.51
315.893	8149.62
315.958	8144.14
316.023	8137.21
316.088	8116.77
316.153	8096.18
316.218	8088.1
316.283	8073.72
316.348	8064.3
316.413	8063.48
316.479	8052.61
316.544	8019.23
316.609	7993.64
316.674	7963.39
316.739	7931.85
316.804	7908.81
316.869	7871.01
316.934	7840.66
316.999	7811.57
317.064	7773.53
317.129	7729.38
317.194	7689.62
317.259	7643.79
317.324	7595.81
317.389	7554.08
317.454	7518.99
317.518	7492.69
317.583	7471.05
317.648	7454.9
317.713	7427.55
317.778	7372.6
317.843	7343.81
317.908	7314.83
317.973	7278.63
318.038	7254.94
318.103	7218.76
318.168	7183.05
318.233	7164.02
318.297	7113.46
318.362	7085.21
318.427	7042.6
318.492	7021.74
318.557	6980.29
318.622	6954.73
318.687	6932.87
318.751	6898.15
318.816	6866.4
318.881	6835.32
318.946	6784.73
319.011	6742.41
319.075	6702.5
319.14	6672.44
319.205	6627.2
319.27	6593.69
319.335	6547.11
319.399	6504.81
319.464	6480.37
319.529	6430.26
319.594	6385.99
319.658	6361.65
319.723	6320.56
319.788	6291.91
319.853	6243.95
319.917	6213.1
319.982	6164.52
320.047	6132.8
320.112	6106.12
320.176	6059.25
320.241	6026.95
320.306	5999.27
320.37	5958.34
320.435	5931.91
320.5	5907.82
320.564	5875.01
320.629	5836.02
320.694	5816.21
320.758	5781.97
320.823	5743.03
320.888	5721.31
320.952	5680.94
321.017	5640.71
321.082	5603.6
321.146	5573.68
321.211	5539.79
321.275	5506.48
321.34	5468
321.405	5431.23
321.469	5388.2
321.534	5355.14
321.598	5302.91
321.663	5271.85
321.727	5244.92
321.792	5195.37
321.857	5150.9
321.921	5110.76
321.986	5070.82
322.05	5011.87
322.115	4972.31
322.179	4931.37
322.244	4874.54
322.308	4841.31
322.373	4795.74
322.437	4756.44
322.502	4735.7
322.566	4691.42
322.631	4654.09
322.695	4614.81
322.76	4567.19
322.824	4537.52
322.889	4493.95
322.953	4455.68
323.018	4392.25
323.082	4331.36
323.146	4283.07
323.211	4236.72
323.275	4197.08
323.34	4157.69
323.404	4123.13
323.468	4085.64
323.533	4042.53
323.597	4001.73
323.662	3954.8
323.726	3926.56
323.79	3886.75
323.855	3821.63
323.919	3775.01
323.983	3733.5
324.048	3671.1
324.112	3839.34
324.177	3718.86
324.241	3531.07
324.305	3342.18
324.37	3161.37
324.434	2984.95
324.498	2947.08
324.562	2900.42
324.627	2847.29
324.691	2796.82
324.755	2741.42
324.82	2670.67
324.884	2605.01
324.948	2545.98
325.012	2464.57
325.077	2352.6
