Data from 20250625_urea_1M_1_MAYP1162681_01-25-05-998.txt Node
Date: Thu Jun 26 01:25:05 BST 2025
User: adleo
Spectrometer: MAYP116268
Trigger mode: 0
Integration Time (sec): 1.000000E0
Scans to average: 1
Electric dark correction enabled: true
Nonlinearity correction enabled: true
Boxcar width: 10
XAxis mode: Wavelengths
Number of Pixels in Spectrum: 2068
>>>>>Begin Spectral Data<<<<<
179.565	1119.61
179.642	1174.15
179.718	1214
179.795	1251.08
179.871	1278.36
179.948	1297.12
180.024	1315.9
180.101	1338.14
180.177	1349.38
180.254	1369.01
180.33	1390.54
180.407	1438.48
180.483	1528.55
180.56	1612.59
180.636	1694.2
180.712	1681.84
180.789	1690.44
180.865	1701.99
180.942	1709.87
181.018	1720.42
181.095	1730.54
181.171	1737.67
181.248	1736.72
181.324	1750.89
181.4	1756.07
181.477	1769.47
181.553	1780.21
181.63	1798.84
181.706	1810.77
181.782	1821.31
181.859	1820.7
181.935	1826.07
182.011	1822.6
182.088	1837.52
182.164	1856.26
182.24	1866.1
182.317	1874.65
182.393	1873.37
182.469	1886.44
182.546	1899.51
182.622	1901.17
182.698	1897.85
182.775	1907.45
182.851	1920.24
182.927	1915.2
183.003	1910.21
183.08	1902.17
183.156	1909.92
183.232	1909.35
183.308	1902.22
183.385	1907.59
183.461	1926.04
183.537	1924.57
183.613	1938.26
183.69	1928.8
183.766	1916.91
183.842	1924.85
183.918	1930.03
183.995	1943.1
184.071	1946.96
184.147	1940.87
184.223	1931.22
184.299	1945.68
184.375	1935.84
184.452	1942.74
184.528	1994.29
184.604	2005.89
184.68	2015.78
184.756	2023.44
184.832	2028.38
184.908	2031.66
184.985	2032.71
185.061	2016.21
185.137	2027.05
185.213	2013.03
185.289	2012.17
185.365	2006.75
185.441	2003.42
185.517	2016.98
185.593	2013.89
185.669	2010.04
185.745	2020.07
185.822	2036.9
185.898	2026.53
185.974	2034.94
186.05	2027.85
186.126	1992.28
186.202	1984.19
186.278	1983.29
186.354	1975.78
186.43	1978.44
186.506	1976.4
186.582	1972.97
186.658	1980.44
186.734	1963.75
186.81	1969.36
186.886	1976.73
186.962	1987.18
187.038	1983.52
187.114	1975.1
187.19	1980.62
187.266	1973.73
187.341	1973.87
187.417	1964.6
187.493	1965.36
187.569	1968.07
187.645	1963.41
187.721	1949.67
187.797	1959.89
187.873	1960.41
187.949	1955.13
188.025	1950.9
188.101	1953.8
188.176	1959.6
188.252	1955.13
188.328	1959.03
188.404	1955.94
188.48	1947.43
188.556	1941.25
188.632	1941.49
188.707	1940.01
188.783	1936.59
188.859	1930.65
188.935	1917.76
189.011	1928.08
189.086	1922.51
189.162	1917.14
189.238	1913.48
189.314	1912.29
189.39	1905.64
189.465	1903.12
189.541	1913.2
189.617	1900.07
189.693	1895.08
189.768	1901.03
189.844	1924
189.92	1917.06
189.996	1928.33
190.071	1940.98
190.147	1941.07
190.223	1949.35
190.298	1945.26
190.374	1933.61
190.45	1946.59
190.526	1956.48
190.601	1950.01
190.677	1948.96
190.753	1974.08
190.828	1976.65
190.904	1988.87
190.98	2002.38
191.055	2009.37
191.131	2006.56
191.207	2024.77
191.282	2034.66
191.358	2024.54
191.433	2012.83
191.509	2025.43
191.585	2020.91
191.66	2021.96
191.736	2029.23
191.811	2021.86
191.887	2037.03
191.963	2060.15
192.038	2063.71
192.114	2064.85
192.189	2069.66
192.265	2068.33
192.34	2047.96
192.416	2046.68
192.491	2044.11
192.567	2044.3
192.642	2048.05
192.718	2044.35
192.793	2032.65
192.869	2026.56
192.944	2028.22
193.02	2034.08
193.095	2036.79
193.171	2044.4
193.246	2046.35
193.322	2041.21
193.397	2042.3
193.473	2030.6
193.548	2014
193.624	2019.9
193.699	2018.71
193.775	2030.51
193.85	2032.65
193.925	2039.69
194.001	2037.12
194.076	2028.08
194.152	2020.28
194.227	2016.53
194.302	2010.16
194.378	2013.82
194.453	2012.91
194.529	2025.8
194.604	2010.96
194.679	2005.73
194.755	1985.24
194.83	1995.62
194.905	1997.76
194.981	2004.13
195.056	1996.28
195.131	2001.28
195.207	1998.47
195.282	1985.68
195.357	1970.32
195.433	1983.39
195.508	1970.41
195.583	1982.77
195.659	1998.33
195.734	2007.89
195.809	2004.37
195.884	2012.5
195.96	2014.45
196.035	2030.9
196.11	2028.05
196.185	2039.7
196.261	2041.65
196.336	2071.8
196.411	2058
196.486	2061.47
196.561	2058
196.637	2068.03
196.712	2084.21
196.787	2089.11
196.862	2110.17
196.937	2118.83
197.013	2127.63
197.088	2140.57
197.163	2159.89
197.238	2175.17
197.313	2171.32
197.388	2187.11
197.464	2217.24
197.539	2227.61
197.614	2217.19
197.689	2228.37
197.764	2242.46
197.839	2263.39
197.914	2258.2
197.989	2277
198.065	2293.56
198.14	2341.8
198.215	2364.22
198.29	2372.98
198.365	2385.45
198.44	2391.25
198.515	2415.86
198.59	2427.91
198.665	2448.33
198.74	2456.52
198.815	2457.05
198.89	2481.56
198.965	2507.66
199.04	2504.8
199.115	2519.75
199.19	2558.74
199.265	2562.93
199.34	2573.17
199.415	2603.33
199.49	2625.32
199.565	2634.28
199.64	2653.95
199.715	2646.66
199.79	2653.04
199.865	2661.47
199.94	2659.14
200.015	2693.44
200.09	2701.87
200.165	2705.64
200.24	2716.26
200.315	2754.69
200.39	2770.66
200.464	2774.42
200.539	2777.42
200.614	2791.91
200.689	2812.11
200.764	2824.08
200.839	2838.37
200.914	2842.22
200.989	2834.6
201.063	2845.61
201.138	2831.75
201.213	2832.04
201.288	2817.03
201.363	2823.46
201.438	2820.84
201.512	2836.32
201.587	2815.25
201.662	2818.45
201.737	2834.41
201.812	2843.04
201.886	2809.37
201.961	2819.62
202.036	2809.43
202.111	2802.37
202.186	2773.37
202.26	2757.26
202.335	2736.05
202.41	2731.24
202.485	2718.33
202.559	2699.56
202.634	2674.17
202.709	2682.55
202.784	2664.59
202.858	2661.74
202.933	2643.25
203.008	2641.02
203.082	2623.63
203.157	2626.97
203.232	2588.21
203.306	2567.91
203.381	2536.66
203.456	2513.71
203.53	2488.87
203.605	2466.84
203.68	2446.93
203.754	2443.51
203.829	2428.79
203.904	2409.85
203.978	2399.23
204.053	2403.18
204.127	2392.85
204.202	2389.33
204.277	2373.52
204.351	2366.43
204.426	2359.67
204.5	2353.39
204.575	2317.22
204.65	2325.27
204.724	2313.79
204.799	2322.07
204.873	2315.78
204.948	2311.83
205.022	2303.65
205.097	2295.7
205.171	2313.06
205.246	2320.78
205.32	2318.83
205.395	2319.92
205.469	2311.93
205.544	2317.03
205.618	2296.51
205.693	2303.89
205.767	2295.47
205.842	2313.89
205.916	2306.51
205.991	2297.14
206.065	2301.76
206.14	2317.35
206.214	2314.35
206.289	2309.21
206.363	2318.59
206.438	2322.21
206.512	2332.49
206.586	2346.43
206.661	2357.05
206.735	2333.5
206.81	2335.69
206.884	2348.26
206.958	2337.6
207.033	2353.16
207.107	2361.06
207.181	2393.87
207.256	2392.77
207.33	2412.19
207.405	2425.1
207.479	2445.76
207.553	2457.23
207.628	2444.95
207.702	2457.66
207.776	2450.95
207.851	2454.66
207.925	2470.71
207.999	2465.81
208.073	2461.29
208.148	2469.62
208.222	2454.52
208.296	2487.17
208.371	2503.23
208.445	2514.8
208.519	2540.03
208.593	2551.31
208.668	2546.98
208.742	2551.32
208.816	2551.27
208.89	2562.32
208.965	2564.08
209.039	2574.14
209.113	2589.71
209.187	2611.75
209.261	2611.04
209.336	2635.9
209.41	2657.34
209.484	2661.58
209.558	2686.92
209.632	2703.16
209.707	2716.21
209.781	2744.94
209.855	2768.34
209.929	2793.29
210.003	2806.44
210.077	2815.11
210.151	2870.78
210.226	2914.12
210.3	2949
210.374	2985.26
210.448	3007.34
210.522	3033.48
210.596	3060.71
210.67	3091.13
210.744	3155.44
210.818	3209.42
210.892	3250.36
210.966	3271.2
211.041	3312.38
211.115	3342.19
211.189	3398.12
211.263	3449.85
211.337	3493.43
211.411	3545.09
211.485	3576.05
211.559	3634.62
211.633	3687.12
211.707	3707.96
211.781	3766.47
211.855	3791.51
211.929	3846.97
212.003	3892.01
212.077	3961.04
212.151	4042.52
212.225	4124
212.299	4183.67
212.373	4247.12
212.447	4322.86
212.52	4433.71
212.594	4523.87
212.668	4627.91
212.742	4708.56
212.816	4800.25
212.89	4893.32
212.964	4996.29
213.038	5108.21
213.112	5226.72
213.186	5346.73
213.26	5444.33
213.333	5518.29
213.407	5646.89
213.481	5770.92
213.555	5910.53
213.629	6031.11
213.703	6151.93
213.777	6283.85
213.85	6406.55
213.924	6579.09
213.998	6723.95
214.072	6864.05
214.146	6999.53
214.219	7145.67
214.293	7294.48
214.367	7452.87
214.441	7621.31
214.515	7765.48
214.588	7906.19
214.662	8030.94
214.736	8180.19
214.81	8346.88
214.883	8523.21
214.957	8673.76
215.031	8827.59
215.105	8970.23
215.178	9126.48
215.252	9280.45
215.326	9423.84
215.4	9572.37
215.473	9694.13
215.547	9847.05
215.621	10003.37
215.694	10173.94
215.768	10314.42
215.842	10469.54
215.915	10621.75
215.989	10759.41
216.063	10916.31
216.136	11075.9
216.21	11240.51
216.284	11406.77
216.357	11572.6
216.431	11726.73
216.504	11897.77
216.578	12079.05
216.652	12249.86
216.725	12406.99
216.799	12564.47
216.873	12716.84
216.946	12878.75
217.02	13030.2
217.093	13177.95
217.167	13305.89
217.24	13441.25
217.314	13584.37
217.387	13723.1
217.461	13856.82
217.535	14007.85
217.608	14134.58
217.682	14277.08
217.755	14420.73
217.829	14542.15
217.902	14670.14
217.976	14809.35
218.049	14936.07
218.123	15044.58
218.196	15174.87
218.27	15290.8
218.343	15410.34
218.417	15542.17
218.49	15664.98
218.563	15802.21
218.637	15918.56
218.71	16059.06
218.784	16181.43
218.857	16308.68
218.931	16432.35
219.004	16546.24
219.077	16668.37
219.151	16781.78
219.224	16878.27
219.298	16979.48
219.371	17100.78
219.444	17194.96
219.518	17288.16
219.591	17378.91
219.665	17503.54
219.738	17602.24
219.811	17686.38
219.885	17784.84
219.958	17871.68
220.031	17961.41
220.105	18048.83
220.178	18143.24
220.251	18219.04
220.325	18315.14
220.398	18403.76
220.471	18477.73
220.544	18571.51
220.618	18645.29
220.691	18730.01
220.764	18806.92
220.838	18891.68
220.911	18954.33
220.984	19038.95
221.057	19127.62
221.131	19200.24
221.204	19239.52
221.277	19319.23
221.35	19421.82
221.424	19481.19
221.497	19556.37
221.57	19615.07
221.643	19673.38
221.716	19732.94
221.79	19785.61
221.863	19830.62
221.936	19868.36
222.009	19924.5
222.082	19968.3
222.155	20006.33
222.229	20059.24
222.302	20110.27
222.375	20156.44
222.448	20202.9
222.521	20253.93
222.594	20281.88
222.667	20310.61
222.74	20354.99
222.814	20388.97
222.887	20419.72
222.96	20467.04
223.033	20509.98
223.106	20547.24
223.179	20589.36
223.252	20621.07
223.325	20650.47
223.398	20683.87
223.471	20723.29
223.544	20741.79
223.617	20775.82
223.69	20802.37
223.763	20818.13
223.837	20850.62
223.91	20880.55
223.983	20897.9
224.056	20904.35
224.129	20933.37
224.202	20959.97
224.275	20975.78
224.348	20980.45
224.42	20989.18
224.493	20981.22
224.566	20983.25
224.639	21002.29
224.712	21006.96
224.785	21011.78
224.858	21025.56
224.931	21026.48
225.004	21027.93
225.077	21047.69
225.15	21023.44
225.223	21030.58
225.296	21067.35
225.369	21045.9
225.442	21035.64
225.514	21041.57
225.587	21049.23
225.66	21052.12
225.733	21056.65
225.806	21065.13
225.879	21067.26
225.952	21051.3
226.025	21073.47
226.097	21085.96
226.17	21078.68
226.243	21055.01
226.316	21061.91
226.389	21068.32
226.461	21067.16
226.534	21063.11
226.607	21063.93
226.68	21090.53
226.753	21085.09
226.825	21055.54
226.898	21078.97
226.971	21078.15
227.044	21081.52
227.117	21085.42
227.189	21085.57
227.262	21107.11
227.335	21108.32
227.407	21106.68
227.48	21114.34
227.553	21114.34
227.626	21107.21
227.698	21104.27
227.771	21113.72
227.844	21096.8
227.916	21086.58
227.989	21080.12
228.062	21081.57
228.134	21093.33
228.207	21077.33
228.28	21078.05
228.352	21074.72
228.425	21069.33
228.498	21076.12
228.57	21065.86
228.643	21059.88
228.716	21051.98
228.788	21027.35
228.861	21008.45
228.934	21002.19
229.006	20981.18
229.079	20963.39
229.151	20947.49
229.224	20938.91
229.296	20940.45
229.369	20964.31
229.442	20962.43
229.514	20945.46
229.587	20951.44
229.659	20914.71
229.732	20912.74
229.804	20917.51
229.877	20922.09
229.949	20918.52
230.022	20928.93
230.094	20914.23
230.167	20909.13
230.239	20889.8
230.312	20879.34
230.384	20905.03
230.457	20900.98
230.529	20911.39
230.602	20907.78
230.674	20897.56
230.747	20887.49
230.819	20879.73
230.892	20833.75
230.964	20822.33
231.037	20810.37
231.109	20789.31
231.181	20785.89
231.254	20760.54
231.326	20722.85
231.399	20715.34
231.471	20688.92
231.544	20644.92
231.616	20640.05
231.688	20621.26
231.761	20594.9
231.833	20580.34
231.905	20529.84
231.978	20514.41
232.05	20485.35
232.122	20459.52
232.195	20437.93
232.267	20434.17
232.339	20414.41
232.412	20407.23
232.484	20378.99
232.556	20355.28
232.629	20355.38
232.701	20350.03
232.773	20332.15
232.846	20321.88
232.918	20289.35
232.99	20273.69
233.062	20250.17
233.135	20243.18
233.207	20218.13
233.279	20209.21
233.351	20189.6
233.424	20164.63
233.496	20129.4
233.568	20129.36
233.64	20097.84
233.713	20073.79
233.785	20037.21
233.857	20003
233.929	19965.22
234.001	19960.4
234.074	19955.19
234.146	19902.71
234.218	19878.67
234.29	19857.27
234.362	19830.96
234.434	19799.73
234.507	19762.24
234.579	19726.24
234.651	19682.1
234.723	19660.8
234.795	19644.56
234.867	19616.8
234.939	19606.68
235.012	19585.72
235.084	19551.31
235.156	19534.92
235.228	19500.03
235.3	19476.61
235.372	19466.83
235.444	19458.88
235.516	19409.1
235.588	19383.65
235.66	19366.07
235.732	19326.02
235.804	19354.55
235.876	19335.37
235.948	19323.27
236.02	19302.45
236.092	19282.5
236.164	19254.94
236.236	19219.18
236.308	19181.88
236.38	19166.56
236.452	19129.02
236.524	19098.66
236.596	19084.64
236.668	19063.05
236.74	19038.33
236.812	19015.92
236.884	18981.75
236.956	18953.71
237.028	18923.49
237.1	18883.16
237.172	18872.65
237.244	18867.4
237.316	18801.86
237.388	18758.54
237.46	18719.79
237.532	18701.24
237.604	18662.83
237.675	18652.62
237.747	18641.82
237.819	18602.02
237.891	18562.11
237.963	18529.34
238.035	18500.67
238.107	18440.77
238.178	18424.05
238.25	18401.69
238.322	18400.53
238.394	18363.62
238.466	18324.15
238.538	18313.07
238.609	18295.77
238.681	18239.53
238.753	18191.43
238.825	18166.18
238.897	18140.88
238.968	18121.22
239.04	18084.79
239.112	18084.31
239.184	18037.37
239.255	17998.24
239.327	17978.72
239.399	17951.3
239.471	17928.75
239.542	17909.61
239.614	17899.73
239.686	17838.34
239.758	17811.93
239.829	17753.52
239.901	17734.53
239.973	17711.31
240.044	17678.54
240.116	17642.39
240.188	17620.46
240.259	17587.26
240.331	17540.47
240.403	17522.73
240.474	17473.48
240.546	17430.06
240.618	17383.31
240.689	17348.66
240.761	17324.13
240.833	17312.42
240.904	17279.98
240.976	17245.86
241.048	17211.55
241.119	17182.68
241.191	17166.25
241.262	17156.46
241.334	17122.49
241.405	17090.87
241.477	17052.7
241.549	17019.64
241.62	16990.43
241.692	16964.99
241.763	16953.52
241.835	16928.84
241.906	16896.99
241.978	16854.57
242.049	16839.05
242.121	16817.41
242.192	16809.46
242.264	16762.18
242.335	16708.44
242.407	16681.84
242.478	16654.61
242.55	16622.22
242.621	16583.91
242.693	16547.28
242.764	16507.61
242.836	16472.04
242.907	16441.24
242.979	16415.17
243.05	16383.99
243.122	16357.67
243.193	16320.37
243.264	16262.63
243.336	16238.58
243.407	16213.99
243.479	16209.71
243.55	16192.45
243.622	16175.39
243.693	16144.2
243.764	16126.47
243.836	16091.62
243.907	16068.34
243.978	16035.27
244.05	16018.12
244.121	15973.58
244.192	15961.14
244.264	15910.44
244.335	15893.76
244.407	15858.34
244.478	15834.57
244.549	15803.34
244.62	15766.51
244.692	15741.98
244.763	15734.46
244.834	15702.31
244.906	15667.46
244.977	15642.35
245.048	15625.05
245.119	15579.11
245.191	15540.84
245.262	15496.35
245.333	15486.23
245.405	15449.4
245.476	15438.41
245.547	15407.47
245.618	15388.57
245.689	15357.1
245.761	15344.85
245.832	15314.92
245.903	15288.26
245.974	15262.77
246.045	15240.26
246.117	15227.48
246.188	15187.62
246.259	15143.9
246.33	15105.62
246.401	15076.65
246.473	15031.34
246.544	14993.41
246.615	14991.14
246.686	14959.67
246.757	14954.51
246.828	14914.11
246.899	14905.58
246.97	14848.17
247.042	14811.97
247.113	14799.2
247.184	14795.63
247.255	14758.46
247.326	14730.41
247.397	14708.14
247.468	14678.49
247.539	14651.06
247.61	14609.85
247.681	14594.23
247.752	14576.88
247.823	14547.18
247.894	14523.32
247.965	14488.66
248.037	14460.22
248.108	14406.86
248.179	14382.37
248.25	14344.91
248.321	14325.53
248.392	14282.54
248.463	14284.8
248.534	14264.41
248.605	14244.21
248.675	14211.72
248.746	14198.32
248.817	14182.03
248.888	14159.61
248.959	14122.2
249.03	14103.07
249.101	14082.82
249.172	14050.91
249.243	14013.45
249.314	14006.75
249.385	13984
249.456	13974.26
249.527	13944.56
249.598	13923.11
249.669	13895.83
249.739	13883.87
249.81	13873.65
249.881	13842.46
249.952	13818.75
250.023	13789.68
250.094	13749.76
250.165	13710.47
250.235	13673.11
250.306	13650.7
250.377	13616.76
250.448	13600.95
250.519	13557.18
250.59	13548.16
250.66	13532.16
250.731	13521.41
250.802	13496.29
250.873	13476.72
250.944	13460.09
251.014	13433.29
251.085	13442.98
251.156	13423.69
251.227	13411.02
251.297	13394.62
251.368	13387.73
251.439	13375.63
251.51	13367.58
251.58	13338.37
251.651	13311.66
251.722	13311.18
251.792	13271.36
251.863	13249.33
251.934	13238.48
252.005	13256.85
252.075	13233.66
252.146	13220.26
252.217	13208.36
252.287	13187.24
252.358	13162.61
252.429	13154.36
252.499	13127.56
252.57	13097.53
252.641	13086.97
252.711	13066.53
252.782	13028.3
252.852	13020.5
252.923	12998.18
252.994	12985.26
253.064	12979.28
253.135	12963.18
253.205	12933.53
253.276	12933.68
253.347	12931.51
253.417	12903.93
253.488	12869.27
253.558	12850.81
253.629	12827.53
253.699	12810.94
253.77	12808.68
253.841	12787.32
253.911	12770.31
253.982	12758.16
254.052	12748.86
254.123	12732.22
254.193	12709.57
254.264	12729.28
254.334	12704.99
254.405	12669.7
254.475	12634.99
254.546	12611.18
254.616	12600
254.687	12582.98
254.757	12560.33
254.827	12526.49
254.898	12517.81
254.968	12497.61
255.039	12464.69
255.109	12453.26
255.18	12430.75
255.25	12382.5
255.321	12368.86
255.391	12337.67
255.461	12332.66
255.532	12286.86
255.602	12264.16
255.673	12227.57
255.743	12200.44
255.813	12156.72
255.884	12156.43
255.954	12138.74
256.024	12143.51
256.095	12129.34
256.165	12099.26
256.235	12089.28
256.306	12069.86
256.376	12059.25
256.446	12048.41
256.517	12038.86
256.587	12032.4
256.657	12010.23
256.728	12000.21
256.798	11980.59
256.868	11959.19
256.938	11933.06
257.009	11929.06
257.079	11917.97
257.149	11920.91
257.219	11877.29
257.29	11859.75
257.36	11815.07
257.43	11810.88
257.5	11772.22
257.571	11746.87
257.641	11742.72
257.711	11711.92
257.781	11703.44
257.852	11687.48
257.922	11646.56
257.992	11632.2
258.062	11604.87
258.132	11602.46
258.202	11583.86
258.273	11571.37
258.343	11566.94
258.413	11545.35
258.483	11520.91
258.553	11496.96
258.623	11469.44
258.693	11454.88
258.764	11457.29
258.834	11457.05
258.904	11445.39
258.974	11415.27
259.044	11394.83
259.114	11382.16
259.184	11369.91
259.254	11353.43
259.324	11317.96
259.394	11312.37
259.464	11307.89
259.535	11292.99
259.605	11268.37
259.675	11241.28
259.745	11232.51
259.815	11210.34
259.885	11193.43
259.955	11206.25
260.025	11183.74
260.095	11169.43
260.165	11162.73
260.235	11164.18
260.305	11145.86
260.375	11110.54
260.445	11123.4
260.515	11119.16
260.585	11110.97
260.655	11093.57
260.725	11080.76
260.795	11074.78
260.865	11076.42
260.934	11050.92
261.004	11043.31
261.074	11023.36
261.144	11024.08
261.214	11018.49
261.284	10997.1
261.354	10983.8
261.424	10959.46
261.494	10950.11
261.564	10938.16
261.634	10928.38
261.703	10893.39
261.773	10877.63
261.843	10872.77
261.913	10851.85
261.983	10822.8
262.053	10809.4
262.123	10795.28
262.192	10774.32
262.262	10763.58
262.332	10734.57
262.402	10724.93
262.472	10714.42
262.541	10683.35
262.611	10670.05
262.681	10639.02
262.751	10634.01
262.821	10618.35
262.89	10589.63
262.96	10585.58
263.03	10586.54
263.1	10576.23
263.169	10560.19
263.239	10557.3
263.309	10557.3
263.379	10548
263.448	10536.53
263.518	10527.91
263.588	10508.68
263.657	10509.89
263.727	10513.12
263.797	10497.65
263.867	10486.23
263.936	10453.23
264.006	10455.54
264.076	10442.92
264.145	10428.41
264.215	10407.41
264.285	10409.82
264.354	10379.95
264.424	10366.41
264.494	10338.22
264.563	10313.36
264.633	10323.43
264.702	10307.15
264.772	10272.03
264.842	10254.35
264.911	10247.99
264.981	10221.01
265.05	10209.88
265.12	10192.25
265.19	10170.23
265.259	10168.35
265.329	10155.29
265.398	10142.86
265.468	10151.49
265.537	10135.16
265.607	10130.24
265.676	10129.28
265.746	10120.17
265.815	10113.82
265.885	10093.54
265.955	10068.78
266.024	10057.55
266.094	10027.54
266.163	10030.67
266.232	10035.06
266.302	10018.63
266.371	10005.48
266.441	9989.29
266.51	9983.9
266.58	9966.85
266.649	9947.24
266.719	9940.93
266.788	9937.9
266.858	9946.66
266.927	9908.9
266.996	9901.72
267.066	9889.63
267.135	9859.38
267.205	9841.99
267.274	9833.57
267.343	9829.71
267.413	9819.26
267.482	9817.91
267.552	9814.3
267.621	9781.88
267.69	9753.18
267.76	9742.77
267.829	9733.38
267.898	9725.48
267.968	9706.32
268.037	9703.38
268.106	9699.33
268.176	9675.44
268.245	9652.56
268.314	9632.19
268.384	9633.73
268.453	9622.27
268.522	9613.41
268.592	9615.62
268.661	9602.67
268.73	9600.79
268.799	9583.74
268.869	9587.4
268.938	9560.81
269.007	9544.83
269.076	9541.02
269.146	9538.85
269.215	9540.06
269.284	9535.77
269.353	9522.05
269.422	9512.03
269.492	9490.84
269.561	9457.81
269.63	9450.54
269.699	9437.44
269.768	9423.57
269.838	9413.07
269.907	9411.72
269.976	9388.75
270.045	9359.91
270.114	9352.4
270.183	9339.06
270.253	9333.52
270.322	9309.93
270.391	9296.83
270.46	9296.79
270.529	9289.03
270.598	9290.14
270.667	9268.66
270.736	9254.56
270.806	9247.04
270.875	9249.93
270.944	9240.69
271.013	9253.4
271.082	9246.42
271.151	9241.41
271.22	9222.97
271.289	9211.9
271.358	9193.84
271.427	9193.65
271.496	9186.76
271.565	9175.64
271.634	9161.34
271.703	9181.09
271.772	9182.87
271.841	9174.73
271.91	9148.06
271.979	9140.69
272.048	9116.47
272.117	9122.93
272.186	9109.11
272.255	9111.9
272.324	9103.62
272.393	9098.81
272.462	9082.15
272.531	9074.88
272.6	9059.13
272.669	9060.63
272.738	9046.62
272.807	9040.5
272.876	9012.68
272.945	9036.08
273.013	9039.64
273.082	9046.04
273.151	9003
273.22	8998.91
273.289	8992.89
273.358	9002.37
273.427	8992.65
273.496	8990.39
273.564	8982.25
273.633	8981.96
273.702	8955.58
273.771	8947.78
273.84	8937.48
273.909	8937.29
273.977	8934.11
274.046	8925.06
274.115	8926.07
274.184	8916.01
274.253	8916.88
274.322	8925.4
274.39	8901.91
274.459	8879.71
274.528	8854.59
274.597	8850.54
274.665	8846.02
274.734	8855.36
274.803	8846.69
274.872	8839.57
274.94	8827.92
275.009	8875.11
275.078	8863.85
275.147	8866.98
275.215	8863.9
275.284	8871.74
275.353	8862.93
275.421	8840.6
275.49	8862.41
275.559	8848.59
275.627	8843.97
275.696	8829.15
275.765	8828.71
275.833	8814.81
275.902	8817.84
275.971	8825.88
276.039	8837.33
276.108	8836.47
276.177	8831.07
276.245	8819.18
276.314	8812.59
276.383	8817.64
276.451	8758.65
276.52	8758.56
276.588	8766.5
276.657	8767.42
276.725	8755.86
276.794	8749.22
276.863	8756.63
276.931	8728.33
277	8734.97
277.068	8734.54
277.137	8749.94
277.205	8745.03
277.274	8762.46
277.342	8768.47
277.411	8748.89
277.48	8735.99
277.548	8729.2
277.617	8724.24
277.685	8713.65
277.754	8718.37
277.822	8705.67
277.89	8718.66
277.959	8710.05
278.027	8694.65
278.096	8684.3
278.164	8712.84
278.233	8707.45
278.301	8697.68
278.37	8704.42
278.438	8694.07
278.507	8699.94
278.575	8676.6
278.643	8677.18
278.712	8656.72
278.78	8642.38
278.849	8651.86
278.917	8660.19
278.985	8647.43
279.054	8651.77
279.122	8662.02
279.191	8660.91
279.259	8664.42
279.327	8647.24
279.396	8657.58
279.464	8656.28
279.532	8664.18
279.601	8660.9
279.669	8659.12
279.737	8671.73
279.806	8668.17
279.874	8677.89
279.942	8676.64
280.011	8673.66
280.079	8676.26
280.147	8692.14
280.215	8696.13
280.284	8690.84
280.352	8675.82
280.42	8687.04
280.488	8678.09
280.557	8668.22
280.625	8668.75
280.693	8665.19
280.761	8665.72
280.83	8654.26
280.898	8660.81
280.966	8639.01
281.034	8602.62
281.102	8587.56
281.171	8585.34
281.239	8600.03
281.307	8590.78
281.375	8578.18
281.443	8599.64
281.512	8601.18
281.58	8608.74
281.648	8591.85
281.716	8591.42
281.784	8590.26
281.852	8583.43
281.92	8581.79
281.989	8598.35
282.057	8583.38
282.125	8605.86
282.193	8608.6
282.261	8611.73
282.329	8607.88
282.397	8609.66
282.465	8615.72
282.533	8626.26
282.601	8614.85
282.67	8593.29
282.738	8583.86
282.806	8595.79
282.874	8577.89
282.942	8577.93
283.01	8566.72
283.078	8578.7
283.146	8578.08
283.214	8589.43
283.282	8593.91
283.35	8604.07
283.418	8593.57
283.486	8598.58
283.554	8571.96
283.622	8561.28
283.69	8553
283.758	8543.38
283.826	8552.13
283.894	8563.73
283.962	8586.69
284.03	8595.45
284.098	8592.27
284.165	8583.56
284.233	8579.91
284.301	8579.91
284.369	8570.57
284.437	8557.62
284.505	8548.63
284.573	8563.45
284.641	8549.54
284.709	8553.49
284.777	8534.52
284.845	8544.58
284.912	8548.53
284.98	8552.19
285.048	8547.28
285.116	8554.45
285.184	8564.65
285.252	8560.13
285.319	8543.72
285.387	8533.22
285.455	8516.24
285.523	8527.4
285.591	8527.83
285.659	8526.44
285.726	8539.87
285.794	8526.92
285.862	8534.14
285.93	8530.48
285.997	8523.31
286.065	8512.49
286.133	8505.75
286.201	8503.05
286.269	8485.73
286.336	8472.74
286.404	8468.93
286.472	8478.66
286.539	8455.03
286.607	8440.84
286.675	8437.85
286.743	8443.82
286.81	8431.02
286.878	8448.92
286.946	8433.52
287.013	8435.59
287.081	8438.53
287.149	8425.82
287.216	8440.64
287.284	8430.15
287.352	8435.68
287.419	8429.81
287.487	8450.36
287.555	8448.39
287.622	8448.53
287.69	8455.36
287.758	8472.11
287.825	8471.44
287.893	8458.2
287.96	8469.65
288.028	8483.94
288.096	8487.94
288.163	8484.67
288.231	8478.07
288.298	8472.64
288.366	8491.74
288.433	8485.78
288.501	8475.24
288.569	8471.05
288.636	8465.37
288.704	8481.35
288.771	8478.46
288.839	8470.91
288.906	8464.03
288.974	8473.07
289.041	8467.78
289.109	8455.61
289.176	8454.6
289.244	8454.02
289.311	8461.67
289.379	8469.75
289.446	8471.97
289.514	8474.18
289.581	8474.86
289.649	8480.58
289.716	8481.35
289.783	8467.59
289.851	8485.15
289.918	8489.1
289.986	8497.81
290.053	8502.04
290.121	8496.99
290.188	8502.76
290.255	8534.91
290.323	8530.72
290.39	8520.86
290.458	8530.72
290.525	8542.03
290.592	8535.24
290.66	8535.63
290.727	8534.81
290.794	8546.55
290.862	8537.12
290.929	8541.98
290.996	8539.43
291.064	8545.83
291.131	8552.66
291.198	8564.94
291.266	8566.48
291.333	8567.58
291.4	8571.34
291.468	8586.59
291.535	8579.38
291.602	8587.03
291.669	8576.15
291.737	8574.46
291.804	8578.27
291.871	8590.44
291.938	8598.24
292.006	8626.78
292.073	8638.48
292.14	8640.69
292.207	8631.55
292.275	8635.78
292.342	8638.48
292.409	8665.62
292.476	8694.98
292.543	8689.74
292.611	8691.04
292.678	8705
292.745	8729.49
292.812	8741.58
292.879	8737
292.946	8743.88
293.014	8752.4
293.081	8761.55
293.148	8781.71
293.215	8800.39
293.282	8793.75
293.349	8802.08
293.416	8783.59
293.484	8797.16
293.551	8813.87
293.618	8829.17
293.685	8855.55
293.752	8846.45
293.819	8842.17
293.886	8824.89
293.953	8832.01
294.02	8846.07
294.087	8850.93
294.154	8837.74
294.221	8845.88
294.288	8845.97
294.356	8866.52
294.423	8876.15
294.49	8866.09
294.557	8873.12
294.624	8855.94
294.691	8874.37
294.758	8873.46
294.825	8876.54
294.892	8869.75
294.959	8865.32
295.026	8877.36
295.093	8865.56
295.16	8871
295.226	8870.13
295.293	8895.46
295.36	8895.36
295.427	8900.99
295.494	8909.47
295.561	8923.91
295.628	8951.84
295.695	8968.83
295.762	8966.52
295.829	8973.98
295.896	8986.74
295.963	8996.46
296.03	9010.85
296.096	9017.02
296.163	9028.33
296.23	9047.49
296.297	9060.97
296.364	9061.02
296.431	9058.46
296.498	9053.17
296.564	9069.58
296.631	9075.31
296.698	9059.52
296.765	9079.35
296.832	9067.75
296.899	9051.62
296.965	9056
297.032	9025.43
297.099	9035.92
297.166	9041.22
297.233	9031.83
297.299	9025.72
297.366	9024.85
297.433	9023.5
297.5	9031.3
297.566	9029.91
297.633	9029.18
297.7	9032.36
297.767	9028.51
297.833	9039.15
297.9	9043.82
297.967	9037.56
298.033	9045.94
298.1	9071.46
298.167	9060.48
298.234	9063.8
298.3	9079.93
298.367	9076.61
298.434	9089.95
298.5	9079.98
298.567	9080.36
298.634	9082.29
298.7	9096.4
298.767	9099.24
298.834	9108.67
298.9	9097.41
298.967	9090.52
299.033	9090.67
299.1	9099.53
299.167	9115.7
299.233	9110.31
299.3	9127.88
299.366	9140.25
299.433	9157.88
299.5	9131.01
299.566	9139.24
299.633	9156.81
299.699	9161.15
299.766	9164.57
299.832	9166.11
299.899	9175.01
299.965	9180.12
300.032	9170.68
300.099	9174.92
300.165	9181.47
300.232	9182.05
300.298	9183.59
300.365	9199.67
300.431	9206.31
300.498	9202.8
300.564	9207.03
300.631	9216.13
300.697	9218.88
300.763	9216.62
300.83	9218.25
300.896	9233.18
300.963	9237.9
301.029	9238.14
301.096	9234.86
301.162	9242.18
301.229	9232.5
301.295	9222.87
301.361	9224.51
301.428	9233.66
301.494	9220.08
301.561	9217.24
301.627	9217.67
301.693	9218.54
301.76	9220.8
301.826	9214.93
301.892	9227.01
301.959	9237.13
302.025	9230.34
302.092	9226.87
302.158	9231.78
302.224	9224.41
302.291	9211.75
302.357	9207.8
302.423	9193.26
302.49	9190.28
302.556	9198.56
302.622	9194.18
302.688	9202.31
302.755	9218.93
302.821	9226.1
302.887	9237.9
302.954	9238.04
303.02	9243.87
303.086	9244.88
303.152	9233.27
303.219	9226.77
303.285	9220.18
303.351	9225.62
303.417	9223.98
303.483	9214.45
303.55	9205.69
303.616	9207.95
303.682	9204.97
303.748	9198.95
303.815	9219.51
303.881	9231.5
303.947	9217.58
304.013	9223.36
304.079	9215.7
304.145	9184.12
304.212	9181.95
304.278	9166.02
304.344	9156.72
304.41	9137.47
304.476	9137.13
304.542	9130.68
304.608	9131.35
304.674	9111.13
304.741	9095.72
304.807	9095.53
304.873	9098.66
304.939	9113.78
305.005	9088.4
305.071	9087.68
305.137	9087.34
305.203	9061.34
305.269	9050.27
305.335	9059.22
305.401	9053.69
305.467	9051.38
305.533	9063.41
305.599	9060.04
305.666	9070.44
305.732	9072.22
305.798	9088.06
305.864	9107.18
305.93	9110.88
305.996	9111.56
306.062	9111.89
306.128	9113.68
306.194	9105.3
306.259	9102.41
306.325	9088.83
306.391	9096.92
306.457	9100.15
306.523	9100.72
306.589	9127.11
306.655	9119.17
306.721	9101.74
306.787	9081.81
306.853	9085.76
306.919	9072.71
306.985	9071.41
307.051	9065.97
307.117	9055.91
307.183	9040.6
307.248	9011.33
307.314	9020.91
307.38	9018.45
307.446	9027.69
307.512	9014.74
307.578	9015.42
307.644	9008.44
307.709	9009.64
307.775	9003.05
307.841	8999.63
307.907	8997.32
307.973	8973.05
308.039	8973.05
308.104	8978.25
308.17	8984.7
308.236	8973.19
308.302	8969.68
308.368	8953.36
308.433	8948.64
308.499	8945.85
308.565	8939.26
308.631	8946
308.696	8919.33
308.762	8905.27
308.828	8902.67
308.894	8881.97
308.959	8861.52
309.025	8854.63
309.091	8848.47
309.156	8838.22
309.222	8837.4
309.288	8821.95
309.354	8793.89
309.419	8790.86
309.485	8774.16
309.551	8775.98
309.616	8758.08
309.682	8752.4
309.748	8745.33
309.813	8740.51
309.879	8729.73
309.945	8717.99
310.01	8704.85
310.076	8700.76
310.141	8695.65
310.207	8677.55
310.273	8679.48
310.338	8680.63
310.404	8664.27
310.469	8652.53
310.535	8640.88
310.601	8617.97
310.666	8620.57
310.732	8633.76
310.797	8618.83
310.863	8606.85
310.928	8602.33
310.994	8607.91
311.059	8603.77
311.125	8600.79
311.191	8600.59
311.256	8582.12
311.322	8588.13
311.387	8562.24
311.453	8951.14
311.518	8925.3
311.584	8920.05
311.649	8922.8
311.715	8910.19
311.78	8907.21
311.846	8897.82
311.911	8906.49
311.976	8903.65
312.042	8895.03
312.107	8880.45
312.173	8868.28
312.238	8865.05
312.304	8854.56
312.369	8840.65
312.434	8826.6
312.5	8814.48
312.565	8788.88
312.631	8796.91
312.696	8783.92
312.761	8791.52
312.827	8399.69
312.892	8435.92
312.958	8428.71
313.023	8420.86
313.088	8420.86
313.154	8414.9
313.219	8402.77
313.284	8390.55
313.35	8391.85
313.415	8377.65
313.48	8369.14
313.546	8374.33
313.611	8378.04
313.676	8370.72
313.741	8364.95
313.807	8373.95
313.872	8378.13
313.937	8380.59
314.003	8383.91
314.068	8385.98
314.133	8389.15
314.198	8376.79
314.264	8354.17
314.329	8348.73
314.394	8347.24
314.459	8338.24
314.525	8347.77
314.59	8342.96
314.655	8329.34
314.72	8332.04
314.785	8334.2
314.851	8326.12
314.916	8309.38
314.981	8295.09
315.046	8279.45
315.111	8268.39
315.176	8258.09
315.242	8264.87
315.307	8263.91
315.372	8249.81
315.437	8236.44
315.502	8224.7
315.567	8229.94
315.632	8216.38
315.698	8215.8
315.763	8206.03
315.828	8201.08
315.893	8197.32
315.958	8192.37
316.023	8182.89
316.088	8159.99
316.153	8138.11
316.218	8136.86
316.283	8118.87
316.348	8105.35
316.413	8108.91
316.479	8096.89
316.544	8063.37
316.609	8029.07
316.674	7997.18
316.739	7965.39
316.804	7936.78
316.869	7907.58
316.934	7878.39
316.999	7848.81
317.064	7801.49
317.129	7762.06
317.194	7726.19
317.259	7680.16
317.324	7631.71
317.389	7591.13
317.454	7561.99
317.518	7529.21
317.583	7501.56
317.648	7477.33
317.713	7441.76
317.778	7383.49
317.843	7354.79
317.908	7321.25
317.973	7284.43
318.038	7258.23
318.103	7215.61
318.168	7194.08
318.233	7164.72
318.297	7112
318.362	7075.58
318.427	7037.39
318.492	7018.79
318.557	6977.38
318.622	6947.78
318.687	6929.68
318.751	6892.36
318.816	6857.96
318.881	6832.4
318.946	6780.48
319.011	6739.27
319.075	6702.38
319.14	6676.5
319.205	6632.85
319.27	6601.11
319.335	6562.55
319.399	6520.24
319.464	6500.75
319.529	6444.63
319.594	6406.22
319.658	6375.07
319.723	6341.08
319.788	6317.61
319.853	6266.38
319.917	6237.11
319.982	6196.41
320.047	6163.34
320.112	6143.14
320.176	6091.85
320.241	6051.1
320.306	6024.91
320.37	5991.57
320.435	5960.96
320.5	5925.79
320.564	5890.25
320.629	5850.49
320.694	5820.32
320.758	5783.59
320.823	5741.53
320.888	5715.35
320.952	5671.67
321.017	5638.53
321.082	5598.5
321.146	5562.78
321.211	5525.92
321.275	5484.41
321.34	5445.11
321.405	5401.92
321.469	5353.51
321.534	5318.59
321.598	5270.77
321.663	5241.2
321.727	5208.33
321.792	5161.85
321.857	5123.29
321.921	5084.15
321.986	5044.84
322.05	4989.76
322.115	4952.07
322.179	4909.22
322.244	4861.25
322.308	4828.69
322.373	4785.41
322.437	4746.5
322.502	4723.36
322.566	4681.1
322.631	4651
322.695	4610.75
322.76	4567.11
322.824	4538.59
322.889	4498.55
322.953	4459.91
323.018	4398.09
323.082	4336.59
323.146	4289.45
323.211	4240.48
323.275	4206.47
323.34	4165.93
323.404	4134.63
323.468	4092.79
323.533	4051.02
323.597	4007.74
323.662	3960.32
323.726	3926.2
323.79	3882.86
323.855	3822.58
323.919	3778.48
323.983	3735.05
324.048	3670.65
324.112	3829.8
324.177	3706.99
324.241	3516.39
324.305	3330.46
324.37	3147.5
324.434	2973.13
324.498	2935.73
324.562	2892.39
324.627	2833.47
324.691	2782.25
324.755	2723.32
324.82	2657.26
324.884	2593.3
324.948	2530.76
325.012	2446.6
325.077	2336.21
