Data from 20250625_urea_1M_1_MAYP1162681_03-45-06-300.txt Node
Date: Thu Jun 26 03:45:06 BST 2025
User: adleo
Spectrometer: MAYP116268
Trigger mode: 0
Integration Time (sec): 1.000000E0
Scans to average: 1
Electric dark correction enabled: true
Nonlinearity correction enabled: true
Boxcar width: 10
XAxis mode: Wavelengths
Number of Pixels in Spectrum: 2068
>>>>>Begin Spectral Data<<<<<
179.565	1116.95
179.642	1168.07
179.718	1203.87
179.795	1243.54
179.871	1272.93
179.948	1290.55
180.024	1309.84
180.101	1329.77
180.177	1341.55
180.254	1360.14
180.33	1378.58
180.407	1425.05
180.483	1512.51
180.56	1594.7
180.636	1673.89
180.712	1663.39
180.789	1667.8
180.865	1678.44
180.942	1685.95
181.018	1695.5
181.095	1706.48
181.171	1713.27
181.248	1712.32
181.324	1729.72
181.4	1732.95
181.477	1743.12
181.553	1754.9
181.63	1773.82
181.706	1787.93
181.782	1796.01
181.859	1800.38
181.935	1807.6
182.011	1805.56
182.088	1820.06
182.164	1838.41
182.24	1847.11
182.317	1856.23
182.393	1855.61
182.469	1868.45
182.546	1882.61
182.622	1883.99
182.698	1882.99
182.775	1894.07
182.851	1909.33
182.927	1902.19
183.003	1896.68
183.08	1891.83
183.156	1897.68
183.232	1894.3
183.308	1884.75
183.385	1892.21
183.461	1904.67
183.537	1904.1
183.613	1916.55
183.69	1909.66
183.766	1896.49
183.842	1904.38
183.918	1908.94
183.995	1922.06
184.071	1926.96
184.147	1920.59
184.223	1910.95
184.299	1919.93
184.375	1910.09
184.452	1915.47
184.528	1966.83
184.604	1980.76
184.68	1990.6
184.756	2000.82
184.832	2003.1
184.908	2007.57
184.985	2008.47
185.061	1993.59
185.137	2002.63
185.213	1991.74
185.289	1992.93
185.365	1988.18
185.441	1989.08
185.517	2002.59
185.593	1997.36
185.669	1993.13
185.745	2002.26
185.822	2017.65
185.898	2009.43
185.974	2017.7
186.05	2010.14
186.126	1972.8
186.202	1963.44
186.278	1959.82
186.354	1950.55
186.43	1957.59
186.506	1956.45
186.582	1953.83
186.658	1961.63
186.734	1944.61
186.81	1944.99
186.886	1946.65
186.962	1958.01
187.038	1953.45
187.114	1944.84
187.19	1952.78
187.266	1945.32
187.341	1946.6
187.417	1939.66
187.493	1938.71
187.569	1940.56
187.645	1935
187.721	1925.35
187.797	1936.24
187.873	1940.89
187.949	1933.29
188.025	1928.91
188.101	1930.81
188.176	1933.33
188.252	1927.63
188.328	1935.04
188.404	1935.33
188.48	1930.24
188.556	1924.92
188.632	1923.25
188.707	1921.49
188.783	1918.36
188.859	1912.18
188.935	1899.72
189.011	1911.37
189.086	1907.76
189.162	1899.67
189.238	1897.77
189.314	1892.78
189.39	1885.51
189.465	1877.85
189.541	1895.87
189.617	1882.32
189.693	1876.91
189.768	1884.13
189.844	1909.96
189.92	1899.93
189.996	1907.68
190.071	1918
190.147	1916.14
190.223	1924.8
190.298	1919.23
190.374	1908.87
190.45	1922.56
190.526	1932.4
190.601	1925.65
190.677	1927.6
190.753	1955.81
190.828	1957.71
190.904	1971.97
190.98	1986.57
191.055	1996.7
191.131	1985.95
191.207	2002.69
191.282	2011.86
191.358	2001.02
191.433	1985.23
191.509	1999.68
191.585	1995.92
191.66	1996.92
191.736	2004.14
191.811	1996.06
191.887	2012.38
191.963	2031.92
192.038	2034.63
192.114	2036.39
192.189	2041.15
192.265	2036.39
192.34	2015.74
192.416	2015.93
192.491	2013.84
192.567	2014.41
192.642	2017.12
192.718	2017.6
192.793	2009.61
192.869	2006.33
192.944	2009.42
193.02	2018.98
193.095	2020.45
193.171	2027.54
193.246	2029.44
193.322	2029.3
193.397	2032.67
193.473	2016.83
193.548	2002.23
193.624	2007.65
193.699	2003.99
193.775	2016.98
193.85	2018.59
193.925	2025.21
194.001	2024.45
194.076	2016.27
194.152	2006.75
194.227	2000.9
194.302	1992.68
194.378	1995.3
194.453	1992.54
194.529	2006
194.604	1990.4
194.679	1986.69
194.755	1968.96
194.83	1979.8
194.905	1977.9
194.981	1981.52
195.056	1975.05
195.131	1976.48
195.207	1975.76
195.282	1968.82
195.357	1949.46
195.433	1963.25
195.508	1950.79
195.583	1958.64
195.659	1972.48
195.734	1981.09
195.809	1979.9
195.884	1988.31
195.96	1988.41
196.035	2002.53
196.11	1999.25
196.185	2010.33
196.261	2009.42
196.336	2040.62
196.411	2026.16
196.486	2028.06
196.561	2025.49
196.637	2038.09
196.712	2056.69
196.787	2058.88
196.862	2071.91
196.937	2082.13
197.013	2090.89
197.088	2102.06
197.163	2120.52
197.238	2135.42
197.313	2133.14
197.388	2145.6
197.464	2173.15
197.539	2186.62
197.614	2180
197.689	2190.23
197.764	2205.99
197.839	2227.92
197.914	2220.97
197.989	2245.95
198.065	2262.74
198.14	2309.45
198.215	2333.01
198.29	2344.49
198.365	2359.57
198.44	2372.76
198.515	2400.41
198.59	2411.31
198.665	2433.88
198.74	2441.21
198.815	2445.69
198.89	2466.91
198.965	2495.97
199.04	2490.97
199.115	2500.39
199.19	2542.86
199.265	2546.76
199.34	2553.81
199.415	2586.54
199.49	2607.2
199.565	2611.44
199.64	2631.78
199.715	2628.82
199.79	2633.73
199.865	2638.25
199.94	2636.44
200.015	2663.26
200.09	2666.12
200.165	2671.36
200.24	2678.46
200.315	2717.17
200.39	2732.18
200.464	2737.04
200.539	2737.47
200.614	2756.29
200.689	2780.49
200.764	2786.69
200.839	2801.59
200.914	2807.69
200.989	2795.96
201.063	2808.97
201.138	2793.83
201.213	2793.4
201.288	2773.92
201.363	2779.78
201.438	2780.21
201.512	2794.5
201.587	2781.06
201.662	2784.3
201.737	2797.45
201.812	2806.6
201.886	2775.51
201.961	2780.8
202.036	2770.47
202.111	2768.23
202.186	2736.18
202.26	2717.79
202.335	2700.11
202.41	2693.96
202.485	2679.86
202.559	2663.1
202.634	2635.47
202.709	2642.94
202.784	2625.41
202.858	2626.84
202.933	2611.22
203.008	2604.36
203.082	2587.5
203.157	2584.98
203.232	2546.7
203.306	2527.69
203.381	2497.26
203.456	2476.68
203.53	2453.91
203.605	2437.01
203.68	2411.44
203.754	2407.35
203.829	2393.44
203.904	2370.78
203.978	2361.55
204.053	2365.07
204.127	2352.98
204.202	2353.41
204.277	2340.18
204.351	2335.51
204.426	2329.9
204.5	2319.76
204.575	2288.17
204.65	2294.64
204.724	2285.78
204.799	2292.97
204.873	2286.92
204.948	2284.78
205.022	2273.74
205.097	2266.22
205.171	2277.78
205.246	2287.35
205.32	2287.63
205.395	2289.25
205.469	2281.26
205.544	2284.16
205.618	2268.17
205.693	2275.98
205.767	2264.13
205.842	2279.31
205.916	2274.41
205.991	2264.37
206.065	2271.6
206.14	2287.49
206.214	2284.63
206.289	2277.87
206.363	2287.91
206.438	2291.39
206.512	2300.43
206.586	2318.65
206.661	2329.42
206.735	2310.05
206.81	2308.1
206.884	2324.14
206.958	2311.34
207.033	2329.18
207.107	2338.32
207.181	2366.51
207.256	2363.7
207.33	2382.64
207.405	2394.93
207.479	2408.93
207.553	2416.59
207.628	2400.7
207.702	2413.02
207.776	2406.45
207.851	2410.21
207.925	2428.6
207.999	2427.93
208.073	2422.69
208.148	2422.93
208.222	2409.98
208.296	2440.2
208.371	2457.97
208.445	2465.35
208.519	2490.43
208.593	2501.76
208.668	2499.33
208.742	2501.38
208.816	2503.52
208.89	2517.48
208.965	2519.96
209.039	2530.1
209.113	2549.68
209.187	2572.62
209.261	2567.71
209.336	2589.86
209.41	2613.92
209.484	2614.58
209.558	2639.88
209.632	2658.74
209.707	2676.41
209.781	2704.47
209.855	2725.87
209.929	2749.47
210.003	2766.48
210.077	2778.25
210.151	2830.19
210.226	2870.72
210.3	2906.88
210.374	2943.94
210.448	2960.87
210.522	2987.38
210.596	3011.56
210.67	3035.73
210.744	3097.5
210.818	3147.46
210.892	3185.86
210.966	3202.02
211.041	3238.89
211.115	3257.35
211.189	3306.73
211.263	3350.15
211.337	3383.16
211.411	3430.67
211.485	3460.65
211.559	3509.67
211.633	3551.9
211.707	3565.18
211.781	3617.37
211.855	3636.28
211.929	3678.39
212.003	3713.2
212.077	3774.47
212.151	3843.09
212.225	3911.86
212.299	3961.75
212.373	4020.82
212.447	4084.28
212.52	4184.27
212.594	4266.83
212.668	4362.87
212.742	4428.98
212.816	4506.88
212.89	4591.9
212.964	4676.31
213.038	4774.96
213.112	4880.38
213.186	4991.36
213.26	5071.02
213.333	5127.74
213.407	5237.86
213.481	5347.99
213.555	5468.22
213.629	5568.1
213.703	5673.99
213.777	5791.71
213.85	5891.29
213.924	6045.43
213.998	6172.51
214.072	6288.84
214.146	6405.84
214.219	6528.96
214.293	6652.29
214.367	6790.47
214.441	6933.76
214.515	7058.15
214.588	7167.71
214.662	7270.31
214.736	7388.2
214.81	7534.52
214.883	7684.6
214.957	7815.99
215.031	7941.04
215.105	8065.82
215.178	8196.31
215.252	8328.76
215.326	8446.45
215.4	8578.85
215.473	8678.4
215.547	8804.8
215.621	8940.71
215.694	9082.16
215.768	9207.63
215.842	9350
215.915	9482.33
215.989	9599.07
216.063	9733.49
216.136	9881.98
216.21	10031.24
216.284	10191.12
216.357	10337.28
216.431	10477.42
216.504	10627.84
216.578	10793.05
216.652	10940.96
216.725	11086.77
216.799	11240.84
216.873	11383.29
216.946	11532.25
217.02	11666.13
217.093	11805.17
217.167	11924.22
217.24	12056.2
217.314	12183.39
217.387	12307.6
217.461	12430.62
217.535	12569.53
217.608	12694.77
217.682	12821.2
217.755	12960.13
217.829	13070.76
217.902	13195.76
217.976	13321.28
218.049	13435.87
218.123	13538.55
218.196	13668.56
218.27	13770.61
218.343	13867.36
218.417	13991.44
218.49	14099.52
218.563	14229.52
218.637	14347.14
218.71	14474.64
218.784	14584.79
218.857	14705.88
218.931	14821.67
219.004	14931.38
219.077	15049.86
219.151	15162.75
219.224	15262.82
219.298	15362.16
219.371	15464.64
219.444	15552.18
219.518	15650.22
219.591	15738.42
219.665	15861.14
219.738	15952.14
219.811	16041.94
219.885	16148.55
219.958	16235.94
220.031	16322.94
220.105	16412.49
220.178	16482.37
220.251	16558.91
220.325	16644.36
220.398	16723.4
220.471	16806.3
220.544	16894.83
220.618	16959.03
220.691	17032.96
220.764	17107.22
220.838	17180.05
220.911	17261.49
220.984	17360.39
221.057	17440.53
221.131	17521.21
221.204	17568.72
221.277	17653.35
221.35	17753.78
221.424	17809.83
221.497	17876.72
221.57	17940.28
221.643	18001.73
221.716	18075.56
221.79	18129.63
221.863	18182.69
221.936	18246.54
222.009	18302.92
222.082	18362.82
222.155	18412.56
222.229	18476.07
222.302	18534.14
222.375	18584.74
222.448	18638.33
222.521	18676.54
222.594	18715.82
222.667	18752.34
222.74	18801.98
222.814	18833.93
222.887	18857.49
222.96	18916.48
223.033	18955.99
223.106	19001.87
223.179	19050.25
223.252	19098.15
223.325	19137.62
223.398	19180.08
223.471	19212.03
223.544	19248.94
223.617	19282.91
223.69	19318.72
223.763	19345.13
223.837	19380.21
223.91	19418.71
223.983	19427.97
224.056	19447.05
224.129	19485.94
224.202	19529.21
224.275	19552.44
224.348	19571.96
224.42	19600.87
224.493	19596
224.566	19620.68
224.639	19647.9
224.712	19656.19
224.785	19667.81
224.858	19689.06
224.931	19697.2
225.004	19701.2
225.077	19714.07
225.15	19708.87
225.223	19725.88
225.296	19756.67
225.369	19752.38
225.442	19754.16
225.514	19770.84
225.587	19789.73
225.66	19799.7
225.733	19808.48
225.806	19822.16
225.879	19833.39
225.952	19832.86
226.025	19865.97
226.097	19892.95
226.17	19904.71
226.243	19895.03
226.316	19901.97
226.389	19919.75
226.461	19944.57
226.534	19969.19
226.607	19974.83
226.68	19998.97
226.753	20013.14
226.825	20000.42
226.898	20025.43
226.971	20041.19
227.044	20054.97
227.117	20056.18
227.189	20061.24
227.262	20072.71
227.335	20087.84
227.407	20085.57
227.48	20099.5
227.553	20099.45
227.626	20090.73
227.698	20081.48
227.771	20099.6
227.844	20090.68
227.916	20093.19
227.989	20076.8
228.062	20069.77
228.134	20094.87
228.207	20091.79
228.28	20083.07
228.352	20084.56
228.425	20081.24
228.498	20075.94
228.57	20070.44
228.643	20081.38
228.716	20078.3
228.788	20075.94
228.861	20064.85
228.934	20085.91
229.006	20081.81
229.079	20078.73
229.151	20070.39
229.224	20059.16
229.296	20065.86
229.369	20101.09
229.442	20102.54
229.514	20100.42
229.587	20109.77
229.659	20086.97
229.732	20089.62
229.804	20101.19
229.877	20118.87
229.949	20128.85
230.022	20156.27
230.094	20160.99
230.167	20157.62
230.239	20152.37
230.312	20144.51
230.384	20164.99
230.457	20147.69
230.529	20151.65
230.602	20145.72
230.674	20144.61
230.747	20158.34
230.819	20167.26
230.892	20129.04
230.964	20122.3
231.037	20126.92
231.109	20122.39
231.181	20123.98
231.254	20099.02
231.326	20090.78
231.399	20067.79
231.471	20055.17
231.544	20007.84
231.616	20001.58
231.688	20000.81
231.761	19981.77
231.833	19963.94
231.905	19923.75
231.978	19920.95
232.05	19894.59
232.122	19880.81
232.195	19862.02
232.267	19860.91
232.339	19822.69
232.412	19817.25
232.484	19795.27
232.556	19760.24
232.629	19760.82
232.701	19755.95
232.773	19751.95
232.846	19725.3
232.918	19716.72
232.99	19699.42
233.062	19702.55
233.135	19685.2
233.207	19653.16
233.279	19649.21
233.351	19644.63
233.424	19631.09
233.496	19606.61
233.568	19611.33
233.64	19585.6
233.713	19572.92
233.785	19545.16
233.857	19527.77
233.929	19497.07
234.001	19503.19
234.074	19499.14
234.146	19454.61
234.218	19420.74
234.29	19390.43
234.362	19368.21
234.434	19334.53
234.507	19302.62
234.579	19258.19
234.651	19229.33
234.723	19219.74
234.795	19197.23
234.867	19169.09
234.939	19154.2
235.012	19133.72
235.084	19108.66
235.156	19098.64
235.228	19071.31
235.3	19045.68
235.372	19030.98
235.444	19027.7
235.516	18978.16
235.588	18963.32
235.66	18944.43
235.732	18921.25
235.804	18952.43
235.876	18945.25
235.948	18931.8
236.02	18911.56
236.092	18897.59
236.164	18872.05
236.236	18837.69
236.308	18815.67
236.38	18802.56
236.452	18777.55
236.524	18758.08
236.596	18752.78
236.668	18740.92
236.74	18717.65
236.812	18696.64
236.884	18674.95
236.956	18647.34
237.028	18618.14
237.1	18578.91
237.172	18578.76
237.244	18559.83
237.316	18503.64
237.388	18456.6
237.46	18426.72
237.532	18417.76
237.604	18376.27
237.675	18370.68
237.747	18355.79
237.819	18316.56
237.891	18280.95
237.963	18241.48
238.035	18204.57
238.107	18143.94
238.178	18120.57
238.25	18088.62
238.322	18088.86
238.394	18042.36
238.466	18008.28
238.538	17985.39
238.609	17970.65
238.681	17917.11
238.753	17889.11
238.825	17864.43
238.897	17847.9
238.968	17834.7
239.04	17788.82
239.112	17789.88
239.184	17748.63
239.255	17717.93
239.327	17702.17
239.399	17672.49
239.471	17660.63
239.542	17634.8
239.614	17618.99
239.686	17566.75
239.758	17558.13
239.829	17508.2
239.901	17503.62
239.973	17467.57
240.044	17442.51
240.116	17411
240.188	17383.09
240.259	17355.72
240.331	17324.44
240.403	17302.66
240.474	17251.77
240.546	17217.21
240.618	17173.07
240.689	17134.9
240.761	17102.99
240.833	17085.64
240.904	17054.36
240.976	17025.21
241.048	16997.59
241.119	16973.16
241.191	16950.02
241.262	16929.25
241.334	16901.93
241.405	16861.1
241.477	16836.04
241.549	16803.13
241.62	16774.11
241.692	16748.71
241.763	16728.47
241.835	16694.2
241.906	16664.03
241.978	16624.66
242.049	16607.06
242.121	16589.62
242.192	16574.82
242.264	16535.64
242.335	16491.49
242.407	16468.74
242.478	16424.93
242.55	16401.26
242.621	16372.54
242.693	16341.26
242.764	16304.92
242.836	16278.22
242.907	16260.63
242.979	16240.53
243.05	16220.43
243.122	16191.46
243.193	16166.01
243.264	16118.78
243.336	16084.46
243.407	16060.27
243.479	16061.38
243.55	16040.51
243.622	16017.03
243.693	15993.85
243.764	15983.73
243.836	15942.08
243.907	15915.67
243.978	15887.04
244.05	15869.4
244.121	15820.47
244.192	15797.92
244.264	15755.45
244.335	15718.29
244.407	15671.87
244.478	15651.97
244.549	15617.74
244.62	15585.88
244.692	15553.59
244.763	15536.77
244.834	15508.76
244.906	15474.97
244.977	15442.92
245.048	15431.11
245.119	15388.31
245.191	15354.57
245.262	15300.87
245.333	15294.65
245.405	15268.04
245.476	15252.91
245.547	15217.72
245.618	15203.31
245.689	15173.71
245.761	15152.07
245.832	15125.12
245.903	15111.1
245.974	15076.34
246.045	15044.62
246.117	15039.66
246.188	15000.9
246.259	14964.22
246.33	14935.4
246.401	14909.99
246.473	14870.47
246.544	14823.8
246.615	14800.28
246.686	14767.07
246.757	14761.24
246.828	14715.59
246.899	14703.29
246.97	14661.69
247.042	14632.48
247.113	14613.34
247.184	14612.77
247.255	14580.08
247.326	14558.92
247.397	14529.47
247.468	14507.73
247.539	14482.61
247.61	14440.1
247.681	14432.29
247.752	14415.03
247.823	14380.76
247.894	14352.6
247.965	14315.15
248.037	14294.71
248.108	14260.92
248.179	14235.17
248.25	14201.29
248.321	14186.34
248.392	14145.13
248.463	14140.98
248.534	14117.89
248.605	14096.1
248.675	14066.7
248.746	14048.81
248.817	14020.8
248.888	13999.88
248.959	13958.09
249.03	13941.75
249.101	13913.3
249.172	13881.97
249.243	13841.81
249.314	13833.91
249.385	13814.05
249.456	13797.85
249.527	13764.15
249.598	13746.85
249.669	13720
249.739	13705.73
249.81	13691.02
249.881	13657.62
249.952	13632.5
250.023	13604.01
250.094	13571.23
250.165	13530.88
250.235	13507.4
250.306	13489.23
250.377	13456.98
250.448	13440.45
250.519	13404.87
250.59	13394.99
250.66	13363.51
250.731	13351.46
250.802	13331.16
250.873	13308.65
250.944	13296.21
251.014	13275.1
251.085	13272.78
251.156	13257.65
251.227	13249.11
251.297	13244.63
251.368	13234.41
251.439	13218.6
251.51	13209.78
251.58	13170.54
251.651	13146.63
251.722	13140.41
251.792	13105.07
251.863	13081.89
251.934	13079.19
252.005	13080.2
252.075	13059.08
252.146	13051.37
252.217	13043.85
252.287	13032.33
252.358	13008.9
252.429	13003.6
252.499	12974.24
252.57	12956.36
252.641	12944.74
252.711	12913.84
252.782	12872.96
252.852	12871.03
252.923	12851.17
252.994	12831.46
253.064	12833.38
253.135	12809.43
253.205	12777.9
253.276	12773.66
253.347	12770.14
253.417	12738.66
253.488	12714.7
253.558	12695.9
253.629	12670.88
253.699	12653.38
253.77	12642.44
253.841	12625.47
253.911	12608.51
253.982	12593.51
254.052	12579.92
254.123	12568.78
254.193	12550.03
254.264	12560.78
254.334	12534.37
254.405	12503.76
254.475	12473.2
254.546	12449.82
254.616	12441.04
254.687	12425.86
254.757	12411.3
254.827	12385.18
254.898	12371.49
254.968	12349.94
255.039	12317.45
255.109	12310.32
255.18	12283.13
255.25	12237.63
255.321	12223.36
255.391	12190.1
255.461	12192.31
255.532	12158.38
255.602	12125.75
255.673	12093.45
255.743	12071.52
255.813	12024.19
255.884	12015.12
255.954	12005
256.024	12008.95
256.095	11994.59
256.165	11963.45
256.235	11947.79
256.306	11930.67
256.376	11919.88
256.446	11914.62
256.517	11907.06
256.587	11902.72
256.657	11889.03
256.728	11878.76
256.798	11860.4
256.868	11836.15
256.938	11812.68
257.009	11801.64
257.079	11790.03
257.149	11795.43
257.219	11754.17
257.29	11750.65
257.36	11708.09
257.43	11708.14
257.5	11665.63
257.571	11635.94
257.641	11625.09
257.711	11598.78
257.781	11582.44
257.852	11569.91
257.922	11527.88
257.992	11511.64
258.062	11483.78
258.132	11476.45
258.202	11450.71
258.273	11435.15
258.343	11439.73
258.413	11412.16
258.483	11387.19
258.553	11362.66
258.623	11335.86
258.693	11323.53
258.764	11317.45
258.834	11322.71
258.904	11296.49
258.974	11268.78
259.044	11254.46
259.114	11243.09
259.184	11227.62
259.254	11207.67
259.324	11173.64
259.394	11161.98
259.464	11157.45
259.535	11137.98
259.605	11115.57
259.675	11091
259.745	11080.92
259.815	11049.31
259.885	11027
259.955	11034.32
260.025	11011.43
260.095	10996.98
260.165	10981.12
260.235	10982.04
260.305	10962.57
260.375	10934.38
260.445	10945.65
260.515	10948.98
260.585	10942.38
260.655	10929.03
260.725	10930.04
260.795	10919.68
260.865	10926.72
260.934	10904.36
261.004	10895.63
261.074	10881.47
261.144	10886.62
261.214	10877.85
261.284	10868.98
261.354	10867.54
261.424	10849.61
261.494	10852.94
261.564	10837.76
261.634	10830.29
261.703	10796.17
261.773	10781.28
261.843	10777.86
261.913	10759.16
261.983	10729.29
262.053	10719.03
262.123	10699.99
262.192	10665.59
262.262	10655.76
262.332	10622.66
262.402	10613.45
262.472	10595.67
262.541	10558.82
262.611	10552.51
262.681	10532.08
262.751	10515.45
262.821	10496.71
262.89	10464.28
262.96	10451.18
263.03	10456
263.1	10448.72
263.169	10429.26
263.239	10420.1
263.309	10425.84
263.379	10417.84
263.448	10401.31
263.518	10388.69
263.588	10373.95
263.657	10379.1
263.727	10380.74
263.797	10371.83
263.867	10354.29
263.936	10330.73
264.006	10330.88
264.076	10312.91
264.145	10291.8
264.215	10273.55
264.285	10272.25
264.354	10241.75
264.424	10223.06
264.494	10191.36
264.563	10168.14
264.633	10175.27
264.702	10169.82
264.772	10127.43
264.842	10106.91
264.911	10103.68
264.981	10073.95
265.05	10060.52
265.12	10048.04
265.19	10027.27
265.259	10020.48
265.329	10009.21
265.398	10002.95
265.468	10014.85
265.537	9996.49
265.607	9992.06
265.676	9993.46
265.746	9978.09
265.815	9981.75
265.885	9963.88
265.955	9938.02
266.024	9921.54
266.094	9889.37
266.163	9889.27
266.232	9892.88
266.302	9880.94
266.371	9869.72
266.441	9858.69
266.51	9857.72
266.58	9834.12
266.649	9822.66
266.719	9821.55
266.788	9815.14
266.858	9816.54
266.927	9775.84
266.996	9765.87
267.066	9756.96
267.135	9730.42
267.205	9728.11
267.274	9714.96
267.343	9724.21
267.413	9718.38
267.482	9720.98
267.552	9723.73
267.621	9694.73
267.69	9666.99
267.76	9651.53
267.829	9646.86
267.898	9636.89
267.968	9613.63
268.037	9604.62
268.106	9593.45
268.176	9566.24
268.245	9554.54
268.314	9540.09
268.384	9542.59
268.453	9534.16
268.522	9524.15
268.592	9518.37
268.661	9497.32
268.73	9491.11
268.799	9469.24
268.869	9474.49
268.938	9447.62
269.007	9428.21
269.076	9420.61
269.146	9425.52
269.215	9420.32
269.284	9417.81
269.353	9407.36
269.422	9394.61
269.492	9383.19
269.561	9348.48
269.63	9341.21
269.699	9318.09
269.768	9299.17
269.838	9295.65
269.907	9292.38
269.976	9266.43
270.045	9242.11
270.114	9240.19
270.183	9227.24
270.253	9212.6
270.322	9184.87
270.391	9173.7
270.46	9169.32
270.529	9163.44
270.598	9157.52
270.667	9144.04
270.736	9117.65
270.806	9112.4
270.875	9116.21
270.944	9104.17
271.013	9127.18
271.082	9120.35
271.151	9125.26
271.22	9101.38
271.289	9088.67
271.358	9074.42
271.427	9075.33
271.496	9071.34
271.565	9052.18
271.634	9043.75
271.703	9063.11
271.772	9062.29
271.841	9054.78
271.91	9042.17
271.979	9035.47
272.048	9013.76
272.117	9011.74
272.186	9001.63
272.255	8998.21
272.324	8992.1
272.393	8987.04
272.462	8964.85
272.531	8960.23
272.6	8942.36
272.669	8948.72
272.738	8936.3
272.807	8928.84
272.876	8903.95
272.945	8924.12
273.013	8925.42
273.082	8925.18
273.151	8886.09
273.22	8880.46
273.289	8867.27
273.358	8874.16
273.427	8857.4
273.496	8856.87
273.564	8854.66
273.633	8854.27
273.702	8833.43
273.771	8827.17
273.84	8826.55
273.909	8828.23
273.977	8824.43
274.046	8816.78
274.115	8822.41
274.184	8800.66
274.253	8795.46
274.322	8801.47
274.39	8771.2
274.459	8759.16
274.528	8736.88
274.597	8737.6
274.665	8736.44
274.734	8745.3
274.803	8732.21
274.872	8727.11
274.94	8709.2
275.009	8755.19
275.078	8742.38
275.147	8746.38
275.215	8743.4
275.284	8747.53
275.353	8736.94
275.421	8716.1
275.49	8730.45
275.559	8715.67
275.627	8714.52
275.696	8706.29
275.765	8708.21
275.833	8707.15
275.902	8697.05
275.971	8710.47
276.039	8719.81
276.108	8719.62
276.177	8715.14
276.245	8706.48
276.314	8708.07
276.383	8712.83
276.451	8660.54
276.52	8660.3
276.588	8666.08
276.657	8669.2
276.725	8658.9
276.794	8652.26
276.863	8662.85
276.931	8639.03
277	8652.41
277.068	8656.11
277.137	8673.92
277.205	8669.78
277.274	8682.2
277.342	8701.21
277.411	8683.45
277.48	8671.37
277.548	8660.4
277.617	8663.86
277.685	8652.51
277.754	8654.29
277.822	8651.98
277.89	8659.78
277.959	8654.58
278.027	8637.83
278.096	8620.84
278.164	8640.29
278.233	8636.92
278.301	8623.3
278.37	8631.91
278.438	8613.62
278.507	8616.75
278.575	8587.88
278.643	8591
278.712	8573.29
278.78	8559
278.849	8562.66
278.917	8572.91
278.985	8570.55
279.054	8566.02
279.122	8576.8
279.191	8567.61
279.259	8558.18
279.327	8537.44
279.396	8551.39
279.464	8547.83
279.532	8553.46
279.601	8551.15
279.669	8547.49
279.737	8563.14
279.806	8562.27
279.874	8573.39
279.942	8574.45
280.011	8572.33
280.079	8579.02
280.147	8595.77
280.215	8597.98
280.284	8595.67
280.352	8579.6
280.42	8589.85
280.488	8585.27
280.557	8583.01
280.625	8591.43
280.693	8592.49
280.761	8597.93
280.83	8581.13
280.898	8596.97
280.966	8578.35
281.034	8549.13
281.102	8535.95
281.171	8522.09
281.239	8522.91
281.307	8511.02
281.375	8500.48
281.443	8528.59
281.512	8518.67
281.58	8522.81
281.648	8506.79
281.716	8506.64
281.784	8507.6
281.852	8502.84
281.92	8497.35
281.989	8502.12
282.057	8483.4
282.125	8508.38
282.193	8508.09
282.261	8507.66
282.329	8495.38
282.397	8505.1
282.465	8504.43
282.533	8510.97
282.601	8499.33
282.67	8489.66
282.738	8477.29
282.806	8484.41
282.874	8468.72
282.942	8474.54
283.01	8464.44
283.078	8473.19
283.146	8465.06
283.214	8471.13
283.282	8468.58
283.35	8479.64
283.418	8480.65
283.486	8491.19
283.554	8472.04
283.622	8469.34
283.69	8471.17
283.758	8463.18
283.826	8466.17
283.894	8480.36
283.962	8508.28
284.03	8528.68
284.098	8522.76
284.165	8523.82
284.233	8523.24
284.301	8512.85
284.369	8505
284.437	8497.01
284.505	8487.82
284.573	8509.04
284.641	8499.95
284.709	8502.31
284.777	8488.35
284.845	8491.96
284.912	8494.9
284.98	8498.17
285.048	8486.96
285.116	8494.75
285.184	8515.16
285.252	8512.27
285.319	8493.31
285.387	8488.26
285.455	8472.66
285.523	8477.48
285.591	8475.26
285.659	8477.33
285.726	8487.77
285.794	8470.12
285.862	8464.15
285.93	8464.78
285.997	8463.24
286.065	8460.01
286.133	8449.71
286.201	8443.41
286.269	8429.89
286.336	8414.01
286.404	8407.51
286.472	8421.66
286.539	8390.96
286.607	8372.58
286.675	8375.28
286.743	8385.81
286.81	8372.87
286.878	8382.83
286.946	8376.96
287.013	8375.13
287.081	8371.33
287.149	8359.35
287.216	8380.61
287.284	8376.38
287.352	8369.45
287.419	8357.04
287.487	8371.09
287.555	8376.62
287.622	8374.5
287.69	8374.6
287.758	8389.32
287.825	8379.32
287.893	8362.86
287.96	8374.26
288.028	8386.92
288.096	8388.02
288.163	8384.61
288.231	8376.86
288.298	8377.34
288.366	8393.65
288.433	8393.99
288.501	8390.24
288.569	8390.77
288.636	8380.52
288.704	8399.52
288.771	8413.57
288.839	8403.71
288.906	8390.67
288.974	8403.76
289.041	8405.01
289.109	8393.56
289.176	8395
289.244	8397.55
289.311	8409
289.379	8418.15
289.446	8414.25
289.514	8415.31
289.581	8421.18
289.649	8418.82
289.716	8418.1
289.783	8405.54
289.851	8422.28
289.918	8418.1
289.986	8420.93
290.053	8429.4
290.121	8419.39
290.188	8420.84
290.255	8446.49
290.323	8440.86
290.39	8433.44
290.458	8438.64
290.525	8459.24
290.592	8459.33
290.66	8459.09
290.727	8464.63
290.794	8478.39
290.862	8474.3
290.929	8473.96
290.996	8460.63
291.064	8471.22
291.131	8485.61
291.198	8498.46
291.266	8497.69
291.333	8500.96
291.4	8513.95
291.468	8526.08
291.535	8522.28
291.602	8528.68
291.669	8522.52
291.737	8532.29
291.804	8532.1
291.871	8545.71
291.938	8548.12
292.006	8569.88
292.073	8584.02
292.14	8588.5
292.207	8577.43
292.275	8582.43
292.342	8588.98
292.409	8626.09
292.476	8643.12
292.543	8632.05
292.611	8633.98
292.678	8646.01
292.745	8672.43
292.812	8679.7
292.879	8676.52
292.946	8681.19
293.014	8691.73
293.081	8701.89
293.148	8712.23
293.215	8725.9
293.282	8725.66
293.349	8734.28
293.416	8715.89
293.484	8728.36
293.551	8735.43
293.618	8752.42
293.685	8779.18
293.752	8775.48
293.819	8769.65
293.886	8759.74
293.953	8773.07
294.02	8783.71
294.087	8795.93
294.154	8785.78
294.221	8794.97
294.288	8794.78
294.356	8814.18
294.423	8817.59
294.49	8814.8
294.557	8828.33
294.624	8816.97
294.691	8837.18
294.758	8832.52
294.825	8846.38
294.892	8839.78
294.959	8842.67
295.026	8847.63
295.093	8838.43
295.16	8837.47
295.226	8834.44
295.293	8858.36
295.36	8853.41
295.427	8864.77
295.494	8870.02
295.561	8878.15
295.628	8898.61
295.695	8912.57
295.762	8914.21
295.829	8920.9
295.896	8933.51
295.963	8941.79
296.03	8952.14
296.096	8949.83
296.163	8964.9
296.23	8970.77
296.297	8987.28
296.364	8979.72
296.431	8985.5
296.498	8979.87
296.564	9005.28
296.631	9012.46
296.698	8996.91
296.765	9009.52
296.832	8995.17
296.899	8984.63
296.965	9001.19
297.032	8980.2
297.099	8989.35
297.166	8996.23
297.233	8992.96
297.299	8980.97
297.366	8978.71
297.433	8972.16
297.5	8980.92
297.566	8981.5
297.633	8982.18
297.7	8982.95
297.767	8986.94
297.833	8987.23
297.9	8988.05
297.967	8966.77
298.033	8975
298.1	9006.2
298.167	9003.41
298.234	9004.9
298.3	9012.99
298.367	9005.14
298.434	9014.96
298.5	9005.38
298.567	8998.74
298.634	8997.44
298.7	9012.99
298.767	9013.71
298.834	9034.41
298.9	9029.84
298.967	9020.45
299.033	9026.9
299.1	9039.08
299.167	9052.03
299.233	9050.44
299.3	9066.71
299.366	9085.87
299.433	9099.79
299.5	9071.62
299.566	9073.64
299.633	9089.82
299.699	9096.66
299.766	9097.72
299.832	9098.68
299.899	9106.48
299.965	9119.43
300.032	9116.49
300.099	9125.59
300.165	9131.47
300.232	9128.05
300.298	9125.21
300.365	9137.77
300.431	9140.81
300.498	9131.61
300.564	9137.48
300.631	9146.44
300.697	9151.69
300.763	9150.72
300.83	9150.53
300.896	9159.05
300.963	9165.89
301.029	9167.81
301.096	9172.48
301.162	9178.12
301.229	9175.23
301.295	9168.54
301.361	9169.64
301.428	9167.67
301.494	9152.65
301.561	9153.42
301.627	9155.06
301.693	9159
301.76	9158.91
301.826	9145.43
301.892	9152.99
301.959	9153.23
302.025	9147.93
302.092	9141.38
302.158	9144.37
302.224	9141.91
302.291	9136.18
302.357	9128.67
302.423	9124.39
302.49	9110.52
302.556	9123.19
302.622	9118.47
302.688	9127.47
302.755	9133.1
302.821	9143.31
302.887	9150.82
302.954	9145.57
303.02	9149.04
303.086	9154.62
303.152	9150.92
303.219	9156.4
303.285	9160.74
303.351	9175.04
303.417	9173.31
303.483	9169.98
303.55	9162.62
303.616	9155.06
303.682	9155.83
303.748	9149.67
303.815	9162.33
303.881	9174.61
303.947	9161.75
304.013	9164.5
304.079	9157.51
304.145	9139.85
304.212	9142.11
304.278	9134.41
304.344	9130.41
304.41	9118.28
304.476	9107.4
304.542	9106.43
304.608	9106.34
304.674	9082.84
304.741	9065.56
304.807	9066.76
304.873	9069.75
304.939	9086.26
305.005	9068.11
305.071	9065.46
305.137	9069.99
305.203	9041.1
305.269	9029.35
305.335	9033.68
305.401	9032.96
305.467	9028.82
305.533	9043.79
305.599	9043.02
305.666	9046.3
305.732	9049.28
305.798	9055.25
305.864	9077.83
305.93	9075.43
305.996	9071.43
306.062	9074.22
306.128	9073.21
306.194	9068.83
306.259	9069.02
306.325	9059.2
306.391	9073.21
306.457	9077.74
306.523	9076.2
306.589	9099.11
306.655	9097.09
306.721	9080.53
306.787	9061.32
306.853	9075.91
306.919	9050.25
306.985	9040.19
307.051	9032.29
307.117	9018.24
307.183	9013.71
307.248	8985.07
307.314	8992.34
307.38	8996.28
307.446	9000.9
307.512	8987.38
307.578	8980.97
307.644	8972.07
307.709	8967.21
307.775	8954.83
307.841	8947.47
307.907	8949.68
307.973	8926.04
308.039	8920.07
308.104	8927.92
308.17	8931.53
308.236	8911.94
308.302	8916.32
308.368	8906.21
308.433	8906.88
308.499	8900.72
308.565	8894.66
308.631	8889.55
308.696	8858.8
308.762	8839.35
308.828	8832.95
308.894	8816.68
308.959	8803.63
309.025	8793.33
309.091	8789.53
309.156	8779.23
309.222	8784.04
309.288	8771.82
309.354	8753.34
309.419	8756.42
309.485	8732.3
309.551	8732.3
309.616	8717.62
309.682	8714.49
309.748	8708.91
309.813	8700.68
309.879	8696.11
309.945	8680.76
310.01	8678.06
310.076	8686.53
310.141	8682.25
310.207	8670.98
310.273	8665.55
310.338	8664.39
310.404	8642.06
310.469	8627.29
310.535	8617.81
310.601	8588.64
310.666	8589.07
310.732	8597.54
310.797	8578.19
310.863	8571.94
310.928	8561.16
310.994	8563.8
311.059	8562.75
311.125	8559.62
311.191	8565.73
311.256	8549.95
311.322	8555.05
311.387	8533.06
311.453	8721.34
311.518	8706.38
311.584	8700.41
311.649	8708.01
311.715	8699.21
311.78	8701.42
311.846	8691.89
311.911	8694.97
311.976	8696.56
312.042	8680.05
312.107	8663.5
312.173	8655.8
312.238	8650.6
312.304	8648.92
312.369	8635.88
312.434	8614.85
312.5	8609.75
312.565	8578.71
312.631	8587.71
312.696	8571.64
312.761	8575.1
312.827	8371.9
312.892	8404.62
312.958	8401.4
313.023	8394.71
313.088	8382.25
313.154	8369.93
313.219	8358.2
313.284	8351.65
313.35	8351.36
313.415	8341.31
313.48	8334.52
313.546	8337.89
313.611	8344.92
313.676	8335.34
313.741	8325.09
313.807	8334.19
313.872	8330.29
313.937	8332.94
314.003	8333.22
314.068	8333.51
314.133	8339.34
314.198	8328.03
314.264	8300.74
314.329	8290.01
314.394	8283.42
314.459	8290.92
314.525	8309.01
314.59	8304.64
314.655	8289.43
314.72	8291.89
314.785	8290.78
314.851	8284.62
314.916	8263.84
314.981	8247.58
315.046	8239.4
315.111	8232.18
315.176	8217.17
315.242	8219.53
315.307	8220.88
315.372	8200.77
315.437	8191.43
315.502	8179.64
315.567	8189.12
315.632	8172.24
315.698	8173.82
315.763	8166.46
315.828	8157.51
315.893	8152.85
315.958	8143.04
316.023	8132.5
316.088	8110.8
316.153	8089.55
316.218	8086.42
316.283	8070.31
316.348	8053.52
316.413	8043.18
316.479	8026.11
316.544	7997.73
316.609	7969.55
316.674	7938.62
316.739	7909.24
316.804	7885.68
316.869	7852.45
316.934	7818.97
316.999	7791.13
317.064	7741.98
317.129	7704.95
317.194	7672.83
317.259	7628.93
317.324	7587.3
317.389	7553.84
317.454	7518.64
317.518	7496.19
317.583	7469.75
317.648	7447.2
317.713	7412.69
317.778	7366.54
317.843	7338.47
317.908	7302.24
317.973	7263.5
318.038	7236.58
318.103	7205.83
318.168	7172.19
318.233	7141.29
318.297	7092.85
318.362	7059.79
318.427	7027.32
318.492	7009.63
318.557	6961.45
318.622	6928.68
318.687	6910.67
318.751	6866.82
318.816	6839.58
318.881	6802.5
318.946	6752.88
319.011	6713.35
319.075	6677.53
319.14	6639.26
319.205	6600.41
319.27	6567.09
319.335	6527.57
319.399	6484.36
319.464	6458.43
319.529	6408.37
319.594	6373.61
319.658	6347.73
319.723	6308.66
319.788	6277.99
319.853	6223.6
319.917	6197.98
319.982	6153.06
320.047	6115.43
320.112	6092.4
320.176	6041.01
320.241	6007.66
320.306	5976.86
320.37	5941.5
320.435	5911.28
320.5	5888.97
320.564	5846.58
320.629	5809.65
320.694	5784.04
320.758	5747.79
320.823	5708.07
320.888	5686.5
320.952	5639.56
321.017	5598.71
321.082	5558.25
321.146	5527.66
321.211	5493.68
321.275	5453.7
321.34	5413.02
321.405	5373.14
321.469	5331.4
321.534	5289.68
321.598	5242.24
321.663	5214.83
321.727	5182.44
321.792	5142
321.857	5098.97
321.921	5067.89
321.986	5028.39
322.05	4966.95
322.115	4932.99
322.179	4884.01
322.244	4827.96
322.308	4799.95
322.373	4759.3
322.437	4721.97
322.502	4697.35
322.566	4656.96
322.631	4626.37
322.695	4592.45
322.76	4551.39
322.824	4520.53
322.889	4486.86
322.953	4443.58
323.018	4378.81
323.082	4320.22
323.146	4268.67
323.211	4220.42
323.275	4180.44
323.34	4141.34
323.404	4117.15
323.468	4074.07
323.533	4039.33
323.597	3999.44
323.662	3947.97
323.726	3911.74
323.79	3871.61
323.855	3811.62
323.919	3764.51
323.983	3717.17
324.048	3651.48
324.112	3811.26
324.177	3687.61
324.241	3495.71
324.305	3312.75
324.37	3133.71
324.434	2956.86
324.498	2918.39
324.562	2873.8
324.627	2819.31
324.691	2769.84
324.755	2706.55
324.82	2637.43
324.884	2566.81
324.948	2505.22
325.012	2427.36
325.077	2319.85
