Data from 20250625_urea_1M_1_MAYP1162681_14-15-06-269.txt Node
Date: Thu Jun 26 14:15:06 BST 2025
User: adleo
Spectrometer: MAYP116268
Trigger mode: 0
Integration Time (sec): 1.000000E0
Scans to average: 1
Electric dark correction enabled: true
Nonlinearity correction enabled: true
Boxcar width: 10
XAxis mode: Wavelengths
Number of Pixels in Spectrum: 2068
>>>>>Begin Spectral Data<<<<<
179.565	1141.66
179.642	1195.59
179.718	1234.47
179.795	1275.43
179.871	1304.6
179.948	1319.34
180.024	1338.51
180.101	1361.53
180.177	1373.1
180.254	1395.04
180.33	1417.64
180.407	1466.72
180.483	1557.46
180.56	1641.65
180.636	1723.16
180.712	1712.28
180.789	1719.5
180.865	1732.85
180.942	1741.16
181.018	1751.52
181.095	1762.69
181.171	1768.68
181.248	1769.49
181.324	1785.89
181.4	1790.12
181.477	1799.72
181.553	1813.45
181.63	1836.55
181.706	1850.72
181.782	1861.41
181.859	1860.74
181.935	1864.02
182.011	1862.08
182.088	1879.29
182.164	1897.69
182.24	1908.48
182.317	1917.41
182.393	1915.99
182.469	1925.83
182.546	1940.37
182.622	1943.51
182.698	1940.14
182.775	1953.02
182.851	1966.05
182.927	1959.63
183.003	1955.68
183.08	1951.98
183.156	1960.82
183.232	1954.54
183.308	1944.08
183.385	1948.45
183.461	1965.43
183.537	1966.09
183.613	1978.12
183.69	1967.05
183.766	1956.82
183.842	1965.19
183.918	1969.85
183.995	1981.02
184.071	1985.87
184.147	1978.74
184.223	1970.23
184.299	1981.88
184.375	1967.81
184.452	1973.8
184.528	2024.32
184.604	2035.63
184.68	2046.76
184.756	2053.04
184.832	2056.37
184.908	2060.31
184.985	2061.26
185.061	2047.28
185.137	2056.7
185.213	2045.24
185.289	2050.47
185.365	2045.62
185.441	2042.53
185.517	2053.9
185.593	2052.33
185.669	2049.28
185.745	2060.55
185.822	2074.86
185.898	2065.92
185.974	2075.71
186.05	2066.34
186.126	2031.48
186.202	2022.68
186.278	2018.88
186.354	2013.22
186.43	2020.5
186.506	2019.36
186.582	2020.21
186.658	2023.35
186.734	2004.47
186.81	2006.85
186.886	2006.14
186.962	2016.17
187.038	2014.36
187.114	2007.23
187.19	2013.93
187.266	2005.9
187.341	2007.18
187.417	2000.05
187.493	2002
187.569	2007.33
187.645	2003.28
187.721	1990.96
187.797	1997.67
187.873	2001.19
187.949	1992.44
188.025	1985.35
188.101	1988.44
188.176	1992.1
188.252	1991.06
188.328	2001.13
188.404	2000.52
188.48	1996.81
188.556	1987.73
188.632	1986.58
188.707	1987.01
188.783	1983.92
188.859	1979.07
188.935	1968.89
189.011	1978.64
189.086	1972.75
189.162	1965.66
189.238	1964.85
189.314	1963
189.39	1959.15
189.465	1953.92
189.541	1971.27
189.617	1957.25
189.693	1954.35
189.768	1960.72
189.844	1981.75
189.92	1971.2
189.996	1980.61
190.071	1990.6
190.147	1992.74
190.223	2003.2
190.298	1998.21
190.374	1985.65
190.45	1996.97
190.526	2001.34
190.601	1993.59
190.677	1993.69
190.753	2019.29
190.828	2022.9
190.904	2035.22
190.98	2050.53
191.055	2056.62
191.131	2046.63
191.207	2067.17
191.282	2074.21
191.358	2062.37
191.433	2050.62
191.509	2060.88
191.585	2054.03
191.66	2056.27
191.736	2065.5
191.811	2054.37
191.887	2066.5
191.963	2089.61
192.038	2094.89
192.114	2096.32
192.189	2100.74
192.265	2099.36
192.34	2076.14
192.416	2075.19
192.491	2072.48
192.567	2075
192.642	2079.14
192.718	2081.75
192.793	2068.63
192.869	2064.77
192.944	2067.53
193.02	2071.53
193.095	2080.71
193.171	2090.98
193.246	2087.94
193.322	2083.04
193.397	2084.75
193.473	2075.09
193.548	2058.25
193.624	2062.96
193.699	2063.44
193.775	2076.52
193.85	2077.85
193.925	2086.08
194.001	2085.08
194.076	2075.57
194.152	2061.96
194.227	2057.06
194.302	2047.7
194.378	2054.5
194.453	2052.74
194.529	2065.39
194.604	2054.02
194.679	2046.27
194.755	2026.11
194.83	2038.91
194.905	2038.34
194.981	2045.71
195.056	2035.06
195.131	2039.44
195.207	2038.01
195.282	2027.88
195.357	2011.47
195.433	2022.64
195.508	2011.99
195.583	2020.74
195.659	2038.82
195.734	2048.09
195.809	2047.71
195.884	2054.56
195.96	2052.42
196.035	2068.64
196.11	2062.64
196.185	2073.58
196.261	2075.53
196.336	2106.68
196.411	2091.46
196.486	2097.31
196.561	2093.12
196.637	2105.39
196.712	2121.52
196.787	2127.37
196.862	2141.64
196.937	2152.34
197.013	2161.15
197.088	2170.56
197.163	2188.74
197.238	2202.89
197.313	2203.31
197.388	2215.02
197.464	2243.81
197.539	2258.08
197.614	2249.14
197.689	2262.84
197.764	2277.07
197.839	2298.3
197.914	2293.54
197.989	2316.14
198.065	2326.94
198.14	2374.14
198.215	2399.65
198.29	2411.79
198.365	2422.84
198.44	2432.17
198.515	2459.54
198.59	2473.68
198.665	2501.87
198.74	2508.4
198.815	2508.16
198.89	2528.34
198.965	2556.87
199.04	2554.54
199.115	2569.21
199.19	2609.54
199.265	2612.01
199.34	2622.11
199.415	2653.85
199.49	2671.61
199.565	2682.61
199.64	2706.29
199.715	2706.67
199.79	2712.05
199.865	2716.77
199.94	2713.53
200.015	2746.17
200.09	2752.36
200.165	2756.17
200.24	2760.51
200.315	2800.61
200.39	2818.96
200.464	2824.87
200.539	2825.3
200.614	2839.54
200.689	2863.04
200.764	2869.67
200.839	2885.82
200.914	2890.68
200.989	2880.28
201.063	2896.11
201.138	2879.72
201.213	2881.06
201.288	2859.13
201.363	2865
201.438	2865.66
201.512	2883.72
201.587	2863.03
201.662	2867.04
201.737	2882.43
201.812	2890.25
201.886	2856.77
201.961	2861.63
202.036	2851.48
202.111	2851.44
202.186	2823.76
202.26	2805.22
202.335	2782.58
202.41	2778.68
202.485	2761.91
202.559	2742.47
202.634	2719.12
202.709	2723.69
202.784	2705.78
202.858	2706.45
202.933	2687.39
203.008	2680.34
203.082	2662.43
203.157	2665.52
203.232	2623.1
203.306	2599.79
203.381	2568.16
203.456	2548.02
203.53	2524.04
203.605	2506.15
203.68	2484.85
203.754	2479.95
203.829	2464.23
203.904	2444.76
203.978	2433.76
204.053	2440.33
204.127	2431.33
204.202	2424.57
204.277	2412.29
204.351	2404.91
204.426	2397.39
204.5	2388.73
204.575	2355.32
204.65	2361.84
204.724	2353.13
204.799	2362.45
204.873	2358.5
204.948	2356.36
205.022	2344.37
205.097	2336.89
205.171	2350.27
205.246	2357.27
205.32	2356.12
205.395	2355.27
205.469	2351.75
205.544	2354.37
205.618	2339.04
205.693	2347.65
205.767	2336.95
205.842	2354.56
205.916	2347.42
205.991	2340.04
206.065	2344.76
206.14	2361.07
206.214	2355.17
206.289	2350.02
206.363	2357.97
206.438	2364.26
206.512	2374.49
206.586	2392.91
206.661	2403.44
206.735	2381.02
206.81	2383.93
206.884	2397.68
206.958	2386.45
207.033	2399.16
207.107	2407.26
207.181	2437.21
207.256	2432.12
207.33	2452.92
207.405	2467.17
207.479	2486.54
207.553	2491.54
207.628	2477.93
207.702	2489.31
207.776	2488.02
207.851	2491.26
207.925	2506.07
207.999	2501.88
208.073	2496.83
208.148	2501.12
208.222	2489.88
208.296	2520.77
208.371	2531.78
208.445	2541.63
208.519	2570.34
208.593	2584.87
208.668	2580.3
208.742	2579.01
208.816	2577.82
208.89	2592.02
208.965	2587.78
209.039	2598.54
209.113	2614.97
209.187	2638.15
209.261	2636.96
209.336	2656.16
209.41	2677.89
209.484	2679.89
209.558	2702.09
209.632	2720.29
209.707	2734.68
209.781	2758.35
209.855	2774.65
209.929	2795.02
210.003	2806.12
210.077	2804.83
210.151	2855.16
210.226	2891.06
210.3	2924.88
210.374	2953.89
210.448	2963.57
210.522	2981.31
210.596	2996.71
210.67	3014.25
210.744	3070.11
210.818	3110
210.892	3135.33
210.966	3137.38
211.041	3165.61
211.115	3173.43
211.189	3210.44
211.263	3240.74
211.337	3260.29
211.411	3292.4
211.485	3299.66
211.559	3327.04
211.633	3351.31
211.707	3336.22
211.781	3365.68
211.855	3353.42
211.929	3368.68
212.003	3372.16
212.077	3406.39
212.151	3445.93
212.225	3483.45
212.299	3496.59
212.373	3515.87
212.447	3544.39
212.52	3603.45
212.594	3638.32
212.668	3685.88
212.742	3706.04
212.816	3734.42
212.89	3770.76
212.964	3811.06
213.038	3862.68
213.112	3917.98
213.186	3982.2
213.26	4010.81
213.333	4017.79
213.407	4070.05
213.481	4128.16
213.555	4196.24
213.629	4244.89
213.703	4284.5
213.777	4342.68
213.85	4384.4
213.924	4476.05
213.998	4541.04
214.072	4599.45
214.146	4654.35
214.219	4716.77
214.293	4783.44
214.367	4859.48
214.441	4936.04
214.515	4992.13
214.588	5039.93
214.662	5077.86
214.736	5122.79
214.81	5201.88
214.883	5284.73
214.957	5350.83
215.031	5409.13
215.105	5460.05
215.178	5527.85
215.252	5604.9
215.326	5660.57
215.4	5719.73
215.473	5750.48
215.547	5809.24
215.621	5873.83
215.694	5959.1
215.768	6016.68
215.842	6081.59
215.915	6146.83
215.989	6206.4
216.063	6280.33
216.136	6359.78
216.21	6451.03
216.284	6550.13
216.357	6636.95
216.431	6714.07
216.504	6803.25
216.578	6918.02
216.652	7011.61
216.725	7088.01
216.799	7171.88
216.873	7247.51
216.946	7339.82
217.02	7421.84
217.093	7506.45
217.167	7569.08
217.24	7632.7
217.314	7718.7
217.387	7799.57
217.461	7872.67
217.535	7962.94
217.608	8034.37
217.682	8121.92
217.755	8212.22
217.829	8280.4
217.902	8356.32
217.976	8438.93
218.049	8512.41
218.123	8569.2
218.196	8655.92
218.27	8733.46
218.343	8800.8
218.417	8892.21
218.49	8966.91
218.563	9057.75
218.637	9133.53
218.71	9240.08
218.784	9326.84
218.857	9415.73
218.931	9500.57
219.004	9580.17
219.077	9672.17
219.151	9753.41
219.224	9820.84
219.298	9891.6
219.371	9979.32
219.444	10044.05
219.518	10124.98
219.591	10205.61
219.665	10316.28
219.738	10398.52
219.811	10461.29
219.885	10544.36
219.958	10628.63
220.031	10707.21
220.105	10794.67
220.178	10877.26
220.251	10937.74
220.325	11021.2
220.398	11091.08
220.471	11167.8
220.544	11253.15
220.618	11315.85
220.691	11395.61
220.764	11474.5
220.838	11555.71
220.911	11623.62
220.984	11716.45
221.057	11794.24
221.131	11865.57
221.204	11905.91
221.277	11991.91
221.35	12093.46
221.424	12152.56
221.497	12210.98
221.57	12286.17
221.643	12341.9
221.716	12412.76
221.79	12480.48
221.863	12546.18
221.936	12611.89
222.009	12680.19
222.082	12745.46
222.155	12803.89
222.229	12880.92
222.302	12946.77
222.375	13002.73
222.448	13072.78
222.521	13135.16
222.594	13190.64
222.667	13241.64
222.74	13303.3
222.814	13355.22
222.887	13407.81
222.96	13484.75
223.033	13555.56
223.106	13604.73
223.179	13676.9
223.252	13731.71
223.325	13786.71
223.398	13842.68
223.471	13905.93
223.544	13956.11
223.617	14013.28
223.69	14069.1
223.763	14108.63
223.837	14161.76
223.91	14220.08
223.983	14246.74
224.056	14287.14
224.129	14335.15
224.202	14401.24
224.275	14450.6
224.348	14485.6
224.42	14519.97
224.493	14545.28
224.566	14586.54
224.639	14642.27
224.712	14672.06
224.785	14703.68
224.858	14747.79
224.931	14783.89
225.004	14809.92
225.077	14844.72
225.15	14857.4
225.223	14892.45
225.296	14950
225.369	14972.61
225.442	14998.06
225.514	15048.72
225.587	15085.98
225.66	15133.08
225.733	15166.96
225.806	15201.67
225.879	15241.68
225.952	15269.78
226.025	15319.52
226.097	15367.77
226.17	15401.71
226.243	15420.02
226.316	15466.15
226.389	15497.87
226.461	15530.11
226.534	15568
226.607	15606.95
226.68	15657.32
226.753	15698.38
226.825	15710.14
226.898	15756.47
226.971	15791.84
227.044	15833.97
227.117	15875.23
227.189	15911.19
227.262	15954.28
227.335	15997.08
227.407	16019.2
227.48	16059.21
227.553	16090.92
227.626	16107.11
227.698	16130.78
227.771	16164.81
227.844	16182.98
227.916	16217.49
227.989	16233.39
228.062	16258.7
228.134	16304.44
228.207	16338.08
228.28	16353.45
228.352	16380.73
228.425	16409.27
228.498	16448.31
228.57	16446.14
228.643	16480.69
228.716	16500.45
228.788	16512.31
228.861	16518.72
228.934	16557.95
229.006	16578.92
229.079	16599.02
229.151	16613.43
229.224	16624.66
229.296	16660.23
229.369	16706.97
229.442	16736.28
229.514	16755.8
229.587	16788.67
229.659	16789.05
229.732	16813.15
229.804	16839.27
229.877	16883.32
229.949	16911.13
230.022	16943.42
230.094	16977.16
230.167	16997.54
230.239	17001.2
230.312	17013.98
230.384	17064.39
230.457	17089.06
230.529	17114.99
230.602	17135.33
230.674	17166.17
230.747	17193.84
230.819	17220.73
230.892	17203.38
230.964	17230.46
231.037	17252.87
231.109	17265.84
231.181	17289.89
231.254	17294.22
231.326	17310.61
231.399	17322.18
231.471	17327.09
231.544	17313.45
231.616	17331.48
231.688	17334.71
231.761	17346.13
231.833	17359.33
231.905	17338.76
231.978	17345.65
232.05	17341.79
232.122	17352.92
232.195	17346.85
232.267	17371.04
232.339	17377.26
232.412	17411.04
232.484	17405.89
232.556	17403.72
232.629	17434.8
232.701	17448.06
232.773	17453.74
232.846	17458.71
232.918	17459
232.99	17468.25
233.062	17484.15
233.135	17494.66
233.207	17490.22
233.279	17500.3
233.351	17511.62
233.424	17512.44
233.496	17495.38
233.568	17516.59
233.64	17500.35
233.713	17504.15
233.785	17502.95
233.857	17497.65
233.929	17467.67
234.001	17485.55
234.074	17505.74
234.146	17478.61
234.218	17472.3
234.29	17467.53
234.362	17460.35
234.434	17433.26
234.507	17417.94
234.579	17397.98
234.651	17385.6
234.723	17391.53
234.795	17391.96
234.867	17388.2
234.939	17408.3
235.012	17412.35
235.084	17418.51
235.156	17431.14
235.228	17418.03
235.3	17402.61
235.372	17403.72
235.444	17424.1
235.516	17386.13
235.588	17372.3
235.66	17369.21
235.732	17353.94
235.804	17403.53
235.876	17401.79
235.948	17417.84
236.02	17413.07
236.092	17408.2
236.164	17398.61
236.236	17384.15
236.308	17364.39
236.38	17354.66
236.452	17329.45
236.524	17326.95
236.596	17329.69
236.668	17323.14
236.74	17320.05
236.812	17312.58
236.884	17299.77
236.956	17283.81
237.028	17265.21
237.1	17246.9
237.172	17241.07
237.244	17252.58
237.316	17198.71
237.388	17179.52
237.46	17161.26
237.532	17167.62
237.604	17141.26
237.675	17142.22
237.747	17136.82
237.819	17119.33
237.891	17104.15
237.963	17084.39
238.035	17048.82
238.107	16987.08
238.178	16974.89
238.25	16953.88
238.322	16964.43
238.394	16938.12
238.466	16914.84
238.538	16917.44
238.609	16913.78
238.681	16887.61
238.753	16853.78
238.825	16838.69
238.897	16831.27
238.968	16815.22
239.04	16784.67
239.112	16802.16
239.184	16779.7
239.255	16757.34
239.327	16751.17
239.399	16731.03
239.471	16717
239.542	16718.11
239.614	16714.01
239.686	16671.17
239.758	16664.85
239.829	16624.03
239.901	16614.2
239.973	16595.69
240.044	16572.75
240.116	16548.03
240.188	16525.52
240.259	16503.73
240.331	16471.39
240.403	16447.82
240.474	16419.29
240.546	16388.25
240.618	16337.26
240.689	16304.25
240.761	16287.23
240.833	16275.62
240.904	16254.41
240.976	16234.12
241.048	16205.68
241.119	16190.16
241.191	16175.89
241.262	16169.15
241.334	16145.14
241.405	16122.49
241.477	16091.64
241.549	16062.58
241.62	16039.59
241.692	16021.08
241.763	16010
241.835	15988.4
241.906	15965.65
241.978	15927.53
242.049	15919.09
242.121	15907.91
242.192	15896.34
242.264	15859.47
242.335	15823.8
242.407	15809.49
242.478	15779.99
242.55	15765.38
242.621	15741.91
242.693	15719.88
242.764	15687.49
242.836	15659.2
242.907	15639.1
242.979	15632.11
243.05	15606.03
243.122	15587.81
243.193	15562.41
243.264	15517.15
243.336	15495.36
243.407	15484.23
243.479	15476.57
243.55	15448.42
243.622	15435.4
243.693	15402.53
243.764	15391.3
243.836	15347.53
243.907	15307.67
243.978	15286.6
244.05	15264.86
244.121	15222.15
244.192	15212.9
244.264	15166.87
244.335	15140.84
244.407	15103.91
244.478	15074.94
244.549	15053.49
244.62	15014.59
244.692	14985.72
244.763	14968.41
244.834	14937.56
244.906	14903.53
244.977	14884.78
245.048	14874.13
245.119	14839.13
245.191	14814.12
245.262	14768.56
245.333	14774.11
245.405	14762.83
245.476	14742.97
245.547	14714.91
245.618	14700.64
245.689	14664.49
245.761	14646.37
245.832	14625.93
245.903	14606.07
245.974	14583.89
246.045	14562.2
246.117	14559.26
246.188	14524.21
246.259	14488.45
246.33	14461.45
246.401	14428.62
246.473	14392.04
246.544	14365.28
246.615	14343.44
246.686	14317.12
246.757	14307.24
246.828	14263.13
246.899	14241.68
246.97	14195.93
247.042	14159.49
247.113	14141.32
247.184	14147.63
247.255	14127.1
247.326	14097.84
247.397	14073.01
247.468	14057.29
247.539	14034.93
247.61	13993.71
247.681	13987.64
247.752	13982.29
247.823	13950.47
247.894	13928.2
247.965	13893.97
248.037	13861.05
248.108	13828.8
248.179	13808.55
248.25	13781.84
248.321	13766.95
248.392	13738.8
248.463	13746.32
248.534	13734.26
248.605	13710.98
248.675	13675.45
248.746	13651.54
248.817	13634.24
248.888	13609.89
248.959	13564.24
249.03	13543.7
249.101	13518.49
249.172	13481.76
249.243	13432.44
249.314	13427.24
249.385	13410.51
249.456	13394.84
249.527	13364.57
249.598	13342.44
249.669	13315.83
249.739	13295.78
249.81	13283
249.881	13247.67
249.952	13218.6
250.023	13187.46
250.094	13158.44
250.165	13127.73
250.235	13104.69
250.306	13087.48
250.377	13058.22
250.448	13040.57
250.519	12997.81
250.59	12995.26
250.66	12970.72
250.731	12971.83
250.802	12948.4
250.873	12930.52
250.944	12919
251.014	12895.57
251.085	12902.66
251.156	12884.19
251.227	12879.13
251.297	12866.07
251.368	12860.62
251.439	12845.15
251.51	12846.78
251.58	12820.22
251.651	12789.71
251.722	12783.49
251.792	12742.71
251.863	12724.87
251.934	12722.51
252.005	12737.5
252.075	12718.8
252.146	12718.37
252.217	12706.65
252.287	12696.72
252.358	12673.73
252.429	12662.74
252.499	12642.06
252.57	12618.29
252.641	12609.42
252.711	12594.33
252.782	12560.01
252.852	12553.12
252.923	12528.2
252.994	12501.25
253.064	12489.73
253.135	12459.55
253.205	12432.9
253.276	12439.65
253.347	12433.48
253.417	12405.28
253.488	12380.6
253.558	12355.43
253.629	12333.36
253.699	12314.56
253.77	12296.38
253.841	12269.63
253.911	12254.16
253.982	12244.9
254.052	12236.56
254.123	12221.43
254.193	12192.02
254.264	12212.9
254.334	12179.11
254.405	12151.39
254.475	12120.78
254.546	12103.14
254.616	12101.36
254.687	12090.03
254.757	12071.28
254.827	12044.86
254.898	12031.37
254.968	12004.62
255.039	11970.64
255.109	11955.4
255.18	11929.76
255.25	11888.65
255.321	11882.24
255.391	11855.73
255.461	11855.34
255.532	11810.71
255.602	11789.31
255.673	11759.33
255.743	11722.64
255.813	11685
255.884	11682.06
255.954	11675.17
256.024	11673.92
256.095	11661.05
256.165	11627.4
256.235	11615.98
256.306	11598.58
256.376	11584.7
256.446	11568.99
256.517	11560.75
256.587	11556.36
256.657	11547.16
256.728	11534.91
256.798	11513.9
256.868	11485.18
256.938	11453.37
257.009	11446.09
257.079	11433.65
257.149	11436.98
257.219	11410.37
257.29	11408.73
257.36	11371.53
257.43	11360.4
257.5	11320.92
257.571	11297.07
257.641	11289.12
257.711	11259.96
257.781	11251.09
257.852	11243.23
257.922	11213.07
257.992	11202.8
258.062	11181.6
258.132	11164.97
258.202	11152.15
258.273	11145.84
258.343	11155.81
258.413	11129.93
258.483	11117.89
258.553	11095.81
258.623	11069.4
258.693	11049.55
258.764	11043.48
258.834	11048.73
258.904	11033.89
258.974	11006.95
259.044	10985.27
259.114	10974.91
259.184	10963.53
259.254	10943.29
259.324	10904.6
259.394	10899.35
259.464	10897.66
259.535	10873.28
259.605	10850.39
259.675	10829.71
259.745	10819.35
259.815	10792.17
259.885	10773.72
259.955	10780.42
260.025	10747.9
260.095	10738.11
260.165	10722.89
260.235	10722.36
260.305	10692.82
260.375	10667.62
260.445	10678.84
260.515	10679.37
260.585	10676.15
260.655	10658.75
260.725	10654.03
260.795	10648.68
260.865	10652.92
260.934	10629.55
261.004	10630.56
261.074	10621.41
261.144	10624.83
261.214	10614.66
261.284	10600.26
261.354	10598.57
261.424	10573.08
261.494	10579.53
261.564	10556.79
261.634	10556.6
261.703	10521.18
261.773	10519.45
261.843	10507.79
261.913	10492.47
261.983	10465.39
262.053	10447.08
262.123	10432.24
262.192	10405.94
262.262	10402.47
262.332	10368.94
262.402	10356.36
262.472	10340.51
262.541	10306.64
262.611	10299.22
262.681	10274.99
262.751	10262.56
262.821	10244.11
262.89	10215.06
262.96	10210.82
263.03	10229.99
263.1	10218.19
263.169	10209.32
263.239	10194.29
263.309	10199.16
263.379	10190.49
263.448	10176.66
263.518	10181.39
263.588	10165.97
263.657	10163.8
263.727	10155.42
263.797	10143.91
263.867	10130.71
263.936	10100.84
264.006	10099.93
264.076	10075.45
264.145	10057.05
264.215	10035.57
264.285	10026.52
264.354	9996.65
264.424	9970.01
264.494	9929.4
264.563	9902.33
264.633	9909.17
264.702	9898.96
264.772	9864.71
264.842	9844.91
264.911	9843.61
264.981	9803.24
265.05	9788.12
265.12	9774.15
265.19	9762.45
265.259	9764.76
265.329	9753.39
265.398	9745.88
265.468	9755.9
265.537	9742.12
265.607	9738.8
265.676	9739.57
265.746	9736.53
265.815	9735.19
265.885	9725.94
265.955	9708.02
266.024	9697.67
266.094	9656.83
266.163	9660.25
266.232	9660.68
266.302	9647.19
266.371	9629.52
266.441	9620.95
266.51	9618.49
266.58	9602.74
266.649	9582.9
266.719	9575.43
266.788	9568.16
266.858	9575.58
266.927	9542.01
266.996	9540.71
267.066	9528.86
267.135	9499.97
267.205	9495.83
267.274	9488.27
267.343	9483.65
267.413	9473.34
267.482	9473.25
267.552	9481.82
267.621	9454.75
267.69	9428.46
267.76	9421.62
267.829	9417.63
267.898	9407.13
267.968	9389.7
268.037	9389.7
268.106	9386.47
268.176	9363.02
268.245	9351.32
268.314	9322.33
268.384	9323.24
268.453	9306.15
268.522	9300.23
268.592	9309.04
268.661	9283.61
268.73	9277.98
268.799	9257.8
268.869	9261.99
268.938	9235.13
269.007	9214.9
269.076	9200.36
269.146	9201.62
269.215	9198.97
269.284	9201.76
269.353	9189.43
269.422	9173.89
269.492	9152.07
269.561	9111.93
269.63	9109.71
269.699	9094.54
269.768	9094.5
269.838	9087.56
269.907	9082.36
269.976	9059.3
270.045	9027.72
270.114	9023.1
270.183	9010.05
270.253	9007.02
270.322	8977.51
270.391	8967.84
270.46	8966.92
270.529	8968.41
270.598	8967.55
270.667	8949.54
270.736	8928.12
270.806	8920.37
270.875	8928.55
270.944	8915.22
271.013	8943.28
271.082	8933.22
271.151	8927.3
271.22	8896.97
271.289	8881.86
271.358	8873.34
271.427	8867.75
271.496	8863.28
271.565	8851.1
271.634	8838.01
271.703	8861.5
271.772	8866.46
271.841	8860.11
271.91	8841.14
271.979	8836.91
272.048	8813.8
272.117	8814.33
272.186	8795.03
272.255	8792.86
272.324	8786.12
272.393	8784.05
272.462	8757.39
272.531	8745.4
272.6	8731.01
272.669	8738.18
272.738	8731.73
272.807	8726.72
272.876	8705.45
272.945	8728.99
273.013	8733.37
273.082	8737.46
273.151	8695.87
273.22	8696.45
273.289	8692.36
273.358	8699.77
273.427	8685.38
273.496	8681.91
273.564	8683.93
273.633	8688.89
273.702	8673.34
273.771	8666.7
273.84	8663.91
273.909	8670.75
273.977	8669.69
274.046	8661.41
274.115	8666.37
274.184	8648.42
274.253	8638.07
274.322	8651.45
274.39	8614.77
274.459	8596.97
274.528	8574.11
274.597	8566.89
274.665	8558.32
274.734	8563.23
274.803	8557.07
274.872	8552.36
274.94	8543.21
275.009	8585.97
275.078	8578.7
275.147	8575.19
275.215	8566.38
275.284	8571
275.353	8560.22
275.421	8537.42
275.49	8550.7
275.559	8535.15
275.627	8531.16
275.696	8527.84
275.765	8525.43
275.833	8526.35
275.902	8527.6
275.971	8537.8
276.039	8556.14
276.108	8562.2
276.177	8556.38
276.245	8540.45
276.314	8541.36
276.383	8542.04
276.451	8486.62
276.52	8484.89
276.588	8496.05
276.657	8502.07
276.725	8488.79
276.794	8487.44
276.863	8502.74
276.931	8483.3
277	8494.37
277.068	8508.94
277.137	8522.28
277.205	8519.05
277.274	8530.84
277.342	8535.94
277.411	8518.38
277.48	8501.3
277.548	8488.11
277.617	8492.3
277.685	8489.7
277.754	8484.45
277.822	8479.3
277.89	8492.3
277.959	8478.2
278.027	8463.14
278.096	8456.45
278.164	8486.44
278.233	8477.34
278.301	8466.66
278.37	8471.66
278.438	8457.61
278.507	8455.88
278.575	8433.12
278.643	8433.94
278.712	8414.16
278.78	8404.73
278.849	8416.76
278.917	8424.21
278.985	8419.69
279.054	8412.81
279.122	8423.59
279.191	8422.48
279.259	8422.43
279.327	8395.87
279.396	8415.84
279.464	8409.29
279.532	8407.71
279.601	8400.82
279.669	8400.82
279.737	8412.75
279.806	8418.63
279.874	8430.37
279.942	8425.36
280.011	8421.37
280.079	8427.63
280.147	8449.47
280.215	8453.66
280.284	8443.17
280.352	8432.63
280.42	8439.8
280.488	8436.48
280.557	8428.15
280.625	8431.72
280.693	8428.4
280.761	8430.85
280.83	8415.21
280.898	8427.91
280.966	8415.79
281.034	8383.07
281.102	8367.86
281.171	8360.55
281.239	8365.84
281.307	8355.55
281.375	8343.18
281.443	8369.17
281.512	8355.69
281.58	8361.71
281.648	8348.14
281.716	8351.56
281.784	8348.86
281.852	8337.89
281.92	8339.43
281.989	8347.61
282.057	8332.17
282.125	8362.24
282.193	8365.56
282.261	8364.02
282.329	8364.22
282.397	8365.95
282.465	8374.13
282.533	8386.01
282.601	8376.92
282.67	8354.44
282.738	8352.62
282.806	8365.61
282.874	8348.23
282.942	8351.7
283.01	8341.78
283.078	8349.14
283.146	8346.74
283.214	8360.98
283.282	8370.32
283.35	8377.25
283.418	8373.93
283.486	8380.37
283.554	8350.97
283.622	8350.78
283.69	8356.41
283.758	8344.23
283.826	8351.21
283.894	8356.79
283.962	8378.11
284.03	8395.33
284.098	8397.64
284.165	8389.75
284.233	8388.45
284.301	8380.56
284.369	8376.33
284.437	8374.5
284.505	8365.07
284.573	8374.6
284.641	8359.3
284.709	8361.56
284.777	8345.29
284.845	8353.71
284.912	8352.08
284.98	8356.75
285.048	8352.08
285.116	8350.3
285.184	8366.9
285.252	8361.65
285.319	8350.01
285.387	8341.3
285.455	8317
285.523	8323.79
285.591	8321.86
285.659	8325.04
285.726	8338.7
285.794	8325.95
285.862	8316.72
285.93	8318.88
285.997	8321.91
286.065	8316.19
286.133	8306.47
286.201	8301.99
286.269	8285.97
286.336	8286.64
286.404	8280.44
286.472	8281.93
286.539	8265.38
286.607	8252.63
286.675	8254.41
286.743	8259.89
286.81	8254.12
286.878	8268.74
286.946	8265.18
287.013	8267.64
287.081	8266.05
287.149	8252.24
287.216	8270.47
287.284	8267.78
287.352	8268.65
287.419	8263.3
287.487	8277.35
287.555	8285.05
287.622	8285.53
287.69	8290.1
287.758	8298.38
287.825	8290.97
287.893	8285.97
287.96	8296.36
288.028	8296.21
288.096	8297.27
288.163	8299.58
288.231	8292.03
288.298	8291.07
288.366	8299.2
288.433	8299.15
288.501	8293.04
288.569	8295.64
288.636	8289.67
288.704	8302.85
288.771	8310.36
288.839	8301.32
288.906	8296.07
288.974	8300.88
289.041	8304.11
289.109	8294.82
289.176	8297.61
289.244	8308.34
289.311	8319.41
289.379	8326.33
289.446	8332.3
289.514	8335.91
289.581	8335.43
289.649	8337.54
289.716	8339.42
289.783	8330.76
289.851	8344.09
289.918	8348.13
289.986	8358.09
290.053	8364.87
290.121	8362.28
290.188	8359
290.255	8383.21
290.323	8376.76
290.39	8373.05
290.458	8377.87
290.525	8386.24
290.592	8383.59
290.66	8382.53
290.727	8374.83
290.794	8392.06
290.862	8389.22
290.929	8388.64
290.996	8386.43
291.064	8393.55
291.131	8409.53
291.198	8426.61
291.266	8421.32
291.333	8415.74
291.4	8417.23
291.468	8431.28
291.535	8429.21
291.602	8437.73
291.669	8430.9
291.737	8441.14
291.804	8442.11
291.871	8450.82
291.938	8459.57
292.006	8478.82
292.073	8487.49
292.14	8499.32
292.207	8483.11
292.275	8481.37
292.342	8488.69
292.409	8512.7
292.476	8532.34
292.543	8522.47
292.611	8523.19
292.678	8543.84
292.745	8571.61
292.812	8583.06
292.879	8579.06
292.946	8575.31
293.014	8593.22
293.081	8602.12
293.148	8615.02
293.215	8633.11
293.282	8634.8
293.349	8648.85
293.416	8638.89
293.484	8657.42
293.551	8662.95
293.618	8684.61
293.685	8715.79
293.752	8710.31
293.819	8710.16
293.886	8699.62
293.953	8701.4
294.02	8707.32
294.087	8712.52
294.154	8704.1
294.221	8716.37
294.288	8719.02
294.356	8745.11
294.423	8741.88
294.49	8735.77
294.557	8744.77
294.624	8731
294.691	8752.13
294.758	8754.01
294.825	8760.03
294.892	8749.53
294.959	8751.17
295.026	8755.6
295.093	8750.64
295.16	8757.19
295.226	8754.54
295.293	8782.6
295.36	8786.6
295.427	8797.77
295.494	8805.52
295.561	8813.26
295.628	8837.53
295.695	8844.99
295.762	8840.18
295.829	8856.79
295.896	8874.79
295.963	8880.08
296.03	8887.78
296.096	8887.98
296.163	8891.44
296.23	8905.64
296.297	8919.89
296.364	8920.37
296.431	8927.11
296.498	8920.66
296.564	8937.51
296.631	8942.42
296.698	8923.06
296.765	8944.53
296.832	8933.8
296.899	8915.65
296.965	8931.44
297.032	8905.34
297.099	8928.36
297.166	8936.11
297.233	8923.11
297.299	8912.33
297.366	8914.88
297.433	8924.51
297.5	8932.06
297.566	8935.48
297.633	8929.22
297.7	8931.05
297.767	8928.6
297.833	8934.38
297.9	8935.67
297.967	8927.01
298.033	8941.12
298.1	8969.52
298.167	8961.39
298.234	8965.86
298.3	8980.45
298.367	8975.73
298.434	8986.71
298.5	8973.56
298.567	8969.42
298.634	8970.96
298.7	8990.46
298.767	8993.35
298.834	8995.42
298.9	8992.58
298.967	8984.78
299.033	8996.28
299.1	9007.55
299.167	9017.56
299.233	9007.84
299.3	9020.74
299.366	9033.3
299.433	9044.04
299.5	9015.49
299.566	9018.28
299.633	9030.17
299.699	9039.66
299.766	9036.29
299.832	9041.2
299.899	9051.89
299.965	9066.91
300.032	9063.3
300.099	9059.11
300.165	9066.86
300.232	9069.89
300.298	9067.48
300.365	9081.3
300.431	9085.25
300.498	9078.08
300.564	9087.41
300.631	9097.96
300.697	9110.52
300.763	9106.82
300.83	9106.96
300.896	9124.2
300.963	9132.91
301.029	9138.59
301.096	9140.13
301.162	9150.05
301.229	9144.99
301.295	9129.83
301.361	9131.08
301.428	9134.11
301.494	9123.71
301.561	9115.48
301.627	9116.97
301.693	9117.6
301.76	9120.39
301.826	9111.87
301.892	9121.07
301.959	9132.48
302.025	9132.28
302.092	9123.18
302.158	9130.21
302.224	9126.22
302.291	9108.6
302.357	9104.26
302.423	9097.57
302.49	9089.39
302.556	9093.19
302.622	9087.12
302.688	9098.1
302.755	9107.2
302.821	9115.1
302.887	9128
302.954	9129.88
303.02	9139.41
303.086	9142.49
303.152	9136.66
303.219	9134.74
303.285	9142.88
303.351	9143.31
303.417	9141.48
303.483	9135.13
303.55	9129.11
303.616	9125.11
303.682	9130.02
303.748	9121.89
303.815	9129.11
303.881	9142.78
303.947	9135.94
304.013	9138.88
304.079	9125.88
304.145	9101.71
304.212	9100.37
304.278	9091.94
304.344	9085.11
304.41	9060.79
304.476	9056.41
304.542	9053.52
304.608	9060.36
304.674	9037.88
304.741	9031.62
304.807	9037.01
304.873	9041.58
304.939	9055.83
305.005	9038.36
305.071	9034.89
305.137	9034.7
305.203	9015.54
305.269	9005.76
305.335	9014.86
305.401	9011.3
305.467	9009.66
305.533	9020.74
305.599	9021.17
305.666	9029.93
305.732	9029.21
305.798	9043.41
305.864	9063.44
305.93	9061.9
305.996	9056.7
306.062	9059.3
306.128	9056.22
306.194	9033.4
306.259	9030.94
306.325	9021.94
306.391	9028.73
306.457	9039.56
306.523	9047.07
306.589	9072.3
306.655	9067.53
306.721	9042.93
306.787	9027
306.853	9038.84
306.919	9022.62
306.985	9016.7
307.051	9003.41
307.117	8997.35
307.183	8992.15
307.248	8961.48
307.314	8973.08
307.38	8968.51
307.446	8975.73
307.512	8958.88
307.578	8967.11
307.644	8955.37
307.709	8953.63
307.775	8949.73
307.841	8947.86
307.907	8942.85
307.973	8916.8
308.039	8915.12
308.104	8928.31
308.17	8934.66
308.236	8919.11
308.302	8923.59
308.368	8910.78
308.433	8914.11
308.499	8905.25
308.565	8893.7
308.631	8901.64
308.696	8870.83
308.762	8860.82
308.828	8852.3
308.894	8836.13
308.959	8814.28
309.025	8805.03
309.091	8793.96
309.156	8789.29
309.222	8782.94
309.288	8771.34
309.354	8750.5
309.419	8746.12
309.485	8726.19
309.551	8727.78
309.616	8712.48
309.682	8701.69
309.748	8696.83
309.813	8688.89
309.879	8681.05
309.945	8665.98
310.01	8649.96
310.076	8651.98
310.141	8645.29
310.207	8626.23
310.273	8633.49
310.338	8639.85
310.404	8623.15
310.469	8611.07
310.535	8595.91
310.601	8569.92
310.666	8569.44
310.732	8579.74
310.797	8563.08
310.863	8563.08
310.928	8551.96
310.994	8551.24
311.059	8551.34
311.125	8549.41
311.191	8559.96
311.256	8550.48
311.322	8564.05
311.387	8548.07
311.453	8942.85
311.518	8914.9
311.584	8912.44
311.649	8912.2
311.715	8898.68
311.78	8901.9
311.846	8893.43
311.911	8901.13
311.976	8905.66
312.042	8890.4
312.107	8875
312.173	8861.77
312.238	8847.67
312.304	8843.97
312.369	8842.67
312.434	8827.22
312.5	8818.17
312.565	8787.08
312.631	8793.58
312.696	8778.13
312.761	8777.7
312.827	8367.38
312.892	8409.53
312.958	8409.44
313.023	8406.64
313.088	8409.1
313.154	8398.03
313.219	8390.58
313.284	8379.12
313.35	8377.92
313.415	8367.43
313.48	8366.42
313.546	8376.24
313.611	8386.2
313.676	8373.01
313.741	8359.44
313.807	8364.69
313.872	8370.17
313.937	8369.74
314.003	8376.96
314.068	8377.1
314.133	8382.49
314.198	8376.29
314.264	8350.35
314.329	8335.48
314.394	8327.59
314.459	8318.73
314.525	8333.21
314.59	8327.25
314.655	8315.85
314.72	8314.11
314.785	8312
314.851	8298.77
314.916	8278.18
314.981	8253.54
315.046	8247.15
315.111	8233.68
315.176	8220.88
315.242	8218.04
315.307	8218.95
315.372	8198.02
315.437	8181.76
315.502	8174.83
315.567	8184.12
315.632	8175.36
315.698	8181.47
315.763	8174.4
315.828	8162.95
315.893	8162.13
315.958	8158.77
316.023	8152.23
316.088	8136.3
316.153	8120.48
316.218	8123.65
316.283	8103.84
316.348	8090.85
316.413	8090.37
316.479	8083.93
316.544	8057.53
316.609	8029.14
316.674	7991.15
316.739	7959.94
316.804	7934.93
316.869	7896.17
316.934	7862.93
316.999	7827.44
317.064	7777.82
317.129	7742.18
317.194	7713.62
317.259	7665.24
317.324	7617.16
317.389	7574.33
317.454	7537.59
317.518	7506.92
317.583	7476.15
317.648	7457.45
317.713	7429.81
317.778	7372.89
317.843	7343.13
317.908	7308
317.973	7269.93
318.038	7247.73
318.103	7213.37
318.168	7186.51
318.233	7162
318.297	7110.29
318.362	7079.3
318.427	7044.33
318.492	7019.24
318.557	6972.89
318.622	6949.49
318.687	6928.93
318.751	6892.86
318.816	6860.67
318.881	6828.44
318.946	6776.37
319.011	6735.54
319.075	6697.79
319.14	6670.37
319.205	6627.15
319.27	6599.49
319.335	6559.35
319.399	6518.54
319.464	6489.49
319.529	6437.26
319.594	6398.52
319.658	6374.9
319.723	6335.68
319.788	6309.86
319.853	6258.35
319.917	6232.58
319.982	6183.72
320.047	6149.26
320.112	6121.24
320.176	6074.64
320.241	6042.45
320.306	6014.14
320.37	5977.58
320.435	5949.9
320.5	5917.08
320.564	5882.4
320.629	5839.29
320.694	5811.71
320.758	5774.59
320.823	5737.33
320.888	5721.21
320.952	5676.72
321.017	5638.02
321.082	5603.12
321.146	5572.62
321.211	5539.45
321.275	5501.78
321.34	5462.76
321.405	5417.33
321.469	5377.07
321.534	5340.9
321.598	5294.9
321.663	5267.58
321.727	5237.82
321.792	5192.59
321.857	5152.34
321.921	5116.7
321.986	5080.54
322.05	5025.28
322.115	4994.34
322.179	4949.47
322.244	4891.34
322.308	4861.42
322.373	4819.43
322.437	4780.41
322.502	4752.87
322.566	4711.94
322.631	4683.13
322.695	4644.51
322.76	4609.63
322.824	4575.46
322.889	4538.72
322.953	4498.21
323.018	4434.86
323.082	4374.84
323.146	4322.23
323.211	4272.21
323.275	4229.5
323.34	4184.9
323.404	4149.73
323.468	4103.82
323.533	4066.82
323.597	4023.01
323.662	3975.89
323.726	3946.15
323.79	3903.14
323.855	3844.86
323.919	3798.48
323.983	3753.08
324.048	3691.68
324.112	3852.68
324.177	3735.21
324.241	3540.97
324.305	3352.89
324.37	3170.36
324.434	2992.8
324.498	2956.64
324.562	2913.82
324.627	2861.79
324.691	2814.96
324.755	2763.1
324.82	2695.96
324.884	2627.69
324.948	2569.97
325.012	2488
325.077	2372.45
