Data from 20250625_urea_1M_1_MAYP1162681_01-55-05-852.txt Node
Date: Thu Jun 26 01:55:05 BST 2025
User: adleo
Spectrometer: MAYP116268
Trigger mode: 0
Integration Time (sec): 1.000000E0
Scans to average: 1
Electric dark correction enabled: true
Nonlinearity correction enabled: true
Boxcar width: 10
XAxis mode: Wavelengths
Number of Pixels in Spectrum: 2068
>>>>>Begin Spectral Data<<<<<
179.565	1121.17
179.642	1169.73
179.718	1208.44
179.795	1245.54
179.871	1274.96
179.948	1292.29
180.024	1312.22
180.101	1330.27
180.177	1342.37
180.254	1363.44
180.33	1384.26
180.407	1434.53
180.483	1522.04
180.56	1605.66
180.636	1684.18
180.712	1673.25
180.789	1684.27
180.865	1698.62
180.942	1706.55
181.018	1715.05
181.095	1730.07
181.171	1735.63
181.248	1739.39
181.324	1755.5
181.4	1759.3
181.477	1769.81
181.553	1780.87
181.63	1797.56
181.706	1814.86
181.782	1823.88
181.859	1824.03
181.935	1831.06
182.011	1824.83
182.088	1843.56
182.164	1860.39
182.24	1871.61
182.317	1880.64
182.393	1876.65
182.469	1888.77
182.546	1898.99
182.622	1901.13
182.698	1897.09
182.775	1908.92
182.851	1920.67
182.927	1910.4
183.003	1908.54
183.08	1902.32
183.156	1911.59
183.232	1911.73
183.308	1901.84
183.385	1908.83
183.461	1923.04
183.537	1921.62
183.613	1932.79
183.69	1922.14
183.766	1914.43
183.842	1919.95
183.918	1925.8
183.995	1936.78
184.071	1940.87
184.147	1936.59
184.223	1926.66
184.299	1937.26
184.375	1925.66
184.452	1931.18
184.528	1988.02
184.604	1998.19
184.68	2010.36
184.756	2019.73
184.832	2023.58
184.908	2029.33
184.985	2030.52
185.061	2016.16
185.137	2024.82
185.213	2015.93
185.289	2016.02
185.365	2008.56
185.441	2010.89
185.517	2021.69
185.593	2021.55
185.669	2017.69
185.745	2028.34
185.822	2042.32
185.898	2032.66
185.974	2041.03
186.05	2032.56
186.126	1992.94
186.202	1986.9
186.278	1981.62
186.354	1969.64
186.43	1975.16
186.506	1969.93
186.582	1966.6
186.658	1974.49
186.734	1956.23
186.81	1960.04
186.886	1961.89
186.962	1973.06
187.038	1968.21
187.114	1960.79
187.19	1963.46
187.266	1954.23
187.341	1955.37
187.417	1951.19
187.493	1950.95
187.569	1953.19
187.645	1949
187.721	1936.64
187.797	1943.96
187.873	1949.38
187.949	1945.25
188.025	1939.87
188.101	1942.82
188.176	1947.14
188.252	1943.53
188.328	1950.61
188.404	1950.85
188.48	1950.42
188.556	1943.86
188.632	1943.53
188.707	1943.91
188.783	1941.82
188.859	1936.3
188.935	1926.51
189.011	1935.35
189.086	1928.93
189.162	1924.99
189.238	1923.28
189.314	1923.8
189.39	1917
189.465	1911.39
189.541	1924.18
189.617	1907.35
189.693	1905.12
189.768	1908.11
189.844	1928.56
189.92	1918.87
189.996	1924.77
190.071	1935.04
190.147	1934.8
190.223	1942.69
190.298	1938.18
190.374	1926.96
190.45	1941.17
190.526	1948.68
190.601	1942.88
190.677	1948.3
190.753	1970.9
190.828	1975.65
190.904	1986.64
190.98	1999.95
191.055	2010.27
191.131	2005.13
191.207	2025.44
191.282	2032.09
191.358	2023.96
191.433	2013.35
191.509	2029.08
191.585	2023.33
191.66	2024.85
191.736	2032.22
191.811	2026.56
191.887	2036.98
191.963	2058.19
192.038	2061.47
192.114	2062.23
192.189	2066.18
192.265	2060.76
192.34	2040.25
192.416	2040.59
192.491	2041.78
192.567	2048.53
192.642	2048.53
192.718	2047.68
192.793	2037.69
192.869	2035.41
192.944	2037.83
193.02	2043.3
193.095	2045.01
193.171	2053.57
193.246	2049.53
193.322	2044.73
193.397	2044.35
193.473	2033.41
193.548	2019.57
193.624	2024.89
193.699	2022.56
193.775	2035.69
193.85	2039.02
193.925	2045.82
194.001	2040.69
194.076	2030.56
194.152	2016.19
194.227	2009.15
194.302	2002.21
194.378	2006.16
194.453	2003.35
194.529	2015.19
194.604	2000.78
194.679	1995.03
194.755	1976.3
194.83	1989.19
194.905	1990.76
194.981	1997.04
195.056	1991.95
195.131	1995.47
195.207	1991.33
195.282	1979.35
195.357	1963.04
195.433	1974.78
195.508	1965.22
195.583	1975.49
195.659	1989.19
195.734	1997.28
195.809	1999.13
195.884	2005.88
195.96	2005.5
196.035	2020.15
196.11	2019.62
196.185	2032.13
196.261	2034.37
196.336	2066.23
196.411	2053.15
196.486	2054.57
196.561	2049.82
196.637	2059.95
196.712	2074.84
196.787	2079.26
196.862	2098.61
196.937	2107.46
197.013	2113.41
197.088	2124.06
197.163	2142.09
197.238	2156.33
197.313	2156.42
197.388	2172.5
197.464	2201.48
197.539	2213.33
197.614	2204.91
197.689	2213.52
197.764	2227.13
197.839	2247.26
197.914	2238.88
197.989	2259.01
198.065	2270.9
198.14	2317.19
198.215	2337.84
198.29	2351.41
198.365	2367.78
198.44	2377.64
198.515	2404.77
198.59	2416.62
198.665	2438.76
198.74	2448.85
198.815	2450.14
198.89	2470.94
198.965	2495.28
199.04	2490.47
199.115	2504.85
199.19	2550.6
199.265	2556.98
199.34	2564.41
199.415	2594.81
199.49	2615.66
199.565	2627.09
199.64	2653.33
199.715	2648.61
199.79	2654.42
199.865	2661.85
199.94	2656.09
200.015	2685.06
200.09	2689.92
200.165	2700.59
200.24	2708.45
200.315	2743.92
200.39	2759.5
200.464	2766.98
200.539	2766.27
200.614	2782.04
200.689	2801.24
200.764	2803.58
200.839	2817.86
200.914	2827.39
200.989	2819.57
201.063	2831.82
201.138	2811.16
201.213	2810.68
201.288	2796.53
201.363	2804.34
201.438	2803.15
201.512	2818.44
201.587	2803.38
201.662	2808.95
201.737	2823.4
201.812	2828.5
201.886	2800.88
201.961	2811.13
202.036	2799.32
202.111	2796.65
202.186	2768.65
202.26	2753.12
202.335	2735.05
202.41	2731.43
202.485	2714.81
202.559	2692.95
202.634	2668.32
202.709	2679.65
202.784	2661.88
202.858	2659.36
202.933	2641.59
203.008	2635.87
203.082	2619.63
203.157	2619.06
203.232	2574.83
203.306	2547.29
203.381	2519.76
203.456	2495.14
203.53	2467.6
203.605	2447.8
203.68	2428.79
203.754	2423.89
203.829	2410.75
203.904	2393.75
203.978	2382.61
204.053	2388.32
204.127	2381.28
204.202	2377.33
204.277	2360.67
204.351	2355.91
204.426	2350.58
204.5	2341.77
204.575	2308.08
204.65	2316.56
204.724	2307.55
204.799	2316.21
204.873	2314.74
204.948	2312.88
205.022	2304.08
205.097	2302.41
205.171	2318.16
205.246	2327.78
205.32	2325.83
205.395	2324.74
205.469	2309.89
205.544	2310.61
205.618	2293.47
205.693	2304.23
205.767	2296.47
205.842	2317.23
205.916	2308.52
205.991	2297.29
206.065	2303.71
206.14	2318.84
206.214	2313.89
206.289	2307.65
206.363	2322.31
206.438	2326.07
206.512	2337.07
206.586	2352.39
206.661	2357.58
206.735	2334.17
206.81	2332.65
206.884	2349.54
206.958	2337.27
207.033	2357.82
207.107	2368.87
207.181	2397.82
207.256	2390.34
207.33	2409.33
207.405	2418.58
207.479	2438.76
207.553	2447.56
207.628	2432.05
207.702	2442.52
207.776	2436.67
207.851	2439.67
207.925	2450.57
207.999	2447.15
208.073	2443
208.148	2447.19
208.222	2438
208.296	2470.84
208.371	2487.33
208.445	2494.04
208.519	2520.89
208.593	2530.84
208.668	2526.84
208.742	2533.99
208.816	2535.56
208.89	2546.75
208.965	2547.32
209.039	2555.18
209.113	2570.56
209.187	2593.93
209.261	2591.55
209.336	2612.89
209.41	2635.33
209.484	2642.57
209.558	2667.25
209.632	2681.96
209.707	2698.45
209.781	2726.17
209.855	2746.67
209.929	2769.42
210.003	2782.66
210.077	2794.05
210.151	2848.76
210.226	2893.06
210.3	2925.55
210.374	2963.29
210.448	2984.99
210.522	3009.97
210.596	3041.45
210.67	3076.54
210.744	3143
210.818	3196.54
210.892	3241.77
210.966	3262.8
211.041	3302.64
211.115	3323.53
211.189	3378.16
211.263	3424.64
211.337	3461.58
211.411	3517.64
211.485	3550.31
211.559	3609.84
211.633	3660
211.707	3678.68
211.781	3735.48
211.855	3757.88
211.929	3805.59
212.003	3850.77
212.077	3926.01
212.151	4003.23
212.225	4079.88
212.299	4133.71
212.373	4194.47
212.447	4267.2
212.52	4377.23
212.594	4464.03
212.668	4573.07
212.742	4657.12
212.816	4750.57
212.89	4844.2
212.964	4940.69
213.038	5053.62
213.112	5173.85
213.186	5293.33
213.26	5384
213.333	5451.24
213.407	5572.82
213.481	5693.16
213.555	5826.42
213.629	5938.69
213.703	6046.28
213.777	6168.38
213.85	6288.22
213.924	6458.95
213.998	6591.53
214.072	6727.11
214.146	6856.47
214.219	6994.84
214.293	7138.36
214.367	7288.75
214.441	7451.88
214.515	7590.69
214.588	7716.24
214.662	7833.77
214.736	7969.86
214.81	8139.06
214.883	8312.96
214.957	8464.44
215.031	8619.01
215.105	8749.25
215.178	8899.03
215.252	9054.79
215.326	9202.05
215.4	9341.99
215.473	9458.25
215.547	9605.75
215.621	9749.53
215.694	9915.84
215.768	10056.88
215.842	10197.53
215.915	10341.39
215.989	10475.91
216.063	10623.11
216.136	10786.25
216.21	10946.6
216.284	11116.13
216.357	11275.83
216.431	11426.28
216.504	11588.84
216.578	11758.87
216.652	11924.61
216.725	12082.56
216.799	12244.75
216.873	12391.95
216.946	12555.64
217.02	12705.79
217.093	12860.38
217.167	12993.18
217.24	13123.53
217.314	13261.59
217.387	13404.71
217.461	13536.79
217.535	13690.56
217.608	13824.96
217.682	13955.02
217.755	14102.62
217.829	14227.91
217.902	14370.3
217.976	14506.82
218.049	14624.48
218.123	14743.6
218.196	14882.57
218.27	14999.89
218.343	15110.09
218.417	15241.34
218.49	15358.95
218.563	15490.83
218.637	15608.1
218.71	15740.37
218.784	15870.6
218.857	15990.72
218.931	16105.53
219.004	16227.57
219.077	16335.05
219.151	16448.65
219.224	16559.26
219.298	16657.24
219.371	16773.64
219.444	16851.57
219.518	16953.07
219.591	17060.5
219.665	17184.06
219.738	17276.84
219.811	17363.39
219.885	17461.61
219.958	17550.91
220.031	17631.54
220.105	17722
220.178	17807.49
220.251	17886.24
220.325	17974.42
220.398	18063
220.471	18148.78
220.544	18226.85
220.618	18308.15
220.691	18385.16
220.764	18462.21
220.838	18537.34
220.911	18606.35
220.984	18698.83
221.057	18767.55
221.131	18828.51
221.204	18860.75
221.277	18944.5
221.35	19034.71
221.424	19093.46
221.497	19165.64
221.57	19223.95
221.643	19288.1
221.716	19352.43
221.79	19411.41
221.863	19459.89
221.936	19510.3
222.009	19549.62
222.082	19606.97
222.155	19639.55
222.229	19698.63
222.302	19746.38
222.375	19793.32
222.448	19841.85
222.521	19880.06
222.594	19910.52
222.667	19949.22
222.74	20013.51
222.814	20044.73
222.887	20079.62
222.96	20127.38
223.033	20165.6
223.106	20217.02
223.179	20249.98
223.252	20273.36
223.325	20296.15
223.398	20326.32
223.471	20367.33
223.544	20408.39
223.617	20439.04
223.69	20473.16
223.763	20492.97
223.837	20522.56
223.91	20560.82
223.983	20565.26
224.056	20573.79
224.129	20607.91
224.202	20633.16
224.275	20641.98
224.348	20657.6
224.42	20668.29
224.493	20676.82
224.566	20686.99
224.639	20706.17
224.712	20717.02
224.785	20732.06
224.858	20745.5
224.931	20760.39
225.004	20758.8
225.077	20779.24
225.15	20767.43
225.223	20778.9
225.296	20802.52
225.369	20792.97
225.442	20789.65
225.514	20797.26
225.587	20809.17
225.66	20828.06
225.733	20841.31
225.806	20839.87
225.879	20843.43
225.952	20843.77
226.025	20852.73
226.097	20861.51
226.17	20869.22
226.243	20855.58
226.316	20864.25
226.389	20873.56
226.461	20878.57
226.534	20889.8
226.607	20885.85
226.68	20908.21
226.753	20908.79
226.825	20886.71
226.898	20899.24
226.971	20888.21
227.044	20902.81
227.117	20907.77
227.189	20899.05
227.262	20906.86
227.335	20909.41
227.407	20910.23
227.48	20913.51
227.553	20919.53
227.626	20915.92
227.698	20906.66
227.771	20901.75
227.844	20897.8
227.916	20904.06
227.989	20879.87
228.062	20863.19
228.134	20873.12
228.207	20859.77
228.28	20850.9
228.352	20855.63
228.425	20848.64
228.498	20850.57
228.57	20836.11
228.643	20843.53
228.716	20833.46
228.788	20821.7
228.861	20817.22
228.934	20814.52
229.006	20796.01
229.079	20784.64
229.151	20769.5
229.224	20747.67
229.296	20759.72
229.369	20772.35
229.442	20763.09
229.514	20746.13
229.587	20754.9
229.659	20727.38
229.732	20725.94
229.804	20732.44
229.877	20738.37
229.949	20743.86
230.022	20768.54
230.094	20760.78
230.167	20754.08
230.239	20741.36
230.312	20724.78
230.384	20729.84
230.457	20708.49
230.529	20710.85
230.602	20699.38
230.674	20701.65
230.747	20710.61
230.819	20709.89
230.892	20667.96
230.964	20666.61
231.037	20676.63
231.109	20657.89
231.181	20653.6
231.254	20635.33
231.326	20615.33
231.399	20597.31
231.471	20571.14
231.544	20516.77
231.616	20514.27
231.688	20490.75
231.761	20463.18
231.833	20454.65
231.905	20418.7
231.978	20420.44
232.05	20395.57
232.122	20384.15
232.195	20353.06
232.267	20344.68
232.339	20314.7
232.412	20302.41
232.484	20276
232.556	20246.27
232.629	20259.52
232.701	20250.41
232.773	20228.01
232.846	20203.52
232.918	20180.63
232.99	20176.29
233.062	20177.26
233.135	20155.04
233.207	20132.49
233.279	20130.27
233.351	20109.65
233.424	20092.35
233.496	20052.35
233.568	20041.6
233.64	20000.93
233.713	19977.31
233.785	19944.69
233.857	19922.81
233.929	19903.05
234.001	19897.32
234.074	19889.7
234.146	19838.52
234.218	19809.08
234.29	19783.06
234.362	19760.89
234.434	19729.66
234.507	19689.18
234.579	19648.56
234.651	19614.39
234.723	19591.4
234.795	19566.73
234.867	19533.48
234.939	19527.12
235.012	19510.3
235.084	19500.47
235.156	19490.68
235.228	19461.43
235.3	19433.68
235.372	19407.03
235.444	19383.8
235.516	19324.19
235.588	19291.9
235.66	19265.16
235.732	19231.71
235.804	19259.66
235.876	19244.82
235.948	19229.88
236.02	19210.75
236.092	19184.73
236.164	19164.2
236.236	19140.01
236.308	19111.19
236.38	19097.26
236.452	19059.67
236.524	19033.03
236.596	19014.76
236.668	18980.55
236.74	18963.58
236.812	18932.6
236.884	18918.91
236.956	18885.42
237.028	18856.07
237.1	18815.93
237.172	18806.63
237.244	18799.16
237.316	18733.24
237.388	18684.57
237.46	18645.72
237.532	18621.63
237.604	18580.28
237.675	18564.52
237.747	18536.33
237.819	18500
237.891	18467.08
237.963	18427.23
238.035	18394.65
238.107	18332.58
238.178	18323.72
238.25	18291.53
238.322	18291.53
238.394	18255.67
238.466	18228.11
238.538	18207.58
238.609	18195.53
238.681	18148.26
238.753	18111.29
238.825	18086.77
238.897	18073.8
238.968	18066.19
239.04	18021.95
239.112	18029.71
239.184	17985.27
239.255	17957.47
239.327	17931.93
239.399	17903.59
239.471	17884.41
239.542	17868.51
239.614	17859.16
239.686	17801.09
239.758	17777.67
239.829	17730.92
239.901	17701.33
239.973	17678.15
240.044	17651.11
240.116	17619.5
240.188	17584.56
240.259	17554.15
240.331	17516.27
240.403	17490.92
240.474	17440.8
240.546	17409.72
240.618	17355.74
240.689	17322.2
240.761	17294.73
240.833	17288.56
240.904	17255.69
240.976	17219.36
241.048	17180.56
241.119	17143.31
241.191	17124.65
241.262	17115.93
241.334	17084.22
241.405	17051.45
241.477	17010.53
241.549	16975.93
241.62	16950
241.692	16934.14
241.763	16909.47
241.835	16875.49
241.906	16844.69
241.978	16797.32
242.049	16781.89
242.121	16762.37
242.192	16747.34
242.264	16699.14
242.335	16646.66
242.407	16624.25
242.478	16599.47
242.55	16575.42
242.621	16543.81
242.693	16509.3
242.764	16470.02
242.836	16435.99
242.907	16413.1
242.979	16395.27
243.05	16381.19
243.122	16351.16
243.193	16314.54
243.264	16256.84
243.336	16226.67
243.407	16199.2
243.479	16194.81
243.55	16168.4
243.622	16145.79
243.693	16111.14
243.764	16096.05
243.836	16061.74
243.907	16023.18
243.978	15982.64
244.05	15958.98
244.121	15916.66
244.192	15898.39
244.264	15843.83
244.335	15817.03
244.407	15778.47
244.478	15750.66
244.549	15713.45
244.62	15673.83
244.692	15641.92
244.763	15629.58
244.834	15596.9
244.906	15559.01
244.977	15532.69
245.048	15517.56
245.119	15483.29
245.191	15444.15
245.262	15400.67
245.333	15386.93
245.405	15364.81
245.476	15342.15
245.547	15315.16
245.618	15297.23
245.689	15265.13
245.761	15256.21
245.832	15236.3
245.903	15207.04
245.974	15174.41
246.045	15145.39
246.117	15138.89
246.188	15106.35
246.259	15077.81
246.33	15058.58
246.401	15031.59
246.473	14998.23
246.544	14961.93
246.615	14937.73
246.686	14913.25
246.757	14896.47
246.828	14854.58
246.899	14842.97
246.97	14804.26
247.042	14771.29
247.113	14757.93
247.184	14762.37
247.255	14723.37
247.326	14686.59
247.397	14657.72
247.468	14634.29
247.539	14598.95
247.61	14560.15
247.681	14535.28
247.752	14514.16
247.823	14468.7
247.894	14449.57
247.965	14408.64
248.037	14381.5
248.108	14342.21
248.179	14314.45
248.25	14296.8
248.321	14281.62
248.392	14243.54
248.463	14248.84
248.534	14224.35
248.605	14198.18
248.675	14161.54
248.746	14142.16
248.817	14129.68
248.888	14109.82
248.959	14074
249.03	14064.98
249.101	14030.13
249.172	14006.46
249.243	13963.22
249.314	13959.99
249.385	13935.94
249.456	13916.85
249.527	13890.24
249.598	13875.05
249.669	13850.95
249.739	13826.31
249.81	13808.09
249.881	13774.2
249.952	13737.66
250.023	13709.85
250.094	13672.29
250.165	13632.62
250.235	13610.2
250.306	13590.63
250.377	13562.91
250.448	13547.83
250.519	13502.41
250.59	13506.99
250.66	13480.91
250.731	13474.6
250.802	13451.85
250.873	13433.67
250.944	13414
251.014	13378.14
251.085	13378.86
251.156	13359.87
251.227	13344.78
251.297	13335.96
251.368	13329.84
251.439	13323.47
251.51	13314.22
251.58	13285.87
251.651	13267.31
251.722	13261.57
251.792	13219.54
251.863	13196.26
251.934	13180.3
252.005	13193.46
252.075	13170.99
252.146	13156.92
252.217	13146.31
252.287	13132.53
252.358	13113.1
252.429	13115.65
252.499	13098.35
252.57	13074.49
252.641	13069.52
252.711	13053.71
252.782	13015.92
252.852	13016.45
252.923	12991.52
252.994	12975.57
253.064	12960.67
253.135	12927.12
253.205	12895.16
253.276	12894.2
253.347	12893.67
253.417	12875.64
253.488	12844.06
253.558	12815.43
253.629	12796.63
253.699	12778.41
253.77	12774.16
253.841	12744.57
253.911	12726.49
253.982	12716.08
254.052	12705.9
254.123	12685.03
254.193	12661.75
254.264	12681.66
254.334	12643.29
254.405	12610.89
254.475	12573.82
254.546	12562.64
254.616	12558.49
254.687	12546.93
254.757	12526.58
254.827	12504.79
254.898	12483.63
254.968	12465.51
255.039	12434.66
255.109	12427.48
255.18	12401.01
255.25	12353.48
255.321	12338.4
255.391	12295.21
255.461	12291.35
255.532	12240.88
255.602	12220.01
255.673	12184.87
255.743	12157.39
255.813	12113.05
255.884	12106.97
255.954	12099.12
256.024	12087.21
256.095	12068.03
256.165	12038.38
256.235	12033.13
256.306	12004.21
256.376	11993.02
256.446	11990.13
256.517	11981.31
256.587	11974.08
256.657	11962.37
256.728	11952.53
256.798	11934.8
256.868	11920.1
256.938	11889.49
257.009	11894.98
257.079	11885.87
257.149	11889.92
257.219	11845.38
257.29	11839.46
257.36	11800.7
257.43	11791.26
257.5	11762.39
257.571	11746.19
257.641	11729.18
257.711	11697.46
257.781	11683.77
257.852	11675.77
257.922	11635.19
257.992	11619.72
258.062	11599.96
258.132	11594.12
258.202	11570.94
258.273	11560.14
258.343	11559.13
258.413	11535.76
258.483	11508.52
258.553	11477.29
258.623	11454.35
258.693	11445.77
258.764	11446.83
258.834	11451.99
258.904	11434.11
258.974	11413.63
259.044	11390.01
259.114	11383.84
259.184	11368.37
259.254	11349.86
259.324	11312.95
259.394	11301.14
259.464	11307.31
259.535	11291.45
259.605	11261.04
259.675	11236.66
259.745	11225.77
259.815	11202.29
259.885	11180.18
259.955	11188.61
260.025	11166.49
260.095	11149.19
260.165	11137.62
260.235	11126.3
260.305	11099.26
260.375	11073.62
260.445	11076.03
260.515	11076.28
260.585	11069.43
260.655	11057.96
260.725	11054.64
260.795	11050.54
260.865	11049.1
260.934	11011.84
261.004	10998.54
261.074	10983.31
261.144	10985.82
261.214	10975.22
261.284	10960.28
261.354	10960.81
261.424	10938.74
261.494	10937.1
261.564	10925.15
261.634	10915.17
261.703	10883.99
261.773	10886.26
261.843	10869.68
261.913	10846.5
261.983	10812.63
262.053	10802.9
262.123	10777.45
262.192	10747.58
262.262	10737.89
262.332	10709.27
262.402	10702.86
262.472	10684.31
262.541	10654.63
262.611	10647.07
262.681	10618.44
262.751	10608.04
262.821	10585.73
262.89	10558.41
262.96	10551.47
263.03	10552.96
263.1	10535.86
263.169	10526.17
263.239	10507.57
263.309	10510.95
263.379	10500.88
263.448	10495
263.518	10482.47
263.588	10469.32
263.657	10476.25
263.727	10468.55
263.797	10455.15
263.867	10441.76
263.936	10414.97
264.006	10413.96
264.076	10401.96
264.145	10393.63
264.215	10379.9
264.285	10375.37
264.354	10340.58
264.424	10320.64
264.494	10289.42
264.563	10277.57
264.633	10280.84
264.702	10275.93
264.772	10253.67
264.842	10238.69
264.911	10231.85
264.981	10201.25
265.05	10195.71
265.12	10175.77
265.19	10162.61
265.259	10165.94
265.329	10164.35
265.398	10153.17
265.468	10168.44
265.537	10145.95
265.607	10132.32
265.676	10122.01
265.746	10110.49
265.815	10115.84
265.885	10100.71
265.955	10075.67
266.024	10052.11
266.094	10017.33
266.163	10006.54
266.232	10003.84
266.302	9990.4
266.371	9969.21
266.441	9956.93
266.51	9949.08
266.58	9933.85
266.649	9916.51
266.719	9904.85
266.788	9885.68
266.858	9890.45
266.927	9846.13
266.996	9835.35
267.066	9830.29
267.135	9805.34
267.205	9803.89
267.274	9791.95
267.343	9794.26
267.413	9786.31
267.482	9789.01
267.552	9793.25
267.621	9767.05
267.69	9734.83
267.76	9724.09
267.829	9723.75
267.898	9713.59
267.968	9691.48
268.037	9685.61
268.106	9676.84
268.176	9654.2
268.245	9640.81
268.314	9615.57
268.384	9621.55
268.453	9612.3
268.522	9600.6
268.592	9599.01
268.661	9572.9
268.73	9566.35
268.799	9539.24
268.869	9545.93
268.938	9511.17
269.007	9491.47
269.076	9483.57
269.146	9484.01
269.215	9483.86
269.284	9481.5
269.353	9463.59
269.422	9451.21
269.492	9425.84
269.561	9391.02
269.63	9380.14
269.699	9364.1
269.768	9356.88
269.838	9341.42
269.907	9338.2
269.976	9316.19
270.045	9292.89
270.114	9288.79
270.183	9273.77
270.253	9269.39
270.322	9241.12
270.391	9242.09
270.46	9250.27
270.529	9249.94
270.598	9251.57
270.667	9232.84
270.736	9214.45
270.806	9209.44
270.875	9210.74
270.944	9211.8
271.013	9232.41
271.082	9227.45
271.151	9220.8
271.22	9196.3
271.289	9187.2
271.358	9175.74
271.427	9174.25
271.496	9164.14
271.565	9148.54
271.634	9137.61
271.703	9157.93
271.772	9155.19
271.841	9138.77
271.91	9106.85
271.979	9096.98
272.048	9073.77
272.117	9072.28
272.186	9058.17
272.255	9059.67
272.324	9060.58
272.393	9048.59
272.462	9025.63
272.531	9015.57
272.6	9003.29
272.669	9012.82
272.738	8999.68
272.807	8990.96
272.876	8971.32
272.945	8995.59
273.013	8999.87
273.082	9005.36
273.151	8964.05
273.22	8960.25
273.289	8958.56
273.358	8968.53
273.427	8960.54
273.496	8956.06
273.564	8947.59
273.633	8946.05
273.702	8927.8
273.771	8908.79
273.84	8902.19
273.909	8908.93
273.977	8909.8
274.046	8900.22
274.115	8901.38
274.184	8890.55
274.253	8881.93
274.322	8894.4
274.39	8864.02
274.459	8850.01
274.528	8816.66
274.597	8810.45
274.665	8808.62
274.734	8813
274.803	8796.58
274.872	8783.78
274.94	8770.64
275.009	8797.75
275.078	8784.94
275.147	8784.66
275.215	8781.09
275.284	8787.01
275.353	8777.29
275.421	8755.82
275.49	8772.77
275.559	8757.7
275.627	8751.83
275.696	8746.15
275.765	8736.57
275.833	8725.79
275.902	8725.17
275.971	8745.24
276.039	8759.1
276.108	8766.37
276.177	8761.5
276.245	8756.4
276.314	8756.4
276.383	8763.09
276.451	8734.4
276.52	8739.11
276.588	8750.57
276.657	8752.06
276.725	8746.24
276.794	8742.68
276.863	8754.52
276.931	8728.96
277	8735.21
277.068	8740.56
277.137	8759.57
277.205	8754.04
277.274	8773
277.342	8782.72
277.411	8760.05
277.48	8746.34
277.548	8734.3
277.617	8734.25
277.685	8729.25
277.754	8732.62
277.822	8722.8
277.89	8733.63
277.959	8727.33
278.027	8703.07
278.096	8691.28
278.164	8711.4
278.233	8703.6
278.301	8689.69
278.37	8694.55
278.438	8682.81
278.507	8683.68
278.575	8654.56
278.643	8653.06
278.712	8631.31
278.78	8616.15
278.849	8626.4
278.917	8636.94
278.985	8624.28
279.054	8624.81
279.122	8636.07
279.191	8632.9
279.259	8626.45
279.327	8600.02
279.396	8614.56
279.464	8615.91
279.532	8628.18
279.601	8624.47
279.669	8619.13
279.737	8630.63
279.806	8633.91
279.874	8644.16
279.942	8642.66
280.011	8633.81
280.079	8638.05
280.147	8655.18
280.215	8655.13
280.284	8647.96
280.352	8635.74
280.42	8655.28
280.488	8653.64
280.557	8645.75
280.625	8644.45
280.693	8644.74
280.761	8654.55
280.83	8633.62
280.898	8641.32
280.966	8625.2
281.034	8595.88
281.102	8582.89
281.171	8578.13
281.239	8589.39
281.307	8582.75
281.375	8575.05
281.443	8608.54
281.512	8607.25
281.58	8614.75
281.648	8602.72
281.716	8598.92
281.784	8599.88
281.852	8584.58
281.92	8576.83
281.989	8579.14
282.057	8559.22
282.125	8588.24
282.193	8579.58
282.261	8578.86
282.329	8574.19
282.397	8577.56
282.465	8581.69
282.533	8599.98
282.601	8587.23
282.67	8561.96
282.738	8550.46
282.806	8560.28
282.874	8545.26
282.942	8547.81
283.01	8538.71
283.078	8548.48
283.146	8546.75
283.214	8551.71
283.282	8553.97
283.35	8565.28
283.418	8565.42
283.486	8572.98
283.554	8547.32
283.622	8547.95
283.69	8553.43
283.758	8549.54
283.826	8551.65
283.894	8560.89
283.962	8576.87
284.03	8593.72
284.098	8592.71
284.165	8585.06
284.233	8585.83
284.301	8574.04
284.369	8564.65
284.437	8555.75
284.505	8542.28
284.573	8554.93
284.641	8544.39
284.709	8549.78
284.777	8534.57
284.845	8539.05
284.912	8547.76
284.98	8553.58
285.048	8548
285.116	8546.12
285.184	8555.41
285.252	8551.03
285.319	8532.84
285.387	8522.11
285.455	8500.02
285.523	8505.55
285.591	8505.84
285.659	8500.26
285.726	8510.7
285.794	8499.06
285.862	8495.93
285.93	8495.79
285.997	8491.65
286.065	8486.16
286.133	8472.06
286.201	8470.43
286.269	8454.54
286.336	8440.3
286.404	8430.82
286.472	8436.69
286.539	8418.12
286.607	8403.92
286.675	8407.24
286.743	8410.71
286.81	8406.33
286.878	8422.4
286.946	8416.24
287.013	8418.17
287.081	8411.09
287.149	8400.12
287.216	8419.13
287.284	8415.47
287.352	8415.28
287.419	8411.81
287.487	8424.52
287.555	8433.28
287.622	8422.35
287.69	8429.23
287.758	8443.24
287.825	8436.12
287.893	8425.34
287.96	8431.59
288.028	8436.31
288.096	8436.64
288.163	8438.67
288.231	8417.73
288.298	8415.76
288.366	8432.03
288.433	8430.2
288.501	8424.33
288.569	8427.84
288.636	8421.15
288.704	8430.15
288.771	8438.38
288.839	8431.21
288.906	8423.36
288.974	8430.05
289.041	8434.24
289.109	8425.58
289.176	8430.68
289.244	8434.72
289.311	8445.26
289.379	8457.82
289.446	8466.53
289.514	8469.42
289.581	8475.14
289.649	8481.73
289.716	8478.13
289.783	8461.86
289.851	8474.23
289.918	8480.77
289.986	8484.57
290.053	8483.42
290.121	8486.59
290.188	8488.23
290.255	8517.44
290.323	8514.31
290.39	8507.19
290.458	8512.96
290.525	8527.69
290.592	8529.08
290.66	8535.97
290.727	8533.8
290.794	8540.78
290.862	8539.38
290.929	8536.64
290.996	8529.42
291.064	8539.14
291.131	8553.53
291.198	8566.81
291.266	8566.28
291.333	8563.16
291.4	8575.14
291.468	8593.14
291.535	8585.87
291.602	8590.35
291.669	8576.68
291.737	8581.59
291.804	8585.73
291.871	8601.46
291.938	8605.22
292.006	8620.81
292.073	8628.08
292.14	8627.7
292.207	8625
292.275	8625.48
292.342	8633.62
292.409	8661.63
292.476	8686.08
292.543	8676.84
292.611	8681.55
292.678	8699.12
292.745	8723.81
292.812	8725.83
292.879	8722.94
292.946	8731.03
293.014	8741.33
293.081	8753.84
293.148	8764.77
293.215	8777.76
293.282	8771.36
293.349	8781.52
293.416	8762.99
293.484	8771.7
293.551	8789.8
293.618	8799.23
293.685	8819.88
293.752	8812.71
293.819	8808.66
293.886	8790.95
293.953	8799.42
294.02	8804.96
294.087	8810.4
294.154	8806.55
294.221	8819.69
294.288	8819.93
294.356	8836.34
294.423	8841.59
294.49	8833.94
294.557	8839.37
294.624	8833.45
294.691	8848.71
294.758	8848.47
294.825	8860.41
294.892	8856.17
294.959	8854.05
295.026	8869.41
295.093	8863.49
295.16	8866.91
295.226	8866.81
295.293	8897.09
295.36	8898.97
295.427	8910.23
295.494	8923.62
295.561	8929.25
295.628	8949.09
295.695	8962.71
295.762	8964.25
295.829	8974.65
295.896	8983.79
295.963	8996.79
296.03	9004.69
296.096	9011.96
296.163	9021.39
296.23	9032.8
296.297	9048.54
296.364	9052.92
296.431	9046.62
296.498	9039.16
296.564	9060.19
296.631	9058.99
296.698	9031.98
296.765	9047.48
296.832	9033.42
296.899	9021.97
296.965	9038.72
297.032	9012.77
297.099	9027.5
297.166	9027.98
297.233	9028.9
297.299	9030.92
297.366	9032.51
297.433	9035.54
297.5	9039.68
297.566	9046.13
297.633	9038.29
297.7	9040.45
297.767	9032.7
297.833	9040.4
297.9	9045.36
297.967	9028.03
298.033	9036.36
298.1	9073.29
298.167	9070.26
298.234	9083.64
298.3	9086.53
298.367	9074.39
298.434	9085.42
298.5	9067.89
298.567	9063.9
298.634	9055.62
298.7	9067.89
298.767	9067.94
298.834	9076.95
298.9	9069.48
298.967	9051.67
299.033	9064.38
299.1	9073.53
299.167	9087.1
299.233	9083.49
299.3	9089.8
299.366	9106.12
299.433	9124.03
299.5	9098.85
299.566	9104.58
299.633	9114.01
299.699	9123.06
299.766	9126.05
299.832	9136.11
299.899	9145.36
299.965	9155.23
300.032	9152.34
300.099	9156.48
300.165	9158.84
300.232	9151.62
300.298	9153.54
300.365	9166.64
300.431	9161.63
300.498	9152.72
300.564	9154.94
300.631	9165.29
300.697	9178.77
300.763	9178.14
300.83	9180.17
300.896	9190.81
300.963	9195.19
301.029	9199.81
301.096	9197.5
301.162	9206.41
301.229	9199.33
301.295	9191.72
301.361	9195.72
301.428	9197.26
301.494	9186.71
301.561	9195.48
301.627	9194.56
301.693	9195.72
301.76	9198.46
301.826	9191.58
301.892	9201.11
301.959	9209.97
302.025	9206.26
302.092	9203.13
302.158	9209.1
302.224	9205.06
302.291	9196.87
302.357	9196.68
302.423	9189.22
302.49	9185.99
302.556	9189.89
302.622	9179.92
302.688	9187.05
302.755	9198.17
302.821	9204.29
302.887	9206.79
302.954	9203.66
303.02	9208.04
303.086	9212.33
303.152	9205.44
303.219	9206.07
303.285	9207.27
303.351	9212.04
303.417	9206.6
303.483	9194.37
303.55	9185.22
303.616	9175.35
303.682	9170.87
303.748	9157.34
303.815	9165.43
303.881	9174.78
303.947	9170.3
304.013	9174.97
304.079	9165.72
304.145	9141.02
304.212	9138.28
304.278	9132.55
304.344	9124.99
304.41	9111.41
304.476	9102.51
304.542	9099.38
304.608	9104
304.674	9086.33
304.741	9075.16
304.807	9078
304.873	9083.92
304.939	9097.84
305.005	9081.08
305.071	9079.93
305.137	9084.45
305.203	9064.81
305.269	9061.05
305.335	9064.13
305.401	9058.94
305.467	9059.85
305.533	9072.75
305.599	9080.17
305.666	9087.34
305.732	9080.94
305.798	9097.21
305.864	9114.25
305.93	9118.01
305.996	9115.36
306.062	9118.35
306.128	9110.5
306.194	9102.22
306.259	9096.73
306.325	9084.74
306.391	9095.96
306.457	9099.52
306.523	9098.32
306.589	9115.99
306.655	9106.31
306.721	9082.72
306.787	9069.29
306.853	9071.79
306.919	9056.63
306.985	9037.75
307.051	9026.78
307.117	9018.74
307.183	9008.2
307.248	8983.74
307.314	8991.3
307.38	8995.34
307.446	9005.55
307.512	8998.28
307.578	8999.1
307.644	8992.84
307.709	8996.26
307.775	8991.83
307.841	8987.35
307.907	8984.27
307.973	8966.12
308.039	8961.64
308.104	8968.19
308.17	8968.53
308.236	8958.9
308.302	8956.83
308.368	8946.87
308.433	8947.64
308.499	8948.93
308.565	8933.24
308.631	8936.85
308.696	8908.16
308.762	8889.34
308.828	8873.55
308.894	8852.08
308.959	8828.64
309.025	8820.12
309.091	8812.95
309.156	8807.66
309.222	8811.7
309.288	8799.38
309.354	8774.64
309.419	8775.65
309.485	8764.05
309.551	8767.37
309.616	8750.57
309.682	8746.29
309.748	8746.58
309.813	8732.38
309.879	8715.39
309.945	8707.45
310.01	8695.7
310.076	8693.87
310.141	8690.55
310.207	8678.33
310.273	8686.99
310.338	8692.14
310.404	8675.54
310.469	8661.48
310.535	8647.48
310.601	8621.24
310.666	8623.51
310.732	8632.22
310.797	8613.11
310.863	8599.3
310.928	8588.95
310.994	8592.7
311.059	8582.26
311.125	8575.57
311.191	8586.98
311.256	8579.42
311.322	8582.36
311.387	8562.19
311.453	8871.42
311.518	8845.15
311.584	8840.48
311.649	8840.14
311.715	8830.32
311.78	8833.64
311.846	8824.79
311.911	8826.76
311.976	8827.53
312.042	8809.68
312.107	8795.24
312.173	8782.59
312.238	8780.47
312.304	8779.84
312.369	8767.96
312.434	8763.24
312.5	8756.12
312.565	8724.31
312.631	8725.42
312.696	8716.52
312.761	8725.46
312.827	8408.54
312.892	8443.53
312.958	8445.98
313.023	8445.35
313.088	8442.13
313.154	8422.98
313.219	8408.26
313.284	8396.9
313.35	8394.59
313.415	8382.37
313.48	8375.88
313.546	8384.06
313.611	8385.69
313.676	8367.36
313.741	8359.9
313.807	8362.98
313.872	8354.61
313.937	8359.37
314.003	8366.88
314.068	8366.59
314.133	8363.32
314.198	8351.63
314.264	8330.12
314.329	8310.1
314.394	8303.65
314.459	8297.64
314.525	8317.6
314.59	8313.08
314.655	8300.62
314.72	8303.51
314.785	8302.11
314.851	8299.18
314.916	8274.98
314.981	8259.15
315.046	8256.36
315.111	8250.78
315.176	8239.86
315.242	8252.56
315.307	8253.66
315.372	8230.38
315.437	8222.39
315.502	8216.86
315.567	8226.48
315.632	8212.77
315.698	8214.84
315.763	8207.57
315.828	8196.03
315.893	8191.46
315.958	8191.26
316.023	8183.57
316.088	8159.9
316.153	8143.21
316.218	8127.91
316.283	8117.57
316.348	8105.74
316.413	8099.63
316.479	8080.39
316.544	8043.7
316.609	8016.95
316.674	7981.6
316.739	7954.24
316.804	7924.28
316.869	7892.97
316.934	7861.7
316.999	7832.56
317.064	7789.66
317.129	7746.86
317.194	7716.04
317.259	7668.52
317.324	7620.74
317.389	7579.44
317.454	7546.07
317.518	7515.74
317.583	7496.94
317.648	7471.46
317.713	7436.03
317.778	7379.55
317.843	7355.52
317.908	7326.1
317.973	7286.02
318.038	7256.17
318.103	7220.08
318.168	7189.61
318.233	7158.57
318.297	7105.9
318.362	7071.39
318.427	7030.37
318.492	7007.93
318.557	6966.52
318.622	6940.86
318.687	6922.17
318.751	6888.94
318.816	6854.16
318.881	6824.47
318.946	6774.76
319.011	6733.11
319.075	6698.05
319.14	6666.94
319.205	6626.88
319.27	6595
319.335	6551.98
319.399	6518.75
319.464	6491.96
319.529	6443.91
319.594	6405.54
319.658	6378.66
319.723	6335.32
319.788	6313.53
319.853	6262.6
319.917	6231.31
319.982	6183.26
320.047	6147.03
320.112	6120.97
320.176	6077.74
320.241	6043.48
320.306	6009.51
320.37	5974.78
320.435	5945.56
320.5	5924.02
320.564	5883.63
320.629	5844.01
320.694	5816.96
320.758	5772.7
320.823	5733.47
320.888	5709.59
320.952	5665.28
321.017	5626.35
321.082	5593.65
321.146	5559.8
321.211	5531.61
321.275	5495.04
321.34	5456.65
321.405	5416.34
321.469	5369.86
321.534	5328.27
321.598	5283.23
321.663	5255.91
321.727	5222.13
321.792	5177.76
321.857	5133.87
321.921	5095.74
321.986	5061.02
322.05	5007.43
322.115	4974
322.179	4930.29
322.244	4876.43
322.308	4844.97
322.373	4800.26
322.437	4762.58
322.502	4737.68
322.566	4694.69
322.631	4660.61
322.695	4621.32
322.76	4577.97
322.824	4548.11
322.889	4512.47
322.953	4464.65
323.018	4405.76
323.082	4346.79
323.146	4300.35
323.211	4249.85
323.275	4211.07
323.34	4165.31
323.404	4133.86
323.468	4092.98
323.533	4051.64
323.597	4009.41
323.662	3962.85
323.726	3932.46
323.79	3888.02
323.855	3824.77
323.919	3776.33
323.983	3731.75
324.048	3671.79
324.112	3824.99
324.177	3706.61
324.241	3515.24
324.305	3332.28
324.37	3149.47
324.434	2973.91
324.498	2932.7
324.562	2888.74
324.627	2834.1
324.691	2783.47
324.755	2723.82
324.82	2654.47
324.884	2590.48
324.948	2527.36
325.012	2441.28
325.077	2329.33
