Data from 20250625_urea_1M_1_MAYP1162681_12-45-05-676.txt Node
Date: Thu Jun 26 12:45:05 BST 2025
User: adleo
Spectrometer: MAYP116268
Trigger mode: 0
Integration Time (sec): 1.000000E0
Scans to average: 1
Electric dark correction enabled: true
Nonlinearity correction enabled: true
Boxcar width: 10
XAxis mode: Wavelengths
Number of Pixels in Spectrum: 2068
>>>>>Begin Spectral Data<<<<<
179.565	1138.94
179.642	1193.93
179.718	1232.25
179.795	1270.15
179.871	1299.55
179.948	1318.16
180.024	1337.33
180.101	1357.98
180.177	1371
180.254	1391.09
180.33	1414.55
180.407	1463.77
180.483	1555.61
180.56	1639.79
180.636	1718.22
180.712	1701.25
180.789	1711.28
180.865	1724.49
180.942	1729.62
181.018	1740.31
181.095	1753.28
181.171	1759.22
181.248	1757.85
181.324	1774.72
181.4	1780.47
181.477	1792.31
181.553	1803.19
181.63	1823.96
181.706	1839.98
181.782	1849.62
181.859	1849.91
181.935	1853.24
182.011	1852
182.088	1865.93
182.164	1885.48
182.24	1897.83
182.317	1911.9
182.393	1910.57
182.469	1921.02
182.546	1932.19
182.622	1935.9
182.698	1933.91
182.775	1945.98
182.851	1960.96
182.927	1955.16
183.003	1950.45
183.08	1943.99
183.156	1951.45
183.232	1947.93
183.308	1935.48
183.385	1940.23
183.461	1955.59
183.537	1955.16
183.613	1966.95
183.69	1961.91
183.766	1951.35
183.842	1959.43
183.918	1962.38
183.995	1973.56
184.071	1978.6
184.147	1975.08
184.223	1962.01
184.299	1972.66
184.375	1960.78
184.452	1963.96
184.528	2015.67
184.604	2026.51
184.68	2037.92
184.756	2047.15
184.832	2051.47
184.908	2058.51
184.985	2061.08
185.061	2046.15
185.137	2056.56
185.213	2042.82
185.289	2040.25
185.365	2034.41
185.441	2034.45
185.517	2049.77
185.593	2045.25
185.669	2040.64
185.745	2052.34
185.822	2069.55
185.898	2062.74
185.974	2072.16
186.05	2064.83
186.126	2026.63
186.202	2021.21
186.278	2016.27
186.354	2008.61
186.43	2013.41
186.506	2012.27
186.582	2010.28
186.658	2017.5
186.734	1998.1
186.81	1998.77
186.886	2001.38
186.962	2012.03
187.038	2007.37
187.114	1997.76
187.19	2005.51
187.266	1997.76
187.341	1999.57
187.417	1992.16
187.493	1991.16
187.569	1996.15
187.645	1991.78
187.721	1980.69
187.797	1986.49
187.873	1991.49
187.949	1981.03
188.025	1975.99
188.101	1978.03
188.176	1983.69
188.252	1980.6
188.328	1986.64
188.404	1989.01
188.48	1985.45
188.556	1976.7
188.632	1977.03
188.707	1978.5
188.783	1976.65
188.859	1972.61
188.935	1960.44
189.011	1971.47
189.086	1964.62
189.162	1955.63
189.238	1952.69
189.314	1950.55
189.39	1946.55
189.465	1939.85
189.541	1957.25
189.617	1943.32
189.693	1938.28
189.768	1939.33
189.844	1959.97
189.92	1952.94
189.996	1961.59
190.071	1969.96
190.147	1970.67
190.223	1979.33
190.298	1971.72
190.374	1957.88
190.45	1969.1
190.526	1976.95
190.601	1970.1
190.677	1970.86
190.753	1997.31
190.828	2000.74
190.904	2015.05
190.98	2028.42
191.055	2036.6
191.131	2029.08
191.207	2047.53
191.282	2057.04
191.358	2049.91
191.433	2040.15
191.509	2049.9
191.585	2044.9
191.66	2046.05
191.736	2055.41
191.811	2046.24
191.887	2061.17
191.963	2084.48
192.038	2090.95
192.114	2091.71
192.189	2095.51
192.265	2094.75
192.34	2072.76
192.416	2074.05
192.491	2070.38
192.567	2074.05
192.642	2077.76
192.718	2077.76
192.793	2064.59
192.869	2060.73
192.944	2062.16
193.02	2069.15
193.095	2075.24
193.171	2082.52
193.246	2084.7
193.322	2081.57
193.397	2083.09
193.473	2069.39
193.548	2053.5
193.624	2058.68
193.699	2058.11
193.775	2071.39
193.85	2070.01
193.925	2077.81
194.001	2075.43
194.076	2065.68
194.152	2055.17
194.227	2047.99
194.302	2042.23
194.378	2047.75
194.453	2043.04
194.529	2057.98
194.604	2043.71
194.679	2038.14
194.755	2018.98
194.83	2029.83
194.905	2028.6
194.981	2036.44
195.056	2028.84
195.131	2032.55
195.207	2028.64
195.282	2018.37
195.357	2001.49
195.433	2019.08
195.508	2004.34
195.583	2012.28
195.659	2028.5
195.734	2032.11
195.809	2033.78
195.884	2040.44
195.96	2038.34
196.035	2055.37
196.11	2047.61
196.185	2057.51
196.261	2059.55
196.336	2092.46
196.411	2077.05
196.486	2078.67
196.561	2069.3
196.637	2082.23
196.712	2097.46
196.787	2099.74
196.862	2114.67
196.937	2123.61
197.013	2128.89
197.088	2141.35
197.163	2160.86
197.238	2175.48
197.313	2176.29
197.388	2186.28
197.464	2212.26
197.539	2226.63
197.614	2219.11
197.689	2231.68
197.764	2247
197.839	2267.41
197.914	2259.56
197.989	2279.97
198.065	2293.91
198.14	2345.2
198.215	2366.38
198.29	2377.38
198.365	2393.32
198.44	2402.7
198.515	2430.74
198.59	2442.69
198.665	2466.73
198.74	2474.49
198.815	2474.54
198.89	2497.73
198.965	2528.4
199.04	2524.35
199.115	2537.54
199.19	2578.15
199.265	2583.34
199.34	2592.82
199.415	2624.75
199.49	2647.74
199.565	2657.65
199.64	2684.13
199.715	2680.7
199.79	2685.51
199.865	2690.8
199.94	2689.04
200.015	2720.34
200.09	2725.25
200.165	2733.96
200.24	2741.68
200.315	2781.21
200.39	2798.94
200.464	2804.66
200.539	2807.23
200.614	2826
200.689	2850.02
200.764	2858.03
200.839	2871.84
200.914	2877.13
200.989	2867.98
201.063	2878.42
201.138	2862.7
201.213	2861.42
201.288	2843.59
201.363	2852.41
201.438	2856.22
201.512	2870.27
201.587	2854.64
201.662	2858.22
201.737	2870.13
201.812	2880.38
201.886	2848.66
201.961	2858.11
202.036	2844.2
202.111	2839.67
202.186	2810.85
202.26	2794.12
202.335	2770.63
202.41	2768.39
202.485	2754.48
202.559	2731.71
202.634	2705.46
202.709	2717.36
202.784	2698.02
202.858	2697.54
202.933	2676.2
203.008	2668.1
203.082	2648.29
203.157	2647.62
203.232	2606.39
203.306	2583.42
203.381	2551.03
203.456	2529.12
203.53	2505.24
203.605	2487.72
203.68	2465.48
203.754	2459.01
203.829	2444.01
203.904	2426.68
203.978	2412.91
204.053	2415.72
204.127	2405.54
204.202	2403.49
204.277	2386.92
204.351	2377.36
204.426	2371.17
204.5	2367.12
204.575	2333.76
204.65	2342.81
204.724	2334.85
204.799	2343.84
204.873	2342.27
204.948	2340.27
205.022	2329.9
205.097	2320.28
205.171	2335.7
205.246	2344.75
205.32	2343.46
205.395	2340.89
205.469	2331.33
205.544	2337.66
205.618	2320.38
205.693	2333.09
205.767	2322.91
205.842	2340.43
205.916	2337.81
205.991	2326.2
206.065	2331.53
206.14	2344.23
206.214	2340.51
206.289	2333.32
206.363	2345.32
206.438	2349.08
206.512	2355.7
206.586	2373.07
206.661	2381.36
206.735	2360.04
206.81	2358.09
206.884	2373.17
206.958	2363.42
207.033	2379.31
207.107	2384.93
207.181	2417.55
207.256	2412.41
207.33	2430.59
207.405	2444.36
207.479	2460.54
207.553	2469.35
207.628	2454.36
207.702	2469.59
207.776	2462.88
207.851	2467.83
207.925	2482.79
207.999	2479.5
208.073	2475.79
208.148	2478.83
208.222	2467.17
208.296	2497.01
208.371	2516.16
208.445	2526.21
208.519	2555.44
208.593	2569.2
208.668	2565.73
208.742	2567.35
208.816	2570.87
208.89	2584.26
208.965	2580.59
209.039	2591.21
209.113	2609.98
209.187	2629.78
209.261	2626.06
209.336	2650.74
209.41	2670.6
209.484	2671.36
209.558	2693.37
209.632	2709.33
209.707	2721.05
209.781	2744.63
209.855	2762.59
209.929	2780
210.003	2789.44
210.077	2790.53
210.151	2843.43
210.226	2884.58
210.3	2912.97
210.374	2941.94
210.448	2951.81
210.522	2966.92
210.596	2984.42
210.67	3000.96
210.744	3057.05
210.818	3097.8
210.892	3126.89
210.966	3132.09
211.041	3157.46
211.115	3165.23
211.189	3203.96
211.263	3236.73
211.337	3262.01
211.411	3293.93
211.485	3305.96
211.559	3337.25
211.633	3361.71
211.707	3348.67
211.781	3376.23
211.855	3365.5
211.929	3380.95
212.003	3392.78
212.077	3434.65
212.151	3475.48
212.225	3514.53
212.299	3539.14
212.373	3559.81
212.447	3586.23
212.52	3652.61
212.594	3695.22
212.668	3749.14
212.742	3775.08
212.816	3811.87
212.89	3847.94
212.964	3892.35
213.038	3945.41
213.112	4011.92
213.186	4080.07
213.26	4113.66
213.333	4125.47
213.407	4189.79
213.481	4252.83
213.555	4327.59
213.629	4379.22
213.703	4430.6
213.777	4491.19
213.85	4536.37
213.924	4635.45
213.998	4708.55
214.072	4770.39
214.146	4826.35
214.219	4896.22
214.293	4966.79
214.367	5043.52
214.441	5132.23
214.515	5198.59
214.588	5254.66
214.662	5293.71
214.736	5348.82
214.81	5437.82
214.883	5526.21
214.957	5596.13
215.031	5663.56
215.105	5721.27
215.178	5794.8
215.252	5869.39
215.326	5933.04
215.4	6000.82
215.473	6043.29
215.547	6105.73
215.621	6174.81
215.694	6272.55
215.768	6338.17
215.842	6415.36
215.915	6491.37
215.989	6555.54
216.063	6631.09
216.136	6714.61
216.21	6805.75
216.284	6902.35
216.357	6991.62
216.431	7077.47
216.504	7172.85
216.578	7290.27
216.652	7388.86
216.725	7478.86
216.799	7579.06
216.873	7671.8
216.946	7768.49
217.02	7854.3
217.093	7948.56
217.167	8025.08
217.24	8086.7
217.314	8176.17
217.387	8260.87
217.461	8338.04
217.535	8437.79
217.608	8515.3
217.682	8605.73
217.755	8698.37
217.829	8780.28
217.902	8871.26
217.976	8955.3
218.049	9035.55
218.123	9100.89
218.196	9195.2
218.27	9268.29
218.343	9334.55
218.417	9425.32
218.49	9499.96
218.563	9598.44
218.637	9686.77
218.71	9789.02
218.784	9891.37
218.857	9986.6
218.931	10070.51
219.004	10159.28
219.077	10248.32
219.151	10335.75
219.224	10419.48
219.298	10503.75
219.371	10598.14
219.444	10665.4
219.518	10750.97
219.591	10839.39
219.665	10958.33
219.738	11034.9
219.811	11109.73
219.885	11204.23
219.958	11284.09
220.031	11363.22
220.105	11442.93
220.178	11521.06
220.251	11589.64
220.325	11667.34
220.398	11744.79
220.471	11825.81
220.544	11910.4
220.618	11970.12
220.691	12051.92
220.764	12126.44
220.838	12206.74
220.911	12273.65
220.984	12361.86
221.057	12438.4
221.131	12505.55
221.204	12531.63
221.277	12622.35
221.35	12723.48
221.424	12781.52
221.497	12853.59
221.57	12922.18
221.643	12998.11
221.716	13066.46
221.79	13133.71
221.863	13197.2
221.936	13255.38
222.009	13325.18
222.082	13388.62
222.155	13448.74
222.229	13522.64
222.302	13584.92
222.375	13639.35
222.448	13707.08
222.521	13759.62
222.594	13814.62
222.667	13866.06
222.74	13939.24
222.814	13988.55
222.887	14034.44
222.96	14094.51
223.033	14156.02
223.106	14211.7
223.179	14265.64
223.252	14322.42
223.325	14383.21
223.398	14429.01
223.471	14479.09
223.544	14525.37
223.617	14579.55
223.69	14634.22
223.763	14671.43
223.837	14722.62
223.91	14781.91
223.983	14813.34
224.056	14853.93
224.129	14902.57
224.202	14960.32
224.275	14999.02
224.348	15034.21
224.42	15066.89
224.493	15098.71
224.566	15132.74
224.639	15180.94
224.712	15215.31
224.785	15244.18
224.858	15269.59
224.931	15312.68
225.004	15335.91
225.077	15375.82
225.15	15387.39
225.223	15426.92
225.296	15495.26
225.369	15513.97
225.442	15536.86
225.514	15575.13
225.587	15615.19
225.66	15654.42
225.733	15690.77
225.806	15723.64
225.879	15752.99
225.952	15781.53
226.025	15833.82
226.097	15878.65
226.17	15920.39
226.243	15935.14
226.316	15969.46
226.389	16003.97
226.461	16041.8
226.534	16094.48
226.607	16126.39
226.68	16180.76
226.753	16216.72
226.825	16213.39
226.898	16256.62
226.971	16288.68
227.044	16324.44
227.117	16364.11
227.189	16400.01
227.262	16436.93
227.335	16476.74
227.407	16503.2
227.48	16530.48
227.553	16550.77
227.626	16571.93
227.698	16590.82
227.771	16621.52
227.844	16638.63
227.916	16670.15
227.989	16682.83
228.062	16699.46
228.134	16748.52
228.207	16769.87
228.28	16770.98
228.352	16792.09
228.425	16820.04
228.498	16840.04
228.57	16854.21
228.643	16885.92
228.716	16906.5
228.788	16919.71
228.861	16931.13
228.934	16964.96
229.006	16989.4
229.079	17012.05
229.151	17025.4
229.224	17032.1
229.296	17051.47
229.369	17100.34
229.442	17125.02
229.514	17139.09
229.587	17175.48
229.659	17165.55
229.732	17181.35
229.804	17225.4
229.877	17268.73
229.949	17291.67
230.022	17335.48
230.094	17350.22
230.167	17366.08
230.239	17364.83
230.312	17381.31
230.384	17421.31
230.457	17443.67
230.529	17464.49
230.602	17484.87
230.674	17507.86
230.747	17538.37
230.819	17570.56
230.892	17555.67
230.964	17579.04
231.037	17601.5
231.109	17601.6
231.181	17622.18
231.254	17625.36
231.326	17626.37
231.399	17630.51
231.471	17639.19
231.544	17628.39
231.616	17654.95
231.688	17662.13
231.761	17664.39
231.833	17664.39
231.905	17651.53
231.978	17655.52
232.05	17659.24
232.122	17667.33
232.195	17666.08
232.267	17678.9
232.339	17681.98
232.412	17701.98
232.484	17708.58
232.556	17705.98
232.629	17733.55
232.701	17748.44
232.773	17752.53
232.846	17758.41
232.918	17767.57
232.99	17773.06
233.062	17786.94
233.135	17785.93
233.207	17780.24
233.279	17798.17
233.351	17812.82
233.424	17806.22
233.496	17798.27
233.568	17816.73
233.64	17796.97
233.713	17794.32
233.785	17791.23
233.857	17789.93
233.929	17772.25
234.001	17774.56
234.074	17785.21
234.146	17758.8
234.218	17746.03
234.29	17744.87
234.362	17731.81
234.434	17705.55
234.507	17689.16
234.579	17662.13
234.651	17657.6
234.723	17651.04
234.795	17643.67
234.867	17633.36
234.939	17638.51
235.012	17635.33
235.084	17639.48
235.156	17649.12
235.228	17639.62
235.3	17630.61
235.372	17627
235.444	17634.22
235.516	17605.07
235.588	17594.71
235.66	17588.39
235.732	17576.68
235.804	17628.3
235.876	17631.52
235.948	17636.73
236.02	17624.92
236.092	17619.67
236.164	17603.09
236.236	17592.3
236.308	17569.64
236.38	17555.48
236.452	17539.96
236.524	17533.55
236.596	17528.68
236.668	17528.25
236.74	17524.63
236.812	17515.57
236.884	17507.28
236.956	17496.73
237.028	17467.96
237.1	17453.36
237.172	17461.45
237.244	17464.05
237.316	17413.12
237.388	17383.67
237.46	17361.41
237.532	17363
237.604	17341.07
237.675	17344.2
237.747	17328.87
237.819	17311.09
237.891	17295.48
237.963	17273.16
238.035	17238.61
238.107	17181.35
238.178	17159.96
238.25	17132.87
238.322	17132.73
238.394	17095.81
238.466	17073.25
238.538	17065.78
238.609	17051.95
238.681	17009.11
238.753	16979.76
238.825	16950.55
238.897	16941.25
238.968	16941.01
239.04	16906.36
239.112	16914.02
239.184	16882.94
239.255	16858.36
239.327	16849.97
239.399	16839.03
239.471	16826.45
239.542	16825.3
239.614	16818.16
239.686	16779.32
239.758	16772.47
239.829	16736.66
239.901	16730.45
239.973	16704.71
240.044	16691.65
240.116	16662.39
240.188	16635.4
240.259	16608.03
240.331	16576.27
240.403	16560.7
240.474	16524.41
240.546	16497.9
240.618	16450.81
240.689	16422.62
240.761	16402.76
240.833	16398.28
240.904	16367.82
240.976	16336.3
241.048	16308.44
241.119	16302.61
241.191	16285.16
241.262	16270.27
241.334	16249.25
241.405	16221.97
241.477	16197.1
241.549	16170.35
241.62	16153.68
241.692	16138.69
241.763	16130.44
241.835	16110.63
241.906	16090.68
241.978	16054.63
242.049	16041.13
242.121	16029.71
242.192	16014.57
242.264	15982.33
242.335	15940.88
242.407	15921.79
242.478	15898.8
242.55	15873.59
242.621	15828.14
242.693	15799.46
242.764	15766.44
242.836	15736.17
242.907	15712.36
242.979	15690.19
243.05	15667.78
243.122	15646.47
243.193	15620.16
243.264	15577.88
243.336	15558.7
243.407	15531.61
243.479	15521.01
243.55	15505.92
243.622	15487.12
243.693	15458.88
243.764	15453.48
243.836	15421.66
243.907	15394.53
243.978	15371.29
244.05	15354.95
244.121	15317.89
244.192	15293.45
244.264	15254.31
244.335	15232.47
244.407	15197.62
244.478	15186.73
244.549	15154.58
244.62	15122.04
244.692	15095.72
244.763	15069.74
244.834	15039.27
244.906	15011.61
244.977	14994.69
245.048	14975.21
245.119	14939.88
245.191	14903.24
245.262	14847.71
245.333	14839.52
245.405	14809.92
245.476	14792.18
245.547	14765.72
245.618	14755.74
245.689	14737.62
245.761	14720.41
245.832	14686.47
245.903	14669.07
245.974	14645.26
246.045	14623.37
246.117	14603.7
246.188	14575.74
246.259	14548.89
246.33	14525.9
246.401	14494.09
246.473	14448.1
246.544	14422.36
246.615	14408.33
246.686	14377.72
246.757	14380.03
246.828	14334.09
246.899	14325.85
246.97	14280.39
247.042	14249.25
247.113	14226.88
247.184	14223.7
247.255	14187.5
247.326	14167.73
247.397	14140.79
247.468	14110.56
247.539	14090.99
247.61	14054.55
247.681	14033.29
247.752	14018.1
247.823	13979.49
247.894	13965.37
247.965	13940.06
248.037	13903.81
248.108	13867.7
248.179	13850.92
248.25	13824.8
248.321	13809.51
248.392	13775.29
248.463	13781.12
248.534	13761.21
248.605	13751.76
248.675	13725.44
248.746	13717.87
248.817	13701.24
248.888	13688.23
248.959	13650.92
249.03	13628.26
249.101	13609.65
249.172	13578.65
249.243	13539.85
249.314	13534.01
249.385	13512.51
249.456	13490.97
249.527	13469.08
249.598	13447.39
249.669	13425.69
249.739	13405.45
249.81	13386.84
249.881	13350.68
249.952	13324.12
250.023	13298.86
250.094	13256.78
250.165	13222.84
250.235	13196.57
250.306	13173.04
250.377	13135.92
250.448	13114.14
250.519	13074.65
250.59	13069.01
250.66	13053.4
250.731	13042.5
250.802	13014.78
250.873	12995.69
250.944	12980.31
251.014	12949.27
251.085	12947
251.156	12927.14
251.227	12911.67
251.297	12909.36
251.368	12903.62
251.439	12889.3
251.51	12881.54
251.58	12849
251.651	12824.27
251.722	12815.4
251.792	12778.81
251.863	12759.97
251.934	12755.44
252.005	12761.65
252.075	12741.36
252.146	12727.38
252.217	12724.29
252.287	12710.36
252.358	12685.49
252.429	12676.43
252.499	12652.76
252.57	12639.69
252.641	12628.61
252.711	12607.93
252.782	12574.28
252.852	12569.12
252.923	12543.91
252.994	12519.23
253.064	12514.7
253.135	12485.25
253.205	12450.88
253.276	12456.42
253.347	12455.79
253.417	12428.37
253.488	12402.38
253.558	12381.75
253.629	12362.42
253.699	12344.15
253.77	12335.62
253.841	12311.33
253.911	12299.52
253.982	12289.44
254.052	12273.49
254.123	12260.67
254.193	12238.4
254.264	12256.66
254.334	12237.86
254.405	12216.27
254.475	12185.18
254.546	12166.38
254.616	12161.32
254.687	12153.85
254.757	12132.5
254.827	12100.73
254.898	12089.45
254.968	12069.78
255.039	12034.16
255.109	12021.78
255.18	11991.46
255.25	11959.55
255.321	11946.01
255.391	11907.93
255.461	11910.29
255.532	11864.16
255.602	11837.51
255.673	11806.27
255.743	11775.23
255.813	11726.4
255.884	11713.73
255.954	11711.65
256.024	11712.81
256.095	11697.92
256.165	11665.14
256.235	11654.64
256.306	11637.38
256.376	11628.51
256.446	11617.91
256.517	11611.98
256.587	11608.75
256.657	11594.29
256.728	11576.65
256.798	11565.57
256.868	11556.46
256.938	11525.95
257.009	11522.82
257.079	11518.14
257.149	11528.21
257.219	11485.37
257.29	11476.21
257.36	11443.29
257.43	11428.83
257.5	11385.8
257.571	11365.94
257.641	11359.63
257.711	11324.88
257.781	11311.96
257.852	11300.78
257.922	11268.83
257.992	11254.75
258.062	11232.05
258.132	11228.87
258.202	11209.89
258.273	11194.42
258.343	11189.5
258.413	11168.39
258.483	11154.56
258.553	11123.81
258.623	11096.39
258.693	11084.15
258.764	11084.92
258.834	11085.16
258.904	11071.38
258.974	11054.32
259.044	11030.27
259.114	11019.91
259.184	11012.15
259.254	10995.67
259.324	10956.06
259.394	10945.17
259.464	10939.48
259.535	10918.62
259.605	10894.72
259.675	10868.31
259.745	10857.61
259.815	10825.95
259.885	10805.67
259.955	10814.15
260.025	10791.74
260.095	10778.49
260.165	10772.37
260.235	10765.96
260.305	10739.75
260.375	10712.33
260.445	10713.15
260.515	10716.52
260.585	10710.26
260.655	10692.53
260.725	10679.04
260.795	10677.64
260.865	10682.12
260.934	10658.03
261.004	10657.26
261.074	10637.12
261.144	10639.33
261.214	10627.09
261.284	10615.72
261.354	10610.81
261.424	10581.32
261.494	10585.31
261.564	10564.84
261.634	10553.95
261.703	10516.27
261.773	10508.46
261.843	10499.79
261.913	10483.8
261.983	10451.47
262.053	10437.11
262.123	10426.12
262.192	10403.14
262.262	10395.29
262.332	10366.43
262.402	10362.38
262.472	10342
262.541	10314.16
262.611	10310.98
262.681	10284.96
262.751	10278.79
262.821	10262.56
262.89	10235.87
262.96	10223.87
263.03	10229.17
263.1	10215.87
263.169	10208.74
263.239	10196.85
263.309	10202.82
263.379	10194.87
263.448	10187.07
263.518	10180.71
263.588	10161.78
263.657	10169.44
263.727	10160.14
263.797	10140.87
263.867	10124.39
263.936	10102.86
264.006	10103.05
264.076	10089.32
264.145	10077.67
264.215	10060.61
264.285	10052.71
264.354	10025.45
264.424	10008.88
264.494	9977.42
264.563	9956.71
264.633	9961.72
264.702	9957.34
264.772	9925.35
264.842	9908.06
264.911	9894.67
264.981	9865.14
265.05	9855.26
265.12	9833.2
265.19	9824.53
265.259	9828.19
265.329	9813.55
265.398	9799.34
265.468	9804.25
265.537	9783.4
265.607	9776.75
265.676	9772.22
265.746	9764.76
265.815	9762.54
265.885	9746.84
265.955	9728.01
266.024	9716.36
266.094	9682.11
266.163	9683.89
266.232	9680.96
266.302	9668.82
266.371	9661.64
266.441	9653.79
266.51	9645.51
266.58	9632.84
266.649	9610.35
266.719	9608.76
266.788	9604.47
266.858	9609.97
266.927	9579.77
266.996	9574.76
267.066	9564.31
267.135	9539.08
267.205	9533.73
267.274	9522.03
267.343	9523.47
267.413	9512.98
267.482	9516.54
267.552	9521.21
267.621	9488.22
267.69	9462.22
267.76	9446.62
267.829	9437.8
267.898	9424.75
267.968	9406.79
268.037	9402.84
268.106	9398.99
268.176	9370.24
268.245	9355.17
268.314	9337.25
268.384	9336.39
268.453	9319.44
268.522	9310.82
268.592	9307.16
268.661	9288.24
268.73	9280.58
268.799	9257.42
268.869	9264.45
268.938	9232.86
269.007	9212.59
269.076	9206.77
269.146	9205.9
269.215	9202.43
269.284	9205.85
269.353	9193.29
269.422	9178.41
269.492	9157.95
269.561	9122.61
269.63	9120.35
269.699	9106.38
269.768	9090.54
269.838	9081.64
269.907	9085.25
269.976	9064.84
270.045	9039.37
270.114	9033.64
270.183	9027.77
270.253	9019.54
270.322	8991.95
270.391	8987.47
270.46	8992.34
270.529	8987.57
270.598	8986.13
270.667	8974.62
270.736	8956.95
270.806	8953
270.875	8952.33
270.944	8946.22
271.013	8964.36
271.082	8960.27
271.151	8954.54
271.22	8933.56
271.289	8926.14
271.358	8911.36
271.427	8907.9
271.496	8902.41
271.565	8889.37
271.634	8881.47
271.703	8909.93
271.772	8914.45
271.841	8902.03
271.91	8880.37
271.979	8871.71
272.048	8843.31
272.117	8845.14
272.186	8824.77
272.255	8817.55
272.324	8824.73
272.393	8817.22
272.462	8804.32
272.531	8791.46
272.6	8782.08
272.669	8792.18
272.738	8776.49
272.807	8770.72
272.876	8752.33
272.945	8779.72
273.013	8781.36
273.082	8783.33
273.151	8740.01
273.22	8731.73
273.289	8719.79
273.358	8727.98
273.427	8714.69
273.496	8719.79
273.564	8710.45
273.633	8716.13
273.702	8699.82
273.771	8683.02
273.84	8678.4
273.909	8676.04
273.977	8670.7
274.046	8659.63
274.115	8655.88
274.184	8645.15
274.253	8634.85
274.322	8640.48
274.39	8610.25
274.459	8593.55
274.528	8563.47
274.597	8553.89
274.665	8552.16
274.734	8563.13
274.803	8554.71
274.872	8551.87
274.94	8537.19
275.009	8562.52
275.078	8546.83
275.147	8549.04
275.215	8543.99
275.284	8548.22
275.353	8537.54
275.421	8515.64
275.49	8530.03
275.559	8517.52
275.627	8511.6
275.696	8504.82
275.765	8503.76
275.833	8494.04
275.902	8493.85
275.971	8506.21
276.039	8522.38
276.108	8526.47
276.177	8524.93
276.245	8510.26
276.314	8503.14
276.383	8508.81
276.451	8473.1
276.52	8477.14
276.588	8486.52
276.657	8488.93
276.725	8481.33
276.794	8481.61
276.863	8495.91
276.931	8473.19
277	8485.94
277.068	8494.7
277.137	8510.24
277.205	8509.14
277.274	8523.19
277.342	8538.4
277.411	8521.12
277.48	8507.89
277.548	8498.12
277.617	8499.13
277.685	8494.61
277.754	8501.01
277.822	8496.24
277.89	8509.48
277.959	8500.72
278.027	8481.14
278.096	8477
278.164	8500.48
278.233	8489.8
278.301	8477
278.37	8482.15
278.438	8468.1
278.507	8468.1
278.575	8445.53
278.643	8445.77
278.712	8429.17
278.78	8408.91
278.849	8419.01
278.917	8423.87
278.985	8422.38
279.054	8422.19
279.122	8429.79
279.191	8433.16
279.259	8427.53
279.327	8403.85
279.396	8424.55
279.464	8422.43
279.532	8421.08
279.601	8413.33
279.669	8408.38
279.737	8426.47
279.806	8432.53
279.874	8445.48
279.942	8445.82
280.011	8441.39
280.079	8439.56
280.147	8451.3
280.215	8457.46
280.284	8447.12
280.352	8439.61
280.42	8445.96
280.488	8434.65
280.557	8430.56
280.625	8431.29
280.693	8431.29
280.761	8444.95
280.83	8423.83
280.898	8440.33
280.966	8432.78
281.034	8404.24
281.102	8393.27
281.171	8386.87
281.239	8392.02
281.307	8381.05
281.375	8370.85
281.443	8402.13
281.512	8406.55
281.58	8417.14
281.648	8403.19
281.716	8404.49
281.784	8404.49
281.852	8394.48
281.92	8395.39
281.989	8409.54
282.057	8388.18
282.125	8413.06
282.193	8405.98
282.261	8408.77
282.329	8397.08
282.397	8395.73
282.465	8398.81
282.533	8411.41
282.601	8397.75
282.67	8378.21
282.738	8369.55
282.806	8379.42
282.874	8354.49
282.942	8349.77
283.01	8342.31
283.078	8350.15
283.146	8350.11
283.214	8357.18
283.282	8360.79
283.35	8375.42
283.418	8365.17
283.486	8369.35
283.554	8344.43
283.622	8341.73
283.69	8337.59
283.758	8329.94
283.826	8344.48
283.894	8360.84
283.962	8382.59
284.03	8399.38
284.098	8396.3
284.165	8395.77
284.233	8401.21
284.301	8398.8
284.369	8387.59
284.437	8370.75
284.505	8362.62
284.573	8378.21
284.641	8366.47
284.709	8369.84
284.777	8355.88
284.845	8362.19
284.912	8369.26
284.98	8372.48
285.048	8366.32
285.116	8371.95
285.184	8386.72
285.252	8378.59
285.319	8354.2
285.387	8341.88
285.455	8321.72
285.523	8329.51
285.591	8325.86
285.659	8319.07
285.726	8333.89
285.794	8332.16
285.862	8343.08
285.93	8339.14
285.997	8334.37
286.065	8331.82
286.133	8322.44
286.201	8314.21
286.269	8298.24
286.336	8287.08
286.404	8282.79
286.472	8292.18
286.539	8272.21
286.607	8256.67
286.675	8247.43
286.743	8260.23
286.81	8252.05
286.878	8264.22
286.946	8254.94
287.013	8250.7
287.081	8246.47
287.149	8230.11
287.216	8244.49
287.284	8234.73
287.352	8241.46
287.419	8237.13
287.487	8256.77
287.555	8263.5
287.622	8262.44
287.69	8272.31
287.758	8283.81
287.825	8284.77
287.893	8277.98
287.96	8278.42
288.028	8288.23
288.096	8298.48
288.163	8297.71
288.231	8288.76
288.298	8294.29
288.366	8310.56
288.433	8307.67
288.501	8299.59
288.569	8300.55
288.636	8294.92
288.704	8311.33
288.771	8317.05
288.839	8312.58
288.906	8296.08
288.974	8303.73
289.041	8299.54
289.109	8287.42
289.176	8295.16
289.244	8297.76
289.311	8306.95
289.379	8327.88
289.446	8330.05
289.514	8324.61
289.581	8325.43
289.649	8336.49
289.716	8333.36
289.783	8325.09
289.851	8345.2
289.918	8349.43
289.986	8364.92
290.053	8368.49
290.121	8361.17
290.188	8363.72
290.255	8392.06
290.323	8386.92
290.39	8376.14
290.458	8386.29
290.525	8400.58
290.592	8395.91
290.66	8395.48
290.727	8392.45
290.794	8396.78
290.862	8397.02
290.929	8405.97
290.996	8405.05
291.064	8408.76
291.131	8419.15
291.198	8431.23
291.266	8429.26
291.333	8428.15
291.4	8429.93
291.468	8449.57
291.535	8444.42
291.602	8450.39
291.669	8439.27
291.737	8449.18
291.804	8454.95
291.871	8466.6
291.938	8468.33
292.006	8495
292.073	8507.51
292.14	8514.48
292.207	8515.16
292.275	8516.07
292.342	8520.64
292.409	8549.04
292.476	8571.76
292.543	8563.04
292.611	8557.13
292.678	8577.34
292.745	8605.97
292.812	8616.22
292.879	8604.43
292.946	8610.93
293.014	8622.96
293.081	8630.27
293.148	8639.08
293.215	8654.82
293.282	8649.77
293.349	8657.99
293.416	8634.6
293.484	8644.23
293.551	8655.06
293.618	8663.62
293.685	8687.88
293.752	8681.14
293.819	8675.85
293.886	8666.17
293.953	8673.59
294.02	8688.22
294.087	8688.17
294.154	8680.32
294.221	8684.9
294.288	8693.46
294.356	8713.24
294.423	8713.29
294.49	8708.77
294.557	8722.34
294.624	8709.1
294.691	8731.15
294.758	8740.24
294.825	8752.61
294.892	8745.39
294.959	8741.45
295.026	8749.29
295.093	8741.97
295.16	8746.02
295.226	8745.82
295.293	8763.54
295.36	8767.68
295.427	8778.8
295.494	8789.87
295.561	8796.75
295.628	8824.39
295.695	8833.49
295.762	8836.08
295.829	8851.35
295.896	8865.93
295.963	8875.08
296.03	8888.02
296.096	8892.4
296.163	8904.05
296.23	8914.69
296.297	8924.9
296.364	8929.37
296.431	8930.77
296.498	8926.87
296.564	8952.14
296.631	8954.21
296.698	8945.54
296.765	8960.66
296.832	8951.32
296.899	8939.43
296.965	8957.24
297.032	8937.11
297.099	8952.91
297.166	8955.75
297.233	8942.46
297.299	8932.78
297.366	8932.64
297.433	8934.28
297.5	8941.45
297.566	8936.68
297.633	8941.4
297.7	8940.29
297.767	8934.61
297.833	8945.98
297.9	8945.25
297.967	8927.4
298.033	8942.42
298.1	8968.08
298.167	8961.48
298.234	8963.65
298.3	8969.95
298.367	8964.37
298.434	8965.48
298.5	8959.8
298.567	8957.92
298.634	8959.22
298.7	8976.84
298.767	8977.61
298.834	8990.65
298.9	8984.49
298.967	8973.61
299.033	8978.23
299.1	8995.71
299.167	9013.33
299.233	9005.82
299.3	9022.62
299.366	9035.85
299.433	9049.29
299.5	9021.27
299.566	9026.18
299.633	9045.14
299.699	9056.7
299.766	9053.71
299.832	9059.3
299.899	9058.77
299.965	9069.94
300.032	9069.07
300.099	9072.59
300.165	9073.65
300.232	9067.44
300.298	9066.33
300.365	9079.76
300.431	9079.76
300.498	9077.98
300.564	9082.89
300.631	9095.41
300.697	9105.52
300.763	9109.95
300.83	9109.37
300.896	9126.36
300.963	9137.92
301.029	9143.26
301.096	9143.31
301.162	9149.47
301.229	9146.58
301.295	9139.79
301.361	9141.62
301.428	9143.79
301.494	9128.87
301.561	9129.35
301.627	9131.66
301.693	9132.67
301.76	9135.12
301.826	9126.03
301.892	9130.46
301.959	9140.23
302.025	9136.33
302.092	9124.53
302.158	9129.97
302.224	9124.73
302.291	9111
302.357	9106.53
302.423	9097.96
302.49	9091.46
302.556	9107.06
302.622	9105.32
302.688	9110.33
302.755	9119.72
302.821	9130.5
302.887	9141.96
302.954	9140.66
303.02	9144.66
303.086	9150.29
303.152	9147.35
303.219	9142.92
303.285	9146.34
303.351	9146.39
303.417	9140.37
303.483	9137.63
303.55	9130.98
303.616	9126.12
303.682	9127.33
303.748	9117.17
303.815	9124.34
303.881	9134.12
303.947	9120.87
304.013	9120.44
304.079	9115.67
304.145	9096.37
304.212	9089.48
304.278	9079.23
304.344	9077.5
304.41	9065.61
304.476	9055.21
304.542	9046.11
304.608	9051.93
304.674	9029.98
304.741	9022.85
304.807	9026.42
304.873	9028.39
304.939	9040.67
305.005	9020.59
305.071	9014.86
305.137	9014.09
305.203	8988.77
305.269	8983.43
305.335	8986.03
305.401	8983.14
305.467	8981.55
305.533	8985.74
305.599	8992
305.666	8997.92
305.732	8997.48
305.798	9008.27
305.864	9032.97
305.93	9045.15
305.996	9045.77
306.062	9055.25
306.128	9047.84
306.194	9035.56
306.259	9029.88
306.325	9016.11
306.391	9031.37
306.457	9038.98
306.523	9043.31
306.589	9070.71
306.655	9065.51
306.721	9050.92
306.787	9040.76
306.853	9051.64
306.919	9033.69
306.985	9022.91
307.051	9012.99
307.117	9006.54
307.183	8997.25
307.248	8966.68
307.314	8968.26
307.38	8965.47
307.446	8969.28
307.512	8960.42
307.578	8961.91
307.644	8958.35
307.709	8957.58
307.775	8948.58
307.841	8946.31
307.907	8941.16
307.973	8920.75
308.039	8915.55
308.104	8922.34
308.17	8923.59
308.236	8909.34
308.302	8916.75
308.368	8910.25
308.433	8911.84
308.499	8900.58
308.565	8887.73
308.631	8888.78
308.696	8863.03
308.762	8851.48
308.828	8840.65
308.894	8820.14
308.959	8800.99
309.025	8794.2
309.091	8789.39
309.156	8777.69
309.222	8777.26
309.288	8763.97
309.354	8739.86
309.419	8740.34
309.485	8719.69
309.551	8718.83
309.616	8703.28
309.682	8697.7
309.748	8686.77
309.813	8676.23
309.879	8672.38
309.945	8665.02
310.01	8662.71
310.076	8663.53
310.141	8656.69
310.207	8644.03
310.273	8647.16
310.338	8654.23
310.404	8632.58
310.469	8621.85
310.535	8614.77
310.601	8589.84
310.666	8597.69
310.732	8599.66
310.797	8585.22
310.863	8578.53
310.928	8567.85
310.994	8566.74
311.059	8559.67
311.125	8550.09
311.191	8559.76
311.256	8544.51
311.322	8543.02
311.387	8524.35
311.453	8927.7
311.518	8898.31
311.584	8899.32
311.649	8902.16
311.715	8887.82
311.78	8899.94
311.846	8885.12
311.911	8893.88
311.976	8896
312.042	8877.76
312.107	8865.73
312.173	8855.14
312.238	8847.59
312.304	8847.49
312.369	8834.5
312.434	8824.39
312.5	8822.85
312.565	8794.13
312.631	8798.02
312.696	8791.72
312.761	8789.94
312.827	8376.38
312.892	8422.96
312.958	8412.66
313.023	8409.73
313.088	8403.09
313.154	8384.32
313.219	8378.16
313.284	8363.25
313.35	8356.61
313.415	8347.18
313.48	8341.93
313.546	8343.04
313.611	8351.7
313.676	8334.38
313.741	8329.95
313.807	8338.47
313.872	8339.72
313.937	8338.56
314.003	8352.66
314.068	8352.28
314.133	8353.34
314.198	8343.95
314.264	8321.43
314.329	8319.07
314.394	8315.03
314.459	8315.94
314.525	8335.57
314.59	8327.59
314.655	8316.62
314.72	8320.52
314.785	8320.13
314.851	8315.47
314.916	8298.43
314.981	8281.35
315.046	8273.22
315.111	8266.87
315.176	8251.28
315.242	8256.53
315.307	8260.95
315.372	8235.98
315.437	8224.72
315.502	8219.29
315.567	8227.56
315.632	8209.33
315.698	8205.72
315.763	8199.66
315.828	8190.81
315.893	8177.77
315.958	8178.06
316.023	8166.7
316.088	8150.68
316.153	8132.41
316.218	8129.95
316.283	8112.21
316.348	8097.97
316.413	8101.34
316.479	8087.15
316.544	8055.74
316.609	8024.57
316.674	7987.25
316.739	7958.93
316.804	7934.35
316.869	7897.42
316.934	7868.84
316.999	7838.16
317.064	7789.83
317.129	7750.88
317.194	7719
317.259	7677.26
317.324	7627.07
317.389	7589.52
317.454	7556.01
317.518	7525.05
317.583	7499.32
317.648	7474.18
317.713	7439.18
317.778	7379.86
317.843	7350.78
317.908	7316.27
317.973	7279.79
318.038	7259.7
318.103	7224.43
318.168	7194.15
318.233	7168.97
318.297	7113.42
318.362	7082.42
318.427	7047.55
318.492	7024.29
318.557	6979.28
318.622	6951.89
318.687	6933.01
318.751	6894.49
318.816	6862.11
318.881	6830.5
318.946	6775.7
319.011	6739.48
319.075	6698.52
319.14	6672.78
319.205	6628.93
319.27	6599.4
319.335	6556.05
319.399	6518.64
319.464	6489.78
319.529	6437.41
319.594	6401.35
319.658	6376.58
319.723	6333.57
319.788	6304.96
319.853	6248.37
319.917	6216.27
319.982	6170.86
320.047	6137.13
320.112	6116.4
320.176	6064.96
320.241	6029.26
320.306	5998.31
320.37	5958.59
320.435	5931.05
320.5	5898.81
320.564	5864.18
320.629	5827.73
320.694	5803.61
320.758	5760.11
320.823	5718.72
320.888	5694.99
320.952	5644.79
321.017	5603.07
321.082	5573.35
321.146	5542.85
321.211	5512.46
321.275	5480.69
321.34	5439.33
321.405	5398.11
321.469	5353.15
321.534	5319.85
321.598	5276.92
321.663	5255.16
321.727	5227.41
321.792	5186.69
321.857	5149.55
321.921	5113.53
321.986	5073.39
322.05	5019.8
322.115	4986.66
322.179	4949.46
322.244	4900.67
322.308	4872.18
322.373	4831.2
322.437	4785.96
322.502	4757.95
322.566	4716.97
322.631	4685.33
322.695	4649.06
322.76	4608.48
322.824	4572.31
322.889	4530.45
322.953	4484.39
323.018	4417.79
323.082	4355.24
323.146	4305.22
323.211	4257
323.275	4217.36
323.34	4172.9
323.404	4139.96
323.468	4096.64
323.533	4054.48
323.597	4015.44
323.662	3968.31
323.726	3935.29
323.79	3897.82
323.855	3839.55
323.919	3793.59
323.983	3748.58
324.048	3688.86
324.112	3831.97
324.177	3714.93
324.241	3523.85
324.305	3339.31
324.37	3159.22
324.434	2983.66
324.498	2945.99
324.562	2897.86
324.627	2841.77
324.691	2793.47
324.755	2732.74
324.82	2664.45
324.884	2596.21
324.948	2525.81
325.012	2442.34
325.077	2330.2
