Data from 20250625_urea_1M_1_MAYP1162681_09-05-05-772.txt Node
Date: Thu Jun 26 09:05:05 BST 2025
User: adleo
Spectrometer: MAYP116268
Trigger mode: 0
Integration Time (sec): 1.000000E0
Scans to average: 1
Electric dark correction enabled: true
Nonlinearity correction enabled: true
Boxcar width: 10
XAxis mode: Wavelengths
Number of Pixels in Spectrum: 2068
>>>>>Begin Spectral Data<<<<<
179.565	1115.78
179.642	1172.06
179.718	1210.94
179.795	1249.82
179.871	1278.93
179.948	1295.48
180.024	1316.95
180.101	1340.02
180.177	1351.54
180.254	1372.92
180.33	1392.12
180.407	1438.93
180.483	1528.29
180.56	1610.24
180.636	1688.95
180.712	1677.97
180.789	1684.82
180.865	1700.82
180.942	1708.14
181.018	1718.92
181.095	1731
181.171	1736.89
181.248	1735.27
181.324	1749.44
181.4	1754.43
181.477	1765.21
181.553	1777.8
181.63	1795.11
181.706	1810.6
181.782	1821.1
181.859	1822.34
181.935	1828.56
182.011	1828.75
182.088	1844.44
182.164	1863.51
182.24	1874.15
182.317	1882.85
182.393	1881.9
182.469	1892.64
182.546	1907.33
182.622	1912.99
182.698	1911.08
182.775	1922.97
182.851	1934.57
182.927	1929.2
183.003	1925.68
183.08	1920.5
183.156	1928.58
183.232	1926.35
183.308	1914.08
183.385	1919.74
183.461	1932.71
183.537	1932.57
183.613	1942.75
183.69	1932.81
183.766	1924.2
183.842	1933.76
183.918	1938.37
183.995	1950.92
184.071	1954.3
184.147	1950.54
184.223	1938.9
184.299	1947.5
184.375	1937.81
184.452	1946.37
184.528	1999.54
184.604	2006.15
184.68	2016.61
184.756	2026.03
184.832	2030.02
184.908	2035.06
184.985	2035.73
185.061	2022.6
185.137	2032.59
185.213	2023.03
185.289	2023.51
185.365	2018.28
185.441	2013.05
185.517	2026.75
185.593	2025.75
185.669	2022.37
185.745	2029.55
185.822	2044.53
185.898	2039.01
185.974	2047.14
186.05	2038.29
186.126	2001.33
186.202	1995.58
186.278	1991.59
186.354	1981.22
186.43	1985.5
186.506	1982.5
186.582	1982.84
186.658	1988.49
186.734	1968.91
186.81	1967.53
186.886	1972.52
186.962	1981.08
187.038	1982.41
187.114	1975.56
187.19	1981.22
187.266	1971.71
187.341	1973.95
187.417	1968.72
187.493	1966.2
187.569	1968.24
187.645	1962.92
187.721	1948.74
187.797	1959.58
187.873	1962.86
187.949	1957.49
188.025	1954.3
188.101	1960.34
188.176	1965.05
188.252	1962.62
188.328	1971.27
188.404	1973.7
188.48	1965.9
188.556	1959.29
188.632	1958.1
188.707	1955.68
188.783	1950.68
188.859	1947.26
188.935	1934.95
189.011	1941.84
189.086	1937.42
189.162	1931.05
189.238	1928.2
189.314	1927.01
189.39	1921.92
189.465	1916.36
189.541	1929.15
189.617	1914.7
189.693	1906.9
189.768	1909.9
189.844	1928.78
189.92	1918.46
189.996	1925.74
190.071	1937.01
190.147	1937.96
190.223	1943.81
190.298	1937.34
190.374	1927.88
190.45	1938.14
190.526	1945.47
190.601	1941.05
190.677	1941.38
190.753	1966.21
190.828	1971.44
190.904	1984.33
190.98	1997.31
191.055	2006.44
191.131	2000.59
191.207	2019.71
191.282	2029.88
191.358	2020.61
191.433	2011.09
191.509	2027.02
191.585	2022.88
191.66	2026.54
191.736	2034.96
191.811	2026.45
191.887	2041.67
191.963	2062.59
192.038	2067.92
192.114	2068.97
192.189	2073.48
192.265	2069.59
192.34	2048.51
192.416	2047.32
192.491	2046.65
192.567	2051.32
192.642	2055.12
192.718	2052.84
192.793	2043.99
192.869	2043.8
192.944	2045.18
193.02	2052.65
193.095	2054.74
193.171	2062.54
193.246	2063.11
193.322	2058.64
193.397	2060.88
193.473	2049.36
193.548	2033.19
193.624	2038.33
193.699	2037.66
193.775	2050.27
193.85	2056.07
193.925	2063.2
194.001	2062.06
194.076	2053.84
194.152	2043.65
194.227	2036.28
194.302	2032.38
194.378	2032.48
194.453	2023.54
194.529	2035.33
194.604	2020.35
194.679	2016.22
194.755	1996.91
194.83	2004.76
194.905	2004.29
194.981	2013.71
195.056	2004.72
195.131	2010.33
195.207	2010.05
195.282	1999.4
195.357	1980.65
195.433	1995.44
195.508	1988.03
195.583	1995.73
195.659	2009.14
195.734	2015.37
195.809	2016.85
195.884	2023.41
195.96	2024.22
196.035	2041.91
196.11	2040.24
196.185	2052.65
196.261	2053.32
196.336	2082.28
196.411	2068.3
196.486	2071.77
196.561	2063.82
196.637	2073.1
196.712	2089.99
196.787	2092.56
196.862	2108.63
196.937	2120.04
197.013	2124.51
197.088	2133.03
197.163	2155.06
197.238	2170.15
197.313	2168.68
197.388	2182.28
197.464	2210.89
197.539	2223.26
197.614	2216.03
197.689	2226.26
197.764	2241.2
197.839	2262.94
197.914	2259.8
197.989	2285.78
198.065	2299.49
198.14	2348.68
198.215	2375.61
198.29	2384.52
198.365	2397.42
198.44	2409.03
198.515	2434.83
198.59	2446.97
198.665	2472.87
198.74	2479.35
198.815	2480.16
198.89	2503.58
198.965	2528.2
199.04	2521.92
199.115	2534.01
199.19	2574.67
199.265	2578.53
199.34	2587.15
199.415	2613.21
199.49	2634.44
199.565	2639.92
199.64	2661.16
199.715	2657.16
199.79	2663.07
199.865	2670.26
199.94	2667.97
200.015	2695.32
200.09	2699.66
200.165	2704.47
200.24	2711.52
200.315	2749
200.39	2764.48
200.464	2769.15
200.539	2771.96
200.614	2788.88
200.689	2815.23
200.764	2819.85
200.839	2836.24
200.914	2839.67
200.989	2834.71
201.063	2843.76
201.138	2827.53
201.213	2831.77
201.288	2812.71
201.363	2816.33
201.438	2816.33
201.512	2830.57
201.587	2816.51
201.662	2820.33
201.737	2835.77
201.812	2841.68
201.886	2808.96
201.961	2820.22
202.036	2806.31
202.111	2805.88
202.186	2778.16
202.26	2759.72
202.335	2740.13
202.41	2735.98
202.485	2721.65
202.559	2703.5
202.634	2680.16
202.709	2690.34
202.784	2671.29
202.858	2672.57
202.933	2654.62
203.008	2649.66
203.082	2632.23
203.157	2630.71
203.232	2591.33
203.306	2569.75
203.381	2538.12
203.456	2518.55
203.53	2493.09
203.605	2473.54
203.68	2447.62
203.754	2441.39
203.829	2425.72
203.904	2406.87
203.978	2391.83
204.053	2397.97
204.127	2385.59
204.202	2383.35
204.277	2366.98
204.351	2359.22
204.426	2353.08
204.5	2347.61
204.575	2311.3
204.65	2318.68
204.724	2310.39
204.799	2318.48
204.873	2315.48
204.948	2314.33
205.022	2301.92
205.097	2293.39
205.171	2307.76
205.246	2314.95
205.32	2315.14
205.395	2315.81
205.469	2307.77
205.544	2311.72
205.618	2293.77
205.693	2303.82
205.767	2294.73
205.842	2314.01
205.916	2307.44
205.991	2299.78
206.065	2303.01
206.14	2319.09
206.214	2314.8
206.289	2310.18
206.363	2322.42
206.438	2325.04
206.512	2332.51
206.586	2351.5
206.661	2360.59
206.735	2341.75
206.81	2344.89
206.884	2359.41
206.958	2345.61
207.033	2360.31
207.107	2367.79
207.181	2398.74
207.256	2392.84
207.33	2408.88
207.405	2423.6
207.479	2440.74
207.553	2447.26
207.628	2432.27
207.702	2445.02
207.776	2440.5
207.851	2445.88
207.925	2462.41
207.999	2456.94
208.073	2454.6
208.148	2455.32
208.222	2444.22
208.296	2472.49
208.371	2489.36
208.445	2496.36
208.519	2524.77
208.593	2539.3
208.668	2536.77
208.742	2536.73
208.816	2540.11
208.89	2553.73
208.965	2550.39
209.039	2560.87
209.113	2577.21
209.187	2598.48
209.261	2594.86
209.336	2618.53
209.41	2636.83
209.484	2636.73
209.558	2662.55
209.632	2679.7
209.707	2694.8
209.781	2721.09
209.855	2742.68
209.929	2761.71
210.003	2774.77
210.077	2780.2
210.151	2830.14
210.226	2870.09
210.3	2903.38
210.374	2935.35
210.448	2947.46
210.522	2965.92
210.596	2980.93
210.67	3004.1
210.744	3061.91
210.818	3107.23
210.892	3139.05
210.966	3150.21
211.041	3182.5
211.115	3197.47
211.189	3238.97
211.263	3278.61
211.337	3303.95
211.411	3337.4
211.485	3356.07
211.559	3392.61
211.633	3423.18
211.707	3422.99
211.781	3458
211.855	3456.95
211.929	3481.57
212.003	3497.08
212.077	3545.51
212.151	3603.15
212.225	3645.89
212.299	3678.59
212.373	3709.68
212.447	3750.87
212.52	3822.68
212.594	3873.2
212.668	3937.08
212.742	3975.13
212.816	4023.22
212.89	4078.09
212.964	4136.11
213.038	4203.65
213.112	4280.38
213.186	4358.85
213.26	4405.75
213.333	4432.2
213.407	4511.5
213.481	4586.26
213.555	4675.21
213.629	4743.59
213.703	4803.11
213.777	4886.25
213.85	4950.48
213.924	5068.05
213.998	5147.2
214.072	5231.18
214.146	5312.03
214.219	5400.9
214.293	5491.86
214.367	5593.71
214.441	5696.7
214.515	5786.97
214.588	5859.36
214.662	5924.02
214.736	6003.84
214.81	6111.5
214.883	6227.72
214.957	6317.16
215.031	6406.02
215.105	6492.2
215.178	6584.25
215.252	6684.94
215.326	6774.47
215.4	6864.04
215.473	6923.86
215.547	7023.13
215.621	7115.79
215.694	7225.33
215.768	7305.07
215.842	7402.97
215.915	7487.69
215.989	7570.73
216.063	7662.58
216.136	7764.51
216.21	7874.87
216.284	7994.68
216.357	8109.3
216.431	8211.77
216.504	8331.66
216.578	8464.51
216.652	8576.31
216.725	8681.18
216.799	8798.82
216.873	8898.11
216.946	9009.29
217.02	9112.15
217.093	9213.31
217.167	9299.2
217.24	9386.17
217.314	9487.85
217.387	9583.43
217.461	9682.64
217.535	9799.96
217.608	9893.93
217.682	9993.39
217.755	10101.38
217.829	10188.58
217.902	10286.43
217.976	10380.13
218.049	10463.91
218.123	10547.03
218.196	10650.03
218.27	10740.77
218.343	10820.81
218.417	10925.37
218.49	11019.49
218.563	11127.96
218.637	11226.03
218.71	11340.97
218.784	11445.22
218.857	11552.79
218.931	11651.54
219.004	11744.65
219.077	11842.02
219.151	11939.28
219.224	12038.09
219.298	12123.79
219.371	12223.47
219.444	12297.95
219.518	12389.1
219.591	12478.17
219.665	12588.08
219.738	12671.62
219.811	12752.74
219.885	12849.2
219.958	12938.24
220.031	13030.36
220.105	13119.92
220.178	13210.17
220.251	13286.62
220.325	13375.8
220.398	13455.68
220.471	13531.65
220.544	13615.1
220.618	13675.45
220.691	13760.78
220.764	13835.11
220.838	13917.93
220.911	13987.59
220.984	14087.52
221.057	14166.14
221.131	14245.68
221.204	14292.29
221.277	14388.66
221.35	14487.86
221.424	14555.69
221.497	14625.53
221.57	14681.21
221.643	14749.9
221.716	14810.06
221.79	14865.3
221.863	14920.5
221.936	14984.08
222.009	15053.78
222.082	15122.18
222.155	15179.97
222.229	15243.89
222.302	15307.81
222.375	15358.95
222.448	15427.25
222.521	15476.66
222.594	15535.95
222.667	15574.31
222.74	15641.89
222.814	15683.83
222.887	15722.87
222.96	15778.54
223.033	15834.98
223.106	15895.08
223.179	15948.44
223.252	16005.03
223.325	16065.37
223.398	16117.67
223.471	16161.05
223.544	16200.38
223.617	16250.93
223.69	16309.21
223.763	16340.87
223.837	16391.53
223.91	16443.34
223.983	16466.81
224.056	16497.85
224.129	16538.14
224.202	16595.69
224.275	16621.57
224.348	16648.85
224.42	16676.18
224.493	16690.64
224.566	16720.9
224.639	16760.62
224.712	16791.22
224.785	16822.6
224.858	16853.34
224.931	16873.06
225.004	16898.89
225.077	16940.87
225.15	16943.18
225.223	16971.47
225.296	17032.53
225.369	17038.07
225.442	17059.57
225.514	17095.18
225.587	17129.16
225.66	17161.35
225.733	17186.03
225.806	17220.54
225.879	17235.43
225.952	17264.01
226.025	17311.48
226.097	17341.16
226.17	17362.27
226.243	17362.75
226.316	17381.36
226.389	17400.73
226.461	17436.59
226.534	17474.13
226.607	17493.74
226.68	17543.62
226.753	17561.21
226.825	17557.89
226.898	17607.52
226.971	17631.96
227.044	17663.04
227.117	17678.37
227.189	17703.33
227.262	17745.11
227.335	17769.83
227.407	17793.64
227.48	17811.09
227.553	17833.4
227.626	17849.88
227.698	17863.66
227.771	17897.78
227.844	17907.62
227.916	17927.95
227.989	17933.98
228.062	17941.49
228.134	17980.96
228.207	17997.01
228.28	18012.09
228.352	18025.68
228.425	18032.24
228.498	18058.84
228.57	18060.86
228.643	18096.62
228.716	18107.32
228.788	18110.98
228.861	18122.02
228.934	18154.4
229.006	18166.11
229.079	18168.71
229.151	18172.18
229.224	18179.94
229.296	18189.48
229.369	18243.55
229.442	18272.9
229.514	18281.67
229.587	18304.08
229.659	18290.73
229.732	18295.55
229.804	18318.34
229.877	18354.63
229.949	18381.09
230.022	18410.44
230.094	18426.68
230.167	18438.72
230.239	18434.53
230.312	18438.15
230.384	18470.58
230.457	18476.12
230.529	18491.4
230.602	18507.35
230.674	18526.29
230.747	18543.54
230.819	18572.84
230.892	18537.13
230.964	18546.96
231.037	18566.62
231.109	18567.2
231.181	18573.32
231.254	18569.37
231.326	18576.69
231.399	18565.17
231.471	18556.74
231.544	18533.08
231.616	18538.72
231.688	18541.32
231.761	18542.09
231.833	18540.12
231.905	18506.29
231.978	18514.33
232.05	18516.36
232.122	18508.99
232.195	18504.5
232.267	18517.71
232.339	18507.11
232.412	18518.43
232.484	18507.35
232.556	18487.11
232.629	18503.06
232.701	18514.09
232.773	18516.94
232.846	18495.49
232.918	18498.67
232.99	18491.3
233.062	18488.41
233.135	18484.99
233.207	18464.65
233.279	18465.13
233.351	18466.58
233.424	18465.52
233.496	18447.25
233.568	18456.65
233.64	18433.95
233.713	18426.68
233.785	18411.21
233.857	18397.81
233.929	18375.4
234.001	18381.19
234.074	18394.97
234.146	18370.39
234.218	18356.8
234.29	18345.33
234.362	18340.13
234.434	18319.21
234.507	18297.58
234.579	18270.3
234.651	18251.6
234.723	18244.95
234.795	18239.31
234.867	18222.49
234.939	18235.31
235.012	18225.34
235.084	18212.37
235.156	18218.01
235.228	18191.75
235.3	18172.28
235.372	18161.44
235.444	18163.12
235.516	18118.98
235.588	18102.26
235.66	18093.2
235.732	18074.65
235.804	18111.17
235.876	18101.78
235.948	18102.98
236.02	18091.22
236.092	18084.96
236.164	18072.96
236.236	18061.44
236.308	18047.61
236.38	18037.15
236.452	18003.27
236.524	17993.64
236.596	17987.76
236.668	17982.17
236.74	17974.6
236.812	17958.7
236.884	17949.59
236.956	17927.66
237.028	17907.32
237.1	17876.39
237.172	17870.84
237.244	17869.88
237.316	17822.12
237.388	17801.21
237.46	17770.56
237.532	17770.61
237.604	17744.82
237.675	17737.98
237.747	17712.68
237.819	17678.27
237.891	17656.49
237.963	17626.37
238.035	17599.48
238.107	17544.44
238.178	17532.63
238.25	17504.78
238.322	17511.67
238.394	17475.91
238.466	17451.81
238.538	17441.16
238.609	17426.8
238.681	17385.74
238.753	17344.78
238.825	17321.89
238.897	17296.63
238.968	17288.06
239.04	17259.19
239.112	17266.95
239.184	17229.69
239.255	17204.73
239.327	17189.02
239.399	17165.21
239.471	17155.14
239.542	17138.9
239.614	17133.74
239.686	17084.15
239.758	17072
239.829	17029.4
239.901	17022.99
239.973	17005.3
240.044	16981.11
240.116	16962.51
240.188	16934.02
240.259	16913.59
240.331	16870.26
240.403	16859.08
240.474	16811.99
240.546	16772.04
240.618	16720.76
240.689	16693.38
240.761	16674.83
240.833	16669.62
240.904	16643.5
240.976	16605.52
241.048	16577.33
241.119	16559.83
241.191	16536.94
241.262	16531.44
241.334	16502.09
241.405	16468.5
241.477	16433.85
241.549	16403.68
241.62	16367.48
241.692	16358.18
241.763	16342.13
241.835	16322.13
241.906	16291.33
241.978	16262.94
242.049	16252.43
242.121	16242.41
242.192	16232.91
242.264	16185.63
242.335	16138.83
242.407	16124.51
242.478	16109.28
242.55	16084.94
242.621	16042.34
242.693	16021.47
242.764	15982.62
242.836	15955.34
242.907	15935.72
242.979	15923.57
243.05	15906.46
243.122	15889.11
243.193	15856.48
243.264	15808.86
243.336	15785.15
243.407	15764.8
243.479	15755.98
243.55	15728.46
243.622	15699.69
243.693	15658.14
243.764	15655.44
243.836	15619.19
243.907	15586.99
243.978	15550.12
244.05	15531.95
244.121	15490.98
244.192	15467.36
244.264	15421.81
244.335	15401.66
244.407	15358.42
244.478	15326.61
244.549	15303.66
244.62	15265.05
244.692	15228.13
244.763	15218.97
244.834	15185.71
244.906	15149.61
244.977	15129.7
245.048	15119.97
245.119	15085.4
245.191	15057.4
245.262	15001.39
245.333	14991.12
245.405	14959.88
245.476	14945.08
245.547	14927.59
245.618	14918.62
245.689	14897.03
245.761	14883.77
245.832	14858.99
245.903	14848.2
245.974	14833.98
246.045	14806.74
246.117	14806.89
246.188	14772.61
246.259	14732.94
246.33	14703.97
246.401	14683.48
246.473	14640.39
246.544	14603.85
246.615	14594.4
246.686	14567.74
246.757	14570.1
246.828	14532.02
246.899	14524.16
246.97	14484.01
247.042	14439.18
247.113	14421.1
247.184	14411.8
247.255	14381.38
247.326	14349.61
247.397	14318.47
247.468	14277.64
247.539	14246.41
247.61	14202.3
247.681	14198.73
247.752	14188.85
247.823	14159.3
247.894	14132.21
247.965	14097.88
248.037	14069.35
248.108	14022.39
248.179	13999.45
248.25	13970.57
248.321	13952.83
248.392	13905.2
248.463	13907.61
248.534	13889.2
248.605	13863.84
248.675	13832.36
248.746	13812.12
248.817	13802.09
248.888	13779.24
248.959	13749.21
249.03	13730.79
249.101	13707.51
249.172	13673.19
249.243	13627.15
249.314	13629.27
249.385	13609.26
249.456	13594.42
249.527	13571.62
249.598	13555.08
249.669	13528.76
249.739	13507.07
249.81	13494.92
249.881	13475.15
249.952	13435.77
250.023	13407.81
250.094	13373.92
250.165	13339.02
250.235	13309.71
250.306	13278.18
250.377	13246.32
250.448	13226.46
250.519	13187.07
250.59	13175.98
250.66	13148.41
250.731	13147.74
250.802	13113.99
250.873	13093.79
250.944	13080.82
251.014	13043.46
251.085	13048.19
251.156	13035.75
251.227	13029.63
251.297	13026.21
251.368	13013.1
251.439	13005.48
251.51	12996.95
251.58	12972.31
251.651	12949.75
251.722	12942.43
251.792	12902.13
251.863	12884.05
251.934	12872.24
252.005	12881.35
252.075	12867.8
252.146	12859.17
252.217	12843.17
252.287	12829.29
252.358	12804.17
252.429	12794.34
252.499	12777.95
252.57	12754.86
252.641	12747.34
252.711	12722.17
252.782	12680.28
252.852	12671.99
252.923	12660.23
252.994	12640.22
253.064	12630.44
253.135	12605.85
253.205	12582.57
253.276	12583.58
253.347	12570.04
253.417	12550.18
253.488	12519.57
253.558	12493.25
253.629	12472.71
253.699	12462.35
253.77	12452.47
253.841	12436.27
253.911	12415.45
253.982	12397.76
254.052	12387.73
254.123	12366.42
254.193	12345.65
254.264	12360.35
254.334	12332.49
254.405	12300.43
254.475	12275.66
254.546	12259.51
254.616	12250.59
254.687	12234.2
254.757	12223.02
254.827	12215.4
254.898	12203.3
254.968	12185.81
255.039	12156.64
255.109	12145.12
255.18	12109.12
255.25	12067.28
255.321	12053.06
255.391	12030.26
255.461	12045.44
255.532	12004.33
255.602	11981.82
255.673	11951.16
255.743	11924.7
255.813	11888.89
255.884	11871.2
255.954	11855.82
256.024	11851.48
256.095	11836.64
256.165	11809.07
256.235	11796
256.306	11764.67
256.376	11754.7
256.446	11745.25
256.517	11733.54
256.587	11726.02
256.657	11715.99
256.728	11703.32
256.798	11688.04
256.868	11656.32
256.938	11612.32
257.009	11601.33
257.079	11595.59
257.149	11597.28
257.219	11564.07
257.29	11555.97
257.36	11528.17
257.43	11522.43
257.5	11483.58
257.571	11463
257.641	11456.55
257.711	11430.28
257.781	11422.62
257.852	11405.26
257.922	11370.47
257.992	11354.71
258.062	11331.38
258.132	11324.05
258.202	11308.73
258.273	11290.66
258.343	11295.38
258.413	11279.81
258.483	11267.19
258.553	11231.33
258.623	11204.34
258.693	11183.86
258.764	11184
258.834	11176.44
258.904	11157.88
258.974	11137.21
259.044	11114.03
259.114	11099.04
259.184	11083.96
259.254	11062.66
259.324	11029.12
259.394	11018.95
259.464	11022.52
259.535	11012.78
259.605	10984.25
259.675	10956.69
259.745	10945.99
259.815	10926.28
259.885	10907.2
259.955	10913.85
260.025	10898.91
260.095	10879.06
260.165	10868.07
260.235	10865.32
260.305	10848.27
260.375	10822.34
260.445	10828.51
260.515	10833.28
260.585	10830.77
260.655	10813.67
260.725	10813.19
260.795	10808.99
260.865	10815.45
260.934	10784.95
261.004	10772.9
261.074	10759.89
261.144	10767.5
261.214	10758.3
261.284	10734.35
261.354	10728.09
261.424	10703.41
261.494	10701.63
261.564	10690.4
261.634	10691.85
261.703	10653.3
261.773	10641.79
261.843	10636.78
261.913	10622.47
261.983	10592.98
262.053	10581.17
262.123	10564.84
262.192	10530.2
262.262	10517.77
262.332	10480.57
262.402	10471.27
262.472	10458.6
262.541	10421.12
262.611	10414.95
262.681	10392.93
262.751	10388.4
262.821	10365.33
262.89	10335.55
262.96	10326.16
263.03	10330.35
263.1	10313.15
263.169	10300.96
263.239	10295.71
263.309	10297.39
263.379	10286.02
263.448	10268.68
263.518	10254.71
263.588	10240.11
263.657	10242.33
263.727	10243.29
263.797	10230.38
263.867	10220.41
263.936	10193.57
264.006	10203.06
264.076	10182.49
264.145	10166.93
264.215	10148.67
264.285	10151.23
264.354	10116.16
264.424	10094.82
264.494	10063.31
264.563	10044.33
264.633	10049.1
264.702	10040.33
264.772	10001.46
264.842	9982.86
264.911	9979.88
264.981	9949.48
265.05	9939.27
265.12	9922.17
265.19	9908.44
265.259	9906.95
265.329	9892.35
265.398	9879.3
265.468	9887.29
265.537	9867.93
265.607	9858.25
265.676	9853.96
265.746	9837.25
265.815	9842.64
265.885	9829.4
265.955	9805.17
266.024	9783.64
266.094	9749.83
266.163	9748.43
266.232	9753.01
266.302	9737.55
266.371	9730.42
266.441	9717.95
266.51	9713.08
266.58	9695.5
266.649	9669.11
266.719	9668.58
266.788	9661.11
266.858	9665.55
266.927	9634.91
266.996	9623.26
267.066	9610.98
267.135	9588.44
267.205	9583.24
267.274	9575.77
267.343	9579.82
267.413	9578.18
267.482	9584.49
267.552	9588.39
267.621	9556.36
267.69	9529.3
267.76	9518.8
267.829	9503.53
267.898	9501.42
267.968	9478.59
268.037	9473.82
268.106	9471.32
268.176	9443.53
268.245	9432.55
268.314	9412.13
268.384	9407.27
268.453	9400.72
268.522	9395.9
268.592	9392.24
268.661	9375.97
268.73	9367.97
268.799	9345.39
268.869	9347.08
268.938	9319.1
269.007	9298.59
269.076	9290.83
269.146	9291.56
269.215	9286.93
269.284	9295.26
269.353	9279.13
269.422	9266.38
269.492	9252.9
269.561	9216.45
269.63	9215.2
269.699	9198.87
269.768	9189.53
269.838	9183.8
269.907	9176.73
269.976	9153.28
270.045	9126.27
270.114	9119.29
270.183	9103.16
270.253	9099.89
270.322	9071.87
270.391	9062.43
270.46	9067.63
270.529	9070.71
270.598	9064.46
270.667	9051.17
270.736	9027.96
270.806	9016.26
270.875	9018.09
270.944	9004.76
271.013	9029.16
271.082	9021.32
271.151	9016.79
271.22	8994.26
271.289	8977.36
271.358	8967.93
271.427	8964.94
271.496	8957.63
271.565	8949.44
271.634	8945.02
271.703	8963.46
271.772	8963.26
271.841	8950.46
271.91	8931.93
271.979	8912.81
272.048	8892.69
272.117	8891.06
272.186	8872.57
272.255	8873.49
272.324	8874.26
272.393	8869.39
272.462	8851.05
272.531	8838.25
272.6	8824.1
272.669	8831.07
272.738	8821.35
272.807	8820.87
272.876	8799.02
272.945	8822.8
273.013	8823.43
273.082	8822.32
273.151	8777.6
273.22	8778.41
273.289	8773.22
273.358	8779.52
273.427	8771.77
273.496	8772.4
273.564	8768.64
273.633	8780.68
273.702	8769.7
273.771	8756.32
273.84	8752.57
273.909	8752.76
273.977	8750.21
274.046	8741.5
274.115	8745.83
274.184	8731.54
274.253	8718.25
274.322	8733.65
274.39	8704
274.459	8688.17
274.528	8659.73
274.597	8657.56
274.665	8654.48
274.734	8660.69
274.803	8645.29
274.872	8639.32
274.94	8624.74
275.009	8676.65
275.078	8654.8
275.147	8648.97
275.215	8643.1
275.284	8652.15
275.353	8643.58
275.421	8621.3
275.49	8634.78
275.559	8619.57
275.627	8616.44
275.696	8606.48
275.765	8598.97
275.833	8595.36
275.902	8597.43
275.971	8616.01
276.039	8629.38
276.108	8628.28
276.177	8623.13
276.245	8614.85
276.314	8610.86
276.383	8616.15
276.451	8556.49
276.52	8562.41
276.588	8570.3
276.657	8578.58
276.725	8564.24
276.794	8560.05
276.863	8571.55
276.931	8551.2
277	8557.55
277.068	8562.17
277.137	8582.48
277.205	8585.22
277.274	8593.88
277.342	8593.5
277.411	8569.73
277.48	8560.34
277.548	8549.8
277.617	8550.38
277.685	8543.79
277.754	8544.13
277.822	8536.76
277.89	8547.4
277.959	8529.79
278.027	8514.15
278.096	8502.89
278.164	8526.81
278.233	8515.98
278.301	8504.14
278.37	8506.41
278.438	8489.76
278.507	8498.32
278.575	8469.54
278.643	8467.28
278.712	8449.24
278.78	8443.51
278.849	8456.74
278.917	8462.28
278.985	8463.48
279.054	8464.06
279.122	8475.51
279.191	8481.19
279.259	8474.79
279.327	8451.59
279.396	8473.92
279.464	8473.25
279.532	8478.39
279.601	8479.26
279.669	8479.12
279.737	8492.73
279.806	8497.98
279.874	8516.07
279.942	8513.43
280.011	8514.34
280.079	8517.18
280.147	8538.55
280.215	8538.98
280.284	8528.3
280.352	8517.32
280.42	8520.55
280.488	8512.37
280.557	8509.91
280.625	8508.47
280.693	8512.99
280.761	8522.23
280.83	8504.67
280.898	8515.98
280.966	8496.87
281.034	8464.72
281.102	8447.02
281.171	8442.59
281.239	8446.49
281.307	8432.44
281.375	8421.66
281.443	8444.08
281.512	8438.74
281.58	8442.83
281.648	8424.79
281.716	8429.02
281.784	8430.32
281.852	8419.59
281.92	8418.25
281.989	8422.29
282.057	8401.65
282.125	8427.11
282.193	8416.61
282.261	8412.33
282.329	8406.03
282.397	8407.52
282.465	8413.25
282.533	8431.57
282.601	8417.67
282.67	8397.32
282.738	8388.32
282.806	8397.08
282.874	8384.03
282.942	8387.55
283.01	8382.2
283.078	8390.43
283.146	8384.27
283.214	8392.84
283.282	8394.47
283.35	8411.94
283.418	8399.87
283.486	8409.15
283.554	8379.41
283.622	8380.71
283.69	8381.96
283.758	8374.79
283.826	8384.32
283.894	8388.89
283.962	8411.65
284.03	8433.79
284.098	8436.96
284.165	8432.87
284.233	8423.83
284.301	8417.28
284.369	8406.17
284.437	8394.91
284.505	8389.81
284.573	8405.73
284.641	8389.95
284.709	8400.63
284.777	8371.33
284.845	8384.27
284.912	8387.93
284.98	8398.95
285.048	8390.34
285.116	8397.7
285.184	8409.15
285.252	8409.1
285.319	8394.71
285.387	8382.78
285.455	8360.69
285.523	8369.16
285.591	8368.63
285.659	8376.14
285.726	8388.31
285.794	8379.8
285.862	8377.49
285.93	8378.4
285.997	8373.73
286.065	8372.48
286.133	8360.79
286.201	8368.92
286.269	8356.6
286.336	8346.78
286.404	8337.4
286.472	8347.36
286.539	8328.89
286.607	8314.64
286.675	8317.15
286.743	8323.16
286.81	8312.38
286.878	8325.71
286.946	8313.44
287.013	8309.54
287.081	8306.9
287.149	8290.39
287.216	8305.26
287.284	8293.04
287.352	8291.07
287.419	8283.66
287.487	8295.4
287.555	8302.38
287.622	8297.57
287.69	8302.28
287.758	8319.75
287.825	8318.88
287.893	8309.4
287.96	8317.72
288.028	8326.53
288.096	8321.91
288.163	8321.91
288.231	8316.86
288.298	8314.74
288.366	8332.3
288.433	8332.88
288.501	8329.32
288.569	8337.26
288.636	8333.65
288.704	8355.35
288.771	8362.42
288.839	8352.85
288.906	8340.24
288.974	8347.6
289.041	8344.14
289.109	8332.55
289.176	8335
289.244	8332.21
289.311	8340.87
289.379	8350.64
289.446	8355.5
289.514	8355.21
289.581	8353.24
289.649	8355.79
289.716	8357.9
289.783	8343.61
289.851	8360.35
289.918	8356.27
289.986	8358.57
290.053	8358
290.121	8356.51
290.188	8362.52
290.255	8397.98
290.323	8399.91
290.39	8392.54
290.458	8397.6
290.525	8409.58
290.592	8401.06
290.66	8406.4
290.727	8406.5
290.794	8415.45
290.862	8415.49
290.929	8417.42
290.996	8421.41
291.064	8428.49
291.131	8436.76
291.198	8453.27
291.266	8450.29
291.333	8457.36
291.4	8461.4
291.468	8481.32
291.535	8475.21
291.602	8477.43
291.669	8465.01
291.737	8466.69
291.804	8471.12
291.871	8489.94
291.938	8500.28
292.006	8527.33
292.073	8536.95
292.14	8545.28
292.207	8538.3
292.275	8534.84
292.342	8543.84
292.409	8569.25
292.476	8597.98
292.543	8588.31
292.611	8586.14
292.678	8605.59
292.745	8628.74
292.812	8631.48
292.879	8624.36
292.946	8628.3
293.014	8639.85
293.081	8648.85
293.148	8661.65
293.215	8674.17
293.282	8670.56
293.349	8673.3
293.416	8660.64
293.484	8674.55
293.551	8688.31
293.618	8702.56
293.685	8729.47
293.752	8727.68
293.819	8721.52
293.886	8694.33
293.953	8705.54
294.02	8713.96
294.087	8720.37
294.154	8708.72
294.221	8733.89
294.288	8733.27
294.356	8748.43
294.423	8753.19
294.49	8745.54
294.557	8758.01
294.624	8747.27
294.691	8761.09
294.758	8760.08
294.825	8760.27
294.892	8751.7
294.959	8742.41
295.026	8751.12
295.093	8742.99
295.16	8739.09
295.226	8736.78
295.293	8763.73
295.36	8767.54
295.427	8784.19
295.494	8797.58
295.561	8804.31
295.628	8819.91
295.695	8833.73
295.762	8839.65
295.829	8852.31
295.896	8868.96
295.963	8874.93
296.03	8887.83
296.096	8893.8
296.163	8907.38
296.23	8924.99
296.297	8934.48
296.364	8938.18
296.431	8942.32
296.498	8939.53
296.564	8964.32
296.631	8971.92
296.698	8959.31
296.765	8975.82
296.832	8959.89
296.899	8941.11
296.965	8963.31
297.032	8944.82
297.099	8958.54
297.166	8967.25
297.233	8956.13
297.299	8950.69
297.366	8950.64
297.433	8950.84
297.5	8959.31
297.566	8959.69
297.633	8956.47
297.7	8954.78
297.767	8954.25
297.833	8958.59
297.9	8956.85
297.967	8940.25
298.033	8950.16
298.1	8978.09
298.167	8972.31
298.234	8978.14
298.3	8982.76
298.367	8972.98
298.434	8976.64
298.5	8965.52
298.567	8956.23
298.634	8956.66
298.7	8971.68
298.767	8970.29
298.834	8984.78
298.9	8981.36
298.967	8972.5
299.033	8978.18
299.1	8996.19
299.167	9011.06
299.233	8998.79
299.3	9012.07
299.366	9024.97
299.433	9038.89
299.5	9014.04
299.566	9012.6
299.633	9031.09
299.699	9047.22
299.766	9041.53
299.832	9046.88
299.899	9063.63
299.965	9080.44
300.032	9076.92
300.099	9083.81
300.165	9091.9
300.232	9087.8
300.298	9082.31
300.365	9098.92
300.431	9097.53
300.498	9091.85
300.564	9090.55
300.631	9106.58
300.697	9113.61
300.763	9116.93
300.83	9113.27
300.896	9118.9
300.963	9127.85
301.029	9126.94
301.096	9123.81
301.162	9136.04
301.229	9125.45
301.295	9112.4
301.361	9110.42
301.428	9114.42
301.494	9096.7
301.561	9096.13
301.627	9089.77
301.693	9096.27
301.76	9094.78
301.826	9096.75
301.892	9108.02
301.959	9119.52
302.025	9114.23
302.092	9108.16
302.158	9107.58
302.224	9098.44
302.291	9100.94
302.357	9103.68
302.423	9096.85
302.49	9090.11
302.556	9101.71
302.622	9099.64
302.688	9106.53
302.755	9114.23
302.821	9122.32
302.887	9133.68
302.954	9138.93
303.02	9148.65
303.086	9151.68
303.152	9145.67
303.219	9142.49
303.285	9144.7
303.351	9149.33
303.417	9151.16
303.483	9151.59
303.55	9150.48
303.616	9150.29
303.682	9144.32
303.748	9130.5
303.815	9142.88
303.881	9153.37
303.947	9137
304.013	9142.4
304.079	9131.18
304.145	9113.27
304.212	9110.28
304.278	9097.96
304.344	9087.9
304.41	9073.21
304.476	9060.17
304.542	9063.25
304.608	9065.99
304.674	9042.64
304.741	9030.84
304.807	9030.6
304.873	9029.88
304.939	9042.26
305.005	9028.44
305.071	9025.55
305.137	9028.92
305.203	9002.59
305.269	8994.69
305.335	9005.28
305.401	8994.84
305.467	8994.31
305.533	9003.4
305.599	9014.24
305.666	9022.13
305.732	9021.31
305.798	9027.48
305.864	9057.95
305.93	9053.28
305.996	9046.78
306.062	9058.58
306.128	9051.6
306.194	9038.26
306.259	9039.27
306.325	9027.57
306.391	9036.34
306.457	9044.09
306.523	9044.23
306.589	9068.06
306.655	9057.66
306.721	9037.35
306.787	9031.04
306.853	9046.83
306.919	9024.88
306.985	9005
307.051	8995.85
307.117	8990.85
307.183	8988.82
307.248	8956.13
307.314	8960.32
307.38	8960.61
307.446	8960.95
307.512	8954.88
307.578	8962.2
307.644	8951.66
307.709	8948.24
307.775	8941.69
307.841	8938.61
307.907	8939.43
307.973	8909.24
308.039	8916.66
308.104	8917.67
308.17	8921.47
308.236	8899.37
308.302	8905.49
308.368	8897.4
308.433	8896.29
308.499	8887.82
308.565	8877.71
308.631	8873.57
308.696	8852.39
308.762	8839.01
308.828	8831.31
308.894	8809.65
308.959	8786.89
309.025	8777.07
309.091	8770.13
309.156	8760.46
309.222	8757.67
309.288	8741.3
309.354	8723.79
309.419	8719.55
309.485	8703.52
309.551	8702.75
309.616	8687.74
309.682	8682.39
309.748	8675.22
309.813	8669.21
309.879	8655.44
309.945	8644.28
310.01	8641.44
310.076	8641.73
310.141	8634.6
310.207	8619.3
310.273	8625.22
310.338	8630.36
310.404	8613.43
310.469	8606.88
310.535	8599.28
310.601	8571.22
310.666	8576.9
310.732	8589.17
310.797	8570.69
310.863	8562.31
310.928	8554.81
310.994	8560.97
311.059	8552.78
311.125	8551.82
311.191	8557.74
311.256	8551.15
311.322	8550.86
311.387	8534.02
311.453	8923.83
311.518	8898.33
311.584	8892.27
311.649	8890.1
311.715	8875.09
311.78	8879.66
311.846	8867.73
311.911	8877.11
311.976	8882.69
312.042	8862.19
312.107	8848.48
312.173	8837.89
312.238	8836.59
312.304	8827.79
312.369	8817.49
312.434	8807.58
312.5	8797.47
312.565	8767.83
312.631	8771.29
312.696	8766.19
312.761	8760.71
312.827	8355.3
312.892	8387.83
312.958	8387.97
313.023	8382.68
313.088	8381.77
313.154	8369.79
313.219	8360.07
313.284	8343.9
313.35	8337.21
313.415	8332.11
313.48	8323.5
313.546	8327.83
313.611	8329.9
313.676	8320.08
313.741	8306.51
313.807	8311.71
313.872	8314.69
313.937	8319.22
314.003	8326.77
314.068	8318.98
314.133	8325.57
314.198	8315.37
314.264	8299.34
314.329	8283.99
314.394	8284.91
314.459	8274.9
314.525	8290.44
314.59	8289.53
314.655	8278.17
314.72	8284.43
314.785	8281.06
314.851	8271.49
314.916	8253.64
314.981	8235.12
315.046	8223.19
315.111	8214.29
315.176	8198.41
315.242	8198.85
315.307	8194.47
315.372	8177.53
315.437	8172.05
315.502	8162.47
315.567	8177.29
315.632	8157.23
315.698	8160.31
315.763	8154.87
315.828	8152.71
315.893	8146.84
315.958	8136.83
316.023	8128.61
316.088	8110.52
316.153	8089.07
316.218	8088.63
316.283	8071.75
316.348	8060.31
316.413	8062.33
316.479	8052.42
316.544	8025.2
316.609	7998.45
316.674	7962.2
316.739	7926.32
316.804	7900.54
316.869	7867.12
316.934	7829.75
316.999	7803.2
317.064	7753.2
317.129	7713.62
317.194	7677.75
317.259	7630.76
317.324	7583.32
317.389	7539.13
317.454	7503.41
317.518	7475.24
317.583	7453.46
317.648	7427.79
317.713	7399.43
317.778	7342.95
317.843	7314.06
317.908	7282.15
317.973	7243.45
318.038	7225.91
318.103	7191.65
318.168	7164.11
318.233	7141.09
318.297	7094.1
318.362	7061.86
318.427	7026.26
318.492	7005.12
318.557	6963.81
318.622	6936.28
318.687	6920.19
318.751	6889.4
318.816	6856.44
318.881	6826.33
318.946	6774.73
319.011	6737.9
319.075	6695.63
319.14	6665
319.205	6623.75
319.27	6589.47
319.335	6550.81
319.399	6507.98
319.464	6484.98
319.529	6436.92
319.594	6398.46
319.658	6370.81
319.723	6331.4
319.788	6306.98
319.853	6252.59
319.917	6226
319.982	6182.61
320.047	6143.64
320.112	6117.92
320.176	6072.15
320.241	6039.75
320.306	6013.08
320.37	5978.68
320.435	5950.61
320.5	5928.59
320.564	5889.02
320.629	5852.1
320.694	5821.02
320.758	5786.44
320.823	5741.45
320.888	5715.13
320.952	5666.17
321.017	5634.14
321.082	5596.36
321.146	5564.39
321.211	5528.58
321.275	5485.73
321.34	5441.54
321.405	5401.05
321.469	5359.11
321.534	5320.73
321.598	5273.63
321.663	5242.14
321.727	5206.01
321.792	5161.21
321.857	5117.56
321.921	5081.11
321.986	5039.07
322.05	4982.04
322.115	4946.74
322.179	4908.24
322.244	4855.57
322.308	4826.56
322.373	4778.87
322.437	4742.44
322.502	4720.6
322.566	4685.04
322.631	4653.17
322.695	4620.92
322.76	4579.43
322.824	4541.34
322.889	4500.83
322.953	4458.45
323.018	4393.25
323.082	4337.53
323.146	4292.49
323.211	4245.23
323.275	4205.93
323.34	4166.11
323.404	4137.34
323.468	4091.1
323.533	4052.86
323.597	4008.23
323.662	3960.06
323.726	3926.36
323.79	3883.88
323.855	3821.64
323.919	3774.15
323.983	3733.63
324.048	3666.37
324.112	3814.89
324.177	3698.1
324.241	3508.93
324.305	3322.38
324.37	3142.86
324.434	2965.63
324.498	2925.34
324.562	2877.53
324.627	2823.85
324.691	2774.54
324.755	2715.99
324.82	2649.5
324.884	2575.88
324.948	2513.06
325.012	2429.17
325.077	2317.26
