Data from 20250625_urea_1M_1_MAYP1162681_04-55-05-942.txt Node
Date: Thu Jun 26 04:55:05 BST 2025
User: adleo
Spectrometer: MAYP116268
Trigger mode: 0
Integration Time (sec): 1.000000E0
Scans to average: 1
Electric dark correction enabled: true
Nonlinearity correction enabled: true
Boxcar width: 10
XAxis mode: Wavelengths
Number of Pixels in Spectrum: 2068
>>>>>Begin Spectral Data<<<<<
179.565	1103.58
179.642	1153.11
179.718	1188.26
179.795	1222.38
179.871	1250.09
179.948	1265.73
180.024	1282.94
180.101	1303.33
180.177	1315.7
180.254	1335.31
180.33	1355.57
180.407	1402.46
180.483	1489.59
180.56	1570.69
180.636	1647.83
180.712	1634.95
180.789	1640.94
180.865	1651.86
180.942	1658.99
181.018	1667.4
181.095	1681.99
181.171	1687.12
181.248	1687.83
181.324	1704.94
181.4	1708.03
181.477	1720.38
181.553	1732.83
181.63	1755.6
181.706	1769.9
181.782	1779.97
181.859	1781.44
181.935	1787.1
182.011	1784.25
182.088	1797.37
182.164	1817.29
182.24	1827.74
182.317	1836.67
182.393	1834.2
182.469	1847.22
182.546	1857.01
182.622	1859.34
182.698	1857.3
182.775	1869.61
182.851	1879.73
182.927	1871.99
183.003	1872.08
183.08	1866.28
183.156	1876.03
183.232	1873.46
183.308	1863.24
183.385	1867.14
183.461	1882.59
183.537	1883.06
183.613	1894.33
183.69	1888.91
183.766	1880.25
183.842	1889.24
183.918	1895.42
183.995	1907.92
184.071	1913.25
184.147	1908.59
184.223	1899.04
184.299	1906.12
184.375	1897.85
184.452	1906.93
184.528	1959.43
184.604	1969.32
184.68	1979.59
184.756	1984.3
184.832	1985.06
184.908	1991.14
184.985	1993.94
185.061	1978.83
185.137	1986.2
185.213	1977.5
185.289	1979.21
185.365	1970.27
185.441	1970.32
185.517	1982.64
185.593	1983.21
185.669	1979.55
185.745	1990.72
185.822	2008.3
185.898	2001.6
185.974	2007.73
186.05	1999.22
186.126	1962.55
186.202	1956.99
186.278	1952.43
186.354	1944.96
186.43	1949.81
186.506	1948.58
186.582	1946.39
186.658	1952.09
186.734	1936.02
186.81	1935.79
186.886	1937.83
186.962	1948.72
187.038	1942.44
187.114	1935.31
187.19	1938.3
187.266	1929.27
187.341	1930.13
187.417	1920.52
187.493	1921.43
187.569	1925.33
187.645	1922.14
187.721	1909.63
187.797	1918.38
187.873	1924.28
187.949	1916.63
188.025	1913.49
188.101	1916.1
188.176	1919.9
188.252	1917.76
188.328	1926.27
188.404	1925.18
188.48	1920.66
188.556	1914.2
188.632	1914.2
188.707	1915.2
188.783	1913.77
188.859	1911.11
188.935	1898.79
189.011	1907.64
189.086	1902.74
189.162	1895.13
189.238	1892.85
189.314	1891.66
189.39	1884.77
189.465	1876.92
189.541	1896.23
189.617	1881.54
189.693	1875.55
189.768	1879.07
189.844	1899.71
189.92	1891.3
189.996	1901.28
190.071	1909.5
190.147	1909.27
190.223	1919.11
190.298	1908.65
190.374	1898.05
190.45	1908.84
190.526	1918.96
190.601	1911.07
190.677	1910.31
190.753	1936.24
190.828	1938.28
190.904	1951.5
190.98	1964.15
191.055	1973.85
191.131	1964.91
191.207	1985.54
191.282	1995.38
191.358	1986.97
191.433	1976.03
191.509	1985.72
191.585	1982.01
191.66	1984.72
191.736	1990.95
191.811	1981.54
191.887	1997.37
191.963	2018.11
192.038	2019.63
192.114	2019.63
192.189	2027.66
192.265	2027.57
192.34	2005.63
192.416	2004.78
192.491	2000.69
192.567	2004.83
192.642	2006.06
192.718	2003.07
192.793	1992.03
192.869	1989.37
192.944	1991.56
193.02	1997.46
193.095	2002.31
193.171	2008.49
193.246	2008.3
193.322	2004.87
193.397	2005.63
193.473	1993.89
193.548	1975.1
193.624	1982.9
193.699	1982.62
193.775	1992.8
193.85	1993.6
193.925	2000.88
194.001	1999.26
194.076	1992.18
194.152	1982.43
194.227	1976.72
194.302	1970.78
194.378	1973.54
194.453	1966.41
194.529	1978.53
194.604	1965.55
194.679	1959.75
194.755	1940.74
194.83	1952.2
194.905	1951.73
194.981	1960.52
195.056	1953.06
195.131	1960.19
195.207	1958.38
195.282	1947.78
195.357	1931.38
195.433	1945.93
195.508	1934.51
195.583	1942.21
195.659	1955.96
195.734	1960.38
195.809	1960.71
195.884	1967.75
195.96	1964.14
196.035	1982.01
196.11	1977.83
196.185	1987.62
196.261	1989.1
196.336	2016.67
196.411	2001.02
196.486	2006.92
196.561	2000.64
196.637	2009.91
196.712	2026.61
196.787	2031.84
196.862	2046.58
196.937	2054.1
197.013	2058.52
197.088	2067.84
197.163	2088.2
197.238	2105.58
197.313	2106.1
197.388	2118.23
197.464	2146.35
197.539	2161.52
197.614	2152.39
197.689	2164.66
197.764	2181.13
197.839	2202.25
197.914	2200.92
197.989	2222.28
198.065	2233.27
198.14	2281.31
198.215	2306.15
198.29	2314.67
198.365	2324.43
198.44	2334.71
198.515	2364.21
198.59	2377.54
198.665	2403.15
198.74	2409.53
198.815	2409.39
198.89	2431.81
198.965	2461.38
199.04	2458.66
199.115	2472.8
199.19	2512.55
199.265	2516.21
199.34	2525.64
199.415	2557.42
199.49	2577.61
199.565	2587.56
199.64	2612.89
199.715	2609.51
199.79	2614.94
199.865	2621.94
199.94	2621.7
200.015	2653.52
200.09	2659.38
200.165	2667.67
200.24	2672.81
200.315	2708.85
200.39	2721.95
200.464	2723.62
200.539	2722.43
200.614	2737.81
200.689	2754.63
200.764	2763.12
200.839	2781.21
200.914	2784.17
200.989	2772.58
201.063	2785.16
201.138	2770.55
201.213	2770.5
201.288	2750.87
201.363	2755.59
201.438	2755.78
201.512	2769.11
201.587	2750.29
201.662	2753.86
201.737	2764.58
201.812	2772.35
201.886	2745.08
201.961	2754.76
202.036	2746.14
202.111	2746.23
202.186	2716.19
202.26	2702.56
202.335	2682.31
202.41	2674.17
202.485	2658.4
202.559	2640.73
202.634	2615.58
202.709	2624.05
202.784	2604.72
202.858	2608.19
202.933	2591.33
203.008	2586.76
203.082	2568.9
203.157	2569.62
203.232	2531.2
203.306	2511
203.381	2481.33
203.456	2459
203.53	2438.03
203.605	2419.14
203.68	2397.28
203.754	2394.66
203.829	2381.57
203.904	2360.53
203.978	2349.96
204.053	2354.96
204.127	2344.54
204.202	2340.54
204.277	2325.69
204.351	2318.93
204.426	2309.79
204.5	2302.79
204.575	2268.91
204.65	2278.01
204.724	2268.96
204.799	2274.14
204.873	2270.29
204.948	2270.14
205.022	2260.3
205.097	2249.35
205.171	2264.43
205.246	2270.71
205.32	2270.38
205.395	2269.57
205.469	2265.05
205.544	2272.53
205.618	2256.16
205.693	2266.39
205.767	2254.11
205.842	2270.01
205.916	2265.44
205.991	2254.4
206.065	2260.45
206.14	2278.33
206.214	2271.62
206.289	2266.62
206.363	2277.23
206.438	2280.23
206.512	2285.66
206.586	2302.74
206.661	2315.69
206.735	2294.28
206.81	2295.9
206.884	2307.65
206.958	2297.76
207.033	2310.55
207.107	2313.41
207.181	2342.74
207.256	2336.93
207.33	2358.68
207.405	2374.11
207.479	2391.3
207.553	2399.24
207.628	2384.63
207.702	2392.77
207.776	2391.2
207.851	2394.87
207.925	2410.68
207.999	2404.54
208.073	2401.82
208.148	2405.16
208.222	2390.4
208.296	2422.9
208.371	2437.14
208.445	2447.23
208.519	2475.37
208.593	2486.75
208.668	2484.51
208.742	2488.08
208.816	2491.27
208.89	2506.94
208.965	2504.18
209.039	2513.28
209.113	2529.47
209.187	2550.59
209.261	2547.31
209.336	2569.03
209.41	2589.03
209.484	2592.99
209.558	2619.66
209.632	2637.09
209.707	2651.33
209.781	2677.43
209.855	2695.92
209.929	2718.76
210.003	2734.2
210.077	2737.82
210.151	2794.09
210.226	2834.71
210.3	2866.81
210.374	2899.59
210.448	2912.99
210.522	2936.4
210.596	2959.14
210.67	2986.6
210.744	3049.17
210.818	3097.55
210.892	3134.13
210.966	3149.2
211.041	3185.69
211.115	3205.29
211.189	3252.56
211.263	3295.64
211.337	3330.8
211.411	3375.09
211.485	3399.3
211.559	3446.02
211.633	3489.24
211.707	3498.5
211.781	3546.57
211.855	3560.27
211.929	3597.46
212.003	3627.48
212.077	3685.05
212.151	3751.08
212.225	3811.38
212.299	3854.46
212.373	3905.06
212.447	3961.09
212.52	4053.54
212.594	4123.88
212.668	4207.98
212.742	4269.63
212.816	4342.87
212.89	4419.07
212.964	4493.92
213.038	4585.88
213.112	4680.87
213.186	4783.63
213.26	4856.38
213.333	4907.56
213.407	5009.01
213.481	5117.28
213.555	5233.16
213.629	5329.17
213.703	5420.3
213.777	5528.17
213.85	5626.71
213.924	5769.36
213.998	5887.03
214.072	5999.47
214.146	6103.59
214.219	6222.81
214.293	6338.07
214.367	6458.81
214.441	6591.24
214.515	6710.43
214.588	6809.71
214.662	6909.53
214.736	7022.19
214.81	7157.68
214.883	7299.39
214.957	7425.48
215.031	7544.97
215.105	7655.37
215.178	7773.84
215.252	7902.38
215.326	8012.37
215.4	8127.03
215.473	8218.49
215.547	8336.23
215.621	8460.6
215.694	8605.36
215.768	8724.34
215.842	8850.67
215.915	8971.5
215.989	9081.75
216.063	9215.51
216.136	9355.52
216.21	9488.22
216.284	9626.96
216.357	9761.66
216.431	9887.56
216.504	10025.7
216.578	10182.79
216.652	10328.4
216.725	10466.57
216.799	10608.32
216.873	10741.58
216.946	10883.33
217.02	11013.09
217.093	11139.53
217.167	11246.18
217.24	11361.08
217.314	11472.11
217.387	11591.87
217.461	11719.1
217.535	11856.46
217.608	11964.09
217.682	12080.54
217.755	12211.89
217.829	12325.94
217.902	12445.53
217.976	12568.39
218.049	12673.72
218.123	12768.39
218.196	12878.3
218.27	12979.24
218.343	13072.42
218.417	13194.33
218.49	13299.23
218.563	13430.59
218.637	13548.93
218.71	13683.19
218.784	13794.98
218.857	13918.77
218.931	14029.93
219.004	14131.31
219.077	14238.42
219.151	14339.17
219.224	14443.05
219.298	14540.47
219.371	14648.06
219.444	14742.21
219.518	14846.57
219.591	14948.13
219.665	15068.35
219.738	15164.32
219.811	15252.05
219.885	15356.75
219.958	15448.86
220.031	15528.15
220.105	15609.85
220.178	15695.51
220.251	15768.58
220.325	15856.2
220.398	15944.07
220.471	16027.55
220.544	16114.5
220.618	16189.21
220.691	16273.61
220.764	16345.42
220.838	16421.81
220.911	16496.81
220.984	16580.09
221.057	16654.7
221.131	16732.39
221.204	16776.92
221.277	16858.13
221.35	16955.29
221.424	17008.69
221.497	17069.85
221.57	17139.35
221.643	17203.16
221.716	17270.68
221.79	17320.17
221.863	17380.32
221.936	17432.65
222.009	17488.46
222.082	17550.53
222.155	17604.37
222.229	17679.16
222.302	17739.64
222.375	17792.12
222.448	17839.45
222.521	17889.95
222.594	17930.53
222.667	17965.32
222.74	18020.21
222.814	18065.37
222.887	18106.18
222.96	18161.8
223.033	18212.4
223.106	18264.44
223.179	18320.2
223.252	18356.63
223.325	18402.7
223.398	18434.94
223.471	18470.6
223.544	18512.53
223.617	18549.63
223.69	18583.37
223.763	18599.99
223.837	18643.89
223.91	18688.08
223.983	18708.52
224.056	18721.96
224.129	18755.16
224.202	18793.57
224.275	18817.47
224.348	18841.38
224.42	18854.19
224.493	18868.07
224.566	18897.66
224.639	18921.9
224.712	18932.55
224.785	18952.4
224.858	18977.66
224.931	18996.02
225.004	19011.29
225.077	19033.8
225.15	19033.46
225.223	19057.36
225.296	19099
225.369	19095
225.442	19099.29
225.514	19124.25
225.587	19151.81
225.66	19170.17
225.733	19189.79
225.806	19209.45
225.879	19229.98
225.952	19236.53
226.025	19272.48
226.097	19303.47
226.17	19316.19
226.243	19307.85
226.316	19327.61
226.389	19344.24
226.461	19366.16
226.534	19388.52
226.607	19395.75
226.68	19424.57
226.753	19439.07
226.825	19433.34
226.898	19457.1
226.971	19473.67
227.044	19488.76
227.117	19501.24
227.189	19510.15
227.262	19536.66
227.335	19547.74
227.407	19540.51
227.48	19562.49
227.553	19569.57
227.626	19563.35
227.698	19576.9
227.771	19599.35
227.844	19593.09
227.916	19609.14
227.989	19597.62
228.062	19595.21
228.134	19625.95
228.207	19628.41
228.28	19621.67
228.352	19626.53
228.425	19635.45
228.498	19632.07
228.57	19624.6
228.643	19641.95
228.716	19640.8
228.788	19621.33
228.861	19618.68
228.934	19637.04
229.006	19630.48
229.079	19625.13
229.151	19615.06
229.224	19604.8
229.296	19606.05
229.369	19628.7
229.442	19629.91
229.514	19630.82
229.587	19647.21
229.659	19627.16
229.732	19628.51
229.804	19640.22
229.877	19652.22
229.949	19648.51
230.022	19677.37
230.094	19678.05
230.167	19682.39
230.239	19685.85
230.312	19683.11
230.384	19709.71
230.457	19708.46
230.529	19722.29
230.602	19719.93
230.674	19732.21
230.747	19733.66
230.819	19750.72
230.892	19713.56
230.964	19706.19
231.037	19711.3
231.109	19708.7
231.181	19706.14
231.254	19693.57
231.326	19681.95
231.399	19676.02
231.471	19665.42
231.544	19627.93
231.616	19639.35
231.688	19623.79
231.761	19612.56
231.833	19606.05
231.905	19575.64
231.978	19570.05
232.05	19546.92
232.122	19544.37
232.195	19517.96
232.267	19526.44
232.339	19499.41
232.412	19510.68
232.484	19491.7
232.556	19473.09
232.629	19479.12
232.701	19480.61
232.773	19466.3
232.846	19448.42
232.918	19436.62
232.99	19427.07
233.062	19430.98
233.135	19412.47
233.207	19388.33
233.279	19378.11
233.351	19375.46
233.424	19352.57
233.496	19328.43
233.568	19330.21
233.64	19300.67
233.713	19287.32
233.785	19262.89
233.857	19249.98
233.929	19225.3
234.001	19232.97
234.074	19235.47
234.146	19189.88
234.218	19167.67
234.29	19158.61
234.362	19146.46
234.434	19110.32
234.507	19091.58
234.579	19056.45
234.651	19039.15
234.723	19034.42
234.795	19029.22
234.867	18998.81
234.939	18990.57
235.012	18978.47
235.084	18958.14
235.156	18934.57
235.228	18910.33
235.3	18887.64
235.372	18867.16
235.444	18862.24
235.516	18817.04
235.588	18794.73
235.66	18778.87
235.732	18744.66
235.804	18769.14
235.876	18750.59
235.948	18752.18
236.02	18727.79
236.092	18702.97
236.164	18675.79
236.236	18638.25
236.308	18598.59
236.38	18584.23
236.452	18562.26
236.524	18535.42
236.596	18529.97
236.668	18525.83
236.74	18510.31
236.812	18490.99
236.884	18478.22
236.956	18448.82
237.028	18417.4
237.1	18386.75
237.172	18378.99
237.244	18371.52
237.316	18312.44
237.388	18278.23
237.46	18240.54
237.532	18230.13
237.604	18198.95
237.675	18188.59
237.747	18178.76
237.819	18142.67
237.891	18114.71
237.963	18074.57
238.035	18041.37
238.107	17979.25
238.178	17965.47
238.25	17926.91
238.322	17919.78
238.394	17877.42
238.466	17846.29
238.538	17833.23
238.609	17806.15
238.681	17755.98
238.753	17722.78
238.825	17696.99
238.897	17682.44
238.968	17668.22
239.04	17639.55
239.112	17642.63
239.184	17601.72
239.255	17565.24
239.327	17548.51
239.399	17533.04
239.471	17518.39
239.542	17510.44
239.614	17505.09
239.686	17452.56
239.758	17436.85
239.829	17392.56
239.901	17379.74
239.973	17355.94
240.044	17325.43
240.116	17299.21
240.188	17272.8
240.259	17245.86
240.331	17207.79
240.403	17186.44
240.474	17143.45
240.546	17099.45
240.618	17052.7
240.689	17027.16
240.761	17009.09
240.833	17001.76
240.904	16958.14
240.976	16926.77
241.048	16893.27
241.119	16868.94
241.191	16850.62
241.262	16845.27
241.334	16809.75
241.405	16765.8
241.477	16735.05
241.549	16702.04
241.62	16676.78
241.692	16656.54
241.763	16641.26
241.835	16623.72
241.906	16588.63
241.978	16546.89
242.049	16534.46
242.121	16519.27
242.192	16492.09
242.264	16445.77
242.335	16393.77
242.407	16383.79
242.478	16354.73
242.55	16327.06
242.621	16291.54
242.693	16250.91
242.764	16210.52
242.836	16185.94
242.907	16168.35
242.979	16139.05
243.05	16112.25
243.122	16087.91
243.193	16060.63
243.264	16003.7
243.336	15963.84
243.407	15942.3
243.479	15935.46
243.55	15911.26
243.622	15882.48
243.693	15858.19
243.764	15848.79
243.836	15816.06
243.907	15782.81
243.978	15755.33
244.05	15730.75
244.121	15682.98
244.192	15661.87
244.264	15616.85
244.335	15594.05
244.407	15557.13
244.478	15534.77
244.549	15510.86
244.62	15465.94
244.692	15431.47
244.763	15420.1
244.834	15396.24
244.906	15360.95
244.977	15338.06
245.048	15327.4
245.119	15294.53
245.191	15261.37
245.262	15212.97
245.333	15202.32
245.405	15174.51
245.476	15143.9
245.547	15117.53
245.618	15105.58
245.689	15084.18
245.761	15073.14
245.832	15046.87
245.903	15025.22
245.974	14999.87
246.045	14972.83
246.117	14962.94
246.188	14927.71
246.259	14893.96
246.33	14861.67
246.401	14835.35
246.473	14789.89
246.544	14752.54
246.615	14729.98
246.686	14697.24
246.757	14688.52
246.828	14655.07
246.899	14637.81
246.97	14600.88
247.042	14568.92
247.113	14548.1
247.184	14547.09
247.255	14506.59
247.326	14481.48
247.397	14460.61
247.468	14440.94
247.539	14421.22
247.61	14383.86
247.681	14371.09
247.752	14354.41
247.823	14327.37
247.894	14300.42
247.965	14262.68
248.037	14231.2
248.108	14200.88
248.179	14185.31
248.25	14156.62
248.321	14135.75
248.392	14096.56
248.463	14096.32
248.534	14062.77
248.605	14044.21
248.675	14007.18
248.746	13991.81
248.817	13971.27
248.888	13941.38
248.959	13897.61
249.03	13873.27
249.101	13850.66
249.172	13818.55
249.243	13780.23
249.314	13764.71
249.385	13742.97
249.456	13730.87
249.527	13702.13
249.598	13674.85
249.669	13645.01
249.739	13627.85
249.81	13606.54
249.881	13575.59
249.952	13546.86
250.023	13527.29
250.094	13491.71
250.165	13464.81
250.235	13438.73
250.306	13413.14
250.377	13386.09
250.448	13373.7
250.519	13331.43
250.59	13329.74
250.66	13312.77
250.731	13308.24
250.802	13279.89
250.873	13262.35
250.944	13246.15
251.014	13217.8
251.085	13222.91
251.156	13202.81
251.227	13194.13
251.297	13191.96
251.368	13181.26
251.439	13171.86
251.51	13163.33
251.58	13133.44
251.651	13098.69
251.722	13093.72
251.792	13055.11
251.863	13032.16
251.934	13018.95
252.005	13030.76
252.075	13006.03
252.146	12989.55
252.217	12975.18
252.287	12969.06
252.358	12944.76
252.429	12944.33
252.499	12922.54
252.57	12896.17
252.641	12881.66
252.711	12855.05
252.782	12816.58
252.852	12812.53
252.923	12783.18
252.994	12755.51
253.064	12745.43
253.135	12723.45
253.205	12693.52
253.276	12694.14
253.347	12682.86
253.417	12657.27
253.488	12623.28
253.558	12598.41
253.629	12578.84
253.699	12559.22
253.77	12546.97
253.841	12524.17
253.911	12504.31
253.982	12491.54
254.052	12487.44
254.123	12472.5
254.193	12454.8
254.264	12468.93
254.334	12436.2
254.405	12411.42
254.475	12390.41
254.546	12371.99
254.616	12365.82
254.687	12354.25
254.757	12340.66
254.827	12324.99
254.898	12309.33
254.968	12293.13
255.039	12266.72
255.109	12257.61
255.18	12233.41
255.25	12195.95
255.321	12184.63
255.391	12150.07
255.461	12154.31
255.532	12105.24
255.602	12085.14
255.673	12046.96
255.743	12020.3
255.813	11980.73
255.884	11974.03
255.954	11965.16
256.024	11964.68
256.095	11945.98
256.165	11909.54
256.235	11891.08
256.306	11868.52
256.376	11861
256.446	11850.78
256.517	11836.03
256.587	11820.61
256.657	11800.41
256.728	11782.05
256.798	11769.86
256.868	11751.97
256.938	11715.54
257.009	11714.38
257.079	11705.36
257.149	11711.92
257.219	11671.09
257.29	11662.28
257.36	11628.68
257.43	11616.1
257.5	11576.87
257.571	11553.73
257.641	11553.2
257.711	11525.97
257.781	11511.85
257.852	11493.25
257.922	11463.32
257.992	11445.53
258.062	11427.12
258.132	11414.2
258.202	11398.78
258.273	11375.21
258.343	11376.85
258.413	11359.46
258.483	11335.55
258.553	11301.38
258.623	11273.72
258.693	11257.52
258.764	11259.98
258.834	11253.86
258.904	11236.65
258.974	11206.83
259.044	11185.19
259.114	11168.46
259.184	11158.83
259.254	11140.66
259.324	11105.77
259.394	11094.44
259.464	11094.92
259.535	11072.42
259.605	11057
259.675	11032.23
259.745	11023.6
259.815	10994.73
259.885	10970.78
259.955	10981.87
260.025	10960.86
260.095	10941.01
260.165	10930.79
260.235	10928.67
260.305	10907.13
260.375	10881.35
260.445	10896.48
260.515	10901.97
260.585	10889.39
260.655	10872.38
260.725	10866.02
260.795	10861.2
260.865	10864.34
260.934	10840
261.004	10834.31
261.074	10817.79
261.144	10818.94
261.214	10812.73
261.284	10792.25
261.354	10787.24
261.424	10761.12
261.494	10764.25
261.564	10755.09
261.634	10758.18
261.703	10721.8
261.773	10716.74
261.843	10713.94
261.913	10686.48
261.983	10655.64
262.053	10651.98
262.123	10630.2
262.192	10600.42
262.262	10592.57
262.332	10564.28
262.402	10561.97
262.472	10550.65
262.541	10509.6
262.611	10501.85
262.681	10475.2
262.751	10468.84
262.821	10445.48
262.89	10410.88
262.96	10393.87
263.03	10392.33
263.1	10372.62
263.169	10358.27
263.239	10346.56
263.309	10344.63
263.379	10341.36
263.448	10329.99
263.518	10321.07
263.588	10304.26
263.657	10313.27
263.727	10308.55
263.797	10287.16
263.867	10262.92
263.936	10236.09
264.006	10243.7
264.076	10229.82
264.145	10214.55
264.215	10191.14
264.285	10192.63
264.354	10170.09
264.424	10152.89
264.494	10129.29
264.563	10115.27
264.633	10120.86
264.702	10108.38
264.772	10079.57
264.842	10061.21
264.911	10052.21
264.981	10018.44
265.05	10011.69
265.12	9988.04
265.19	9975.37
265.259	9972.91
265.329	9969.49
265.398	9955.43
265.468	9968.39
265.537	9944.49
265.607	9938.09
265.676	9940.21
265.746	9928.41
265.815	9927.11
265.885	9915.69
265.955	9892.04
266.024	9866.37
266.094	9828.12
266.163	9828.61
266.232	9822.78
266.302	9808.28
266.371	9800.57
266.441	9789.59
266.51	9787.18
266.58	9775.62
266.649	9757.18
266.719	9755.59
266.788	9745.47
266.858	9749.32
266.927	9713.73
266.996	9707.66
267.066	9699.62
267.135	9670.29
267.205	9667.25
267.274	9663.06
267.343	9661.62
267.413	9649.96
267.482	9649.77
267.552	9658.2
267.621	9630.22
267.69	9600.41
267.76	9592.36
267.829	9576.42
267.898	9564.43
267.968	9543.48
268.037	9535.88
268.106	9526.19
268.176	9499.75
268.245	9484.39
268.314	9467.73
268.384	9465.18
268.453	9453.28
268.522	9440.71
268.592	9441.29
268.661	9418.85
268.73	9401.32
268.799	9374.4
268.869	9378.79
268.938	9357.02
269.007	9335.06
269.076	9324.9
269.146	9328.99
269.215	9319.99
269.284	9328.47
269.353	9310.22
269.422	9292.69
269.492	9278.39
269.561	9244.4
269.63	9237.66
269.699	9220.23
269.768	9210.31
269.838	9199.62
269.907	9197.36
269.976	9177.86
270.045	9147.86
270.114	9142.91
270.183	9137.66
270.253	9137.61
270.322	9108.19
270.391	9100.63
270.46	9106.27
270.529	9102.46
270.598	9099.72
270.667	9088.79
270.736	9064.38
270.806	9064.91
270.875	9064.86
270.944	9050.27
271.013	9069.72
271.082	9062.5
271.151	9058.17
271.22	9030.1
271.289	9023.94
271.358	9017.68
271.427	9013.93
271.496	9012.1
271.565	8997.56
271.634	8989.57
271.703	9015.09
271.772	9019.66
271.841	9008.93
271.91	8983.8
271.979	8975.28
272.048	8952.36
272.117	8950.96
272.186	8939.89
272.255	8939.17
272.324	8940.42
272.393	8933.54
272.462	8917.03
272.531	8911.1
272.6	8905.62
272.669	8914.42
272.738	8896.52
272.807	8886.17
272.876	8865.18
272.945	8893.06
273.013	8894.84
273.082	8894.21
273.151	8851.7
273.22	8847.37
273.289	8834.52
273.358	8846.84
273.427	8842.22
273.496	8843.66
273.564	8839.57
273.633	8839.33
273.702	8818.68
273.771	8804.67
273.84	8805.68
273.909	8807.85
273.977	8804.34
274.046	8794.32
274.115	8793.22
274.184	8788.6
274.253	8777.33
274.322	8788.55
274.39	8753.74
274.459	8737.96
274.528	8710.19
274.597	8704.41
274.665	8696.37
274.734	8707.11
274.803	8689.87
274.872	8677.79
274.94	8661.58
275.009	8707.8
275.078	8690.91
275.147	8691.97
275.215	8692.4
275.284	8701.98
275.353	8688.74
275.421	8671.75
275.49	8686.19
275.559	8679.65
275.627	8669.93
275.696	8669.78
275.765	8665.36
275.833	8654.14
275.902	8656.98
275.971	8670.27
276.039	8680.08
276.108	8682.73
276.177	8676.47
276.245	8669.93
276.314	8669.74
276.383	8680.9
276.451	8623.75
276.52	8625.24
276.588	8630.63
276.657	8631.79
276.725	8611.67
276.794	8606.9
276.863	8611.52
276.931	8588.32
277	8592.99
277.068	8597.42
277.137	8602.62
277.205	8596.84
277.274	8615.37
277.342	8627.02
277.411	8612.1
277.48	8602.14
277.548	8591.21
277.617	8591.16
277.685	8585.15
277.754	8583.37
277.822	8571.77
277.89	8581.49
277.959	8581.2
278.027	8564.31
278.096	8556.66
278.164	8586.74
278.233	8582.65
278.301	8573.7
278.37	8570.24
278.438	8556.04
278.507	8558.21
278.575	8541.65
278.643	8540.06
278.712	8520.77
278.78	8503.39
278.849	8509.55
278.917	8518.41
278.985	8518.65
279.054	8515.52
279.122	8526.35
279.191	8524.37
279.259	8519.8
279.327	8506.37
279.396	8521.63
279.464	8522.26
279.532	8528.03
279.601	8519.85
279.669	8515.81
279.737	8525.67
279.806	8533.8
279.874	8540.54
279.942	8541.79
280.011	8536.84
280.079	8538.76
280.147	8550.89
280.215	8551.9
280.284	8543.72
280.352	8527.6
280.42	8531.3
280.488	8533.61
280.557	8526.2
280.625	8529.09
280.693	8528.41
280.761	8530.58
280.83	8510.32
280.898	8520.38
280.966	8494.82
281.034	8466.96
281.102	8452.48
281.171	8448.1
281.239	8447.95
281.307	8443.77
281.375	8430.29
281.443	8453.06
281.512	8460.04
281.58	8472.5
281.648	8455.95
281.716	8458.83
281.784	8455.9
281.852	8451.42
281.92	8445.41
281.989	8453.49
282.057	8432.18
282.125	8468.08
282.193	8465.92
282.261	8470.15
282.329	8460.77
282.397	8473.28
282.465	8474.53
282.533	8491.7
282.601	8477.7
282.67	8461.15
282.738	8452.63
282.806	8465.19
282.874	8454.7
282.942	8451.09
283.01	8442.67
283.078	8451.86
283.146	8448.87
283.214	8456.09
283.282	8458.5
283.35	8469.61
283.418	8469.52
283.486	8478.23
283.554	8441.89
283.622	8439.1
283.69	8436.35
283.758	8434.81
283.826	8434.81
283.894	8446.27
283.962	8466.29
284.03	8487.65
284.098	8491.6
284.165	8488.47
284.233	8485.2
284.301	8473.99
284.369	8465.09
284.437	8460.42
284.505	8457.82
284.573	8470.76
284.641	8464.07
284.709	8464.84
284.777	8445.69
284.845	8446.8
284.912	8445.26
284.98	8454.59
285.048	8446.99
285.116	8449.35
285.184	8453.73
285.252	8451.85
285.319	8431.88
285.387	8419.66
285.455	8400.31
285.523	8403.01
285.591	8397.33
285.659	8399.93
285.726	8412.34
285.794	8399.35
285.862	8394.25
285.93	8392.33
285.997	8385.01
286.065	8378.86
286.133	8374.43
286.201	8371.73
286.269	8359.17
286.336	8353.93
286.404	8337.14
286.472	8340.22
286.539	8312.27
286.607	8297.5
286.675	8295.19
286.743	8305.19
286.81	8295.33
286.878	8305.1
286.946	8295.86
287.013	8301.15
287.081	8297.45
287.149	8284.31
287.216	8296.67
287.284	8289.84
287.352	8292.15
287.419	8286.18
287.487	8303.22
287.555	8306.01
287.622	8300.57
287.69	8303.56
287.758	8316.31
287.825	8315.78
287.893	8312.84
287.96	8327.99
288.028	8343.82
288.096	8351.67
288.163	8350.13
288.231	8343.29
288.298	8337.95
288.366	8351.52
288.433	8342.91
288.501	8333.53
288.569	8337.38
288.636	8334.06
288.704	8345.7
288.771	8346.86
288.839	8344.26
288.906	8333.77
288.974	8336.99
289.041	8341.9
289.109	8334.54
289.176	8337.91
289.244	8341.32
289.311	8349.41
289.379	8359.61
289.446	8359.75
289.514	8362.16
289.581	8358.5
289.649	8360.57
289.716	8368.46
289.783	8363.7
289.851	8383.47
289.918	8386.74
289.986	8389.97
290.053	8394.1
290.121	8391.94
290.188	8396.08
290.255	8422.06
290.323	8417.88
290.39	8413.74
290.458	8416.48
290.525	8429.47
290.592	8425.67
290.66	8429.62
290.727	8423.55
290.794	8430.63
290.862	8428.46
290.929	8421.2
290.996	8423.12
291.064	8430.82
291.131	8440.35
291.198	8447.33
291.266	8443.86
291.333	8445.88
291.4	8450.12
291.468	8472.88
291.535	8471.58
291.602	8474.28
291.669	8464.89
291.737	8470.18
291.804	8476.05
291.871	8493.52
291.938	8496.75
292.006	8525.29
292.073	8533.08
292.14	8542.9
292.207	8532.22
292.275	8537.08
292.342	8547.04
292.409	8572.55
292.476	8595.94
292.543	8585.54
292.611	8585.64
292.678	8605.8
292.745	8629.05
292.812	8639.35
292.879	8631.07
292.946	8634.77
293.014	8645.6
293.081	8659.27
293.148	8673.76
293.215	8690.12
293.282	8681.79
293.349	8690.99
293.416	8670.53
293.484	8684.54
293.551	8689.93
293.618	8710.81
293.685	8731.22
293.752	8725.2
293.819	8719.09
293.886	8705.81
293.953	8709.75
294.02	8719.43
294.087	8723.04
294.154	8712.88
294.221	8728.09
294.288	8729.34
294.356	8750.28
294.423	8753.22
294.49	8739.16
294.557	8744.6
294.624	8727.23
294.691	8746.77
294.758	8749.65
294.825	8752.98
294.892	8745.8
294.959	8750.09
295.026	8760.29
295.093	8752.74
295.16	8760.19
295.226	8761.69
295.293	8787.54
295.36	8795.38
295.427	8806.79
295.494	8816.9
295.561	8819.4
295.628	8840.73
295.695	8847.81
295.762	8842.61
295.829	8854.98
295.896	8869.28
295.963	8881.36
296.03	8900.56
296.096	8899.99
296.163	8906.87
296.23	8924.3
296.297	8936.95
296.364	8941.09
296.431	8943.07
296.498	8939.55
296.564	8955.44
296.631	8963.62
296.698	8946.24
296.765	8964.2
296.832	8954.96
296.899	8943.16
296.965	8968.39
297.032	8942.43
297.099	8964.43
297.166	8969.59
297.233	8965.2
297.299	8961.26
297.366	8959.77
297.433	8957.89
297.5	8965.93
297.566	8965.3
297.633	8960.39
297.7	8965.64
297.767	8961.26
297.833	8962.08
297.9	8970.79
297.967	8958.71
298.033	8969.88
298.1	8994.14
298.167	8984.99
298.234	8985.19
298.3	8993.51
298.367	8982.25
298.434	8992.74
298.5	8975.07
298.567	8970.07
298.634	8966.41
298.7	8977.67
298.767	8976.66
298.834	8985.71
298.9	8983.6
298.967	8979.02
299.033	8988.17
299.1	8998.57
299.167	9009.98
299.233	9008.05
299.3	9016.19
299.366	9032.17
299.433	9041.75
299.5	9018.35
299.566	9021.43
299.633	9040.45
299.699	9050.13
299.766	9045.7
299.832	9043.15
299.899	9053.02
299.965	9064.52
300.032	9057.35
300.099	9064.43
300.165	9070.97
300.232	9064.86
300.298	9063.85
300.365	9072.27
300.431	9075.26
300.498	9069.48
300.564	9069.72
300.631	9080.7
300.697	9089.7
300.763	9091.05
300.83	9088.3
300.896	9099.09
300.963	9107.99
301.029	9112.14
301.096	9105.54
301.162	9119.55
301.229	9114.11
301.295	9101.5
301.361	9108.19
301.428	9113.77
301.494	9100.2
301.561	9101.83
301.627	9106.98
301.693	9115.84
301.76	9121.86
301.826	9116.32
301.892	9127.25
301.959	9138.66
302.025	9131.54
302.092	9123.3
302.158	9123.98
302.224	9127.54
302.291	9117.67
302.357	9113
302.423	9106.21
302.49	9099.52
302.556	9112.09
302.622	9114.21
302.688	9129.32
302.755	9139.05
302.821	9147.14
302.887	9154.22
302.954	9145.21
303.02	9151.57
303.086	9149.93
303.152	9139.29
303.219	9138.52
303.285	9142.08
303.351	9148.97
303.417	9150.85
303.483	9139.25
303.55	9134.82
303.616	9125.67
303.682	9125.47
303.748	9116.04
303.815	9122.97
303.881	9129.23
303.947	9114.21
304.013	9115.89
304.079	9101.35
304.145	9073.05
304.212	9071.22
304.278	9064.62
304.344	9062.02
304.41	9046.76
304.476	9039.83
304.542	9035.49
304.608	9032.85
304.674	9007.19
304.741	8993.13
304.807	8990.24
304.873	9001.94
304.939	9015.9
305.005	8996.4
305.071	8993.85
305.137	8999.53
305.203	8978.11
305.269	8977.53
305.335	8989.13
305.401	8983.84
305.467	8980.23
305.533	8990.86
305.599	8995.29
305.666	8999.91
305.732	9000.3
305.798	9011.37
305.864	9030.68
305.93	9042.91
305.996	9041.08
306.062	9047.82
306.128	9048.44
306.194	9039.54
306.259	9033.57
306.325	9019.85
306.391	9027.74
306.457	9032.07
306.523	9025.14
306.589	9042.66
306.655	9030.58
306.721	9009.49
306.787	8994.81
306.853	9015.23
306.919	9003.86
306.985	8988.65
307.051	8975.7
307.117	8972.19
307.183	8965.4
307.248	8937.05
307.314	8932.09
307.38	8936.13
307.446	8933.58
307.512	8914.13
307.578	8915.19
307.644	8906.29
307.709	8905.18
307.775	8900.85
307.841	8894.49
307.907	8897.24
307.973	8877.74
308.039	8877.45
308.104	8876.68
308.17	8882.36
308.236	8861.99
308.302	8859.49
308.368	8853.86
308.433	8862.81
308.499	8851.26
308.565	8838.55
308.631	8842.16
308.696	8818.82
308.762	8801.83
308.828	8803.08
308.894	8786.14
308.959	8766.89
309.025	8754.28
309.091	8748.02
309.156	8740.32
309.222	8741.71
309.288	8730.11
309.354	8706.96
309.419	8706.82
309.485	8691.9
309.551	8693.73
309.616	8677.22
309.682	8668.8
309.748	8656
309.813	8640.69
309.879	8635.21
309.945	8625.53
310.01	8614.46
310.076	8621.1
310.141	8616.58
310.207	8594.78
310.273	8605.07
310.338	8607.24
310.404	8595.55
310.469	8581.54
310.535	8565.71
310.601	8542.8
310.666	8544.58
310.732	8554.64
310.797	8545.78
310.863	8543.86
310.928	8539.04
310.994	8543.04
311.059	8542.94
311.125	8544.48
311.191	8558.3
311.256	8547.23
311.322	8549.15
311.387	8530.77
311.453	8890.47
311.518	8863.57
311.584	8866.22
311.649	8863.62
311.715	8851.98
311.78	8855.49
311.846	8844.76
311.911	8853.42
311.976	8855.15
312.042	8839.32
312.107	8819.3
312.173	8804.05
312.238	8787.59
312.304	8775.42
312.369	8765.5
312.434	8752.46
312.5	8745.05
312.565	8710.21
312.631	8713.63
312.696	8702.47
312.761	8705.88
312.827	8331.75
312.892	8371.26
312.958	8363.46
313.023	8356.96
313.088	8351.96
313.154	8336.76
313.219	8324.73
313.284	8313.95
313.35	8310.2
313.415	8294.66
313.48	8294.13
313.546	8295.19
313.611	8303.08
313.676	8292.2
313.741	8284.27
313.807	8289.61
313.872	8292.97
313.937	8298.8
314.003	8307.7
314.068	8305.39
314.133	8303.08
314.198	8288.6
314.264	8261.65
314.329	8250.82
314.394	8244.71
314.459	8241.3
314.525	8257.03
314.59	8255.01
314.655	8242.98
314.72	8243.56
314.785	8250.87
314.851	8245.77
314.916	8232.35
314.981	8213.83
315.046	8206.37
315.111	8194.3
315.176	8181.69
315.242	8175.44
315.307	8171.49
315.372	8148.73
315.437	8135.65
315.502	8127.57
315.567	8140.7
315.632	8124.49
315.698	8125.88
315.763	8120.83
315.828	8111.89
315.893	8103.56
315.958	8101.54
316.023	8093.22
316.088	8074.27
316.153	8045.94
316.218	8038.39
316.283	8018.96
316.348	8012.27
316.413	8011.26
316.479	7997.9
316.544	7968.17
316.609	7941.87
316.674	7912.34
316.739	7880.65
316.804	7855.84
316.869	7824.19
316.934	7784.42
316.999	7754.08
317.064	7705.56
317.129	7663.73
317.194	7632.76
317.259	7589.34
317.324	7542.09
317.389	7502.62
317.454	7466.95
317.518	7445.36
317.583	7420.07
317.648	7398.2
317.713	7365.85
317.778	7301.73
317.843	7274.28
317.908	7241.17
317.973	7208.63
318.038	7178.55
318.103	7144.43
318.168	7113.97
318.233	7085.71
318.297	7040.59
318.362	7011.57
318.427	6980.98
318.492	6962.28
318.557	6918.43
318.622	6892.05
318.687	6872.94
318.751	6833.99
318.816	6810.5
318.881	6775.67
318.946	6725.34
319.011	6685.81
319.075	6643.74
319.14	6615.51
319.205	6572.15
319.27	6537.96
319.335	6496.91
319.399	6463.16
319.464	6434.74
319.529	6389.76
319.594	6355.57
319.658	6325.53
319.723	6291.54
319.788	6259.48
319.853	6208.6
319.917	6179.86
319.982	6132.93
320.047	6097.89
320.112	6077.64
320.176	6025.25
320.241	5989.36
320.306	5961.53
320.37	5924.5
320.435	5894.28
320.5	5867.03
320.564	5837.29
320.629	5795.77
320.694	5765.98
320.758	5726.32
320.823	5688.2
320.888	5659.1
320.952	5615.51
321.017	5580.47
321.082	5536.03
321.146	5507.55
321.211	5473.18
321.275	5438.05
321.34	5397.9
321.405	5353.04
321.469	5307.99
321.534	5269.81
321.598	5225.44
321.663	5198.8
321.727	5168.32
321.792	5122.96
321.857	5086.02
321.921	5046.31
321.986	5011.4
322.05	4955.81
322.115	4919.37
322.179	4879.63
322.244	4829.98
322.308	4794.84
322.373	4749.37
322.437	4712.28
322.502	4685.79
322.566	4645.92
322.631	4608.07
322.695	4568.89
322.76	4526.17
322.824	4492.91
322.889	4455.32
322.953	4413.9
323.018	4349.22
323.082	4287.96
323.146	4242.73
323.211	4194.05
323.275	4149.39
323.34	4103.03
323.404	4072.92
323.468	4027.6
323.533	3983.06
323.597	3941.35
323.662	3895.85
323.726	3868.37
323.79	3826.95
323.855	3764.48
323.919	3719.72
323.983	3675.96
324.048	3616.54
324.112	3778.4
324.177	3660.18
324.241	3470.35
324.305	3285.81
324.37	3106.48
324.434	2932.54
324.498	2893.88
324.562	2847.67
324.627	2795.65
324.691	2752.14
324.755	2694.22
324.82	2630.26
324.884	2567.33
324.948	2504.98
325.012	2419.95
325.077	2305.98
