Data from 20250625_urea_1M_1_MAYP1162681_03-35-06-349.txt Node
Date: Thu Jun 26 03:35:06 BST 2025
User: adleo
Spectrometer: MAYP116268
Trigger mode: 0
Integration Time (sec): 1.000000E0
Scans to average: 1
Electric dark correction enabled: true
Nonlinearity correction enabled: true
Boxcar width: 10
XAxis mode: Wavelengths
Number of Pixels in Spectrum: 2068
>>>>>Begin Spectral Data<<<<<
179.565	1096.84
179.642	1150.7
179.718	1191.59
179.795	1227.49
179.871	1255.81
179.948	1273.99
180.024	1291.9
180.101	1312.59
180.177	1322.28
180.254	1345.17
180.33	1363.31
180.407	1410.92
180.483	1499.24
180.56	1582.66
180.636	1658.19
180.712	1647.74
180.789	1653.77
180.865	1667.07
180.942	1675.57
181.018	1687.59
181.095	1701.56
181.171	1706.03
181.248	1707.46
181.324	1721.38
181.4	1728.23
181.477	1740.44
181.553	1751.41
181.63	1772.89
181.706	1787.53
181.782	1801.12
181.859	1800.98
181.935	1808.68
182.011	1803.54
182.088	1819.04
182.164	1835.49
182.24	1850.08
182.317	1860.39
182.393	1859.3
182.469	1869.94
182.546	1882.16
182.622	1885.77
182.698	1880.73
182.775	1892.28
182.851	1901.55
182.927	1891.95
183.003	1889.95
183.08	1884.34
183.156	1891.24
183.232	1887.43
183.308	1876.31
183.385	1880.4
183.461	1895.18
183.537	1895.14
183.613	1907.78
183.69	1897.89
183.766	1887.57
183.842	1893.37
183.918	1896.37
183.995	1907.73
184.071	1913.15
184.147	1908.73
184.223	1898.18
184.299	1909.78
184.375	1900.08
184.452	1907.07
184.528	1959.52
184.604	1968.98
184.68	1977.64
184.756	1987.48
184.832	1992.66
184.908	2000.36
184.985	2001.22
185.061	1985.53
185.137	1993.66
185.213	1982.58
185.289	1985.82
185.365	1980.06
185.441	1978.07
185.517	1988.96
185.593	1987.06
185.669	1982.49
185.745	1993.14
185.822	2009.16
185.898	2002.45
185.974	2010.82
186.05	2006.35
186.126	1972.25
186.202	1962.89
186.278	1960.04
186.354	1948.81
186.43	1953.57
186.506	1951.72
186.582	1949.05
186.658	1954.9
186.734	1938.17
186.81	1940.21
186.886	1941.21
186.962	1952.52
187.038	1949.91
187.114	1945.06
187.19	1953.14
187.266	1947.72
187.341	1947.34
187.417	1941.45
187.493	1937.64
187.569	1940.78
187.645	1934.31
187.721	1921.09
187.797	1928.51
187.873	1932.6
187.949	1929.41
188.025	1924.66
188.101	1928.32
188.176	1936.3
188.252	1932.55
188.328	1940.01
188.404	1940.3
188.48	1933.83
188.556	1924.99
188.632	1926.32
188.707	1923.94
188.783	1920.04
188.859	1913.15
188.935	1901.36
189.011	1907.87
189.086	1903.79
189.162	1898.36
189.238	1895.66
189.314	1892.28
189.39	1889.81
189.465	1884.25
189.541	1897.94
189.617	1882.68
189.693	1873.79
189.768	1874.74
189.844	1896.81
189.92	1888.02
189.996	1897.62
190.071	1910.55
190.147	1914.26
190.223	1922.68
190.298	1916.4
190.374	1905.28
190.45	1914.4
190.526	1923.39
190.601	1916.73
190.677	1918.68
190.753	1940.8
190.828	1945.03
190.904	1961.24
190.98	1973.61
191.055	1984.07
191.131	1975.99
191.207	1994.91
191.282	2004.75
191.358	1994
191.433	1983.73
191.509	1997.27
191.585	1992.33
191.66	1994.14
191.736	1999.98
191.811	1992.8
191.887	2008.12
191.963	2030.42
192.038	2038.08
192.114	2038.12
192.189	2045.11
192.265	2042.74
192.34	2023.8
192.416	2023.66
192.491	2020.14
192.567	2022.61
192.642	2025.32
192.718	2022.33
192.793	2010.2
192.869	2005.69
192.944	2009.3
193.02	2017.67
193.095	2019.15
193.171	2027.56
193.246	2026.56
193.322	2023.43
193.397	2022.24
193.473	2011.72
193.548	1995.46
193.624	1998.45
193.699	1998.88
193.775	2012.3
193.85	2012.25
193.925	2019.38
194.001	2017.34
194.076	2010.54
194.152	1999.31
194.227	1991.85
194.302	1985.81
194.378	1989.09
194.453	1987.85
194.529	1999.08
194.604	1982.86
194.679	1978.53
194.755	1957
194.83	1968.89
194.905	1967.13
194.981	1975.64
195.056	1966.04
195.131	1970.56
195.207	1968.56
195.282	1957.72
195.357	1938.79
195.433	1951.91
195.508	1941.59
195.583	1949.58
195.659	1960.95
195.734	1967.94
195.809	1965.75
195.884	1974.93
195.96	1978.11
196.035	1994.71
196.11	1994.18
196.185	2006.64
196.261	2008.5
196.336	2040.69
196.411	2026.28
196.486	2030.37
196.561	2020.52
196.637	2031.65
196.712	2046.3
196.787	2051.82
196.862	2066.94
196.937	2075.78
197.013	2084.63
197.088	2094.47
197.163	2112.7
197.238	2129.69
197.313	2129.45
197.388	2145.58
197.464	2171.94
197.539	2182.07
197.614	2173.94
197.689	2181.98
197.764	2195.4
197.839	2217.28
197.914	2210.57
197.989	2232.75
198.065	2247.11
198.14	2298.63
198.215	2321.66
198.29	2332.37
198.365	2343.61
198.44	2353.93
198.515	2381.68
198.59	2393.82
198.665	2416.95
198.74	2425.24
198.815	2426.19
198.89	2451.23
198.965	2477.71
199.04	2474.95
199.115	2490.32
199.19	2529.6
199.265	2536.41
199.34	2544.07
199.415	2572.51
199.49	2594.94
199.565	2604.65
199.64	2626.13
199.715	2621.41
199.79	2627.18
199.865	2636.08
199.94	2633.85
200.015	2666.34
200.09	2671.62
200.165	2677.67
200.24	2685.25
200.315	2724.39
200.39	2740.5
200.464	2743.59
200.539	2745.07
200.614	2762.93
200.689	2784.71
200.764	2788.9
200.839	2804.62
200.914	2809.34
200.989	2799.66
201.063	2810.43
201.138	2793.53
201.213	2795.67
201.288	2779.19
201.363	2785.38
201.438	2784.95
201.512	2803.24
201.587	2784.8
201.662	2789.18
201.737	2804.29
201.812	2815.68
201.886	2782.49
201.961	2792.4
202.036	2777.88
202.111	2774.07
202.186	2740.12
202.26	2724.91
202.335	2707.52
202.41	2701.71
202.485	2689.81
202.559	2673.75
202.634	2649.36
202.709	2658.17
202.784	2639.69
202.858	2641.31
202.933	2625.73
203.008	2616.78
203.082	2597.73
203.157	2598.39
203.232	2558.17
203.306	2533.39
203.381	2499.48
203.456	2480.62
203.53	2454.31
203.605	2437.9
203.68	2417.89
203.754	2417.8
203.829	2403.13
203.904	2385.99
203.978	2373.61
204.053	2375.38
204.127	2364.67
204.202	2362.33
204.277	2345.87
204.351	2335.44
204.426	2324.78
204.5	2313.45
204.575	2282.33
204.65	2290.47
204.724	2278.57
204.799	2287.8
204.873	2287.42
204.948	2288.7
205.022	2276.85
205.097	2272.19
205.171	2288.13
205.246	2292.65
205.32	2290.42
205.395	2288.27
205.469	2276.95
205.544	2284.14
205.618	2268.01
205.693	2276.86
205.767	2265.63
205.842	2285.29
205.916	2283.58
205.991	2275.11
206.065	2282.53
206.14	2296.94
206.214	2292.85
206.289	2291.32
206.363	2301.84
206.438	2304.79
206.512	2308.89
206.586	2325.25
206.661	2332.49
206.735	2310.94
206.81	2312.27
206.884	2326.88
206.958	2313.8
207.033	2329.11
207.107	2332.78
207.181	2361.78
207.256	2356.3
207.33	2373.39
207.405	2384.91
207.479	2403.48
207.553	2410.47
207.628	2393.35
207.702	2402.58
207.776	2398.25
207.851	2400.2
207.925	2416.82
207.999	2410.44
208.073	2409.35
208.148	2410.97
208.222	2399.2
208.296	2431.33
208.371	2447.33
208.445	2457.76
208.519	2485.89
208.593	2502.65
208.668	2500.22
208.742	2506.7
208.816	2512.37
208.89	2528.56
208.965	2528.33
209.039	2539.28
209.113	2556.85
209.187	2581.65
209.261	2581.84
209.336	2601.65
209.41	2622.99
209.484	2624.9
209.558	2650.62
209.632	2665.86
209.707	2683
209.781	2710.44
209.855	2728.12
209.929	2753.21
210.003	2767.93
210.077	2774.65
210.151	2824.59
210.226	2868.31
210.3	2898.12
210.374	2932.29
210.448	2947.12
210.522	2970.39
210.596	2991.99
210.67	3020.5
210.744	3086.14
210.818	3137.05
210.892	3180.17
210.966	3198.15
211.041	3233.88
211.115	3257.92
211.189	3310.59
211.263	3356.77
211.337	3392.51
211.411	3440.77
211.485	3469.95
211.559	3519.25
211.633	3564.82
211.707	3577.05
211.781	3625.94
211.855	3646.47
211.929	3688.59
212.003	3728.88
212.077	3795.17
212.151	3866.66
212.225	3937.49
212.299	3986.81
212.373	4039.67
212.447	4103.86
212.52	4203.8
212.594	4285.98
212.668	4376.66
212.742	4443.79
212.816	4523.75
212.89	4607.15
212.964	4696.55
213.038	4788.25
213.112	4897.02
213.186	5006.57
213.26	5093.51
213.333	5157.42
213.407	5269.17
213.481	5378.82
213.555	5501.08
213.629	5600.49
213.703	5699.95
213.777	5812.06
213.85	5916.5
213.924	6068.51
213.998	6190.75
214.072	6312.9
214.146	6425.24
214.219	6559.75
214.293	6689.19
214.367	6828.3
214.441	6974.77
214.515	7097.34
214.588	7219.54
214.662	7325.28
214.736	7447.78
214.81	7589.74
214.883	7746.82
214.957	7875.86
215.031	8010.01
215.105	8127.62
215.178	8266.26
215.252	8408.14
215.326	8529.97
215.4	8657.91
215.473	8771.27
215.547	8906.78
215.621	9031.19
215.694	9185.3
215.768	9306.59
215.842	9437.02
215.915	9566.33
215.989	9685.34
216.063	9826.85
216.136	9968.27
216.21	10111.89
216.284	10268.84
216.357	10417.6
216.431	10552.6
216.504	10704.7
216.578	10873.11
216.652	11030.27
216.725	11178.07
216.799	11322.21
216.873	11464.32
216.946	11617.96
217.02	11745.49
217.093	11882.46
217.167	12012.6
217.24	12133.39
217.314	12263.14
217.387	12397.96
217.461	12521.65
217.535	12667.7
217.608	12779.73
217.682	12910.02
217.755	13050.39
217.829	13162.86
217.902	13286.36
217.976	13402.29
218.049	13516.97
218.123	13614.74
218.196	13740.74
218.27	13843.81
218.343	13950.58
218.417	14073.75
218.49	14176.96
218.563	14307.45
218.637	14421.84
218.71	14544.08
218.784	14656.5
218.857	14777.34
218.931	14889.23
219.004	15000.48
219.077	15101.9
219.151	15218.84
219.224	15315.15
219.298	15413.77
219.371	15524.63
219.444	15613.32
219.518	15716.76
219.591	15813.26
219.665	15935.83
219.738	16025.57
219.811	16114.84
219.885	16217.02
219.958	16312.93
220.031	16398.34
220.105	16492.13
220.178	16573.58
220.251	16657.2
220.325	16747.81
220.398	16825.45
220.471	16910.04
220.544	16998.95
220.618	17076.21
220.691	17154.33
220.764	17235.78
220.838	17316.7
220.911	17390.67
220.984	17483.78
221.057	17567.5
221.131	17643.69
221.204	17684.75
221.277	17767.06
221.35	17860.94
221.424	17918.53
221.497	17980.64
221.57	18051.82
221.643	18114.52
221.716	18183.72
221.79	18235.62
221.863	18294.61
221.936	18350.27
222.009	18405.78
222.082	18452.91
222.155	18505.25
222.229	18565.15
222.302	18619.8
222.375	18665.72
222.448	18717.72
222.521	18761.62
222.594	18794.25
222.667	18826.77
222.74	18886.38
222.814	18917.42
222.887	18954.77
222.96	19008.83
223.033	19064.93
223.106	19104.3
223.179	19148.39
223.252	19178.66
223.325	19217.79
223.398	19244.58
223.471	19284.67
223.544	19319.37
223.617	19354.36
223.69	19381.49
223.763	19406.4
223.837	19440.18
223.91	19469.05
223.983	19482.97
224.056	19502.88
224.129	19543.02
224.202	19595.06
224.275	19608.99
224.348	19641.09
224.42	19648.75
224.493	19648.22
224.566	19659.83
224.639	19695.49
224.712	19703.69
224.785	19723.2
224.858	19747.3
224.931	19770.33
225.004	19784.74
225.077	19803.68
225.15	19801.22
225.223	19828.88
225.296	19867.15
225.369	19862.47
225.442	19866.18
225.514	19879.34
225.587	19889.99
225.66	19906.13
225.733	19910.91
225.806	19926.95
225.879	19930.95
225.952	19943.05
226.025	19977.84
226.097	19994.61
226.17	19992.97
226.243	19981.65
226.316	19987
226.389	19988.3
226.461	20002.85
226.534	20005.46
226.607	20009.31
226.68	20033.21
226.753	20036.64
226.825	20019.05
226.898	20044.3
226.971	20058.85
227.044	20076.1
227.117	20082.13
227.189	20083.81
227.262	20096.01
227.335	20100.73
227.407	20103.24
227.48	20109.45
227.553	20116.87
227.626	20112.01
227.698	20117.98
227.771	20133.84
227.844	20122.56
227.916	20137.45
227.989	20124.63
228.062	20141.4
228.134	20163.62
228.207	20167.76
228.28	20166.41
228.352	20166.7
228.425	20162.9
228.498	20166.7
228.57	20151.09
228.643	20160.34
228.716	20155.91
228.788	20144.01
228.861	20140.54
228.934	20150.13
229.006	20151.52
229.079	20137.74
229.151	20128.49
229.224	20116.58
229.296	20118.51
229.369	20150.22
229.442	20148.49
229.514	20140.34
229.587	20133.93
229.659	20105.16
229.732	20106.13
229.804	20110.66
229.877	20133.31
229.949	20140.92
230.022	20147.67
230.094	20157.5
230.167	20158.9
230.239	20149.26
230.312	20142.42
230.384	20154.46
230.457	20145.93
230.529	20136.83
230.602	20133.79
230.674	20142.66
230.747	20143.96
230.819	20152.83
230.892	20123.19
230.964	20123.96
231.037	20116.3
231.109	20102.32
231.181	20112.25
231.254	20093.45
231.326	20077.65
231.399	20041.6
231.471	20019.05
231.544	19998.56
231.616	19998.32
231.688	19993.07
231.761	19978.76
231.833	19958.71
231.905	19925.89
231.978	19918.37
232.05	19911.39
232.122	19901.27
232.195	19880.06
232.267	19866.33
232.339	19845.17
232.412	19834.38
232.484	19812.84
232.556	19796.36
232.629	19804.93
232.701	19797.03
232.773	19783.68
232.846	19762.57
232.918	19762
232.99	19751.06
233.062	19735.64
233.135	19707.97
233.207	19674.34
233.279	19662.05
233.351	19665.28
233.424	19644.41
233.496	19620.41
233.568	19621.81
233.64	19587.45
233.713	19561.28
233.785	19553.52
233.857	19530.3
233.929	19500.56
234.001	19497.87
234.074	19503.84
234.146	19456.04
234.218	19421.58
234.29	19395.7
234.362	19366.79
234.434	19325.49
234.507	19292.96
234.579	19257.59
234.651	19236.15
234.723	19219.81
234.795	19217.83
234.867	19184.53
234.939	19185.06
235.012	19172.87
235.084	19140.25
235.156	19125.65
235.228	19099.67
235.3	19067.87
235.372	19051.58
235.444	19048.98
235.516	19007.68
235.588	18978.91
235.66	18967.05
235.732	18945.32
235.804	18982.76
235.876	18979.01
235.948	18983.82
236.02	18961.99
236.092	18943.34
236.164	18915.92
236.236	18893.76
236.308	18854.96
236.38	18837.57
236.452	18798
236.524	18760.56
236.596	18755.55
236.668	18736.27
236.74	18711.94
236.812	18703.89
236.884	18683.7
236.956	18653
237.028	18616.52
237.1	18580.91
237.172	18567.8
237.244	18556.52
237.316	18491.56
237.388	18450.27
237.46	18413.64
237.532	18411.95
237.604	18382.03
237.675	18371.57
237.747	18347.52
237.819	18311.72
237.891	18284.44
237.963	18259.91
238.035	18227.67
238.107	18155.05
238.178	18143.53
238.25	18124.26
238.322	18102.28
238.394	18055.83
238.466	18030.96
238.538	18010.67
238.609	17988.79
238.681	17945.85
238.753	17904.46
238.825	17877.81
238.897	17861.13
238.968	17846.05
239.04	17805.81
239.112	17803.21
239.184	17763.84
239.255	17736.94
239.327	17720.17
239.399	17691.21
239.471	17667.45
239.542	17651.07
239.614	17639.93
239.686	17588.18
239.758	17566.3
239.829	17524.18
239.901	17512.56
239.973	17482.92
240.044	17456.8
240.116	17433.48
240.188	17403.89
240.259	17385.43
240.331	17352.95
240.403	17323.16
240.474	17277.53
240.546	17239.07
240.618	17184.51
240.689	17161.91
240.761	17134.29
240.833	17113.52
240.904	17082.44
240.976	17056.08
241.048	17032.27
241.119	17014.92
241.191	16988.84
241.262	16976.46
241.334	16939.69
241.405	16904.41
241.477	16868.45
241.549	16836.16
241.62	16804.98
241.692	16783.92
241.763	16755.87
241.835	16720.25
241.906	16703.43
241.978	16660.01
242.049	16641.07
242.121	16626.46
242.192	16603.71
242.264	16553.11
242.335	16510.94
242.407	16486.07
242.478	16449.1
242.55	16425.1
242.621	16388.71
242.693	16362.25
242.764	16327.98
242.836	16302.97
242.907	16279.93
242.979	16257.57
243.05	16228.21
243.122	16197.12
243.193	16164.74
243.264	16115.04
243.336	16080.73
243.407	16048.19
243.479	16041.49
243.55	16016.72
243.622	15993.63
243.693	15958.93
243.764	15958.83
243.836	15920.75
243.907	15887.69
243.978	15864.55
244.05	15832.45
244.121	15786.04
244.192	15766.08
244.264	15716.29
244.335	15689.78
244.407	15641.72
244.478	15615.79
244.549	15593.33
244.62	15567.69
244.692	15532.5
244.763	15517.99
244.834	15491.72
244.906	15458.61
244.977	15432.34
245.048	15421.64
245.119	15390.45
245.191	15352.33
245.262	15295.74
245.333	15287.45
245.405	15266.86
245.476	15233.84
245.547	15206.51
245.618	15189.69
245.689	15159.37
245.761	15141.92
245.832	15117.1
245.903	15107.7
245.974	15088.22
246.045	15058.58
246.117	15043.4
246.188	15015.15
246.259	14982.32
246.33	14958.27
246.401	14929.25
246.473	14889.87
246.544	14853.28
246.615	14832.99
246.686	14802.86
246.757	14792.4
246.828	14755.52
246.899	14745.06
246.97	14710.11
247.042	14682.59
247.113	14668.03
247.184	14659.69
247.255	14629.37
247.326	14602.76
247.397	14571.48
247.468	14547.57
247.539	14517.2
247.61	14478.68
247.681	14458.25
247.752	14442.63
247.823	14404.06
247.894	14384.68
247.965	14344.24
248.037	14310.3
248.108	14270.05
248.179	14247.64
248.25	14222.62
248.321	14195.28
248.392	14158.65
248.463	14151.56
248.534	14120.28
248.605	14098.34
248.675	14068.26
248.746	14045.65
248.817	14022.51
248.888	14002.46
248.959	13959.41
249.03	13945.96
249.101	13916.32
249.172	13895.2
249.243	13850.76
249.314	13845.07
249.385	13826.56
249.456	13818.94
249.527	13798.21
249.598	13770.78
249.669	13747.93
249.739	13728.5
249.81	13709.46
249.881	13668.34
249.952	13645.06
250.023	13623.9
250.094	13587.02
250.165	13553.13
250.235	13530.04
250.306	13506.13
250.377	13471.76
250.448	13453.77
250.519	13410.82
250.59	13405.91
250.66	13369.32
250.731	13358.18
250.802	13333.35
250.873	13308.34
250.944	13284.86
251.014	13250.58
251.085	13264.08
251.156	13247.06
251.227	13238.58
251.297	13236.46
251.368	13233.37
251.439	13220.98
251.51	13206.86
251.58	13180.54
251.651	13157.3
251.722	13145.11
251.792	13113
251.863	13088.85
251.934	13079.93
252.005	13090.1
252.075	13070
252.146	13062.77
252.217	13052.79
252.287	13042.62
252.358	13014.81
252.429	13016.35
252.499	12989.79
252.57	12962.07
252.641	12953.54
252.711	12935.6
252.782	12895.3
252.852	12887.49
252.923	12861.37
252.994	12845.99
253.064	12833.5
253.135	12806.32
253.205	12782.94
253.276	12780.77
253.347	12777.83
253.417	12751.36
253.488	12722.63
253.558	12694.91
253.629	12677.17
253.699	12657.7
253.77	12648.68
253.841	12629.35
253.911	12613.16
253.982	12610.94
254.052	12596.09
254.123	12579.56
254.193	12556.37
254.264	12574.16
254.334	12539.98
254.405	12509.61
254.475	12475.53
254.546	12460.54
254.616	12458.18
254.687	12443.77
254.757	12423.76
254.827	12406.07
254.898	12385.87
254.968	12363.17
255.039	12336.8
255.109	12320.99
255.18	12297.57
255.25	12253.32
255.321	12242.33
255.391	12207.72
255.461	12201.88
255.532	12160.28
255.602	12130.49
255.673	12093.23
255.743	12070.19
255.813	12035.2
255.884	12037.8
255.954	12032.36
256.024	12037.37
256.095	12015.44
256.165	11981.12
256.235	11968.78
256.306	11945.01
256.376	11943.23
256.446	11930.17
256.517	11914.99
256.587	11911.8
256.657	11897.78
256.728	11883.17
256.798	11866.88
256.868	11845.39
256.938	11820.32
257.009	11815.26
257.079	11810.25
257.149	11817.28
257.219	11774.87
257.29	11758.29
257.36	11715.73
257.43	11706.38
257.5	11663.34
257.571	11642.8
257.641	11634.37
257.711	11605.31
257.781	11594.41
257.852	11576.82
257.922	11545.11
257.992	11532.82
258.062	11508.86
258.132	11503.32
258.202	11475.7
258.273	11456.18
258.343	11455.27
258.413	11423.6
258.483	11405.58
258.553	11374.64
258.623	11340.61
258.693	11325.04
258.764	11331.02
258.834	11332.76
258.904	11315.5
258.974	11288.66
259.044	11269.48
259.114	11260.75
259.184	11248.13
259.254	11225.81
259.324	11191.89
259.394	11183.5
259.464	11179.21
259.535	11155.55
259.605	11129.47
259.675	11116.51
259.745	11106.05
259.815	11073.91
259.885	11055.12
259.955	11055.41
260.025	11030.69
260.095	11018.16
260.165	11007.99
260.235	10997.77
260.305	10969
260.375	10939.65
260.445	10945.82
260.515	10946.69
260.585	10934.01
260.655	10916.28
260.725	10906.6
260.795	10898.4
260.865	10898.64
260.934	10877.3
261.004	10871.56
261.074	10860.53
261.144	10861.73
261.214	10856.09
261.284	10845.44
261.354	10840.24
261.424	10814.89
261.494	10819.18
261.564	10808.43
261.634	10801.88
261.703	10769.84
261.773	10762.85
261.843	10760.78
261.913	10735.67
261.983	10701.94
262.053	10695.01
262.123	10677.03
262.192	10654.63
262.262	10646.39
262.332	10617.96
262.402	10608.9
262.472	10591.94
262.541	10553.44
262.611	10543.04
262.681	10515.76
262.751	10505.45
262.821	10490.86
262.89	10464.69
262.96	10456.36
263.03	10460.45
263.1	10452.6
263.169	10443.69
263.239	10440.12
263.309	10434.43
263.379	10429.23
263.448	10419.07
263.518	10408.03
263.588	10396.42
263.657	10403.84
263.727	10395.41
263.797	10384.66
263.867	10369.34
263.936	10344.58
264.006	10341.84
264.076	10328.25
264.145	10312.06
264.215	10290.29
264.285	10282.82
264.354	10261.53
264.424	10238.4
264.494	10201.55
264.563	10178.76
264.633	10180.3
264.702	10165.99
264.772	10130.68
264.842	10111.55
264.911	10108.86
264.981	10079.23
265.05	10059.19
265.12	10033.37
265.19	10025.08
265.259	10014.72
265.329	10006.39
265.398	9995.99
265.468	10007.6
265.537	9984.62
265.607	9978.6
265.676	9978.45
265.746	9965.59
265.815	9962.56
265.885	9942.57
265.955	9925.37
266.024	9910.44
266.094	9877.21
266.163	9873.64
266.232	9878.84
266.302	9871.91
266.371	9853.22
266.441	9843.92
266.51	9847.49
266.58	9832.65
266.649	9808.61
266.719	9805.63
266.788	9795.85
266.858	9802.59
266.927	9765.02
266.996	9759.77
267.066	9752.31
267.135	9722.79
267.205	9720.28
267.274	9713.44
267.343	9719.37
267.413	9704.73
267.482	9702.46
267.552	9706.41
267.621	9676.36
267.69	9647.89
267.76	9636.72
267.829	9628.87
267.898	9617.79
267.968	9593.62
268.037	9595.69
268.106	9596.22
268.176	9567.71
268.245	9553.4
268.314	9532.31
268.384	9537.27
268.453	9527.83
268.522	9519.88
268.592	9520.7
268.661	9498.98
268.73	9486.56
268.799	9461.76
268.869	9468.69
268.938	9442.49
269.007	9422.37
269.076	9420.49
269.146	9420.05
269.215	9410.18
269.284	9420.01
269.353	9404.89
269.422	9398.34
269.492	9374.17
269.561	9335.93
269.63	9331.94
269.699	9312.19
269.768	9303.33
269.838	9291.1
269.907	9288.21
269.976	9263.9
270.045	9241.9
270.114	9242.38
270.183	9228.41
270.253	9228.7
270.322	9204.82
270.391	9195.29
270.46	9198.9
270.529	9198.61
270.598	9196.16
270.667	9180.03
270.736	9149.35
270.806	9142.03
270.875	9139.05
270.944	9130.43
271.013	9146.27
271.082	9140.69
271.151	9140.11
271.22	9111.47
271.289	9102.03
271.358	9083.88
271.427	9079.79
271.496	9070.98
271.565	9052.25
271.634	9045.08
271.703	9044.98
271.772	9045.94
271.841	9031.45
271.91	9007.38
271.979	8990.63
272.048	8963.38
272.117	8967.61
272.186	8953.75
272.255	8952.93
272.324	8948.55
272.393	8943.26
272.462	8932.86
272.531	8925.2
272.6	8912.93
272.669	8926.31
272.738	8909.94
272.807	8910.23
272.876	8889.15
272.945	8910.18
273.013	8915.43
273.082	8920.92
273.151	8899.11
273.22	8891.51
273.289	8884.91
273.358	8894.83
273.427	8889.39
273.496	8896.37
273.564	8889.49
273.633	8894.83
273.702	8876.92
273.771	8864.5
273.84	8857.86
273.909	8854.92
273.977	8850.21
274.046	8841.35
274.115	8839.95
274.184	8826.53
274.253	8817.24
274.322	8819.79
274.39	8794.9
274.459	8775.12
274.528	8744.8
274.597	8739.07
274.665	8742.68
274.734	8746.77
274.803	8734.06
274.872	8719.57
274.94	8703.21
275.009	8731.04
275.078	8714.43
275.147	8712.36
275.215	8711.5
275.284	8713.71
275.353	8698.69
275.421	8680.16
275.49	8693.5
275.559	8679.2
275.627	8675.5
275.696	8666.45
275.765	8668.81
275.833	8659.04
275.902	8658.85
275.971	8671.65
276.039	8683.63
276.108	8682.52
276.177	8686.13
276.245	8675.59
276.314	8675.26
276.383	8683.1
276.451	8646.22
276.52	8651.81
276.588	8660.23
276.657	8659.12
276.725	8654.16
276.794	8654.89
276.863	8660.81
276.931	8638.81
277	8643.28
277.068	8652.57
277.137	8667.64
277.205	8665.62
277.274	8678.13
277.342	8683.23
277.411	8663.69
277.48	8654.74
277.548	8647.62
277.617	8638.81
277.685	8637.75
277.754	8635.97
277.822	8622.35
277.89	8630.87
277.959	8621.53
278.027	8608.15
278.096	8597.18
278.164	8622.36
278.233	8621.2
278.301	8610.91
278.37	8614.03
278.438	8600.32
278.507	8602.24
278.575	8581.31
278.643	8582.03
278.712	8565.19
278.78	8562.63
278.849	8569.51
278.917	8573.12
278.985	8564.75
279.054	8570.04
279.122	8574.42
279.191	8580.15
279.259	8578.32
279.327	8561.86
279.396	8574.95
279.464	8569.13
279.532	8580.92
279.601	8569.85
279.669	8555.75
279.737	8572.21
279.806	8574.42
279.874	8586.98
279.942	8586.79
280.011	8579.19
280.079	8578.42
280.147	8595.35
280.215	8595.4
280.284	8594.63
280.352	8584.86
280.42	8589.15
280.488	8582.7
280.557	8576.92
280.625	8577.98
280.693	8579.14
280.761	8581.01
280.83	8567.49
280.898	8581.2
280.966	8564.36
281.034	8533.42
281.102	8517.44
281.171	8507.82
281.239	8514.61
281.307	8505.61
281.375	8492.9
281.443	8517.98
281.512	8514.94
281.58	8516.05
281.648	8498.53
281.716	8496.13
281.784	8491.8
281.852	8485.2
281.92	8484.87
281.989	8493.53
282.057	8472.74
282.125	8500.37
282.193	8498.73
282.261	8492.72
282.329	8486.36
282.397	8485.35
282.465	8491.66
282.533	8507.73
282.601	8502.62
282.67	8482.32
282.738	8476.06
282.806	8485.44
282.874	8475
282.942	8478.61
283.01	8470.81
283.078	8476.01
283.146	8481.54
283.214	8490.44
283.282	8492.66
283.35	8503.63
283.418	8499.49
283.486	8506.08
283.554	8476.15
283.622	8469.32
283.69	8475.62
283.758	8467.2
283.826	8471.19
283.894	8478.22
283.962	8502.67
284.03	8514.21
284.098	8517.97
284.165	8514.36
284.233	8510.27
284.301	8497.76
284.369	8486.5
284.437	8475.48
284.505	8470.09
284.573	8469.99
284.641	8455.46
284.709	8465.61
284.777	8443.96
284.845	8444.58
284.912	8450.17
284.98	8456.86
285.048	8454.11
285.116	8451.51
285.184	8464.27
285.252	8462.25
285.319	8445.16
285.387	8432.22
285.455	8413.98
285.523	8412.97
285.591	8407.53
285.659	8411.09
285.726	8426.73
285.794	8418.51
285.862	8421.01
285.93	8421.2
285.997	8424.33
286.065	8426.35
286.133	8415.62
286.201	8417.59
286.269	8411.29
286.336	8400.84
286.404	8396.61
286.472	8408.64
286.539	8388.34
286.607	8373.66
286.675	8376.07
286.743	8390.12
286.81	8386.55
286.878	8403.64
286.946	8397.57
287.013	8401.18
287.081	8396.37
287.149	8382.27
287.216	8397.76
287.284	8390.84
287.352	8389.92
287.419	8382.13
287.487	8387.52
287.555	8384.72
287.622	8379.14
287.69	8382.66
287.758	8390.26
287.825	8383.19
287.893	8366.58
287.96	8373.85
288.028	8383.57
288.096	8387.95
288.163	8385.16
288.231	8372.5
288.298	8364.85
288.366	8378.85
288.433	8381.64
288.501	8373.94
288.569	8376.01
288.636	8372.74
288.704	8388
288.771	8398.92
288.839	8390.21
288.906	8387.76
288.974	8401.52
289.041	8403.06
289.109	8386.12
289.176	8400.9
289.244	8408.16
289.311	8420.67
289.379	8431.79
289.446	8430.2
289.514	8426.54
289.581	8426.93
289.649	8429.62
289.716	8430.34
289.783	8420.48
289.851	8429.28
289.918	8436.02
289.986	8444.01
290.053	8440.3
290.121	8442.28
290.188	8441.12
290.255	8468.98
290.323	8463.69
290.39	8452.48
290.458	8456.95
290.525	8474.75
290.592	8462.58
290.66	8460.32
290.727	8454.4
290.794	8465.22
290.862	8469.7
290.929	8472.35
290.996	8470.37
291.064	8477.83
291.131	8487.31
291.198	8502.18
291.266	8500.79
291.333	8496.65
291.4	8496.46
291.468	8517.44
291.535	8507.19
291.602	8506.13
291.669	8498
291.737	8498.19
291.804	8496.75
291.871	8511.13
291.938	8520.37
292.006	8541.5
292.073	8555.99
292.14	8566.82
292.207	8563.26
292.275	8560.13
292.342	8570.47
292.409	8600.27
292.476	8630.4
292.543	8625.15
292.611	8622.51
292.678	8640.51
292.745	8668.61
292.812	8676.94
292.879	8671.45
292.946	8675.4
293.014	8689.74
293.081	8699.41
293.148	8716.4
293.215	8733.19
293.282	8726.55
293.349	8732.47
293.416	8718.8
293.484	8728
293.551	8733.63
293.618	8744.41
293.685	8772.04
293.752	8759.72
293.819	8751.68
293.886	8733.96
293.953	8737.38
294.02	8752.16
294.087	8754.23
294.154	8745.42
294.221	8760.73
294.288	8760.63
294.356	8781.66
294.423	8788.07
294.49	8780.65
294.557	8790.38
294.624	8783.16
294.691	8802.94
294.758	8802.5
294.825	8805.2
294.892	8799.66
294.959	8801.78
295.026	8807.9
295.093	8797.55
295.16	8805.25
295.226	8806.35
295.293	8828.16
295.36	8836.25
295.427	8843.18
295.494	8856.42
295.561	8858.92
295.628	8885.16
295.695	8899.7
295.762	8900.95
295.829	8909.66
295.896	8921.89
295.963	8929.88
296.03	8939.94
296.096	8944.47
296.163	8956.5
296.23	8972.87
296.297	8981.53
296.364	8985.58
296.431	8992.7
296.498	8989.09
296.564	9009.93
296.631	9012.44
296.698	8997.7
296.765	9010.7
296.832	8995.06
296.899	8978.98
296.965	8997.37
297.032	8972.95
297.099	8990.38
297.166	8998.52
297.233	8998.18
297.299	8993.66
297.366	8993.08
297.433	8997.07
297.5	9003.43
297.566	9003.72
297.633	9003.57
297.7	9001.36
297.767	8993.47
297.833	8995.97
297.9	8997.85
297.967	8979.75
298.033	8986.82
298.1	9011.43
298.167	9008.97
298.234	9012
298.3	9021.29
298.367	9017.88
298.434	9022.45
298.5	9011.09
298.567	9001.22
298.634	8997.7
298.7	9011.42
298.767	9010.65
298.834	9017.3
298.9	9010.46
298.967	8998.33
299.033	9001.75
299.1	9022.4
299.167	9037.42
299.233	9033.66
299.3	9048.92
299.366	9064.52
299.433	9082
299.5	9059.13
299.566	9063.46
299.633	9087.15
299.699	9093.94
299.766	9087.58
299.832	9088.02
299.899	9090.86
299.965	9107.71
300.032	9106.26
300.099	9111.13
300.165	9120.32
300.232	9116.04
300.298	9111.17
300.365	9123.88
300.431	9129.28
300.498	9120.85
300.564	9123.35
300.631	9133.32
300.697	9141.12
300.763	9140.25
300.83	9134.47
300.896	9147.95
300.963	9147.14
301.029	9148.68
301.096	9151.57
301.162	9159.61
301.229	9155.61
301.295	9147.33
301.361	9142.95
301.428	9140.2
301.494	9128.07
301.561	9123.26
301.627	9122.34
301.693	9132.5
301.76	9138.04
301.826	9130.38
301.892	9137.22
301.959	9149.01
302.025	9148.44
302.092	9140.64
302.158	9147.86
302.224	9150.12
302.291	9138.81
302.357	9135.77
302.423	9125.33
302.49	9119.36
302.556	9130.09
302.622	9133.17
302.688	9138.23
302.755	9150.6
302.821	9153.83
302.887	9165.34
302.954	9167.12
303.02	9180.93
303.086	9182.76
303.152	9174.39
303.219	9166.06
303.285	9172.03
303.351	9177.09
303.417	9171.55
303.483	9165.39
303.55	9151.23
303.616	9147.09
303.682	9150.32
303.748	9142.86
303.815	9154.89
303.881	9158.07
303.947	9142.52
304.013	9137.22
304.079	9134
304.145	9109.78
304.212	9111.56
304.278	9097.21
304.344	9089.75
304.41	9067.66
304.476	9058.03
304.542	9058.41
304.608	9065.34
304.674	9043.2
304.741	9037.61
304.807	9036.98
304.873	9041.46
304.939	9058.31
305.005	9040.64
305.071	9034.24
305.137	9034.96
305.203	9011.51
305.269	9008.29
305.335	9017.53
305.401	9011.61
305.467	9008.63
305.533	9018.74
305.599	9019.36
305.666	9027.21
305.732	9024.9
305.798	9039.53
305.864	9060.24
305.93	9062.35
305.996	9059.56
306.062	9059.03
306.128	9048.1
306.194	9035.54
306.259	9026.15
306.325	9011.32
306.391	9020.13
306.457	9025.81
306.523	9027.07
306.589	9047.38
306.655	9045.94
306.721	9032.36
306.787	9027.5
306.853	9032.03
306.919	9017.39
306.985	9008.53
307.051	9000.54
307.117	8995.25
307.183	8984.46
307.248	8956.15
307.314	8962.03
307.38	8962.27
307.446	8966.41
307.512	8955.38
307.578	8956.59
307.644	8951.29
307.709	8955.38
307.775	8947.3
307.841	8942.19
307.907	8942.77
307.973	8920.72
308.039	8911.58
308.104	8913.98
308.17	8904.64
308.236	8892.85
308.302	8894.15
308.368	8888.66
308.433	8886.26
308.499	8880.14
308.565	8875.96
308.631	8878.22
308.696	8849.67
308.762	8835.81
308.828	8832.78
308.894	8810.35
308.959	8791.67
309.025	8786.57
309.091	8781.76
309.156	8778.92
309.222	8773.58
309.288	8760.72
309.354	8737.82
309.419	8739.07
309.485	8723.09
309.551	8728.67
309.616	8713.41
309.682	8707.54
309.748	8695.8
309.813	8687.66
309.879	8676.16
309.945	8660.86
310.01	8655.23
310.076	8654.26
310.141	8649.31
310.207	8638.81
310.273	8644.2
310.338	8644.49
310.404	8624.57
310.469	8611.19
310.535	8592.56
310.601	8577.45
310.666	8580.92
310.732	8587.94
310.797	8568.21
310.863	8563.25
310.928	8554.01
310.994	8557.67
311.059	8551.75
311.125	8551.8
311.191	8564.36
311.256	8556.03
311.322	8559.45
311.387	8544.34
311.453	8737.82
311.518	8713.28
311.584	8702.7
311.649	8709.19
311.715	8705.82
311.78	8705.1
311.846	8699.86
311.911	8703.52
311.976	8698.7
312.042	8678.16
312.107	8665.93
312.173	8659.39
312.238	8653.13
312.304	8647.98
312.369	8636.68
312.434	8623.54
312.5	8610.45
312.565	8572.58
312.631	8580.23
312.696	8569.07
312.761	8561.56
312.827	8361.68
312.892	8401.62
312.958	8400.22
313.023	8390.6
313.088	8380.59
313.154	8365.48
313.219	8348.98
313.284	8343.01
313.35	8340.66
313.415	8333.54
313.48	8330.31
313.546	8328.97
313.611	8329.88
313.676	8313.14
313.741	8306.59
313.807	8314.29
313.872	8317.32
313.937	8319.68
314.003	8319.2
314.068	8323.82
314.133	8329.93
314.198	8312.13
314.264	8281.47
314.329	8268.14
314.394	8264.87
314.459	8260.88
314.525	8278.82
314.59	8276.8
314.655	8261.21
314.72	8261.5
314.785	8259.48
314.851	8250.25
314.916	8237.74
314.981	8222.63
315.046	8215.75
315.111	8201.85
315.176	8185.11
315.242	8189.2
315.307	8192.76
315.372	8171.88
315.437	8159.94
315.502	8150.13
315.567	8157.88
315.632	8147.72
315.698	8149.79
315.763	8143.92
315.828	8143.25
315.893	8135.55
315.958	8128.48
316.023	8120.06
316.088	8103.76
316.153	8088.41
316.218	8080.24
316.283	8061.96
316.348	8047.96
316.413	8055.32
316.479	8041.28
316.544	8015.17
316.609	7989.72
316.674	7954.18
316.739	7926.39
316.804	7895.56
316.869	7861.99
316.934	7831.88
316.999	7803.51
317.064	7758.79
317.129	7722.62
317.194	7682.48
317.259	7643.33
317.324	7598.19
317.389	7554.93
317.454	7521.03
317.518	7486.9
317.583	7466.18
317.648	7441.52
317.713	7404.27
317.778	7345.09
317.843	7319.52
317.908	7278.72
317.973	7239.44
318.038	7212.05
318.103	7180.2
318.168	7150.83
318.233	7122.77
318.297	7075.67
318.362	7040.79
318.427	7004.38
318.492	6973.33
318.557	6933.8
318.622	6903.72
318.687	6880.04
318.751	6847.92
318.816	6818.32
318.881	6791.95
318.946	6739.45
319.011	6701.17
319.075	6663.86
319.14	6626.75
319.205	6588.18
319.27	6563.31
319.335	6519.57
319.399	6484.38
319.464	6458.79
319.529	6405.12
319.594	6365.22
319.658	6333.69
319.723	6295.58
319.788	6269.8
319.853	6220.03
319.917	6189.51
319.982	6142.57
320.047	6112.34
320.112	6084.66
320.176	6035.57
320.241	5996.65
320.306	5970.55
320.37	5932.08
320.435	5905.79
320.5	5880.37
320.564	5840.51
320.629	5803.39
320.694	5774.13
320.758	5732.32
320.823	5690.07
320.888	5669.93
320.952	5626.35
321.017	5592.12
321.082	5554.58
321.146	5514.74
321.211	5483.68
321.275	5447.97
321.34	5409.83
321.405	5367.55
321.469	5322.37
321.534	5282.65
321.598	5236.94
321.663	5207.61
321.727	5182.26
321.792	5134.79
321.857	5095.36
321.921	5060.68
321.986	5018.1
322.05	4967.35
322.115	4934.59
322.179	4892.07
322.244	4837.74
322.308	4811.45
322.373	4764.87
322.437	4729.69
322.502	4704.74
322.566	4662.67
322.631	4626.44
322.695	4589.79
322.76	4543.43
322.824	4516.06
322.889	4478.85
322.953	4440.59
323.018	4375.72
323.082	4310.82
323.146	4264.3
323.211	4217.77
323.275	4173.92
323.34	4132.76
323.404	4096.34
323.468	4052.31
323.533	4011.25
323.597	3972.56
323.662	3919.31
323.726	3888.25
323.79	3841.57
323.855	3785.02
323.919	3740.07
323.983	3695.12
324.048	3633.63
324.112	3792.32
324.177	3669.9
324.241	3479.01
324.305	3291.65
324.37	3112.23
324.434	2938.1
324.498	2900.56
324.562	2853.88
324.627	2801.35
324.691	2750.31
324.755	2695.02
324.82	2628.69
324.884	2561.61
324.948	2496.71
325.012	2415.39
325.077	2304.89
