Data from 20250625_urea_1M_1_MAYP1162681_12-05-05-781.txt Node
Date: Thu Jun 26 12:05:05 BST 2025
User: adleo
Spectrometer: MAYP116268
Trigger mode: 0
Integration Time (sec): 1.000000E0
Scans to average: 1
Electric dark correction enabled: true
Nonlinearity correction enabled: true
Boxcar width: 10
XAxis mode: Wavelengths
Number of Pixels in Spectrum: 2068
>>>>>Begin Spectral Data<<<<<
179.565	1133.37
179.642	1186.28
179.718	1228.36
179.795	1265.5
179.871	1295.35
179.948	1312.44
180.024	1330.39
180.101	1352.49
180.177	1366.29
180.254	1389.03
180.33	1410.94
180.407	1460.12
180.483	1551.33
180.56	1636.33
180.636	1717.36
180.712	1705.86
180.789	1715.65
180.865	1725.72
180.942	1735.94
181.018	1745.06
181.095	1758.46
181.171	1763.88
181.248	1765.73
181.324	1780.99
181.4	1787.32
181.477	1797.91
181.553	1809.41
181.63	1832.85
181.706	1846.35
181.782	1854.9
181.859	1852.66
181.935	1856.28
182.011	1852.9
182.088	1867.35
182.164	1888.04
182.24	1897.45
182.317	1907.72
182.393	1904.25
182.469	1919.22
182.546	1931.68
182.622	1937.38
182.698	1935.05
182.775	1947.51
182.851	1958.49
182.927	1948.89
183.003	1945.84
183.08	1940.9
183.156	1948.41
183.232	1940.04
183.308	1932.2
183.385	1939.56
183.461	1957.25
183.537	1959.72
183.613	1970.85
183.69	1960.53
183.766	1946.07
183.842	1955.58
183.918	1961.15
183.995	1974.13
184.071	1978.45
184.147	1974.36
184.223	1962.53
184.299	1970.38
184.375	1958.25
184.452	1968.77
184.528	2024.28
184.604	2033.5
184.68	2047.05
184.756	2054.04
184.832	2060.65
184.908	2061.7
184.985	2059.89
185.061	2044.77
185.137	2051.81
185.213	2041.82
185.289	2045.77
185.365	2041.02
185.441	2039.3
185.517	2049.44
185.593	2047.2
185.669	2042.64
185.745	2051.81
185.822	2069.07
185.898	2062.13
185.974	2071.73
186.05	2060.55
186.126	2022.25
186.202	2015.31
186.278	2010.08
186.354	2003.23
186.43	2011.7
186.506	2011.04
186.582	2011.13
186.658	2017.45
186.734	2001.57
186.81	2005.38
186.886	2006.66
186.962	2019.78
187.038	2016.12
187.114	2011.6
187.19	2018.21
187.266	2008.7
187.341	2008.28
187.417	2000.62
187.493	1999.95
187.569	2001.62
187.645	1996.53
187.721	1983.69
187.797	1990.96
187.873	1994.01
187.949	1984.74
188.025	1975.46
188.101	1980.22
188.176	1983.07
188.252	1978.03
188.328	1981.26
188.404	1977.17
188.48	1971.8
188.556	1963.81
188.632	1960.86
188.707	1957.39
188.783	1952.4
188.859	1947.98
188.935	1937.18
189.011	1945.74
189.086	1941.32
189.162	1933.05
189.238	1932.52
189.314	1931.52
189.39	1929.76
189.465	1922.16
189.541	1941.94
189.617	1928.86
189.693	1920.97
189.768	1928.34
189.844	1949.18
189.92	1941.86
189.996	1952.89
190.071	1967.15
190.147	1965.92
190.223	1974.05
190.298	1969.58
190.374	1961.59
190.45	1974.05
190.526	1982.13
190.601	1975.28
190.677	1972.95
190.753	1999.17
190.828	1997.17
190.904	2012.49
190.98	2023.52
191.055	2032.84
191.131	2022.9
191.207	2041.87
191.282	2054.14
191.358	2042.96
191.433	2032.07
191.509	2045.85
191.585	2040.38
191.66	2038.77
191.736	2048.75
191.811	2042.33
191.887	2059.65
191.963	2079.29
192.038	2084.19
192.114	2084.76
192.189	2088.99
192.265	2088.52
192.34	2069.49
192.416	2073.19
192.491	2067.63
192.567	2072
192.642	2077.57
192.718	2079
192.793	2069.87
192.869	2065.63
192.944	2068.25
193.02	2076.72
193.095	2081.14
193.171	2087.56
193.246	2087.51
193.322	2081.99
193.397	2082.14
193.473	2066.06
193.548	2050.79
193.624	2054.26
193.699	2053.97
193.775	2071.29
193.85	2072.96
193.925	2079.62
194.001	2078.09
194.076	2068.44
194.152	2055.55
194.227	2045.84
194.302	2038.52
194.378	2040.61
194.453	2038.62
194.529	2051.7
194.604	2036.76
194.679	2032.1
194.755	2016.79
194.83	2026.21
194.905	2026.07
194.981	2035.11
195.056	2025.88
195.131	2030.92
195.207	2029.16
195.282	2019.99
195.357	2000.53
195.433	2016.22
195.508	2005.14
195.583	2014.37
195.659	2030.3
195.734	2037.82
195.809	2038.01
195.884	2045.33
195.96	2044.71
196.035	2060.07
196.11	2055.41
196.185	2067.2
196.261	2066.92
196.336	2093.93
196.411	2080.28
196.486	2085.27
196.561	2079.19
196.637	2090.83
196.712	2103.97
196.787	2106.39
196.862	2119.52
196.937	2128.41
197.013	2132.65
197.088	2141.97
197.163	2161.2
197.238	2175.81
197.313	2175.62
197.388	2189.94
197.464	2219.16
197.539	2232.01
197.614	2221.73
197.689	2232.25
197.764	2247.24
197.839	2267.46
197.914	2265.56
197.989	2292.16
198.065	2306.06
198.14	2356.63
198.215	2382.48
198.29	2396.67
198.365	2410.85
198.44	2420.7
198.515	2444.74
198.59	2459.93
198.665	2481.68
198.74	2489.35
198.815	2490.3
198.89	2512.58
198.965	2542.78
199.04	2536.59
199.115	2549.78
199.19	2590.96
199.265	2593.63
199.34	2603.68
199.415	2635.89
199.49	2655.65
199.565	2660.03
199.64	2680.75
199.715	2676.18
199.79	2681.99
199.865	2688.42
199.94	2686.61
200.015	2719.63
200.09	2727.35
200.165	2732.92
200.24	2744.26
200.315	2780.6
200.39	2796.94
200.464	2802.23
200.539	2800.32
200.614	2817.8
200.689	2844.54
200.764	2851.17
200.839	2869.79
200.914	2875.75
200.989	2869.22
201.063	2883.71
201.138	2871.7
201.213	2874.09
201.288	2856.12
201.363	2864.8
201.438	2862.99
201.512	2879.51
201.587	2863.88
201.662	2868.46
201.737	2881.23
201.812	2886.71
201.886	2856.43
201.961	2867.77
202.036	2855.53
202.111	2853.15
202.186	2820.77
202.26	2799.51
202.335	2779.73
202.41	2774.16
202.485	2755.2
202.559	2735.61
202.634	2710.98
202.709	2717.74
202.784	2697.59
202.858	2699.07
202.933	2676.01
203.008	2671.48
203.082	2652.91
203.157	2651.43
203.232	2610.67
203.306	2589.04
203.381	2559.12
203.456	2539.45
203.53	2513.28
203.605	2494.58
203.68	2471.14
203.754	2468.91
203.829	2456.1
203.904	2436.48
203.978	2423.77
204.053	2430.86
204.127	2419.72
204.202	2417.96
204.277	2401.4
204.351	2395.54
204.426	2385.49
204.5	2380.88
204.575	2344.52
204.65	2353.9
204.724	2348.37
204.799	2358.56
204.873	2354.08
204.948	2351.89
205.022	2336.71
205.097	2330.14
205.171	2346.65
205.246	2357.94
205.32	2356.27
205.395	2356.61
205.469	2348.62
205.544	2356.66
205.618	2337.81
205.693	2344.19
205.767	2328.2
205.842	2348.24
205.916	2343.01
205.991	2333.58
206.065	2338.39
206.14	2357.04
206.214	2351.89
206.289	2342.75
206.363	2352.18
206.438	2357.32
206.512	2364.46
206.586	2382.87
206.661	2391.11
206.735	2367.61
206.81	2363.66
206.884	2379.74
206.958	2364.51
207.033	2379.26
207.107	2384.5
207.181	2414.55
207.256	2412.12
207.33	2430.35
207.405	2441.5
207.479	2458.73
207.553	2466.92
207.628	2451.79
207.702	2463.35
207.776	2458.45
207.851	2462.59
207.925	2477.17
207.999	2470.07
208.073	2470.02
208.148	2474.21
208.222	2462.02
208.296	2490.15
208.371	2509.68
208.445	2520.11
208.519	2549.2
208.593	2565.15
208.668	2562.63
208.742	2564.25
208.816	2566.82
208.89	2582.78
208.965	2578.82
209.039	2584.87
209.113	2600.97
209.187	2622.24
209.261	2618.44
209.336	2638.87
209.41	2656.69
209.484	2657.31
209.558	2683.36
209.632	2698.37
209.707	2711.61
209.781	2734.62
209.855	2754.63
209.929	2772.8
210.003	2780.95
210.077	2784.72
210.151	2836.28
210.226	2875.58
210.3	2906.68
210.374	2932.17
210.448	2941.7
210.522	2961.25
210.596	2983.51
210.67	3001.39
210.744	3058.53
210.818	3098.47
210.892	3126.42
210.966	3136.38
211.041	3164.52
211.115	3174.77
211.189	3212.31
211.263	3245.32
211.337	3270.64
211.411	3302.47
211.485	3314.31
211.559	3350.66
211.633	3375.26
211.707	3364.04
211.781	3392.08
211.855	3390.41
211.929	3414.4
212.003	3425.61
212.077	3465.2
212.151	3508.08
212.225	3552.68
212.299	3573.42
212.373	3598.15
212.447	3633.26
212.52	3696.3
212.594	3740.02
212.668	3793.08
212.742	3822.13
212.816	3864.61
212.89	3902.97
212.964	3951.55
213.038	4009.5
213.112	4074.29
213.186	4145.13
213.26	4181.11
213.333	4193.92
213.407	4252.81
213.481	4316.35
213.555	4393.83
213.629	4447.09
213.703	4495.47
213.777	4560.14
213.85	4608.87
213.924	4712.43
213.998	4783.91
214.072	4852.41
214.146	4916.2
214.219	4990.58
214.293	5070.27
214.367	5144.96
214.441	5236.22
214.515	5303.45
214.588	5360.87
214.662	5403.57
214.736	5466.46
214.81	5561.19
214.883	5657.31
214.957	5733.91
215.031	5806.83
215.105	5869.78
215.178	5943.89
215.252	6025.15
215.326	6086.42
215.4	6157.13
215.473	6202.98
215.547	6276.86
215.621	6355.9
215.694	6444.78
215.768	6511.62
215.842	6584.22
215.915	6662.99
215.989	6730.86
216.063	6811.86
216.136	6902.89
216.21	7001.84
216.284	7100.11
216.357	7189.83
216.431	7274.94
216.504	7375.25
216.578	7486.58
216.652	7585.34
216.725	7677.51
216.799	7775.76
216.873	7866.68
216.946	7971.46
217.02	8055.62
217.093	8146.54
217.167	8214.56
217.24	8289.67
217.314	8380.35
217.387	8467.04
217.461	8550.91
217.535	8655.88
217.608	8736.63
217.682	8823.95
217.755	8919.54
217.829	8996.33
217.902	9086.84
217.976	9183.75
218.049	9262.33
218.123	9333.74
218.196	9429.94
218.27	9511.76
218.343	9589.83
218.417	9689.38
218.49	9769.9
218.563	9871.91
218.637	9960.55
218.71	10069.07
218.784	10171.97
218.857	10269.42
218.931	10364.9
219.004	10450.99
219.077	10530.64
219.151	10614.8
219.224	10697.39
219.298	10779.5
219.371	10877.36
219.444	10941.88
219.518	11019.61
219.591	11106.26
219.665	11220.86
219.738	11305.49
219.811	11377.58
219.885	11465.05
219.958	11544.38
220.031	11618.07
220.105	11698.61
220.178	11780.45
220.251	11844.42
220.325	11923.66
220.398	11992.3
220.471	12068.89
220.544	12154.54
220.618	12226.51
220.691	12312.55
220.764	12393.48
220.838	12467.18
220.911	12536.31
220.984	12634.06
221.057	12706.27
221.131	12778.19
221.204	12811.7
221.277	12896.54
221.35	13004.81
221.424	13067.91
221.497	13142.1
221.57	13216.91
221.643	13292.36
221.716	13363.32
221.79	13432.54
221.863	13492.56
221.936	13568.05
222.009	13636.4
222.082	13705.58
222.155	13758.56
222.229	13834.73
222.302	13892.57
222.375	13944.39
222.448	14008.75
222.521	14069.87
222.594	14129.84
222.667	14177.62
222.74	14245.83
222.814	14294.71
222.887	14336.21
222.96	14407.07
223.033	14471.81
223.106	14525.95
223.179	14584.27
223.252	14629.39
223.325	14679.67
223.398	14731.88
223.471	14780.42
223.544	14820.72
223.617	14866.17
223.69	14925.56
223.763	14958.05
223.837	15016.13
223.91	15078.65
223.983	15108.64
224.056	15135.49
224.129	15190.24
224.202	15251.99
224.275	15292.05
224.348	15321.69
224.42	15349.79
224.493	15370.42
224.566	15398.77
224.639	15445.96
224.712	15464.42
224.785	15502.93
224.858	15541.64
224.931	15570.6
225.004	15591.57
225.077	15629.89
225.15	15641.65
225.223	15676.79
225.296	15731.45
225.369	15742.1
225.442	15765
225.514	15803.27
225.587	15845.35
225.66	15877.01
225.733	15910.32
225.806	15949.12
225.879	15985.12
225.952	16014.14
226.025	16064.17
226.097	16115.98
226.17	16149.53
226.243	16167.89
226.316	16201.39
226.389	16232.72
226.461	16278.89
226.534	16319.09
226.607	16354.08
226.68	16409.17
226.753	16445.75
226.825	16459.63
226.898	16505.56
226.971	16535.11
227.044	16573.57
227.117	16609.72
227.189	16642.3
227.262	16677.29
227.335	16712.23
227.407	16741.68
227.48	16769.24
227.553	16791.17
227.626	16803.03
227.698	16825.44
227.771	16863.22
227.844	16880.33
227.916	16905.15
227.989	16910.55
228.062	16931.32
228.134	16969.01
228.207	16992.44
228.28	17002.36
228.352	17016.82
228.425	17043.91
228.498	17076.87
228.57	17090.51
228.643	17120.68
228.716	17140.39
228.788	17148.73
228.861	17157.21
228.934	17184.78
229.006	17210.03
229.079	17224.15
229.151	17236.87
229.224	17235.81
229.296	17252.92
229.369	17296.1
229.442	17334.8
229.514	17347.48
229.587	17377.45
229.659	17379.24
229.732	17403.62
229.804	17432.3
229.877	17476.54
229.949	17506.32
230.022	17537.69
230.094	17551.38
230.167	17562.95
230.239	17562.56
230.312	17574.46
230.384	17620.01
230.457	17635.62
230.529	17647.76
230.602	17666.75
230.674	17688.39
230.747	17726.27
230.819	17758.94
230.892	17745.31
230.964	17756.82
231.037	17778.9
231.109	17785.26
231.181	17799.38
231.254	17792.92
231.326	17795.47
231.399	17806.65
231.471	17805.4
231.544	17788.39
231.616	17808.77
231.688	17822.51
231.761	17832.63
231.833	17838.12
231.905	17818.27
231.978	17823.52
232.05	17830.8
232.122	17840.92
232.195	17838.03
232.267	17850.8
232.339	17847.81
232.412	17862.94
232.484	17849.35
232.556	17848.2
232.629	17875.81
232.701	17890.41
232.773	17896.63
232.846	17901.54
232.918	17893.83
232.99	17893.01
233.062	17905.01
233.135	17915.47
233.207	17903.28
233.279	17914.7
233.351	17929.25
233.424	17925.93
233.496	17919.18
233.568	17950.41
233.64	17937.54
233.713	17937.11
233.785	17936.53
233.857	17943.76
233.929	17928.96
234.001	17951.61
234.074	17959.66
234.146	17931.52
234.218	17926.7
234.29	17917.4
234.362	17900.48
234.434	17885.25
234.507	17872.19
234.579	17849.5
234.651	17828.34
234.723	17823.81
234.795	17818.8
234.867	17804.63
234.939	17810.03
235.012	17798.56
235.084	17779.96
235.156	17779.81
235.228	17762.61
235.3	17737.02
235.372	17726.22
235.444	17726.37
235.516	17698.95
235.588	17690.56
235.66	17692.2
235.732	17676.68
235.804	17723.52
235.876	17732.25
235.948	17741.11
236.02	17730.56
236.092	17726.03
236.164	17712.49
236.236	17698.7
236.308	17675.43
236.38	17663.72
236.452	17649.69
236.524	17642.8
236.596	17635.43
236.668	17628.58
236.74	17622.56
236.812	17612.83
236.884	17591.57
236.956	17584.3
237.028	17555.86
237.1	17524.49
237.172	17521.89
237.244	17519.57
237.316	17473.45
237.388	17451.24
237.46	17418.95
237.532	17415.57
237.604	17391.24
237.675	17394.66
237.747	17403.57
237.819	17380.54
237.891	17369.55
237.963	17335.52
238.035	17321.07
238.107	17270.99
238.178	17256.83
238.25	17234.17
238.322	17234.9
238.394	17206.41
238.466	17175.57
238.538	17170.12
238.609	17166.65
238.681	17123.42
238.753	17095.91
238.825	17069.01
238.897	17048.29
238.968	17044.77
239.04	17016.05
239.112	17028.63
239.184	16997.74
239.255	16955.52
239.327	16943.66
239.399	16923.66
239.471	16919.52
239.542	16900.38
239.614	16895.71
239.686	16856.43
239.758	16850.21
239.829	16822.69
239.901	16810.93
239.973	16797.73
240.044	16773.92
240.116	16755.85
240.188	16734.49
240.259	16709.67
240.331	16682.25
240.403	16665.33
240.474	16626.1
240.546	16594.34
240.618	16542
240.689	16509.32
240.761	16483.01
240.833	16470.38
240.904	16441.75
240.976	16405.17
241.048	16380.83
241.119	16358.32
241.191	16341.6
241.262	16331.09
241.334	16309.4
241.405	16288.92
241.477	16254.94
241.549	16224.53
241.62	16198.16
241.692	16183.9
241.763	16171.94
241.835	16147.6
241.906	16124.56
241.978	16084.12
242.049	16077.67
242.121	16065.91
242.192	16051.88
242.264	16017.22
242.335	15976.06
242.407	15955.24
242.478	15930.61
242.55	15905.88
242.621	15878.22
242.693	15848.91
242.764	15816.47
242.836	15777.67
242.907	15757.04
242.979	15740.13
243.05	15721.95
243.122	15694.19
243.193	15660.64
243.264	15615
243.336	15591.14
243.407	15570.7
243.479	15562.51
243.55	15541.69
243.622	15527.66
243.693	15497.39
243.764	15492.62
243.836	15460.85
243.907	15432.75
243.978	15404.5
244.05	15388.07
244.121	15348.78
244.192	15335.29
244.264	15285.93
244.335	15260.43
244.407	15212.61
244.478	15190.87
244.549	15161.42
244.62	15131.49
244.692	15108.54
244.763	15092.01
244.834	15058.31
244.906	15026.74
244.977	15007.99
245.048	14995.6
245.119	14951.59
245.191	14925.8
245.262	14876.01
245.333	14864.87
245.405	14837.59
245.476	14822.84
245.547	14800.28
245.618	14782.06
245.689	14749.57
245.761	14732.12
245.832	14714.67
245.903	14706.04
245.974	14676.69
246.045	14652.34
246.117	14643.47
246.188	14606.64
246.259	14566.87
246.33	14541.28
246.401	14514.96
246.473	14473.79
246.544	14433.59
246.615	14416.23
246.686	14386.78
246.757	14382.06
246.828	14347.49
246.899	14338.43
246.97	14296.78
247.042	14261.88
247.113	14250.94
247.184	14248.14
247.255	14221.63
247.326	14196.56
247.397	14164.02
247.468	14141.85
247.539	14112.78
247.61	14073.64
247.681	14064.43
247.752	14058.16
247.823	14024.9
247.894	14001.09
247.965	13970.09
248.037	13938.47
248.108	13909.93
248.179	13882.98
248.25	13855.84
248.321	13842.73
248.392	13800.93
248.463	13805.32
248.534	13781.07
248.605	13763.62
248.675	13737.88
248.746	13719.37
248.817	13699.8
248.888	13686.83
248.959	13650.1
249.03	13638.43
249.101	13609.02
249.172	13575.95
249.243	13531.07
249.314	13531.27
249.385	13513.91
249.456	13500.75
249.527	13478.91
249.598	13456.69
249.669	13434.42
249.739	13407.13
249.81	13385.44
249.881	13356.9
249.952	13332.94
250.023	13310.14
250.094	13274.86
250.165	13238.12
250.235	13217.73
250.306	13198.01
250.377	13164.8
250.448	13146.24
250.519	13109.89
250.59	13111.48
250.66	13089.65
250.731	13084.49
250.802	13056.19
250.873	13038.26
250.944	13023.65
251.014	12996.95
251.085	12994.39
251.156	12977.18
251.227	12970.53
251.297	12966.82
251.368	12959.06
251.439	12942.09
251.51	12933.46
251.58	12910.71
251.651	12883.52
251.722	12874.31
251.792	12837.63
251.863	12812.08
251.934	12807.64
252.005	12816.56
252.075	12790.77
252.146	12781.08
252.217	12776.84
252.287	12764.64
252.358	12734.37
252.429	12728.15
252.499	12702.89
252.57	12693.54
252.641	12684.48
252.711	12672.33
252.782	12634.25
252.852	12631.5
252.923	12612.56
252.994	12584.79
253.064	12567.15
253.135	12544.15
253.205	12513.78
253.276	12506.07
253.347	12506.75
253.417	12481.1
253.488	12454.2
253.558	12428.46
253.629	12404.6
253.699	12376.98
253.77	12373.94
253.841	12356.25
253.911	12341.07
253.982	12327.14
254.052	12309.11
254.123	12296.19
254.193	12269.05
254.264	12283.13
254.334	12256.13
254.405	12221.52
254.475	12198.72
254.546	12185.37
254.616	12186.14
254.687	12167.15
254.757	12151.63
254.827	12129.89
254.898	12113.26
254.968	12088.82
255.039	12068.39
255.109	12068.87
255.18	12043.27
255.25	11990.3
255.321	11981.67
255.391	11948.17
255.461	11952.85
255.532	11910.48
255.602	11886.28
255.673	11849.6
255.743	11825.84
255.813	11782.07
255.884	11772.24
255.954	11754.99
256.024	11746.12
256.095	11718.31
256.165	11688.52
256.235	11677.05
256.306	11653.05
256.376	11647.94
256.446	11641.62
256.517	11629.77
256.587	11608.8
256.657	11600.03
256.728	11588.89
256.798	11567.01
256.868	11545.28
256.938	11513.03
257.009	11504.98
257.079	11492.45
257.149	11501.51
257.219	11462.42
257.29	11449.22
257.36	11415.29
257.43	11412.88
257.5	11370.76
257.571	11350.37
257.641	11354.13
257.711	11327.14
257.781	11321.12
257.852	11312.06
257.922	11275.28
257.992	11259.91
258.062	11238.08
258.132	11222.99
258.202	11202.46
258.273	11188.92
258.343	11190.22
258.413	11168.15
258.483	11153.89
258.553	11129.98
258.623	11102.32
258.693	11091.91
258.764	11098.95
258.834	11103.52
258.904	11087.23
258.974	11072.44
259.044	11056.01
259.114	11036.15
259.184	11023.38
259.254	10999.53
259.324	10957.36
259.394	10949.89
259.464	10945.12
259.535	10929.85
259.605	10906.62
259.675	10887.39
259.745	10877.95
259.815	10850.14
259.885	10831.25
259.955	10838.24
260.025	10815.93
260.095	10798.63
260.165	10781.19
260.235	10781
260.305	10754.93
260.375	10726.4
260.445	10731.46
260.515	10733.2
260.585	10730.21
260.655	10720.57
260.725	10716.67
260.795	10716.38
260.865	10716.38
260.934	10691.51
261.004	10685.64
261.074	10670.02
261.144	10671.52
261.214	10661.78
261.284	10646.85
261.354	10640.25
261.424	10616.68
261.494	10619.43
261.564	10609.94
261.634	10608.15
261.703	10564.11
261.773	10558.48
261.843	10551.73
261.913	10534.05
261.983	10499.6
262.053	10485.72
262.123	10464.43
262.192	10436.68
262.262	10425.79
262.332	10399.48
262.402	10399.19
262.472	10381.94
262.541	10349.33
262.611	10339.02
262.681	10315.75
262.751	10302.65
262.821	10287.09
262.89	10256.2
262.96	10244.49
263.03	10244.78
263.1	10236.54
263.169	10228.55
263.239	10216.12
263.309	10217.71
263.379	10202.73
263.448	10193.14
263.518	10184.23
263.588	10162.93
263.657	10165.97
263.727	10157.06
263.797	10144.68
263.867	10125.84
263.936	10103.15
264.006	10105.85
264.076	10094.24
264.145	10076.8
264.215	10065.86
264.285	10061.19
264.354	10030.51
264.424	10009.03
264.494	9980.89
264.563	9956.56
264.633	9961.91
264.702	9955.55
264.772	9924.24
264.842	9909.31
264.911	9906.71
264.981	9882.48
265.05	9873.37
265.12	9854.97
265.19	9845.19
265.259	9839.99
265.329	9829.25
265.398	9819.28
265.468	9834.69
265.537	9813.69
265.607	9809.7
265.676	9806.95
265.746	9798.43
265.815	9800.64
265.885	9790.86
265.955	9772.56
266.024	9760.38
266.094	9729.79
266.163	9727.05
266.232	9725.26
266.302	9716.21
266.371	9702.39
266.441	9689.1
266.51	9687.27
266.58	9672.29
266.649	9647.15
266.719	9641.37
266.788	9632.65
266.858	9632.79
266.927	9593.4
266.996	9582.95
267.066	9577.89
267.135	9550.1
267.205	9542.01
267.274	9532.48
267.343	9529.4
267.413	9515.58
267.482	9513.6
267.552	9518.61
267.621	9490.97
267.69	9464.67
267.76	9450.37
267.829	9440.55
267.898	9425.62
267.968	9407.56
268.037	9403.04
268.106	9407.9
268.176	9387.24
268.245	9377.99
268.314	9360.22
268.384	9363.59
268.453	9356.61
268.522	9346.07
268.592	9349.44
268.661	9333.55
268.73	9324.88
268.799	9305.62
268.869	9318.33
268.938	9289.25
269.007	9267.39
269.076	9258.82
269.146	9257.37
269.215	9256.94
269.284	9263.1
269.353	9249.38
269.422	9236.57
269.492	9221.41
269.561	9182.22
269.63	9172.93
269.699	9152.27
269.768	9141.72
269.838	9128.82
269.907	9128.77
269.976	9101.91
270.045	9075.62
270.114	9067.58
270.183	9056.08
270.253	9049.67
270.322	9014
270.391	9007.21
270.46	9009.57
270.529	9008.18
270.598	9013.42
270.667	9000.23
270.736	8982.46
270.806	8979.29
270.875	8980.97
270.944	8970.29
271.013	8989.45
271.082	8979.91
271.151	8972.79
271.22	8946.8
271.289	8937.36
271.358	8920.46
271.427	8920.18
271.496	8911.18
271.565	8899.81
271.634	8893.99
271.703	8917.92
271.772	8925.52
271.841	8919.75
271.91	8892.89
271.979	8885.14
272.048	8857.7
272.117	8859.14
272.186	8841.76
272.255	8840.27
272.324	8838.25
272.393	8831.61
272.462	8812.35
272.531	8813.03
272.6	8806.63
272.669	8816.39
272.738	8809.9
272.807	8807.59
272.876	8785.69
272.945	8807.49
273.013	8805.52
273.082	8802.44
273.151	8759.02
273.22	8752.76
273.289	8739.38
273.358	8751.46
273.427	8734.28
273.496	8737.07
273.564	8726.33
273.633	8729.7
273.702	8714.83
273.771	8709.34
273.84	8706.99
273.909	8712.04
273.977	8710.89
274.046	8699.29
274.115	8701.74
274.184	8690.05
274.253	8681.24
274.322	8692.16
274.39	8663.33
274.459	8647.88
274.528	8619.83
274.597	8613.86
274.665	8611.02
274.734	8620.89
274.803	8614.78
274.872	8610.59
274.94	8596.73
275.009	8628.65
275.078	8611.95
275.147	8613.1
275.215	8606.22
275.284	8615.27
275.353	8601.12
275.421	8573.3
275.49	8586.3
275.559	8576.52
275.627	8567.29
275.696	8561.99
275.765	8559.39
275.833	8552.27
275.902	8551.89
275.971	8573.3
276.039	8582.06
276.108	8585.24
276.177	8581.96
276.245	8567.24
276.314	8563.24
276.383	8567.38
276.451	8529.4
276.52	8529.06
276.588	8532.58
276.657	8532.33
276.725	8524.54
276.794	8523.86
276.863	8537.05
276.931	8512.6
277	8516.84
277.068	8520.06
277.137	8536.76
277.205	8528.48
277.274	8538.44
277.342	8552.74
277.411	8530.32
277.48	8526.08
277.548	8516.31
277.617	8518.04
277.685	8511.89
277.754	8512.61
277.822	8505.15
277.89	8512.75
277.959	8507.56
278.027	8493.31
278.096	8482.39
278.164	8502.51
278.233	8492.6
278.301	8477.82
278.37	8483.45
278.438	8470.03
278.507	8478.59
278.575	8452.99
278.643	8456.41
278.712	8445.39
278.78	8428.98
278.849	8444.71
278.917	8451.4
278.985	8447.79
279.054	8444.95
279.122	8461.21
279.191	8465.93
279.259	8459.44
279.327	8442.54
279.396	8460.49
279.464	8458.76
279.532	8463.77
279.601	8455
279.669	8457.46
279.737	8469.25
279.806	8477.57
279.874	8488.69
279.942	8482.82
280.011	8474.16
280.079	8481.18
280.147	8497.25
280.215	8503.08
280.284	8482.73
280.352	8469.68
280.42	8477.29
280.488	8469.49
280.557	8455.83
280.625	8456.16
280.693	8453.61
280.761	8456.31
280.83	8434.08
280.898	8443.65
280.966	8422.1
281.034	8396.54
281.102	8381.77
281.171	8379.66
281.239	8382.45
281.307	8372.63
281.375	8359.35
281.443	8384.18
281.512	8382.01
281.58	8388.51
281.648	8374.22
281.716	8385.43
281.784	8381.2
281.852	8373.26
281.92	8375.76
281.989	8384.18
282.057	8363.44
282.125	8396.69
282.193	8394.1
282.261	8396.31
282.329	8392.56
282.397	8405.74
282.465	8406.07
282.533	8418.82
282.601	8403.76
282.67	8386.87
282.738	8378.98
282.806	8393.8
282.874	8379.85
282.942	8372.15
283.01	8363.68
283.078	8367.81
283.146	8366.95
283.214	8378.83
283.282	8381.14
283.35	8385.28
283.418	8381.29
283.486	8387.45
283.554	8361.75
283.622	8358.76
283.69	8355.97
283.758	8348.42
283.826	8351.55
283.894	8365.02
283.962	8382.3
284.03	8404.09
284.098	8404.62
284.165	8404.04
284.233	8396.68
284.301	8387.69
284.369	8384.75
284.437	8374.79
284.505	8370.51
284.573	8379.55
284.641	8366.42
284.709	8371.33
284.777	8356.51
284.845	8361.37
284.912	8367.62
284.98	8367.67
285.048	8367.19
285.116	8377.1
285.184	8387.69
285.252	8389.9
285.319	8374.21
285.387	8369.88
285.455	8346.21
285.523	8355.83
285.591	8352.94
285.659	8361.41
285.726	8383.98
285.794	8373.49
285.862	8372.72
285.93	8375.32
285.997	8374.12
286.065	8363.24
286.133	8353.67
286.201	8356.84
286.269	8342.31
286.336	8337.12
286.404	8332.98
286.472	8341.54
286.539	8320.42
286.607	8308.06
286.675	8303.01
286.743	8307.82
286.81	8302.76
286.878	8312.15
286.946	8299.97
287.013	8298.62
287.081	8293.14
287.149	8273.94
287.216	8296.99
287.284	8296.31
287.352	8294.24
287.419	8288.18
287.487	8311.18
287.555	8311.85
287.622	8304.93
287.69	8311.81
287.758	8320.13
287.825	8317.63
287.893	8308.92
287.96	8312.81
288.028	8319.26
288.096	8327.97
288.163	8330.71
288.231	8311.9
288.298	8314.31
288.366	8328.5
288.433	8329.18
288.501	8325.47
288.569	8327.4
288.636	8313.39
288.704	8323.93
288.771	8334.47
288.839	8324.03
288.906	8309.06
288.974	8318.06
289.041	8315.75
289.109	8309.26
289.176	8318.5
289.244	8323.31
289.311	8331.25
289.379	8343.37
289.446	8346.45
289.514	8345.25
289.581	8342.17
289.649	8350.73
289.716	8355.59
289.783	8347.8
289.851	8365.36
289.918	8362.81
289.986	8370.46
290.053	8377.82
290.121	8377.39
290.188	8379.55
290.255	8412.37
290.323	8411.84
290.39	8404.43
290.458	8409.05
290.525	8420.4
290.592	8416.41
290.66	8416.07
290.727	8407.27
290.794	8419.97
290.862	8422.57
290.929	8423.29
290.996	8421.56
291.064	8431.57
291.131	8436.57
291.198	8442.35
291.266	8438.45
291.333	8443.93
291.4	8454.71
291.468	8470.4
291.535	8463.76
291.602	8463.14
291.669	8450.67
291.737	8457.46
291.804	8466.07
291.871	8484.26
291.938	8487
292.006	8503.12
292.073	8514.62
292.14	8528.53
292.207	8521.6
292.275	8522.27
292.342	8533.73
292.409	8560.2
292.476	8581.86
292.543	8578.01
292.611	8578.1
292.678	8594.85
292.745	8618.62
292.812	8621.95
292.879	8614.82
292.946	8618.05
293.014	8627.58
293.081	8637.01
293.148	8652.07
293.215	8663.91
293.282	8661.31
293.349	8672.81
293.416	8660.97
293.484	8676.76
293.551	8685.04
293.618	8697.12
293.685	8715.84
293.752	8709.2
293.819	8704
293.886	8687.2
293.953	8695.1
294.02	8703.37
294.087	8708.04
294.154	8699.62
294.221	8708.33
294.288	8713
294.356	8730.66
294.423	8739.9
294.49	8732.54
294.557	8741.73
294.624	8727.49
294.691	8744.81
294.758	8744.48
294.825	8749.15
294.892	8736.25
294.959	8735.04
295.026	8743.85
295.093	8739.23
295.16	8736.15
295.226	8734.66
295.293	8760.89
295.36	8759.02
295.427	8780.05
295.494	8795.55
295.561	8803.54
295.628	8827.42
295.695	8838.45
295.762	8837.68
295.829	8841.96
295.896	8860.54
295.963	8868.05
296.03	8882.63
296.096	8883.31
296.163	8894.14
296.23	8913.87
296.297	8928.41
296.364	8931.35
296.431	8935.78
296.498	8930.96
296.564	8951.27
296.631	8957.05
296.698	8936.69
296.765	8960.23
296.832	8944.87
296.899	8927.01
296.965	8943.86
297.032	8920.51
297.099	8942.17
297.166	8952.57
297.233	8951.08
297.299	8945.93
297.366	8943.42
297.433	8939.81
297.5	8950.93
297.566	8953.97
297.633	8946.94
297.7	8947.47
297.767	8942.61
297.833	8946.84
297.9	8951.03
297.967	8936.98
298.033	8946.56
298.1	8979.24
298.167	8970.82
298.234	8976.74
298.3	8987.67
298.367	8981.26
298.434	8993.69
298.5	8981.74
298.567	8971.35
298.634	8970.05
298.7	8980.78
298.767	8988.92
298.834	8997.97
298.9	8993.59
298.967	8981.46
299.033	8992.48
299.1	9011.16
299.167	9024.64
299.233	9019.39
299.3	9028.1
299.366	9044.23
299.433	9066.96
299.5	9045.1
299.566	9045.05
299.633	9059.2
299.699	9066.86
299.766	9065.99
299.832	9063.59
299.899	9071.53
299.965	9087.08
300.032	9083.13
300.099	9090.64
300.165	9085.54
300.232	9089.1
300.298	9084.29
300.365	9101.62
300.431	9102.77
300.498	9088.33
300.564	9099.79
300.631	9112.11
300.697	9130.36
300.763	9132.14
300.83	9130.31
300.896	9138.21
300.963	9151.25
301.029	9154.91
301.096	9153.18
301.162	9155.2
301.229	9153.42
301.295	9134.89
301.361	9140.33
301.428	9142.01
301.494	9126.56
301.561	9130.94
301.627	9135.9
301.693	9139.36
301.76	9141.67
301.826	9131.08
301.892	9145.19
301.959	9147.55
302.025	9139.99
302.092	9129.54
302.158	9128.72
302.224	9118.66
302.291	9110.86
302.357	9107.34
302.423	9101.09
302.49	9093.38
302.556	9105.85
302.622	9106.72
302.688	9118.56
302.755	9128.38
302.821	9140.81
302.887	9150.63
302.954	9150.63
303.02	9155.3
303.086	9163.58
303.152	9157.03
303.219	9158.57
303.285	9156.6
303.351	9164.2
303.417	9164.44
303.483	9149.28
303.55	9144.95
303.616	9147.69
303.682	9142.83
303.748	9130.31
303.815	9141.05
303.881	9147.74
303.947	9138.5
304.013	9133.49
304.079	9125.45
304.145	9101.57
304.212	9094.88
304.278	9086.12
304.344	9078.85
304.41	9068.06
304.476	9057.9
304.542	9050.83
304.608	9051.69
304.674	9034.99
304.741	9017.7
304.807	9024.11
304.873	9039.7
304.939	9057.37
305.005	9031.71
305.071	9029.84
305.137	9030.56
305.203	9005.52
305.269	9003.26
305.335	9010.58
305.401	9009.28
305.467	9005.33
305.533	9010.91
305.599	9015.01
305.666	9024.3
305.732	9024.68
305.798	9033.01
305.864	9052.42
305.93	9061.03
305.996	9061.51
306.062	9063.68
306.128	9065.41
306.194	9048.28
306.259	9042.31
306.325	9032.58
306.391	9047.02
306.457	9053.86
306.523	9059.78
306.589	9079.52
306.655	9079.03
306.721	9060.74
306.787	9048.37
306.853	9062.43
306.919	9050.59
306.985	9040.76
307.051	9031.71
307.117	9025.46
307.183	9016.07
307.248	8989.2
307.314	8989.35
307.38	8987.04
307.446	8990.55
307.512	8983.96
307.578	8992.81
307.644	8986.8
307.709	8981.84
307.775	8972.55
307.841	8966.67
307.907	8962.39
307.973	8941.49
308.039	8927.92
308.104	8933.79
308.17	8937.45
308.236	8919.78
308.302	8916.8
308.368	8908.76
308.433	8903.85
308.499	8900.19
308.565	8888.49
308.631	8885.8
308.696	8861.78
308.762	8851
308.828	8844.45
308.894	8820.48
308.959	8794.59
309.025	8789.77
309.091	8785.49
309.156	8776.92
309.222	8784.19
309.288	8771.87
309.354	8752.61
309.419	8755.55
309.485	8736.06
309.551	8733.36
309.616	8721.76
309.682	8720.51
309.748	8713.53
309.813	8709.49
309.879	8700.49
309.945	8685.38
310.01	8683.16
310.076	8681.58
310.141	8672.77
310.207	8662.27
310.273	8663.57
310.338	8670.46
310.404	8651.54
310.469	8635.71
310.535	8626.66
310.601	8591.67
310.666	8594.56
310.732	8606.25
310.797	8593.21
310.863	8584.88
310.928	8576.51
310.994	8573.77
311.059	8565.92
311.125	8563.37
311.191	8566.93
311.256	8553.17
311.322	8559.23
311.387	8539.65
311.453	8808.47
311.518	8779.75
311.584	8772.96
311.649	8774.7
311.715	8755.11
311.78	8749.39
311.846	8736.68
311.911	8743.42
311.976	8747.65
312.042	8727.49
312.107	8711.61
312.173	8696.89
312.238	8690.73
312.304	8686.01
312.369	8676.68
312.434	8666.52
312.5	8654.11
312.565	8624.85
312.631	8627.64
312.696	8620.42
312.761	8622.78
312.827	8342.98
312.892	8384.56
312.958	8383.26
313.023	8379.36
313.088	8382.01
313.154	8372.72
313.219	8365.75
313.284	8351.07
313.35	8351.21
313.415	8340.39
313.48	8329.8
313.546	8338.66
313.611	8345.15
313.676	8339.04
313.741	8333.17
313.807	8336.83
313.872	8345.01
313.937	8353.29
314.003	8369.21
314.068	8368.2
314.133	8371.81
314.198	8362.96
314.264	8338.03
314.329	8326.39
314.394	8321.53
314.459	8316.91
314.525	8335.33
314.59	8334.71
314.655	8325.57
314.72	8329.13
314.785	8338.89
314.851	8335.53
314.916	8310.75
314.981	8294.44
315.046	8279
315.111	8270.39
315.176	8259.56
315.242	8257.68
315.307	8251.14
315.372	8221.21
315.437	8214.33
315.502	8201.73
315.567	8212.94
315.632	8201.34
315.698	8201.68
315.763	8201.15
315.828	8193.12
315.893	8184.17
315.958	8179.69
316.023	8171.47
316.088	8147.46
316.153	8125.57
316.218	8117.93
316.283	8105.18
316.348	8089.94
316.413	8093.83
316.479	8077.91
316.544	8047.47
316.609	8018.51
316.674	7988.6
316.739	7960.42
316.804	7928
316.869	7896.98
316.934	7865.62
316.999	7834.03
317.064	7783.39
317.129	7740.4
317.194	7706.5
317.259	7666
317.324	7615.33
317.389	7572.01
317.454	7542.11
317.518	7509.13
317.583	7490.38
317.648	7466.63
317.713	7437.26
317.778	7380.53
317.843	7351.88
317.908	7320.41
317.973	7281.28
318.038	7255.04
318.103	7219
318.168	7188.91
318.233	7162.1
318.297	7112.79
318.362	7077.33
318.427	7046.3
318.492	7025.2
318.557	6982.5
318.622	6955.83
318.687	6937.09
318.751	6900.93
318.816	6863.8
318.881	6830.32
318.946	6770.99
319.011	6730.12
319.075	6691.07
319.14	6661.49
319.205	6622.98
319.27	6588.98
319.335	6550.48
319.399	6512.44
319.464	6489.78
319.529	6441.34
319.594	6403.55
319.658	6377.68
319.723	6341.73
319.788	6315.38
319.853	6260.7
319.917	6234.98
319.982	6180.07
320.047	6143.88
320.112	6119.89
320.176	6080.54
320.241	6047.72
320.306	6023.78
320.37	5989.05
320.435	5960.26
320.5	5932.39
320.564	5896.08
320.629	5856.94
320.694	5832.14
320.758	5792.29
320.823	5745.67
320.888	5723.86
320.952	5675.96
321.017	5640.13
321.082	5604.22
321.146	5569.27
321.211	5536.58
321.275	5498.18
321.34	5465.35
321.405	5422.22
321.469	5377.79
321.534	5333.57
321.598	5289.11
321.663	5262.6
321.727	5234.13
321.792	5187.8
321.857	5147.03
321.921	5108.13
321.986	5067.24
322.05	5008.76
322.115	4972.5
322.179	4936.59
322.244	4878.99
322.308	4849.65
322.373	4798.89
322.437	4760.02
322.502	4737.37
322.566	4696.87
322.631	4660.59
322.695	4620.44
322.76	4580.4
322.824	4548.96
322.889	4510.46
322.953	4469.66
323.018	4405.59
323.082	4344.85
323.146	4300.47
323.211	4252.97
323.275	4210.75
323.34	4174.13
323.404	4143.92
323.468	4102.37
323.533	4061.83
323.597	4024.61
323.662	3977.63
323.726	3944.56
323.79	3902.32
323.855	3838.78
323.919	3794.21
323.983	3754.84
324.048	3691.2
324.112	3842.95
324.177	3723.24
324.241	3534.79
324.305	3346.95
324.37	3164.42
324.434	2986.57
324.498	2945.16
324.562	2897.4
324.627	2845.77
324.691	2794.03
324.755	2733.82
324.82	2664.3
324.884	2593.17
324.948	2525.67
325.012	2440.32
325.077	2332.17
