Data from 20250625_urea_1M_1_MAYP1162681_09-45-05-560.txt Node
Date: Thu Jun 26 09:45:05 BST 2025
User: adleo
Spectrometer: MAYP116268
Trigger mode: 0
Integration Time (sec): 1.000000E0
Scans to average: 1
Electric dark correction enabled: true
Nonlinearity correction enabled: true
Boxcar width: 10
XAxis mode: Wavelengths
Number of Pixels in Spectrum: 2068
>>>>>Begin Spectral Data<<<<<
179.565	1125.62
179.642	1178.05
179.718	1216.04
179.795	1253.24
179.871	1283.75
179.948	1299.72
180.024	1318.91
180.101	1339.97
180.177	1353.19
180.254	1374.22
180.33	1394.71
180.407	1443.84
180.483	1532.68
180.56	1617.11
180.636	1696.44
180.712	1681.61
180.789	1691.11
180.865	1705.03
180.942	1712.77
181.018	1721.99
181.095	1738.2
181.171	1743.38
181.248	1743.9
181.324	1759.97
181.4	1765.29
181.477	1774.56
181.553	1787.29
181.63	1809.06
181.706	1823.32
181.782	1831.68
181.859	1833.25
181.935	1839.24
182.011	1834.72
182.088	1849.65
182.164	1870.14
182.24	1883.16
182.317	1891.24
182.393	1886.87
182.469	1899.14
182.546	1913.25
182.622	1917.82
182.698	1913.97
182.775	1927.28
182.851	1940.45
182.927	1932.27
183.003	1929.61
183.08	1924.19
183.156	1932.79
183.232	1928.66
183.308	1918.86
183.385	1923.38
183.461	1939.69
183.537	1938.83
183.613	1952.43
183.69	1944.63
183.766	1934.17
183.842	1941.21
183.918	1947.01
183.995	1960.13
184.071	1964.07
184.147	1957.61
184.223	1949.91
184.299	1959.42
184.375	1946.34
184.452	1954.1
184.528	2008.03
184.604	2018.68
184.68	2029.05
184.756	2038.27
184.832	2041.89
184.908	2047.02
184.985	2049.63
185.061	2033.04
185.137	2044.93
185.213	2034.85
185.289	2040.13
185.365	2030.67
185.441	2027.81
185.517	2041.8
185.593	2038.75
185.669	2034.57
185.745	2045.55
185.822	2059.1
185.898	2050.11
185.974	2060.14
186.05	2049.16
186.126	2010.39
186.202	2003.26
186.278	2001.78
186.354	1988.13
186.43	1992.46
186.506	1990.66
186.582	1989.04
186.658	1994.55
186.734	1973.49
186.81	1973.21
186.886	1971.26
186.962	1982.38
187.038	1979.67
187.114	1970.59
187.19	1979
187.266	1968.93
187.341	1967.64
187.417	1958.85
187.493	1958.89
187.569	1962.32
187.645	1958.13
187.721	1949.91
187.797	1957.28
187.873	1960.13
187.949	1954.52
188.025	1949.53
188.101	1952.57
188.176	1957.13
188.252	1954.99
188.328	1963.26
188.404	1962.98
188.48	1958.98
188.556	1951.04
188.632	1951
188.707	1954.66
188.783	1950.38
188.859	1946.62
188.935	1937.3
189.011	1946.62
189.086	1942.96
189.162	1931.79
189.238	1930.22
189.314	1924.37
189.39	1919.52
189.465	1912.77
189.541	1930.84
189.617	1920
189.693	1913.68
189.768	1916.67
189.844	1937.08
189.92	1927.86
189.996	1939.22
190.071	1951.3
190.147	1951.77
190.223	1959.1
190.298	1951.63
190.374	1940.17
190.45	1952.86
190.526	1960.85
190.601	1956.95
190.677	1955.24
190.753	1984.17
190.828	1985.92
190.904	1999.19
190.98	2012.84
191.055	2024.25
191.131	2015.88
191.207	2032.53
191.282	2043.03
191.358	2034.19
191.433	2021.63
191.509	2034.75
191.585	2028.8
191.66	2028.9
191.736	2040.79
191.811	2033.89
191.887	2047.5
191.963	2071.94
192.038	2074.89
192.114	2077.13
192.189	2081.36
192.265	2081.22
192.34	2059.19
192.416	2060.9
192.491	2056.71
192.567	2059.04
192.642	2059.71
192.718	2059.28
192.793	2046.68
192.869	2041.16
192.944	2046.68
193.02	2053.24
193.095	2055.48
193.171	2063.32
193.246	2062.47
193.322	2056.19
193.397	2054.62
193.473	2043.58
193.548	2024.51
193.624	2028.46
193.699	2024.94
193.775	2037.02
193.85	2040.92
193.925	2047.15
194.001	2045.34
194.076	2040.02
194.152	2028.27
194.227	2021.42
194.302	2015.05
194.378	2020.14
194.453	2018.47
194.529	2026.46
194.604	2015.05
194.679	2011.62
194.755	1989.33
194.83	2000.98
194.905	1998.18
194.981	2008.02
195.056	1998.47
195.131	2003.94
195.207	2003.22
195.282	1995
195.357	1976.78
195.433	1988.95
195.508	1978.78
195.583	1987.62
195.659	2003.56
195.734	2011.02
195.809	2008.65
195.884	2012.97
195.96	2013.73
196.035	2030.38
196.11	2030.19
196.185	2040.98
196.261	2044.22
196.336	2077.03
196.411	2064.56
196.486	2070.37
196.561	2065.32
196.637	2075.74
196.712	2092.63
196.787	2095.86
196.862	2110.03
196.937	2120.5
197.013	2124.35
197.088	2134.76
197.163	2152.94
197.238	2166.08
197.313	2164.46
197.388	2180.3
197.464	2212.04
197.539	2222.89
197.614	2212.85
197.689	2222.99
197.764	2236.98
197.839	2253.44
197.914	2247.21
197.989	2269.86
198.065	2285.09
198.14	2330.61
198.215	2356.74
198.29	2365.69
198.365	2380.26
198.44	2389.16
198.515	2414.34
198.59	2429.86
198.665	2454.09
198.74	2463
198.815	2462.76
198.89	2485.46
198.965	2512.8
199.04	2508.66
199.115	2518.56
199.19	2563.74
199.265	2570.22
199.34	2579.84
199.415	2614.67
199.49	2636.81
199.565	2643.95
199.64	2665.15
199.715	2660.29
199.79	2664.19
199.865	2672.24
199.94	2670.77
200.015	2699.4
200.09	2709.55
200.165	2714.26
200.24	2721.98
200.315	2759.65
200.39	2778.23
200.464	2783.76
200.539	2787.67
200.614	2804.39
200.689	2832.5
200.764	2837.61
200.839	2852.18
200.914	2856.23
200.989	2846.93
201.063	2858.71
201.138	2839.8
201.213	2838.18
201.288	2823.27
201.363	2827.98
201.438	2826.75
201.512	2840.65
201.587	2827.17
201.662	2827.26
201.737	2839.03
201.812	2846.37
201.886	2814.75
201.961	2822.53
202.036	2813.24
202.111	2810.62
202.186	2781.47
202.26	2761.5
202.335	2739.53
202.41	2732.53
202.485	2716.86
202.559	2699.42
202.634	2672.98
202.709	2681.83
202.784	2663.88
202.858	2663.92
202.933	2646.97
203.008	2640.58
203.082	2622.96
203.157	2621.87
203.232	2583.87
203.306	2565.57
203.381	2535.61
203.456	2511.8
203.53	2489.69
203.605	2472.31
203.68	2445.93
203.754	2438.93
203.829	2426.84
203.904	2410.08
203.978	2398.08
204.053	2403.94
204.127	2390.65
204.202	2389.18
204.277	2375.57
204.351	2368
204.426	2359.76
204.5	2354.24
204.575	2320.88
204.65	2328.45
204.724	2320.55
204.799	2326.02
204.873	2320.97
204.948	2316.78
205.022	2306.79
205.097	2299.27
205.171	2311.83
205.246	2323.45
205.32	2326.64
205.395	2323.07
205.469	2311.55
205.544	2318.51
205.618	2301.56
205.693	2309.75
205.767	2300.94
205.842	2319.18
205.916	2317.51
205.991	2310.18
206.065	2312.42
206.14	2327.64
206.214	2322.02
206.289	2316.07
206.363	2325.06
206.438	2328.35
206.512	2340.67
206.586	2360.52
206.661	2368.76
206.735	2346.21
206.81	2346.63
206.884	2355.15
206.958	2347.11
207.033	2362.62
207.107	2367
207.181	2396.67
207.256	2393
207.33	2408.99
207.405	2422
207.479	2437.62
207.553	2443.99
207.628	2431.95
207.702	2444.81
207.776	2443
207.851	2446.19
207.925	2465
207.999	2462.67
208.073	2457.67
208.148	2459.95
208.222	2448.29
208.296	2479.93
208.371	2496.61
208.445	2510.42
208.519	2538.51
208.593	2553.22
208.668	2552.08
208.742	2555.37
208.816	2557.89
208.89	2570.99
208.965	2568.94
209.039	2578.99
209.113	2595.95
209.187	2617.6
209.261	2613.65
209.336	2631.8
209.41	2652.66
209.484	2654.43
209.558	2679.77
209.632	2696.15
209.707	2711.35
209.781	2737.46
209.855	2755.04
209.929	2771.88
210.003	2782.65
210.077	2782.74
210.151	2832.73
210.226	2870.25
210.3	2900.16
210.374	2931.51
210.448	2946.53
210.522	2966.37
210.596	2984.29
210.67	3006.08
210.744	3062.22
210.818	3104.97
210.892	3137.26
210.966	3146.65
211.041	3178.08
211.115	3186.19
211.189	3225.44
211.263	3258.79
211.337	3282.73
211.411	3315.04
211.485	3332.41
211.559	3369.67
211.633	3399.33
211.707	3395.94
211.781	3430.14
211.855	3430.33
211.929	3454.48
212.003	3467.93
212.077	3514.07
212.151	3565.98
212.225	3608.72
212.299	3636.97
212.373	3668.25
212.447	3707.9
212.52	3783.92
212.594	3834.29
212.668	3897.25
212.742	3935.34
212.816	3986.3
212.89	4035.42
212.964	4093.86
213.038	4159.72
213.112	4231.71
213.186	4309.88
213.26	4358.64
213.333	4382.41
213.407	4456.63
213.481	4529.62
213.555	4618.76
213.629	4684.64
213.703	4743.77
213.777	4820.29
213.85	4878.95
213.924	4992.19
213.998	5077.08
214.072	5155.16
214.146	5228.38
214.219	5315.22
214.293	5403.43
214.367	5493.12
214.441	5597.06
214.515	5680.6
214.588	5752.39
214.662	5810.47
214.736	5889.36
214.81	5987.56
214.883	6096.37
214.957	6184.25
215.031	6267.77
215.105	6340.03
215.178	6418.56
215.252	6518.38
215.326	6599.9
215.4	6684.45
215.473	6741.81
215.547	6827.42
215.621	6909.39
215.694	7017.42
215.768	7097.62
215.842	7185.94
215.915	7278.33
215.989	7354.57
216.063	7444.86
216.136	7547.36
216.21	7658.7
216.284	7766.94
216.357	7875.72
216.431	7972.58
216.504	8077.72
216.578	8207.42
216.652	8325.83
216.725	8434.04
216.799	8545.65
216.873	8650.55
216.946	8761.47
217.02	8865.17
217.093	8961.25
217.167	9049.73
217.24	9136.01
217.314	9236.28
217.387	9333.34
217.461	9425.94
217.535	9548.4
217.608	9638.3
217.682	9738.24
217.755	9847.57
217.829	9942.42
217.902	10038.85
217.976	10142.8
218.049	10235.24
218.123	10318.98
218.196	10415.9
218.27	10507.88
218.343	10585.84
218.417	10679.8
218.49	10768.45
218.563	10872.15
218.637	10972.72
218.71	11085.57
218.784	11184.56
218.857	11293.86
218.931	11395.4
219.004	11493.33
219.077	11581.97
219.151	11673.2
219.224	11756.92
219.298	11839.48
219.371	11933.52
219.444	12004.85
219.518	12085.98
219.591	12173.12
219.665	12278.25
219.738	12365.21
219.811	12442
219.885	12531.56
219.958	12623.63
220.031	12709.43
220.105	12788.05
220.178	12872.31
220.251	12946.55
220.325	13026.43
220.398	13103.7
220.471	13180.93
220.544	13263.99
220.618	13332.34
220.691	13414.2
220.764	13486.7
220.838	13561.23
220.911	13631.9
220.984	13733.18
221.057	13819.37
221.131	13898.09
221.204	13939.5
221.277	14031.91
221.35	14133
221.424	14198.56
221.497	14266.82
221.57	14336.76
221.643	14416.88
221.716	14491.55
221.79	14561.74
221.863	14629.08
221.936	14682.97
222.009	14742.31
222.082	14806.81
222.155	14865.62
222.229	14946.84
222.302	15017.8
222.375	15077.04
222.448	15144.86
222.521	15197.35
222.594	15247.24
222.667	15295.73
222.74	15365.87
222.814	15401.39
222.887	15446.27
222.96	15501.7
223.033	15558.72
223.106	15608.03
223.179	15663.75
223.252	15705.83
223.325	15746.85
223.398	15796.35
223.471	15847.34
223.544	15896.94
223.617	15948.47
223.69	15989.58
223.763	16014.26
223.837	16058.07
223.91	16102.9
223.983	16125.74
224.056	16153.22
224.129	16199.05
224.202	16243.25
224.275	16283.11
224.348	16322.82
224.42	16352.37
224.493	16386.3
224.566	16418.21
224.639	16465.68
224.712	16480.14
224.785	16508.33
224.858	16543.47
224.931	16570.32
225.004	16598.17
225.077	16635.62
225.15	16632.63
225.223	16673.26
225.296	16733.31
225.369	16746.9
225.442	16775
225.514	16809.56
225.587	16847.2
225.66	16873.61
225.733	16909.8
225.806	16928.36
225.879	16956.31
225.952	16972.26
226.025	17007.64
226.097	17048.89
226.17	17065.28
226.243	17082.15
226.316	17116.03
226.389	17149.71
226.461	17184.75
226.534	17212.27
226.607	17234.1
226.68	17287.21
226.753	17310.87
226.825	17308.71
226.898	17351.21
226.971	17369.38
227.044	17403.16
227.117	17430.59
227.189	17461.67
227.262	17489.57
227.335	17528.61
227.407	17544.47
227.48	17573.53
227.553	17598.73
227.626	17607.55
227.698	17635.93
227.771	17664.56
227.844	17676.66
227.916	17694.1
227.989	17695.16
228.062	17709.72
228.134	17751.35
228.207	17768.22
228.28	17770.63
228.352	17792.65
228.425	17804.94
228.498	17835.64
228.57	17839.83
228.643	17863.21
228.716	17876.17
228.788	17884.41
228.861	17886.48
228.934	17915.25
229.006	17929.04
229.079	17931.69
229.151	17934.19
229.224	17934.77
229.296	17959.3
229.369	17997.56
229.442	18017.13
229.514	18031.44
229.587	18059.3
229.659	18050.67
229.732	18073.42
229.804	18105.37
229.877	18140.98
229.949	18171.82
230.022	18202.08
230.094	18220.35
230.167	18232.3
230.239	18234.76
230.312	18243
230.384	18270.9
230.457	18283.09
230.529	18298.13
230.602	18314.9
230.674	18340.2
230.747	18368.44
230.819	18387.28
230.892	18360.54
230.964	18366.99
231.037	18370.41
231.109	18376.49
231.181	18391.38
231.254	18377.45
231.326	18379.28
231.399	18364.58
231.471	18357.74
231.544	18338.22
231.616	18345.02
231.688	18354.95
231.761	18348.58
231.833	18344.83
231.905	18334.56
231.978	18341.31
232.05	18337.4
232.122	18341.6
232.195	18341.12
232.267	18354.56
232.339	18341.6
232.412	18371.33
232.484	18370.9
232.556	18368.87
232.629	18386.12
232.701	18399.62
232.773	18403.57
232.846	18397.98
232.918	18405.5
232.99	18396.87
233.062	18409.4
233.135	18416.87
233.207	18395.43
233.279	18405.69
233.351	18405.74
233.424	18390.85
233.496	18373.06
233.568	18389.84
233.64	18362.32
233.713	18357.88
233.785	18339.24
233.857	18335.14
233.929	18296.49
234.001	18295.04
234.074	18297.45
234.146	18269.6
234.218	18249.84
234.29	18231.19
234.362	18212.83
234.434	18185.12
234.507	18172.98
234.579	18128.21
234.651	18105.41
234.723	18102.52
234.795	18098.48
234.867	18095.1
234.939	18101.56
235.012	18088.07
235.084	18070.91
235.156	18071.25
235.228	18041.71
235.3	18022.62
235.372	18011.78
235.444	18021.03
235.516	17988.7
235.588	17983.93
235.66	17970.91
235.732	17945.47
235.804	17985.76
235.876	17988.36
235.948	17990.19
236.02	17974.58
236.092	17969.47
236.164	17951.2
236.236	17928.31
236.308	17900.65
236.38	17887.78
236.452	17868.51
236.524	17856.7
236.596	17862.19
236.668	17851.11
236.74	17844.6
236.812	17836.75
236.884	17820.41
236.956	17803.98
237.028	17782.97
237.1	17750.1
237.172	17745.91
237.244	17752.7
237.316	17705.96
237.388	17677.96
237.46	17655.36
237.532	17653.67
237.604	17629.33
237.675	17627.36
237.747	17625.43
237.819	17598.54
237.891	17578.97
237.963	17548.8
238.035	17521.14
238.107	17458.01
238.178	17447.89
238.25	17426.1
238.322	17424.85
238.394	17394.15
238.466	17364.37
238.538	17347.6
238.609	17337.67
238.681	17309.72
238.753	17271.45
238.825	17242.01
238.897	17220.46
238.968	17209.72
239.04	17180.56
239.112	17187.55
239.184	17153.04
239.255	17124.56
239.327	17107.79
239.399	17085.28
239.471	17068.56
239.542	17056.46
239.614	17050.92
239.686	17013.86
239.758	17002.96
239.829	16967.4
239.901	16958.05
239.973	16934.48
240.044	16927.2
240.116	16908.89
240.188	16872.94
240.259	16855.25
240.331	16825.13
240.403	16813.99
240.474	16774.62
240.546	16739.39
240.618	16693.02
240.689	16668.59
240.761	16634.71
240.833	16620.44
240.904	16588.2
240.976	16564.68
241.048	16537.4
241.119	16510.84
241.191	16492.62
241.262	16468.91
241.334	16436.23
241.405	16405.97
241.477	16377.1
241.549	16332.46
241.62	16309.14
241.692	16292.61
241.763	16269.47
241.835	16249.9
241.906	16211.44
241.978	16168.35
242.049	16155.34
242.121	16143.67
242.192	16131.19
242.264	16101.98
242.335	16068.97
242.407	16059.52
242.478	16022.69
242.55	16006.07
242.621	15985.53
242.693	15949.87
242.764	15926.49
242.836	15898.87
242.907	15882.63
242.979	15871.11
243.05	15857.23
243.122	15833.08
243.193	15808.98
243.264	15764.35
243.336	15741.89
243.407	15733.88
243.479	15730.46
243.55	15706.89
243.622	15682.26
243.693	15654.31
243.764	15644.57
243.836	15607.65
243.907	15578.05
243.978	15558.48
244.05	15530.33
244.121	15489.27
244.192	15475.24
244.264	15430.27
244.335	15407.37
244.407	15360.23
244.478	15336.03
244.549	15307.69
244.62	15268.79
244.692	15236.06
244.763	15218.23
244.834	15180.58
244.906	15140.38
244.977	15117.87
245.048	15109.43
245.119	15073.57
245.191	15032.55
245.262	14980.97
245.333	14973.26
245.405	14939.18
245.476	14917.58
245.547	14891.02
245.618	14871.31
245.689	14849.14
245.761	14829.81
245.832	14808.4
245.903	14799.2
245.974	14769.65
246.045	14740.82
246.117	14725.11
246.188	14690.54
246.259	14658.15
246.33	14635.3
246.401	14608.69
246.473	14573.41
246.544	14529.88
246.615	14513.15
246.686	14485.05
246.757	14483.75
246.828	14446.92
246.899	14439.98
246.97	14402.62
247.042	14369.4
247.113	14355.71
247.184	14346.41
247.255	14314.35
247.326	14288.08
247.397	14255.3
247.468	14231.34
247.539	14207.91
247.61	14174.56
247.681	14159.95
247.752	14153.25
247.823	14119.02
247.894	14105.19
247.965	14071.15
248.037	14047.73
248.108	14011.04
248.179	13989.59
248.25	13956.66
248.321	13947.84
248.392	13903.83
248.463	13896.07
248.534	13880.88
248.605	13863.1
248.675	13833.59
248.746	13812.87
248.817	13785.05
248.888	13770.3
248.959	13731.2
249.03	13716.16
249.101	13693.46
249.172	13665.35
249.243	13614.21
249.314	13613.58
249.385	13581.52
249.456	13570.87
249.527	13545.32
249.598	13532.3
249.669	13507.19
249.739	13488.39
249.81	13464.14
249.881	13433.14
249.952	13411.3
250.023	13381.9
250.094	13341.36
250.165	13306.17
250.235	13290.93
250.306	13282.79
250.377	13246.53
250.448	13233.23
250.519	13192.54
250.59	13187.1
250.66	13159.18
250.731	13155.86
250.802	13121.92
250.873	13107.07
250.944	13083.93
251.014	13055.01
251.085	13059.78
251.156	13049.56
251.227	13045.75
251.297	13043.54
251.368	13036.55
251.439	13023.68
251.51	13011
251.58	12983.47
251.651	12967.52
251.722	12956.72
251.792	12912.03
251.863	12890.58
251.934	12887.74
252.005	12895.55
252.075	12868.26
252.146	12864.16
252.217	12851.49
252.287	12840.74
252.358	12819.24
252.429	12818.37
252.499	12795.76
252.57	12771.8
252.641	12754.25
252.711	12721.14
252.782	12680.31
252.852	12679.2
252.923	12656.06
252.994	12640.97
253.064	12628.68
253.135	12593.78
253.205	12564.86
253.276	12560.13
253.347	12554.64
253.417	12526.44
253.488	12499.92
253.558	12475.53
253.629	12451.09
253.699	12436.58
253.77	12425.69
253.841	12402.7
253.911	12378.35
253.982	12361.43
254.052	12347.99
254.123	12333.19
254.193	12318.44
254.264	12336.61
254.334	12302.87
254.405	12272.07
254.475	12239.05
254.546	12222.75
254.616	12219.86
254.687	12208.58
254.757	12197.11
254.827	12180.91
254.898	12160.91
254.968	12136.95
255.039	12115.31
255.109	12105.05
255.18	12077.62
255.25	12037.37
255.321	12022.67
255.391	11999.63
255.461	12000.93
255.532	11958.22
255.602	11933.21
255.673	11898.41
255.743	11863.94
255.813	11820.08
255.884	11816.37
255.954	11811.5
256.024	11807.45
256.095	11786.34
256.165	11755.35
256.235	11734.19
256.306	11704.88
256.376	11699.44
256.446	11691.92
256.517	11682.04
256.587	11679.92
256.657	11667.87
256.728	11652.97
256.798	11639.82
256.868	11612.73
256.938	11586.36
257.009	11579.13
257.079	11570.31
257.149	11580.82
257.219	11547.13
257.29	11546.6
257.36	11514.26
257.43	11502.36
257.5	11463.27
257.571	11444.23
257.641	11432.38
257.711	11411.17
257.781	11401.92
257.852	11382.64
257.922	11351.65
257.992	11331.21
258.062	11301.48
258.132	11292.27
258.202	11277.33
258.273	11261.38
258.343	11263.74
258.413	11240.8
258.483	11220.9
258.553	11196.66
258.623	11166.1
258.693	11149.04
258.764	11143.11
258.834	11138.29
258.904	11121.86
258.974	11102.44
259.044	11085.38
259.114	11078.39
259.184	11061.24
259.254	11044.32
259.324	11018.25
259.394	11007.55
259.464	11009.43
259.535	10994.3
259.605	10966.97
259.675	10946.4
259.745	10937.34
259.815	10912.04
259.885	10895.46
259.955	10904.14
260.025	10878.74
260.095	10860
260.165	10850.07
260.235	10851.32
260.305	10824.15
260.375	10799.67
260.445	10807.86
260.515	10806.17
260.585	10799.52
260.655	10788.01
260.725	10784.39
260.795	10776.1
260.865	10772.83
260.934	10750.18
261.004	10741.41
261.074	10733.27
261.144	10725.85
261.214	10715.82
261.284	10697.32
261.354	10690.53
261.424	10665.52
261.494	10670.58
261.564	10666.53
261.634	10659.54
261.703	10626.53
261.773	10620.9
261.843	10614.92
261.913	10595.89
261.983	10563.46
262.053	10551.9
262.123	10534.8
262.192	10500.64
262.262	10487.58
262.332	10463.83
262.402	10449.9
262.472	10434.19
262.541	10398.11
262.611	10394.5
262.681	10366.6
262.751	10361.45
262.821	10337.69
262.89	10302.72
262.96	10292.45
263.03	10291.83
263.1	10282.82
263.169	10272.8
263.239	10261.04
263.309	10258.25
263.379	10247.84
263.448	10241.34
263.518	10231.36
263.588	10220.33
263.657	10231.41
263.727	10230.54
263.797	10217.06
263.867	10208.48
263.936	10178.66
264.006	10174.71
264.076	10159.06
264.145	10148.99
264.215	10123.84
264.285	10122.35
264.354	10096.15
264.424	10072.3
264.494	10040.36
264.563	10021
264.633	10022.3
264.702	10018.83
264.772	9992.67
264.842	9975.81
264.911	9965.12
264.981	9938.57
265.05	9923.69
265.12	9903.84
265.19	9888.47
265.259	9888.18
265.329	9876.96
265.398	9866.27
265.468	9882.21
265.537	9869.69
265.607	9859.14
265.676	9860.34
265.746	9846.23
265.815	9847.97
265.885	9838.86
265.955	9818.39
266.024	9802.31
266.094	9765.03
266.163	9762.14
266.232	9758.62
266.302	9744.46
266.371	9734.3
266.441	9717.3
266.51	9711.86
266.58	9690.76
266.649	9666.53
266.719	9657.43
266.788	9646.35
266.858	9655.17
266.927	9617.21
266.996	9604.4
267.066	9601.9
267.135	9581.96
267.205	9583.02
267.274	9577.58
267.343	9574.74
267.413	9561.59
267.482	9558.99
267.552	9563.32
267.621	9531.35
267.69	9496.67
267.76	9485.98
267.829	9472.4
267.898	9460.37
267.968	9436.48
268.037	9435.86
268.106	9437.54
268.176	9413.99
268.245	9400.46
268.314	9381.58
268.384	9381.82
268.453	9370.46
268.522	9357.74
268.592	9353.12
268.661	9332.27
268.73	9321.44
268.799	9299.82
268.869	9307.09
268.938	9279.01
269.007	9259.18
269.076	9258.36
269.146	9266.88
269.215	9258.6
269.284	9264.09
269.353	9251.96
269.422	9243.82
269.492	9222.92
269.561	9187.2
269.63	9178.96
269.699	9165.87
269.768	9152.29
269.838	9145.45
269.907	9144.15
269.976	9122.82
270.045	9095.67
270.114	9091.58
270.183	9082.53
270.253	9077.96
270.322	9053.07
270.391	9049.5
270.46	9065.78
270.529	9064.53
270.598	9056.97
270.667	9053.21
270.736	9031.4
270.806	9029.38
270.875	9025.72
270.944	9018.35
271.013	9038.48
271.082	9032.27
271.151	9025.96
271.22	9004.59
271.289	8988.8
271.358	8976.57
271.427	8970.99
271.496	8958.28
271.565	8940.23
271.634	8928.2
271.703	8950.01
271.772	8951.02
271.841	8934.07
271.91	8901.24
271.979	8883.72
272.048	8864.61
272.117	8859.26
272.186	8850.65
272.255	8846.8
272.324	8850.07
272.393	8848.53
272.462	8828.41
272.531	8819.65
272.6	8805.83
272.669	8814.54
272.738	8804.29
272.807	8795.24
272.876	8774.5
272.945	8805.26
273.013	8811.56
273.082	8816.9
273.151	8775.02
273.22	8770.83
273.289	8764.82
273.358	8771.17
273.427	8764.19
273.496	8765.44
273.564	8762.51
273.633	8760.92
273.702	8746.09
273.771	8731.41
273.84	8726.26
273.909	8728.67
273.977	8722.22
274.046	8716.69
274.115	8716.59
274.184	8705.09
274.253	8699.22
274.322	8710.04
274.39	8681.79
274.459	8666.48
274.528	8639.87
274.597	8633.04
274.665	8633.81
274.734	8642.04
274.803	8636.12
274.872	8632.84
274.94	8616.48
275.009	8641.23
275.078	8625.49
275.147	8626.45
275.215	8627.51
275.284	8632.03
275.353	8616.68
275.421	8596.52
275.49	8606.82
275.559	8594.31
275.627	8589.25
275.696	8585.64
275.765	8585.31
275.833	8572.27
275.902	8569.77
275.971	8576.89
276.039	8587.86
276.108	8584.83
276.177	8585.93
276.245	8572.12
276.314	8563.7
276.383	8571.59
276.451	8536.79
276.52	8544.92
276.588	8549.64
276.657	8549.25
276.725	8541.5
276.794	8543.62
276.863	8553.68
276.931	8533.66
277	8541.89
277.068	8547.56
277.137	8555.84
277.205	8554.25
277.274	8573.36
277.342	8583.32
277.411	8569.17
277.48	8559.26
277.548	8552.62
277.617	8545.74
277.685	8542.46
277.754	8548.77
277.822	8538.66
277.89	8550.36
277.959	8542.27
278.027	8526.54
278.096	8517.97
278.164	8538.04
278.233	8529.14
278.301	8523.7
278.37	8532.08
278.438	8519.23
278.507	8525.19
278.575	8500.27
278.643	8496.42
278.712	8477.02
278.78	8464.37
278.849	8472.5
278.917	8482.12
278.985	8478.8
279.054	8483.86
279.122	8495.36
279.191	8486.7
279.259	8481.5
279.327	8459.65
279.396	8467.35
279.464	8460.42
279.532	8465.57
279.601	8462.54
279.669	8461.82
279.737	8473.41
279.806	8473.89
279.874	8486.36
279.942	8483.71
280.011	8482.75
280.079	8484.43
280.147	8501.42
280.215	8507.1
280.284	8505.65
280.352	8493
280.42	8493.62
280.488	8489.34
280.557	8479.19
280.625	8487.32
280.693	8487.7
280.761	8492.27
280.83	8476.73
280.898	8491.84
280.966	8472.69
281.034	8438.62
281.102	8427.22
281.171	8422.36
281.239	8425.77
281.307	8408.4
281.375	8396.47
281.443	8425.73
281.512	8424.09
281.58	8428.57
281.648	8410.67
281.716	8404.07
281.784	8404.07
281.852	8397.39
281.92	8391.18
281.989	8401.62
282.057	8380.98
282.125	8407.69
282.193	8406.24
282.261	8412.74
282.329	8401.1
282.397	8408.46
282.465	8411.92
282.533	8419.67
282.601	8410.43
282.67	8389.93
282.738	8388.87
282.806	8397.58
282.874	8381.7
282.942	8382.9
283.01	8379.48
283.078	8387.71
283.146	8388.09
283.214	8398.06
283.282	8406.62
283.35	8422.98
283.418	8417.26
283.486	8427.65
283.554	8402.19
283.622	8401.42
283.69	8397.48
283.758	8399.3
283.826	8404.79
283.894	8414.32
283.962	8435.68
284.03	8444.73
284.098	8450.6
284.165	8443.82
284.233	8445.79
284.301	8440.78
284.369	8430.92
284.437	8421.06
284.505	8412.73
284.573	8430.34
284.641	8414.13
284.709	8415.86
284.777	8390.07
284.845	8391.46
284.912	8397.38
284.98	8400.75
285.048	8390.6
285.116	8391.22
285.184	8405.32
285.252	8402.72
285.319	8390.5
285.387	8382.32
285.455	8371.3
285.523	8377.03
285.591	8374.09
285.659	8371.73
285.726	8380.01
285.794	8370.29
285.862	8364.76
285.93	8363.94
285.997	8358.22
286.065	8355.47
286.133	8344.89
286.201	8347.34
286.269	8332.33
286.336	8319.67
286.404	8310.24
286.472	8320.06
286.539	8304.91
286.607	8284.55
286.675	8280.41
286.743	8286.48
286.81	8276.8
286.878	8285.08
286.946	8272.57
287.013	8275.84
287.081	8276.51
287.149	8264.97
287.216	8278.92
287.284	8279.78
287.352	8282.43
287.419	8280.22
287.487	8292.49
287.555	8299.99
287.622	8297.63
287.69	8308.85
287.758	8320.34
287.825	8322.03
287.893	8312.98
287.96	8316.25
288.028	8330.16
288.096	8329.68
288.163	8336.27
288.231	8324.19
288.298	8324
288.366	8337.33
288.433	8335.12
288.501	8329.25
288.569	8330.02
288.636	8323.86
288.704	8335.5
288.771	8340.6
288.839	8324.1
288.906	8316.02
288.974	8324.05
289.041	8321.65
289.109	8309.38
289.176	8317.37
289.244	8321.75
289.311	8333.44
289.379	8347.82
289.446	8347.15
289.514	8354.75
289.581	8349.27
289.649	8351.72
289.716	8352.39
289.783	8347.49
289.851	8356.48
289.918	8355.42
289.986	8367.07
290.053	8372.02
290.121	8370
290.188	8378.91
290.255	8414.85
290.323	8416.25
290.39	8408.64
290.458	8420.91
290.525	8440.64
290.592	8430.44
290.66	8430
290.727	8423.56
290.794	8432.31
290.862	8430.05
290.929	8427.26
290.996	8426.78
291.064	8444.25
291.131	8453
291.198	8459.69
291.266	8463.21
291.333	8467.82
291.4	8468.93
291.468	8485.05
291.535	8476.01
291.602	8475.91
291.669	8464.55
291.737	8470.76
291.804	8474.75
291.871	8484.43
291.938	8488.32
292.006	8513.4
292.073	8527.5
292.14	8534.23
292.207	8533.75
292.275	8539.24
292.342	8551.51
292.409	8575.09
292.476	8596.03
292.543	8585.06
292.611	8590.3
292.678	8610.18
292.745	8631.16
292.812	8638.67
292.879	8635.54
292.946	8640.98
293.014	8655.08
293.081	8660.33
293.148	8673.56
293.215	8682.9
293.282	8678.81
293.349	8685.45
293.416	8673.42
293.484	8688.87
293.551	8701.91
293.618	8712.88
293.685	8731.7
293.752	8725.93
293.819	8720.44
293.886	8705.42
293.953	8716.97
294.02	8724.14
294.087	8729.53
294.154	8723.66
294.221	8737.28
294.288	8736.47
294.356	8759.57
294.423	8764.19
294.49	8761.3
294.557	8763.51
294.624	8758.41
294.691	8772.95
294.758	8775.45
294.825	8781.71
294.892	8770.2
294.959	8768.38
295.026	8774.25
295.093	8766.74
295.16	8762.6
295.226	8767.22
295.293	8787.92
295.36	8790.37
295.427	8797.93
295.494	8808.62
295.561	8815.21
295.628	8835.1
295.695	8854.21
295.762	8849.49
295.829	8854.35
295.896	8862.44
295.963	8873.75
296.03	8880.73
296.096	8890.84
296.163	8898.73
296.23	8915.92
296.297	8932.82
296.364	8930.46
296.431	8934.69
296.498	8931.61
296.564	8956.93
296.631	8957.51
296.698	8939.46
296.765	8957.51
296.832	8948.51
296.899	8926.65
296.965	8942.1
297.032	8920.63
297.099	8934.26
297.166	8944.17
297.233	8943.59
297.299	8939.07
297.366	8938.68
297.433	8942.63
297.5	8948.41
297.566	8946.05
297.633	8939.41
297.7	8931.51
297.767	8928.53
297.833	8931.61
297.9	8933.39
297.967	8917.6
298.033	8932.38
298.1	8962.66
298.167	8959
298.234	8967.33
298.3	8980.09
298.367	8971.37
298.434	8979.65
298.5	8968.29
298.567	8962.37
298.634	8955.25
298.7	8979.8
298.767	8977.34
298.834	8988.37
298.9	8984.8
298.967	8975.27
299.033	8986.06
299.1	9007.82
299.167	9022.69
299.233	9016.34
299.3	9033.23
299.366	9053.35
299.433	9057.64
299.5	9029.86
299.566	9032.27
299.633	9045.65
299.699	9049.55
299.766	9053.26
299.832	9054.12
299.899	9059.18
299.965	9073.48
300.032	9070.16
300.099	9069.39
300.165	9081.04
300.232	9074.2
300.298	9070.73
300.365	9086.14
300.431	9084.98
300.498	9077.66
300.564	9086.96
300.631	9099.47
300.697	9111.03
300.763	9107.47
300.83	9112.04
300.896	9130.48
300.963	9145.36
301.029	9143.43
301.096	9158.36
301.162	9168.08
301.229	9164.66
301.295	9158.74
301.361	9158.26
301.428	9166.01
301.494	9152.05
301.561	9149.11
301.627	9151.57
301.693	9152.19
301.76	9157.87
301.826	9148.2
301.892	9153.93
301.959	9159.65
302.025	9156.33
302.092	9148.72
302.158	9155.56
302.224	9152.67
302.291	9145.5
302.357	9130.33
302.423	9123.83
302.49	9110.98
302.556	9110.35
302.622	9109.29
302.688	9114.01
302.755	9128.6
302.821	9133.66
302.887	9143.04
302.954	9141.12
303.02	9146.99
303.086	9149.98
303.152	9142.9
303.219	9141.6
303.285	9146.12
303.351	9148.97
303.417	9147.28
303.483	9137.99
303.55	9133.94
303.616	9131.39
303.682	9127.01
303.748	9123.02
303.815	9139.63
303.881	9145.65
303.947	9141.75
304.013	9143.09
304.079	9134.28
304.145	9103.66
304.212	9098.32
304.278	9085.42
304.344	9080.41
304.41	9072.42
304.476	9063.66
304.542	9058.41
304.608	9059.28
304.674	9036.84
304.741	9021.67
304.807	9023.31
304.873	9023.79
304.939	9030.05
305.005	9009.25
305.071	9007.42
305.137	9007.04
305.203	8979.4
305.269	8978.3
305.335	8986.82
305.401	8981.96
305.467	8983.64
305.533	8990.67
305.599	8999.62
305.666	9009.11
305.732	9007.37
305.798	9016.33
305.864	9040.07
305.93	9046.28
305.996	9045.07
306.062	9046.08
306.128	9051.48
306.194	9037.76
306.259	9038
306.325	9024.56
306.391	9033.37
306.457	9041.41
306.523	9045.65
306.589	9071.98
306.655	9062.69
306.721	9041.36
306.787	9024.9
306.853	9027.94
306.919	9019.61
306.985	9006.51
307.051	8997.51
307.117	8992.75
307.183	8981.09
307.248	8949.7
307.314	8952.06
307.38	8949.9
307.446	8957.12
307.512	8943.25
307.578	8948.98
307.644	8943.83
307.709	8950.09
307.775	8943.98
307.841	8935.84
307.907	8934.49
307.973	8908.59
308.039	8909.22
308.104	8918.85
308.17	8923.71
308.236	8914.66
308.302	8915.72
308.368	8903.73
308.433	8904.36
308.499	8900.46
308.565	8891.94
308.631	8893.57
308.696	8866.71
308.762	8859.69
308.828	8857.71
308.894	8838.61
308.959	8816.47
309.025	8810.59
309.091	8803.08
309.156	8796.92
309.222	8796.59
309.288	8776.13
309.354	8753.85
309.419	8750.43
309.485	8731.9
309.551	8733.68
309.616	8718.04
309.682	8709.37
309.748	8703.55
309.813	8694.84
309.879	8684.68
309.945	8671.78
310.01	8663.22
310.076	8669.67
310.141	8662.01
310.207	8638.43
310.273	8639.15
310.338	8645.02
310.404	8624.86
310.469	8613.4
310.535	8604.06
310.601	8577.35
310.666	8582.07
310.732	8595.88
310.797	8581.54
310.863	8570.04
310.928	8559.06
310.994	8563.83
311.059	8563.06
311.125	8561.71
311.191	8571.82
311.256	8557
311.322	8563.49
311.387	8543.96
311.453	8869.82
311.518	8840.37
311.584	8842.35
311.649	8852.93
311.715	8836.33
311.78	8833.93
311.846	8816.27
311.911	8816.36
311.976	8815.06
312.042	8801.59
312.107	8781.52
312.173	8767.43
312.238	8764.35
312.304	8757.95
312.369	8742.93
312.434	8728.93
312.5	8720.56
312.565	8684.13
312.631	8686.29
312.696	8671.95
312.761	8673.54
312.827	8335.17
312.892	8369.57
312.958	8362.69
313.023	8350.95
313.088	8351.62
313.154	8342.05
313.219	8338.39
313.284	8336.7
313.35	8334.92
313.415	8324.48
313.48	8329.1
313.546	8331.22
313.611	8333.29
313.676	8322.03
313.741	8315.58
313.807	8318.9
313.872	8317.17
313.937	8320.78
314.003	8328.72
314.068	8332.95
314.133	8343.88
314.198	8333.34
314.264	8310
314.329	8301.1
314.394	8296.72
314.459	8291.52
314.525	8305.67
314.59	8302.06
314.655	8285.94
314.72	8291.23
314.785	8295.76
314.851	8281.32
314.916	8264.39
314.981	8249.52
315.046	8243.66
315.111	8234.23
315.176	8225.9
315.242	8228.26
315.307	8229.17
315.372	8206.51
315.437	8187.61
315.502	8172.79
315.567	8178.13
315.632	8171.2
315.698	8173.17
315.763	8165.76
315.828	8156.38
315.893	8148.25
315.958	8141.47
316.023	8135.17
316.088	8116.84
316.153	8088.37
316.218	8081.73
316.283	8067.2
316.348	8053.16
316.413	8052.15
316.479	8039.5
316.544	8003.34
316.609	7981.55
316.674	7950.04
316.739	7924.8
316.804	7902.05
316.869	7867.96
316.934	7834.29
316.999	7801.01
317.064	7750.23
317.129	7708.3
317.194	7676.57
317.259	7630.79
317.324	7580.27
317.389	7535.79
317.454	7502.91
317.518	7477.43
317.583	7454.55
317.648	7430.99
317.713	7401.09
317.778	7345.81
317.843	7316.58
317.908	7289.47
317.973	7248.86
318.038	7220.93
318.103	7183.45
318.168	7154.62
318.233	7129.63
318.297	7079.23
318.362	7048.62
318.427	7016.91
318.492	6999.33
318.557	6954.08
318.622	6929.33
318.687	6912.24
318.751	6874.73
318.816	6841.39
318.881	6810.17
318.946	6758.39
319.011	6718.33
319.075	6676.35
319.14	6642.93
319.205	6602.16
319.27	6564.28
319.335	6521.35
319.399	6484.57
319.464	6462.39
319.529	6410.02
319.594	6371.8
319.658	6348.14
319.723	6309.93
319.788	6281.13
319.853	6228.33
319.917	6200.07
319.982	6151.64
320.047	6118.19
320.112	6097.12
320.176	6050.1
320.241	6020.16
320.306	5992.81
320.37	5952.99
320.435	5925.89
320.5	5900.75
320.564	5864.44
320.629	5826.8
320.694	5802.38
320.758	5765.69
320.823	5721.67
320.888	5698.9
320.952	5656.51
321.017	5617.53
321.082	5578.93
321.146	5547.05
321.211	5514.02
321.275	5476.21
321.34	5442.62
321.405	5403.22
321.469	5358.64
321.534	5320.84
321.598	5271.34
321.663	5240.48
321.727	5214.94
321.792	5170.04
321.857	5130.56
321.921	5094.15
321.986	5059.29
322.05	5000.82
322.115	4963.42
322.179	4927.02
322.244	4873.41
322.308	4840.75
322.373	4797.47
322.437	4760.09
322.502	4738.2
322.566	4699.43
322.631	4671.81
322.695	4628.7
322.76	4582.86
322.824	4547.02
322.889	4508.08
322.953	4466.95
323.018	4409.45
323.082	4349.75
323.146	4302.36
323.211	4249.95
323.275	4210.78
323.34	4166.75
323.404	4135.3
323.468	4094.04
323.533	4049.54
323.597	4009.88
323.662	3960.04
323.726	3926.72
323.79	3886.25
323.855	3821.14
323.919	3775.85
323.983	3729.83
324.048	3671.88
324.112	3826.5
324.177	3711.18
324.241	3520.53
324.305	3333.37
324.37	3149.12
324.434	2971.17
324.498	2930.63
324.562	2888.04
324.627	2831.12
324.691	2780.79
324.755	2724.8
324.82	2655.72
324.884	2588.6
324.948	2525.56
325.012	2445.68
325.077	2336.23
