Data from 20250625_urea_1M_1_MAYP1162681_07-05-06-341.txt Node
Date: Thu Jun 26 07:05:06 BST 2025
User: adleo
Spectrometer: MAYP116268
Trigger mode: 0
Integration Time (sec): 1.000000E0
Scans to average: 1
Electric dark correction enabled: true
Nonlinearity correction enabled: true
Boxcar width: 10
XAxis mode: Wavelengths
Number of Pixels in Spectrum: 2068
>>>>>Begin Spectral Data<<<<<
179.565	1123.34
179.642	1174.97
179.718	1214.83
179.795	1254.69
179.871	1286.84
179.948	1303
180.024	1319.55
180.101	1337.64
180.177	1349.79
180.254	1368.55
180.33	1388.7
180.407	1434.98
180.483	1521.16
180.56	1603.88
180.636	1683.3
180.712	1668.47
180.789	1678.4
180.865	1689.04
180.942	1698.68
181.018	1711.61
181.095	1723.49
181.171	1724.39
181.248	1725.01
181.324	1737.22
181.4	1740.08
181.477	1747.87
181.553	1758.65
181.63	1780.18
181.706	1797.58
181.782	1806.18
181.859	1806.7
181.935	1812.45
182.011	1810.31
182.088	1826.19
182.164	1844.45
182.24	1854.38
182.317	1864.64
182.393	1862.17
182.469	1875.1
182.546	1887.36
182.622	1888.65
182.698	1886.75
182.775	1898.68
182.851	1910.61
182.927	1905.95
183.003	1901.77
183.08	1894.73
183.156	1906.86
183.232	1905
183.308	1893.59
183.385	1901.67
183.461	1917.69
183.537	1918.5
183.613	1928.63
183.69	1922.88
183.766	1912.08
183.842	1919.12
183.918	1923.68
183.995	1936.52
184.071	1940.99
184.147	1933
184.223	1923.54
184.299	1935.05
184.375	1925.4
184.452	1932.96
184.528	1984.09
184.604	1995.83
184.68	2009.28
184.756	2012.52
184.832	2013.89
184.908	2019.74
184.985	2021.45
185.061	2008.24
185.137	2015.7
185.213	2005.01
185.289	2005.91
185.365	1999.73
185.441	2000.78
185.517	2015.24
185.593	2012.34
185.669	2007.2
185.745	2016.28
185.822	2032.2
185.898	2023.22
185.974	2031.87
186.05	2023.64
186.126	1985.35
186.202	1976.46
186.278	1972.71
186.354	1965.67
186.43	1971.14
186.506	1970.09
186.582	1966.05
186.658	1972.42
186.734	1954.83
186.81	1957.54
186.886	1960.96
186.962	1972.47
187.038	1969.85
187.114	1958.01
187.19	1963.81
187.266	1957.58
187.341	1960.01
187.417	1952.59
187.493	1951.02
187.569	1953.73
187.645	1948.98
187.721	1938.99
187.797	1946.74
187.873	1951.64
187.949	1945.46
188.025	1940.8
188.101	1943.84
188.176	1947.64
188.252	1943.22
188.328	1949.45
188.404	1948.97
188.48	1944.93
188.556	1935.61
188.632	1934.38
188.707	1934.38
188.783	1931.62
188.859	1928.2
188.935	1920.68
189.011	1928.24
189.086	1924.3
189.162	1918.35
189.238	1918.83
189.314	1916.97
189.39	1913.84
189.465	1907.7
189.541	1924.01
189.617	1911.18
189.693	1906.37
189.768	1909.56
189.844	1932.49
189.92	1924.83
189.996	1933.87
190.071	1941.43
190.147	1944.23
190.223	1950.84
190.298	1947.7
190.374	1933.87
190.45	1943.19
190.526	1947.66
190.601	1941
190.677	1943.23
190.753	1965.97
190.828	1966.16
190.904	1979.43
190.98	1993.37
191.055	2001.55
191.131	1993.27
191.207	2011.01
191.282	2017.09
191.358	2008.3
191.433	1995.97
191.509	2008.38
191.585	2005.1
191.66	2008.81
191.736	2014.32
191.811	2006.09
191.887	2020.08
191.963	2046.52
192.038	2051.8
192.114	2053.13
192.189	2059.12
192.265	2056.22
192.34	2035.15
192.416	2035.43
192.491	2030.2
192.567	2032.2
192.642	2035.38
192.718	2033.72
192.793	2023.54
192.869	2019.26
192.944	2021.55
193.02	2027.16
193.095	2029.73
193.171	2032.53
193.246	2031.82
193.322	2032.2
193.397	2033.53
193.473	2021.54
193.548	2004.08
193.624	2009.75
193.699	2008.75
193.775	2024.49
193.85	2025.06
193.925	2033.67
194.001	2031.82
194.076	2026.06
194.152	2013.32
194.227	2006.61
194.302	1999.81
194.378	2003
194.453	2001.1
194.529	2015.13
194.604	2000.34
194.679	1993.54
194.755	1978.04
194.83	1989.56
194.905	1986.75
194.981	1994.07
195.056	1987.56
195.131	1993.74
195.207	1991.51
195.282	1982.81
195.357	1964.63
195.433	1979.42
195.508	1969.63
195.583	1980.89
195.659	1995.92
195.734	2005.25
195.809	2003.87
195.884	2009.81
195.96	2008.53
196.035	2025.45
196.11	2023.74
196.185	2035.34
196.261	2040.34
196.336	2071.87
196.411	2055.31
196.486	2057.12
196.561	2053.79
196.637	2061.3
196.712	2075.95
196.787	2077.86
196.862	2092.31
196.937	2099.45
197.013	2105.25
197.088	2113.15
197.163	2130.23
197.238	2146.99
197.313	2145.27
197.388	2161.83
197.464	2190.09
197.539	2202.75
197.614	2194.9
197.689	2204.7
197.764	2219.64
197.839	2241.34
197.914	2234.49
197.989	2256.85
198.065	2272.45
198.14	2315.88
198.215	2338.67
198.29	2347.15
198.365	2361.52
198.44	2372.09
198.515	2400.17
198.59	2414.88
198.665	2441.3
198.74	2447.4
198.815	2445.06
198.89	2467.67
198.965	2493.44
199.04	2492.01
199.115	2506.25
199.19	2547.81
199.265	2551.81
199.34	2564
199.415	2593.16
199.49	2617.11
199.565	2628.64
199.64	2647.87
199.715	2647.21
199.79	2654.73
199.865	2662.07
199.94	2658.02
200.015	2685.22
200.09	2690.99
200.165	2694.61
200.24	2702.04
200.315	2741.38
200.39	2758.34
200.464	2763.72
200.539	2763.53
200.614	2777.15
200.689	2798.6
200.764	2801.98
200.839	2817.98
200.914	2821.8
200.989	2814.17
201.063	2825.61
201.138	2805.32
201.213	2809.28
201.288	2790.55
201.363	2795.17
201.438	2796.03
201.512	2811.18
201.587	2797.64
201.662	2801.17
201.737	2814.46
201.812	2822.66
201.886	2788.04
201.961	2795.62
202.036	2785.95
202.111	2781.52
202.186	2754.24
202.26	2736.51
202.335	2716.64
202.41	2711.02
202.485	2695.73
202.559	2675.58
202.634	2646.23
202.709	2659.18
202.784	2640.99
202.858	2642.8
202.933	2627.08
203.008	2622.55
203.082	2605.7
203.157	2605.27
203.232	2565.46
203.306	2544.5
203.381	2512.39
203.456	2494.25
203.53	2471.09
203.605	2452.58
203.68	2432.76
203.754	2425.77
203.829	2411.68
203.904	2394.02
203.978	2381.35
204.053	2386.45
204.127	2375.59
204.202	2377.21
204.277	2358.98
204.351	2351.22
204.426	2342.56
204.5	2334.61
204.575	2299.68
204.65	2305.06
204.724	2296.54
204.799	2302.53
204.873	2296.77
204.948	2294.91
205.022	2282.3
205.097	2277.35
205.171	2289.06
205.246	2296.06
205.32	2296.15
205.395	2296.82
205.469	2290.73
205.544	2296.82
205.618	2276.36
205.693	2287.35
205.767	2274.08
205.842	2295.12
205.916	2292.5
205.991	2284.22
206.065	2290.31
206.14	2305.91
206.214	2307.24
206.289	2301.25
206.363	2312.71
206.438	2317.33
206.512	2324.66
206.586	2344.46
206.661	2351.79
206.735	2330.77
206.81	2333.1
206.884	2350.51
206.958	2339.62
207.033	2352.46
207.107	2358.37
207.181	2388.79
207.256	2381.13
207.33	2400.21
207.405	2409.26
207.479	2423.83
207.553	2431.54
207.628	2416.03
207.702	2425.97
207.776	2418.31
207.851	2422.69
207.925	2437.83
207.999	2436.07
208.073	2434.74
208.148	2434.98
208.222	2423.74
208.296	2455.39
208.371	2470.78
208.445	2477.58
208.519	2504.29
208.593	2515.86
208.668	2512.81
208.742	2518.62
208.816	2522.1
208.89	2533.96
208.965	2534.05
209.039	2544.3
209.113	2560.68
209.187	2582.52
209.261	2581.24
209.336	2602.29
209.41	2622.58
209.484	2624.34
209.558	2650.69
209.632	2664.07
209.707	2678.79
209.781	2704.18
209.855	2721.33
209.929	2741.08
210.003	2756.95
210.077	2764.47
210.151	2817.32
210.226	2854.07
210.3	2886.32
210.374	2917.34
210.448	2933.3
210.522	2954.28
210.596	2973.07
210.67	2993.14
210.744	3051.85
210.818	3096.7
210.892	3129.04
210.966	3142.63
211.041	3173.96
211.115	3188.6
211.189	3236.97
211.263	3277.33
211.337	3307.14
211.411	3346.66
211.485	3366.18
211.559	3408.18
211.633	3437.51
211.707	3441.76
211.781	3485.85
211.855	3491.73
211.929	3522.27
212.003	3552
212.077	3606.22
212.151	3666.4
212.225	3725.25
212.299	3760.92
212.373	3802.47
212.447	3849.64
212.52	3932.23
212.594	3996.19
212.668	4067.07
212.742	4114.93
212.816	4173.02
212.89	4235.42
212.964	4307.09
213.038	4384.65
213.112	4465.29
213.186	4558.18
213.26	4615.58
213.333	4654.44
213.407	4741.29
213.481	4829.19
213.555	4923.48
213.629	5003.2
213.703	5081.58
213.777	5172.58
213.85	5252.37
213.924	5382.81
213.998	5485.83
214.072	5576.66
214.146	5671.86
214.219	5772.14
214.293	5875.58
214.367	5988.18
214.441	6106.74
214.515	6203.02
214.588	6294.31
214.662	6377.3
214.736	6467.44
214.81	6589.82
214.883	6711.11
214.957	6812.18
215.031	6922.96
215.105	7018.24
215.178	7120.68
215.252	7231.49
215.326	7324.34
215.4	7421.9
215.473	7493.59
215.547	7597.93
215.621	7709.56
215.694	7829.8
215.768	7930.94
215.842	8034.3
215.915	8136.1
215.989	8231.12
216.063	8340.64
216.136	8456.84
216.21	8575.69
216.284	8710.64
216.357	8832.89
216.431	8951.16
216.504	9077.71
216.578	9217.38
216.652	9348.56
216.725	9474.92
216.799	9599.51
216.873	9719.31
216.946	9846.74
217.02	9961.55
217.093	10077.49
217.167	10167.52
217.24	10267.2
217.314	10376.5
217.387	10484.7
217.461	10588.38
217.535	10710.08
217.608	10813.29
217.682	10928.03
217.755	11049.41
217.829	11145.21
217.902	11247.72
217.976	11349.88
218.049	11450.27
218.123	11536.78
218.196	11647.78
218.27	11737.28
218.343	11820.91
218.417	11925.55
218.49	12027.01
218.563	12147.32
218.637	12253.61
218.71	12371.46
218.784	12472.93
218.857	12583.22
218.931	12689.7
219.004	12787.79
219.077	12894.33
219.151	13002.88
219.224	13088.16
219.298	13177.24
219.371	13287.78
219.444	13366.31
219.518	13462.48
219.591	13558.99
219.665	13679.93
219.738	13761.02
219.811	13842.24
219.885	13948.63
219.958	14048.85
220.031	14124.1
220.105	14209.23
220.178	14289.83
220.251	14369.28
220.325	14471.28
220.398	14557.66
220.471	14642.93
220.544	14743.29
220.618	14813.33
220.691	14886.41
220.764	14962.72
220.838	15039.51
220.911	15101.64
220.984	15210.34
221.057	15294.06
221.131	15371.81
221.204	15402.47
221.277	15490.54
221.35	15593.3
221.424	15648.83
221.497	15718.19
221.57	15792.22
221.643	15857.58
221.716	15927.62
221.79	15989.7
221.863	16042.57
221.936	16098.87
222.009	16153.09
222.082	16215.41
222.155	16259.66
222.229	16333.4
222.302	16398.9
222.375	16453.07
222.448	16519.54
222.521	16563.68
222.594	16613.23
222.667	16647.21
222.74	16722.4
222.814	16762.69
222.887	16803.99
222.96	16860.38
223.033	16918.4
223.106	16963.9
223.179	17019.13
223.252	17060.48
223.325	17105.78
223.398	17146.99
223.471	17196.87
223.544	17242.8
223.617	17276.49
223.69	17331.86
223.763	17351.24
223.837	17401.5
223.91	17453.02
223.983	17477.55
224.056	17496.87
224.129	17535.09
224.202	17587.09
224.275	17615.09
224.348	17646.22
224.42	17666.75
224.493	17688.05
224.566	17698.95
224.639	17753.31
224.712	17765.4
224.785	17795.38
224.858	17820.58
224.931	17841.4
225.004	17854.85
225.077	17886.99
225.15	17885.25
225.223	17905.74
225.296	17957.97
225.369	17962.17
225.442	17977.73
225.514	18001.2
225.587	18038.74
225.66	18067.9
225.733	18097.29
225.806	18126.88
225.879	18151.03
225.952	18176.42
226.025	18217
226.097	18254.15
226.17	18268.56
226.243	18275.84
226.316	18294.35
226.389	18321.09
226.461	18348.17
226.534	18375.74
226.607	18385.04
226.68	18424.7
226.753	18447.83
226.825	18441.04
226.898	18473.47
226.971	18491.93
227.044	18516.21
227.117	18537.85
227.189	18554.38
227.262	18573.17
227.335	18584.6
227.407	18592.21
227.48	18599.44
227.553	18610.91
227.626	18623.05
227.698	18632.35
227.771	18658.47
227.844	18666.37
227.916	18676.2
227.989	18669.7
228.062	18674.37
228.134	18709.26
228.207	18726.61
228.28	18726.56
228.352	18740.44
228.425	18753.07
228.498	18761.98
228.57	18764.83
228.643	18781.26
228.716	18792.15
228.788	18791.23
228.861	18792.39
228.934	18818.61
229.006	18827.14
229.079	18823.52
229.151	18821.64
229.224	18813.59
229.296	18817.3
229.369	18845.3
229.442	18866.02
229.514	18866.7
229.587	18877.59
229.659	18860.82
229.732	18862.6
229.804	18885.78
229.877	18914.5
229.949	18918.79
230.022	18948.24
230.094	18951.22
230.167	18958.21
230.239	18942.26
230.312	18948.19
230.384	18976.38
230.457	18974.45
230.529	18986.59
230.602	18996.28
230.674	19003.8
230.747	19020.13
230.819	19040.9
230.892	19004.33
230.964	19005.58
231.037	19020.42
231.109	19031.41
231.181	19047.27
231.254	19052.08
231.326	19041.63
231.399	19031.6
231.471	19030.25
231.544	19004.81
231.616	19011.99
231.688	19002.02
231.761	18996.47
231.833	18993
231.905	18963.08
231.978	18963.42
232.05	18945.73
232.122	18948.09
232.195	18929.54
232.267	18936.96
232.339	18924.72
232.412	18941.01
232.484	18929.54
232.556	18915.08
232.629	18929.44
232.701	18931.42
232.773	18923.27
232.846	18914.12
232.918	18903.8
232.99	18898.55
233.062	18896
233.135	18895.37
233.207	18871.33
233.279	18881.83
233.351	18872.92
233.424	18862.22
233.496	18847.18
233.568	18866.12
233.64	18839.28
233.713	18841.54
233.785	18815.62
233.857	18800.53
233.929	18776.58
234.001	18785.31
234.074	18790.37
234.146	18754.42
234.218	18736.44
234.29	18716.49
234.362	18698.28
234.434	18678.76
234.507	18659.29
234.579	18628.79
234.651	18604.26
234.723	18605.94
234.795	18596.06
234.867	18580.45
234.939	18574.72
235.012	18556.69
235.084	18543.15
235.156	18532.94
235.228	18507.78
235.3	18493.52
235.372	18482.43
235.444	18484.02
235.516	18441.66
235.588	18423.59
235.66	18398.63
235.732	18370.92
235.804	18405.67
235.876	18398.39
235.948	18388.94
236.02	18368.56
236.092	18356.03
236.164	18339.74
236.236	18312.32
236.308	18275.99
236.38	18264.61
236.452	18243.41
236.524	18232.47
236.596	18219.22
236.668	18218.93
236.74	18200.81
236.812	18187.8
236.884	18168.38
236.956	18153.1
237.028	18124.33
237.1	18096.52
237.172	18103.61
237.244	18092.86
237.316	18036.04
237.388	18011.71
237.46	17982.36
237.532	17968.19
237.604	17938.31
237.675	17921.25
237.747	17904.39
237.819	17879.76
237.891	17849.69
237.963	17818.8
238.035	17786.17
238.107	17729.79
238.178	17709.16
238.25	17683.96
238.322	17679.09
238.394	17650.51
238.466	17611.38
238.538	17593.69
238.609	17577.16
238.681	17528.15
238.753	17502.22
238.825	17471.82
238.897	17442.47
238.968	17437.6
239.04	17397.12
239.112	17403.14
239.184	17369.65
239.255	17340.1
239.327	17323.43
239.399	17310.18
239.471	17297.6
239.542	17277.79
239.614	17264.68
239.686	17216.92
239.758	17203.96
239.829	17167.96
239.901	17152.29
239.973	17136.05
240.044	17115.62
240.116	17087.52
240.188	17050.85
240.259	17024.58
240.331	17003.47
240.403	16992.14
240.474	16945.2
240.546	16911.23
240.618	16861.01
240.689	16829.29
240.761	16815.85
240.833	16795.75
240.904	16757.63
240.976	16733.1
241.048	16705.09
241.119	16689.62
241.191	16663.55
241.262	16646.73
241.334	16606.97
241.405	16573.91
241.477	16536.51
241.549	16505.85
241.62	16482.04
241.692	16472.07
241.763	16456.89
241.835	16423.53
241.906	16386.52
241.978	16350.13
242.049	16351.38
242.121	16337.4
242.192	16329.36
242.264	16277.16
242.335	16241.73
242.407	16225.44
242.478	16186.45
242.55	16168.66
242.621	16139.31
242.693	16109.91
242.764	16084.56
242.836	16058.53
242.907	16042.53
242.979	16017.13
243.05	15986.14
243.122	15954.9
243.193	15931.77
243.264	15883.33
243.336	15862.36
243.407	15857.59
243.479	15859.13
243.55	15835.95
243.622	15815.41
243.693	15786.49
243.764	15779.8
243.836	15741.09
243.907	15702.05
243.978	15678.86
244.05	15651.68
244.121	15610.47
244.192	15602.85
244.264	15556.24
244.335	15530.65
244.407	15478.35
244.478	15463.16
244.549	15445.43
244.62	15414.33
244.692	15383.29
244.763	15364.49
244.834	15330.7
244.906	15285.83
244.977	15252.67
245.048	15228.47
245.119	15186.29
245.191	15147.06
245.262	15097.84
245.333	15086.27
245.405	15066.94
245.476	15045.2
245.547	15015.37
245.618	14996.23
245.689	14966.39
245.761	14944.02
245.832	14916.21
245.903	14904.06
245.974	14876.83
246.045	14853.11
246.117	14840.48
246.188	14804.23
246.259	14771.17
246.33	14743.54
246.401	14714.96
246.473	14669.31
246.544	14641.79
246.615	14625.01
246.686	14602.6
246.757	14594.01
246.828	14556.56
246.899	14535.35
246.97	14489.46
247.042	14460.34
247.113	14437.44
247.184	14424.62
247.255	14393.63
247.326	14376.18
247.397	14350.58
247.468	14332.94
247.539	14299.43
247.61	14262.12
247.681	14245.73
247.752	14225.63
247.823	14191.16
247.894	14172.65
247.965	14135.58
248.037	14101.35
248.108	14059.46
248.179	14028.13
248.25	13997.9
248.321	13986.29
248.392	13949.94
248.463	13954.66
248.534	13929.5
248.605	13916.05
248.675	13891.13
248.746	13878.69
248.817	13848.95
248.888	13821.42
248.959	13771.87
249.03	13760.2
249.101	13741.98
249.172	13708.23
249.243	13666.34
249.314	13657.52
249.385	13637.95
249.456	13627.44
249.527	13598.08
249.598	13588.73
249.669	13573.93
249.739	13561.68
249.81	13539.41
249.881	13515.7
249.952	13485.76
250.023	13462.72
250.094	13419.38
250.165	13386.02
250.235	13358.45
250.306	13345.24
250.377	13316.27
250.448	13310.96
250.519	13264.88
250.59	13252.01
250.66	13228
250.731	13224.62
250.802	13201.73
250.873	13181.96
250.944	13164.27
251.014	13143.44
251.085	13145.18
251.156	13125.9
251.227	13112.11
251.297	13100.2
251.368	13080.15
251.439	13066.51
251.51	13054.7
251.58	13027.36
251.651	13000.13
251.722	12989.38
251.792	12950.72
251.863	12930.86
251.934	12915.91
252.005	12935.82
252.075	12919.05
252.146	12915.14
252.217	12906.8
252.287	12893.74
252.358	12869.59
252.429	12865.83
252.499	12835.94
252.57	12812.37
252.641	12798.29
252.711	12776.74
252.782	12744.59
252.852	12750.04
252.923	12726.22
252.994	12711.13
253.064	12702.36
253.135	12673.68
253.205	12644.9
253.276	12646.93
253.347	12639.94
253.417	12607.98
253.488	12569.89
253.558	12543.33
253.629	12516
253.699	12501.11
253.77	12489.59
253.841	12462.69
253.911	12450.2
253.982	12442.92
254.052	12427.84
254.123	12413.33
254.193	12396.02
254.264	12410.34
254.334	12377.61
254.405	12354.57
254.475	12317.4
254.546	12298.36
254.616	12296.72
254.687	12285.2
254.757	12267.61
254.827	12250.06
254.898	12237.62
254.968	12221.86
255.039	12196.8
255.109	12190.15
255.18	12159.59
255.25	12122.18
255.321	12115.34
255.391	12081.16
255.461	12080.53
255.532	12036.19
255.602	12013.1
255.673	11975.02
255.743	11947.69
255.813	11904.55
255.884	11893.8
255.954	11887.97
256.024	11885.17
256.095	11866.81
256.165	11830.8
256.235	11814.75
256.306	11789.83
256.376	11787.23
256.446	11774.75
256.517	11762.65
256.587	11753.06
256.657	11737.06
256.728	11715.27
256.798	11688.33
256.868	11666.45
256.938	11642.97
257.009	11636.08
257.079	11618.58
257.149	11627.12
257.219	11588.12
257.29	11584.65
257.36	11554.72
257.43	11548.31
257.5	11510.86
257.571	11490.62
257.641	11485.85
257.711	11454.81
257.781	11437.03
257.852	11416.45
257.922	11377.46
257.992	11356.15
258.062	11336.39
258.132	11323.48
258.202	11310.9
258.273	11303.96
258.343	11305.36
258.413	11274.17
258.483	11254.7
258.553	11230.95
258.623	11201.02
258.693	11194.17
258.764	11188.73
258.834	11181.69
258.904	11166.22
258.974	11142.13
259.044	11122.51
259.114	11107.96
259.184	11094.99
259.254	11078.08
259.324	11040.88
259.394	11032.2
259.464	11038.76
259.535	11016.54
259.605	11001.55
259.675	10973.89
259.745	10959.39
259.815	10931
259.885	10914.91
259.955	10923.82
260.025	10899.49
260.095	10888.65
260.165	10877.76
260.235	10882.87
260.305	10869.76
260.375	10837.23
260.445	10849.18
260.515	10851.01
260.585	10850.72
260.655	10837.52
260.725	10837.38
260.795	10833.76
260.865	10844.22
260.934	10815.35
261.004	10805.48
261.074	10791.98
261.144	10799.21
261.214	10791.31
261.284	10779.02
261.354	10770.54
261.424	10746.49
261.494	10749.96
261.564	10732.71
261.634	10722.11
261.703	10684.62
261.773	10668.77
261.843	10669.25
261.913	10645.3
261.983	10610.27
262.053	10594.61
262.123	10576.02
262.192	10549.03
262.262	10544.46
262.332	10505.28
262.402	10503.21
262.472	10495.36
262.541	10454.31
262.611	10444.15
262.681	10419.77
262.751	10405.79
262.821	10389.75
262.89	10360.84
262.96	10348.08
263.03	10352.99
263.1	10350.77
263.169	10339.31
263.239	10333.14
263.309	10335.84
263.379	10333.72
263.448	10320.95
263.518	10309.87
263.588	10301.63
263.657	10303.85
263.727	10295.71
263.797	10290.41
263.867	10273.74
263.936	10246.81
264.006	10248.93
264.076	10235.58
264.145	10223.68
264.215	10208.17
264.285	10203.21
264.354	10173.63
264.424	10154.85
264.494	10123.48
264.563	10094.19
264.633	10098.14
264.702	10082.05
264.772	10047.36
264.842	10022.65
264.911	10013.36
264.981	9985.56
265.05	9970.53
265.12	9948.47
265.19	9938.69
265.259	9932.96
265.329	9922.02
265.398	9910.75
265.468	9922.12
265.537	9896.45
265.607	9889.46
265.676	9882.72
265.746	9871.64
265.815	9871.16
265.885	9866.05
265.955	9847.85
266.024	9827.18
266.094	9792.89
266.163	9791.15
266.232	9795.54
266.302	9779.4
266.371	9770.59
266.441	9760.76
266.51	9758.55
266.58	9740.68
266.649	9716.89
266.719	9716.31
266.788	9705.81
266.858	9704.07
266.927	9669.98
266.996	9667.47
267.066	9655.48
267.135	9632.8
267.205	9630.19
267.274	9626.97
267.343	9620.18
267.413	9609.44
267.482	9616.37
267.552	9621.24
267.621	9597.98
267.69	9561.47
267.76	9551.89
267.829	9548.32
267.898	9534.55
267.968	9508.93
268.037	9511.05
268.106	9509.85
268.176	9474.83
268.245	9457.55
268.314	9438.38
268.384	9437.13
268.453	9424.7
268.522	9417.43
268.592	9419.21
268.661	9392.25
268.73	9381.56
268.799	9359.69
268.869	9362.73
268.938	9338.26
269.007	9318.76
269.076	9306.1
269.146	9306.87
269.215	9312.79
269.284	9316.98
269.353	9300.71
269.422	9285.49
269.492	9267.39
269.561	9229.07
269.63	9228.1
269.699	9212.5
269.768	9203.69
269.838	9194.21
269.907	9188.14
269.976	9164.26
270.045	9135.9
270.114	9138.5
270.183	9127.04
270.253	9119.29
270.322	9093.2
270.391	9080.34
270.46	9080.83
270.529	9078.66
270.598	9078.9
270.667	9053.62
270.736	9024.88
270.806	9020.11
270.875	9027.72
270.944	9016.36
271.013	9039.27
271.082	9033.98
271.151	9031.13
271.22	9008.37
271.289	8998.59
271.358	8987.28
271.427	8981.79
271.496	8975.97
271.565	8957.92
271.634	8948.43
271.703	8970.73
271.772	8970.77
271.841	8957.54
271.91	8939.05
271.979	8924.22
272.048	8898.71
272.117	8896.59
272.186	8885.37
272.255	8889.13
272.324	8881.43
272.393	8879.26
272.462	8855.67
272.531	8844.94
272.6	8830.74
272.669	8840.84
272.738	8828.38
272.807	8829.53
272.876	8809.95
272.945	8829.05
273.013	8836.18
273.082	8836.71
273.151	8798.92
273.22	8798.72
273.289	8789.48
273.358	8788.76
273.427	8782.75
273.496	8781.49
273.564	8781.54
273.633	8779.09
273.702	8759.06
273.771	8747.85
273.84	8740.15
273.909	8744.05
273.977	8741.69
274.046	8740.92
274.115	8740.58
274.184	8726.43
274.253	8708
274.322	8719.41
274.39	8690.62
274.459	8671.56
274.528	8651.3
274.597	8641.1
274.665	8636.38
274.734	8644.85
274.803	8643.5
274.872	8639.17
274.94	8630.46
275.009	8653.47
275.078	8645.05
275.147	8644.18
275.215	8639.42
275.284	8645.72
275.353	8635.86
275.421	8617.47
275.49	8622.58
275.559	8612.52
275.627	8610.59
275.696	8611.75
275.765	8606.02
275.833	8594.95
275.902	8600.34
275.971	8598.9
276.039	8612.38
276.108	8616.08
276.177	8614.35
276.245	8593.66
276.314	8590.05
276.383	8585.38
276.451	8550.57
276.52	8553.51
276.588	8561.35
276.657	8566.74
276.725	8560.54
276.794	8560.1
276.863	8565.78
276.931	8547.3
277	8546.77
277.068	8550.38
277.137	8563.04
277.205	8564.77
277.274	8590.37
277.342	8597.73
277.411	8588.79
277.48	8574.73
277.548	8563.66
277.617	8564.58
277.685	8564.43
277.754	8567.99
277.822	8567.85
277.89	8588.64
277.959	8578.49
278.027	8561.45
278.096	8553.75
278.164	8571.8
278.233	8562.71
278.301	8553.23
278.37	8552.46
278.438	8543.85
278.507	8547.79
278.575	8521.32
278.643	8517.62
278.712	8493.17
278.78	8478.73
278.849	8487.2
278.917	8500.05
278.985	8494.71
279.054	8494.57
279.122	8500.68
279.191	8493.94
279.259	8486.29
279.327	8456.06
279.396	8466.51
279.464	8463.57
279.532	8470.02
279.601	8468.48
279.669	8465.69
279.737	8481.76
279.806	8493.07
279.874	8502.36
279.942	8496.68
280.011	8497.02
280.079	8505.25
280.147	8522.42
280.215	8522.38
280.284	8514.73
280.352	8498.03
280.42	8502.79
280.488	8499.04
280.557	8496.68
280.625	8506.74
280.693	8507.94
280.761	8512.94
280.83	8498.8
280.898	8509.33
280.966	8488.11
281.034	8454.23
281.102	8438.26
281.171	8423.97
281.239	8426.52
281.307	8416.61
281.375	8409.39
281.443	8428.69
281.512	8422.53
281.58	8430.23
281.648	8415.17
281.716	8421.52
281.784	8420.22
281.852	8417.04
281.92	8408.09
281.989	8415.07
282.057	8396.64
282.125	8432.49
282.193	8432.54
282.261	8432.21
282.329	8426.77
282.397	8430.71
282.465	8433.31
282.533	8447.22
282.601	8444.33
282.67	8419.16
282.738	8416.8
282.806	8430.08
282.874	8426.57
282.942	8431.05
283.01	8422.29
283.078	8429.26
283.146	8422.82
283.214	8438.99
283.282	8436.19
283.35	8450.53
283.418	8446.4
283.486	8448.37
283.554	8412.66
283.622	8413.48
283.69	8415.88
283.758	8411.89
283.826	8423.97
283.894	8433.25
283.962	8457.65
284.03	8469.49
284.098	8477.86
284.165	8471.89
284.233	8463.67
284.301	8450.05
284.369	8437.01
284.437	8429.64
284.505	8422.57
284.573	8438.21
284.641	8421.03
284.709	8432.58
284.777	8415.16
284.845	8426.23
284.912	8431.09
284.98	8435.52
285.048	8429.6
285.116	8435.18
285.184	8447.4
285.252	8438.88
285.319	8422.67
285.387	8409.05
285.455	8391.44
285.523	8399.09
285.591	8391.92
285.659	8397.74
285.726	8410.78
285.794	8395.44
285.862	8395.34
285.93	8397.6
285.997	8389.13
286.065	8387.06
286.133	8375.95
286.201	8372.97
286.269	8355.88
286.336	8353.04
286.404	8349
286.472	8352.99
286.539	8330.62
286.607	8313.06
286.675	8313.49
286.743	8322.3
286.81	8314.12
286.878	8328.65
286.946	8318.35
287.013	8318.93
287.081	8315.32
287.149	8298.72
287.216	8317.05
287.284	8309.64
287.352	8311.37
287.419	8309.2
287.487	8324.7
287.555	8327.3
287.622	8325.52
287.69	8325.47
287.758	8329.22
287.825	8322.73
287.893	8315.51
287.96	8323.74
288.028	8335.48
288.096	8336.25
288.163	8335.62
288.231	8325.85
288.298	8322.2
288.366	8332.49
288.433	8329.41
288.501	8321.86
288.569	8326.09
288.636	8323.64
288.704	8337.55
288.771	8343.13
288.839	8336.06
288.906	8319.79
288.974	8329.56
289.041	8325.66
289.109	8317.97
289.176	8327.4
289.244	8331.87
289.311	8342.12
289.379	8351.02
289.446	8350.49
289.514	8358.87
289.581	8361.61
289.649	8368.01
289.716	8374.46
289.783	8365.75
289.851	8388.41
289.918	8392.98
289.986	8400.53
290.053	8404.77
290.121	8401.74
290.188	8397.21
290.255	8421.66
290.323	8422.52
290.39	8414.29
290.458	8422.86
290.525	8442.1
290.592	8431.95
290.66	8438.01
290.727	8426.37
290.794	8437.44
290.862	8439.6
290.929	8435.94
290.996	8436.38
291.064	8440.61
291.131	8451.39
291.198	8462.8
291.266	8461.16
291.333	8458.61
291.4	8464.82
291.468	8478.15
291.535	8467.85
291.602	8479.69
291.669	8471.94
291.737	8473.82
291.804	8472.9
291.871	8490.95
291.938	8487.05
292.006	8513.71
292.073	8521.37
292.14	8537.82
292.207	8532.77
292.275	8540.18
292.342	8548.27
292.409	8569.49
292.476	8595.58
292.543	8582.29
292.611	8586.91
292.678	8598.03
292.745	8623.92
292.812	8631.24
292.879	8628.01
292.946	8635.52
293.014	8644.71
293.081	8649.81
293.148	8665.84
293.215	8675.36
293.282	8665.02
293.349	8676.91
293.416	8656.3
293.484	8668.24
293.551	8677.91
293.618	8689.95
293.685	8705.25
293.752	8695.87
293.819	8700.44
293.886	8685.47
293.953	8691.39
294.02	8698.95
294.087	8711.46
294.154	8702.27
294.221	8715.17
294.288	8718.49
294.356	8738.13
294.423	8741.55
294.49	8737.6
294.557	8747.85
294.624	8746.22
294.691	8767.25
294.758	8766.33
294.825	8775.28
294.892	8767.15
294.959	8759.26
295.026	8768.02
295.093	8758.58
295.16	8766.33
295.226	8755.21
295.293	8779.47
295.36	8784.72
295.427	8796.8
295.494	8804.75
295.561	8813.46
295.628	8832.04
295.695	8842.05
295.762	8843.64
295.829	8853.22
295.896	8872.43
295.963	8880.71
296.03	8886.1
296.096	8891.35
296.163	8904.53
296.23	8921.14
296.297	8933.32
296.364	8936.54
296.431	8941.79
296.498	8944.39
296.564	8964.66
296.631	8978.57
296.698	8960.32
296.765	8976.3
296.832	8961.19
296.899	8942.61
296.965	8964.17
297.032	8941.4
297.099	8959.98
297.166	8964.75
297.233	8965.04
297.299	8952.86
297.366	8951.22
297.433	8953.44
297.5	8960.08
297.566	8961.77
297.633	8954.55
297.7	8952.81
297.767	8955.12
297.833	8957.58
297.9	8952.96
297.967	8930.58
298.033	8933.51
298.1	8959.75
298.167	8955.32
298.234	8965.19
298.3	8975.54
298.367	8968.51
298.434	8974.53
298.5	8962.92
298.567	8958.2
298.634	8955.03
298.7	8967.16
298.767	8964.41
298.834	8976.74
298.9	8971.01
298.967	8958.01
299.033	8966.39
299.1	8982.08
299.167	8993.39
299.233	8993.68
299.3	9008.22
299.366	9031.9
299.433	9047.94
299.5	9024.54
299.566	9028.44
299.633	9035.56
299.699	9044.37
299.766	9039.65
299.832	9047.21
299.899	9056.94
299.965	9070.13
300.032	9056.36
300.099	9069.22
300.165	9074.71
300.232	9071.72
300.298	9069.7
300.365	9087.75
300.431	9095.79
300.498	9091.31
300.564	9100.94
300.631	9102.92
300.697	9113.32
300.763	9108.31
300.83	9113.56
300.896	9128.92
300.963	9139.99
301.029	9144.95
301.096	9148.18
301.162	9154.1
301.229	9148.13
301.295	9132.05
301.361	9134.02
301.428	9143.6
301.494	9129.06
301.561	9134.5
301.627	9139.94
301.693	9142.11
301.76	9141.14
301.826	9130.55
301.892	9141.53
301.959	9136.23
302.025	9134.84
302.092	9123.62
302.158	9132.67
302.224	9125.93
302.291	9120.1
302.357	9112.11
302.423	9105.75
302.49	9101.23
302.556	9115.77
302.622	9103.97
302.688	9117.65
302.755	9129.2
302.821	9136.09
302.887	9150.24
302.954	9152.26
303.02	9158.76
303.086	9164.4
303.152	9161.65
303.219	9155.49
303.285	9157.66
303.351	9172.73
303.417	9171.48
303.483	9166.71
303.55	9154.05
303.616	9145.96
303.682	9143.22
303.748	9136
303.815	9150.54
303.881	9152.85
303.947	9134.26
304.013	9143.89
304.079	9135.99
304.145	9112.02
304.212	9117.22
304.278	9099.79
304.344	9090.26
304.41	9070.37
304.476	9056.51
304.542	9045.44
304.608	9049.72
304.674	9025.84
304.741	9015.87
304.807	9015.49
304.873	9022.04
304.939	9040.19
305.005	9023.67
305.071	9017.75
305.137	9016.55
305.203	8991.56
305.269	8983.09
305.335	8993.78
305.401	8986.22
305.467	8974.52
305.533	8979.14
305.599	8974.47
305.666	8984.63
305.732	8980.59
305.798	8991.03
305.864	9019.05
305.93	9029.02
305.996	9030.22
306.062	9029.79
306.128	9026.42
306.194	9017.37
306.259	9012.7
306.325	8999.46
306.391	9008.89
306.457	9011.11
306.523	9012.26
306.589	9033.11
306.655	9032.87
306.721	9015.15
306.787	9011.3
306.853	9028.15
306.919	9015.73
306.985	9006.87
307.051	8994.12
307.117	8989.35
307.183	8983.57
307.248	8952.33
307.314	8949.34
307.38	8946.17
307.446	8955.07
307.512	8937.6
307.578	8943.18
307.644	8942.41
307.709	8944.29
307.775	8935.43
307.841	8935.14
307.907	8935.24
307.973	8914.15
308.039	8908.37
308.104	8913.72
308.17	8907.75
308.236	8889.89
308.302	8898.51
308.368	8890.03
308.433	8887.39
308.499	8884.45
308.565	8872.8
308.631	8873.72
308.696	8847.2
308.762	8836.9
308.828	8834.3
308.894	8822.22
308.959	8793.87
309.025	8783.47
309.091	8775.82
309.156	8765.08
309.222	8765.8
309.288	8747.51
309.354	8732.35
309.419	8730.52
309.485	8711.17
309.551	8718.15
309.616	8705.69
309.682	8690.09
309.748	8679.46
309.813	8673.78
309.879	8661.89
309.945	8651.98
310.01	8648.61
310.076	8655.49
310.141	8646.97
310.207	8633.73
310.273	8634.65
310.338	8638.79
310.404	8619.49
310.469	8606.01
310.535	8599.71
310.601	8572.32
310.666	8573.62
310.732	8579.69
310.797	8568.09
310.863	8557.5
310.928	8545.08
310.994	8545.47
311.059	8548.16
311.125	8549.56
311.191	8559.33
311.256	8548.6
311.322	8550.86
311.387	8524.73
311.453	8827.79
311.518	8805.17
311.584	8795.83
311.649	8797.09
311.715	8791.84
311.78	8793.67
311.846	8786.64
311.911	8791.17
311.976	8795.59
312.042	8789.82
312.107	8767.06
312.173	8751.61
312.238	8748.1
312.304	8744.54
312.369	8736.41
312.434	8719.37
312.5	8707.68
312.565	8674.76
312.631	8677.7
312.696	8670.34
312.761	8679.67
312.827	8365.36
312.892	8402.07
312.958	8398.75
313.023	8396.15
313.088	8388.12
313.154	8373.64
313.219	8363.97
313.284	8351.02
313.35	8341.64
313.415	8324.03
313.48	8326.48
313.546	8332.93
313.611	8337.5
313.676	8325.33
313.741	8312.72
313.807	8319.51
313.872	8324.75
313.937	8330.91
314.003	8339.14
314.068	8335.43
314.133	8334.91
314.198	8321.77
314.264	8301.94
314.329	8296.36
314.394	8288.81
314.459	8282.7
314.525	8297.13
314.59	8289.77
314.655	8283.71
314.72	8289.34
314.785	8297.66
314.851	8279.48
314.916	8259.9
314.981	8249.12
315.046	8234.69
315.111	8223.34
315.176	8209.82
315.242	8210.1
315.307	8203.51
315.372	8181.14
315.437	8168.73
315.502	8157.52
315.567	8169.4
315.632	8152.47
315.698	8146.79
315.763	8142.56
315.828	8134.96
315.893	8131.97
315.958	8123.41
316.023	8107.54
316.088	8095.8
316.153	8064.58
316.218	8066.51
316.283	8050.49
316.348	8031.49
316.413	8032.84
316.479	8019.18
316.544	7989.42
316.609	7960.36
316.674	7926.31
316.739	7896.98
316.804	7870.92
316.869	7840.04
316.934	7804.45
316.999	7772.28
317.064	7729.58
317.129	7685.53
317.194	7652.16
317.259	7601.14
317.324	7555.72
317.389	7516.01
317.454	7478.36
317.518	7454.52
317.583	7425.58
317.648	7402.98
317.713	7370.87
317.778	7317.18
317.843	7295.21
317.908	7259.03
317.973	7219.9
318.038	7195.25
318.103	7162.96
318.168	7133.84
318.233	7103.13
318.297	7056.09
318.362	7021.54
318.427	6981.62
318.492	6956.49
318.557	6917.64
318.622	6893.18
318.687	6876.27
318.751	6843.81
318.816	6805.81
318.881	6773.29
318.946	6723.1
319.011	6683.53
319.075	6642.51
319.14	6612.22
319.205	6568.66
319.27	6541.2
319.335	6500.96
319.399	6462.31
319.464	6437.11
319.529	6387.47
319.594	6347.72
319.658	6322.14
319.723	6282.73
319.788	6257.49
319.853	6209.44
319.917	6175.04
319.982	6127.82
320.047	6090.38
320.112	6066.1
320.176	6022.78
320.241	5992.12
320.306	5967.07
320.37	5930.23
320.435	5902.74
320.5	5874.11
320.564	5841.15
320.629	5800.44
320.694	5774.2
320.758	5734.54
320.823	5694.74
320.888	5671.15
320.952	5629.92
321.017	5591.18
321.082	5554.27
321.146	5522.58
321.211	5493
321.275	5459.41
321.34	5423.66
321.405	5383.78
321.469	5343.38
321.534	5303.76
321.598	5252.35
321.663	5223.45
321.727	5192.16
321.792	5146.79
321.857	5107.12
321.921	5070.28
321.986	5034.36
322.05	4978.53
322.115	4947.31
322.179	4904.59
322.244	4850.93
322.308	4823.68
322.373	4778.97
322.437	4742.07
322.502	4714.2
322.566	4670.69
322.631	4634.51
322.695	4597.9
322.76	4555.56
322.824	4517.76
322.889	4478.11
322.953	4441.13
323.018	4374.64
323.082	4312.19
323.146	4269.11
323.211	4222.34
323.275	4179.01
323.34	4134.02
323.404	4103.67
323.468	4060.79
323.533	4018.49
323.597	3978.45
323.662	3927.27
323.726	3897.83
323.79	3856.64
323.855	3800.47
323.919	3755.9
323.983	3716.3
324.048	3654
324.112	3784.74
324.177	3666.09
324.241	3478.55
324.305	3290.47
324.37	3113.48
324.434	2941.6
324.498	2898.92
324.562	2851.27
324.627	2796.16
324.691	2745.41
324.755	2684
324.82	2615.47
324.884	2545.45
324.948	2480.94
325.012	2396.99
325.077	2279.81
