Data from 20250625_urea_1M_1_MAYP1162681_23-35-05-526.txt Node
Date: Wed Jun 25 23:35:05 BST 2025
User: adleo
Spectrometer: MAYP116268
Trigger mode: 0
Integration Time (sec): 1.000000E0
Scans to average: 1
Electric dark correction enabled: true
Nonlinearity correction enabled: true
Boxcar width: 10
XAxis mode: Wavelengths
Number of Pixels in Spectrum: 2068
>>>>>Begin Spectral Data<<<<<
179.565	1137.15
179.642	1188.68
179.718	1229.53
179.795	1268.46
179.871	1301.34
179.948	1315.45
180.024	1336.94
180.101	1359.31
180.177	1371.77
180.254	1392.35
180.33	1414.74
180.407	1464.06
180.483	1554.89
180.56	1638.94
180.636	1720.31
180.712	1708.43
180.789	1715.51
180.865	1727.62
180.942	1737.98
181.018	1750.1
181.095	1763.22
181.171	1768.3
181.248	1769.73
181.324	1787.32
181.4	1791.12
181.477	1802.38
181.553	1816.87
181.63	1837.27
181.706	1849.48
181.782	1860.13
181.859	1859.84
181.935	1864.22
182.011	1858.99
182.088	1875.44
182.164	1894.6
182.24	1906.24
182.317	1915.42
182.393	1912.99
182.469	1926.54
182.546	1936.57
182.622	1939.33
182.698	1934.67
182.775	1949.84
182.851	1964.53
182.927	1954.64
183.003	1951.26
183.08	1942.52
183.156	1952.83
183.232	1950.5
183.308	1940.47
183.385	1948.03
183.461	1965.86
183.537	1966.05
183.613	1980.93
183.69	1972.61
183.766	1962.15
183.842	1968.43
183.918	1975.94
183.995	1988.87
184.071	1993.34
184.147	1988.25
184.223	1978.03
184.299	1990.4
184.375	1976.8
184.452	1980.51
184.528	2033.21
184.604	2043.58
184.68	2054.32
184.756	2059.7
184.832	2060.27
184.908	2065.88
184.985	2065.49
185.061	2050.75
185.137	2061.55
185.213	2049.57
185.289	2049.76
185.365	2045.1
185.441	2044.86
185.517	2057.61
185.593	2052.29
185.669	2046.58
185.745	2057.61
185.822	2074.2
185.898	2065.74
185.974	2074.29
186.05	2067.16
186.126	2029.15
186.202	2021.69
186.278	2020.17
186.354	2009.51
186.43	2015.08
186.506	2015.08
186.582	2010.89
186.658	2017.65
186.734	1998.48
186.81	1999.86
186.886	2001.86
186.962	2012.94
187.038	2007.23
187.114	1998.62
187.19	2006.89
187.266	2000.9
187.341	2001.24
187.417	1993.58
187.493	1991.11
187.569	1997.15
187.645	1990.35
187.721	1978.17
187.797	1987.54
187.873	1990.68
187.949	1986.97
188.025	1982.07
188.101	1984.07
188.176	1991.01
188.252	1984.31
188.328	1990.63
188.404	1989.92
188.48	1986.16
188.556	1977.98
188.632	1978.17
188.707	1976.7
188.783	1977.12
188.859	1972.32
188.935	1961.24
189.011	1969.71
189.086	1967.66
189.162	1960.96
189.238	1962.29
189.314	1960.57
189.39	1956.2
189.465	1949.35
189.541	1965
189.617	1952.11
189.693	1947.6
189.768	1951.21
189.844	1976.14
189.92	1967.44
189.996	1977.23
190.071	1985.84
190.147	1985.51
190.223	1993.35
190.298	1987.65
190.374	1973.38
190.45	1983.6
190.526	1990.59
190.601	1985.93
190.677	1986.88
190.753	2011.53
190.828	2013.43
190.904	2026.89
190.98	2039.26
191.055	2048.82
191.131	2041.3
191.207	2061.99
191.282	2070.26
191.358	2059.23
191.433	2046.24
191.509	2062.12
191.585	2058.31
191.66	2061.12
191.736	2070.11
191.811	2064.21
191.887	2076.58
191.963	2097.22
192.038	2102.83
192.114	2103.97
192.189	2109.06
192.265	2106.78
192.34	2081.84
192.416	2081.37
192.491	2079.47
192.567	2085.89
192.642	2087.89
192.718	2090.55
192.793	2077.09
192.869	2075.71
192.944	2077.71
193.02	2086.61
193.095	2086.94
193.171	2095.31
193.246	2093.45
193.322	2089.79
193.397	2088.22
193.473	2077.28
193.548	2063.06
193.624	2069.67
193.699	2069.48
193.775	2082.09
193.85	2083.66
193.925	2093.03
194.001	2091.56
194.076	2082.04
194.152	2068.72
194.227	2061.54
194.302	2050.08
194.378	2053.65
194.453	2048.8
194.529	2064.73
194.604	2049.7
194.679	2045.66
194.755	2025.64
194.83	2039.01
194.905	2036.3
194.981	2044.91
195.056	2037.87
195.131	2042.15
195.207	2035.16
195.282	2026.26
195.357	2008.47
195.433	2023.5
195.508	2008.9
195.583	2017.32
195.659	2034.54
195.734	2043
195.809	2043.91
195.884	2051.71
195.96	2051.52
196.035	2067.64
196.11	2061.88
196.185	2072.2
196.261	2075.06
196.336	2103.12
196.411	2087.99
196.486	2092.03
196.561	2086.8
196.637	2097.59
196.712	2111.72
196.787	2118.29
196.862	2129.6
196.937	2138.64
197.013	2140.78
197.088	2153.86
197.163	2173.32
197.238	2186.65
197.313	2183.99
197.388	2200.12
197.464	2228.63
197.539	2238.24
197.614	2232.05
197.689	2244.62
197.764	2261.89
197.839	2280.74
197.914	2277.36
197.989	2300.68
198.065	2317.19
198.14	2364
198.215	2387.61
198.29	2401.89
198.365	2414.99
198.44	2425.45
198.515	2452.54
198.59	2467.87
198.665	2495.34
198.74	2504.35
198.815	2506.3
198.89	2528.48
198.965	2554.26
199.04	2550.54
199.115	2567.49
199.19	2606.54
199.265	2610.2
199.34	2619.63
199.415	2650.61
199.49	2671.51
199.565	2678.94
199.64	2700.38
199.715	2697.13
199.79	2705.42
199.865	2711.09
199.94	2706.28
200.015	2737.39
200.09	2742.11
200.165	2749.3
200.24	2752.55
200.315	2791.65
200.39	2809
200.464	2814.52
200.539	2814.62
200.614	2830.53
200.689	2855.7
200.764	2861.42
200.839	2876.38
200.914	2878.14
200.989	2871.03
201.063	2882.81
201.138	2867.76
201.213	2869.38
201.288	2851.27
201.363	2856.32
201.438	2855.75
201.512	2873.09
201.587	2856.98
201.662	2860.7
201.737	2873.8
201.812	2883.96
201.886	2850.62
201.961	2856.1
202.036	2844.33
202.111	2841.43
202.186	2811.9
202.26	2795.4
202.335	2778.48
202.41	2775.29
202.485	2760.72
202.559	2740.32
202.634	2713.69
202.709	2720.55
202.784	2697.25
202.858	2699.83
202.933	2680.44
203.008	2672.48
203.082	2655.72
203.157	2658.53
203.232	2620.91
203.306	2600.8
203.381	2567.31
203.456	2546.73
203.53	2523.57
203.605	2507.39
203.68	2486.9
203.754	2482.19
203.829	2466.33
203.904	2443.1
203.978	2430.48
204.053	2432.33
204.127	2420.62
204.202	2421.77
204.277	2408.77
204.351	2404.53
204.426	2395.87
204.5	2387.3
204.575	2356.6
204.65	2365.51
204.724	2353.22
204.799	2357.88
204.873	2354.93
204.948	2355.12
205.022	2344.18
205.097	2338.79
205.171	2352.64
205.246	2358.93
205.32	2357.41
205.395	2356.36
205.469	2346.8
205.544	2351.18
205.618	2338.09
205.693	2349.56
205.767	2337.76
205.842	2355.04
205.916	2351.04
205.991	2340.91
206.065	2345.62
206.14	2363.41
206.214	2359.84
206.289	2355.46
206.363	2368.07
206.438	2369.97
206.512	2378.59
206.586	2396.73
206.661	2404.06
206.735	2380.08
206.81	2380.75
206.884	2395.55
206.958	2381.65
207.033	2398.49
207.107	2407.73
207.181	2437.83
207.256	2432.5
207.33	2451.92
207.405	2463.26
207.479	2479.87
207.553	2486.92
207.628	2473.83
207.702	2481.59
207.776	2475.16
207.851	2481.31
207.925	2496.64
207.999	2494.26
208.073	2491.83
208.148	2492.98
208.222	2482.69
208.296	2515.24
208.371	2533.54
208.445	2543.78
208.519	2574.2
208.593	2588.11
208.668	2581.58
208.742	2584.63
208.816	2588.3
208.89	2603.97
208.965	2606.88
209.039	2616.98
209.113	2635.13
209.187	2657.69
209.261	2658.88
209.336	2682.32
209.41	2703.71
209.484	2706.57
209.558	2732.06
209.632	2751.31
209.707	2768.37
209.781	2796.1
209.855	2819.26
209.929	2839.92
210.003	2857.6
210.077	2864.94
210.151	2922.04
210.226	2967.16
210.3	3005.81
210.374	3042.36
210.448	3061.49
210.522	3085.53
210.596	3116.58
210.67	3150.44
210.744	3218.24
210.818	3272.56
210.892	3318.04
210.966	3338.07
211.041	3385.08
211.115	3414.81
211.189	3472.42
211.263	3528.85
211.337	3576.25
211.411	3632.99
211.485	3678.19
211.559	3741.57
211.633	3798.9
211.707	3824.09
211.781	3892.57
211.855	3921.49
211.929	3978.72
212.003	4030.85
212.077	4113.87
212.151	4198.57
212.225	4283.27
212.299	4354.12
212.373	4429.08
212.447	4517.01
212.52	4641.59
212.594	4737.49
212.668	4850.28
212.742	4936.05
212.816	5035.39
212.89	5142.12
212.964	5255.53
213.038	5372.4
213.112	5503.98
213.186	5645.54
213.26	5755.41
213.333	5841.8
213.407	5986.01
213.481	6132.03
213.555	6280.01
213.629	6415.07
213.703	6548.37
213.777	6698.07
213.85	6839.69
213.924	7023.94
213.998	7185.09
214.072	7341
214.146	7496.31
214.219	7655.79
214.293	7824.48
214.367	7999.83
214.441	8183.23
214.515	8344.26
214.588	8499.77
214.662	8651.07
214.736	8807.14
214.81	8990.38
214.883	9179.03
214.957	9347.23
215.031	9516.03
215.105	9676.97
215.178	9848.95
215.252	10036.98
215.326	10200.95
215.4	10355.33
215.473	10503.63
215.547	10669.09
215.621	10834.42
215.694	11023.88
215.768	11181.26
215.842	11350.55
215.915	11521.06
215.989	11670.32
216.063	11833.57
216.136	12008.47
216.21	12174.47
216.284	12355.65
216.357	12530.52
216.431	12705.4
216.504	12885.92
216.578	13083.17
216.652	13270.67
216.725	13437.32
216.799	13598.51
216.873	13760.48
216.946	13933.73
217.02	14089
217.093	14244.36
217.167	14390.62
217.24	14532.48
217.314	14688.52
217.387	14837.28
217.461	14982.85
217.535	15143.07
217.608	15295.15
217.682	15441.78
217.755	15600.51
217.829	15743.86
217.902	15883.15
217.976	16026.79
218.049	16156.78
218.123	16268.84
218.196	16402.78
218.27	16531.71
218.343	16653.55
218.417	16786.23
218.49	16915.73
218.563	17051.88
218.637	17180.95
218.71	17315.46
218.784	17442.4
218.857	17577.24
218.931	17696.86
219.004	17812.76
219.077	17935.99
219.151	18040.47
219.224	18154.15
219.298	18259.21
219.371	18381.42
219.444	18475.73
219.518	18580.4
219.591	18684.83
219.665	18817.45
219.738	18913.59
219.811	18993.63
219.885	19099.17
219.958	19206.82
220.031	19298.96
220.105	19398.62
220.178	19490.95
220.251	19570.61
220.325	19660.63
220.398	19741.98
220.471	19828.53
220.544	19904.57
220.618	19973.49
220.691	20056.42
220.764	20130.35
220.838	20209.48
220.911	20263.07
220.984	20358.2
221.057	20425.05
221.131	20490.15
221.204	20511.89
221.277	20595.07
221.35	20691.99
221.424	20743.56
221.497	20792.96
221.57	20841.92
221.643	20893.35
221.716	20949.21
221.79	20996.97
221.863	21039.28
221.936	21081.74
222.009	21124.98
222.082	21181.27
222.155	21219.78
222.229	21277.33
222.302	21308.36
222.375	21341.38
222.448	21385.87
222.521	21423.42
222.594	21455.37
222.667	21485.01
222.74	21528.68
222.814	21551.91
222.887	21579.44
222.96	21612.41
223.033	21651.16
223.106	21696.9
223.179	21726.64
223.252	21741.39
223.325	21762.6
223.398	21789.26
223.471	21819.33
223.544	21855.68
223.617	21875.3
223.69	21901.52
223.763	21916.66
223.837	21955.55
223.91	21975.99
223.983	21976.14
224.056	21976.47
224.129	21990.6
224.202	22015.57
224.275	22036.87
224.348	22022.32
224.42	22020.68
224.493	22022.32
224.566	22021.26
224.639	22029.11
224.712	22030.85
224.785	22035.43
224.858	22043.48
224.931	22038.47
225.004	22025.4
225.077	22029.64
225.15	22012.05
225.223	22008.05
225.296	22025.55
225.369	22004.58
225.442	22005.45
225.514	22022.61
225.587	22029.07
225.66	22028.78
225.733	22027.86
225.806	22025.11
225.879	22035.96
225.952	22018.12
226.025	22033.89
226.097	22050.52
226.17	22039.24
226.243	22015.72
226.316	22024.88
226.389	22025.84
226.461	22040.73
226.534	22046.9
226.607	22026.32
226.68	22036.06
226.753	22038.57
226.825	22008.15
226.898	22019.33
226.971	22004.63
227.044	21982.45
227.117	21970.93
227.189	21971.17
227.262	21967.85
227.335	21970.36
227.407	21965.39
227.48	21970.45
227.553	21960.67
227.626	21934.73
227.698	21920.75
227.771	21920.13
227.844	21883.97
227.916	21871.15
227.989	21830.23
228.062	21814.13
228.134	21827.72
228.207	21813.31
228.28	21783.28
228.352	21769.11
228.425	21748.48
228.498	21747.08
228.57	21732.19
228.643	21733.58
228.716	21716.33
228.788	21688.75
228.861	21653.18
228.934	21641.52
229.006	21619.1
229.079	21593.75
229.151	21578.13
229.224	21551.82
229.296	21534.61
229.369	21580.5
229.442	21587.25
229.514	21575.39
229.587	21577.37
229.659	21535.62
229.732	21520.01
229.804	21515.81
229.877	21517.02
229.949	21513.21
230.022	21517.12
230.094	21499.48
230.167	21487.76
230.239	21450.75
230.312	21433.25
230.384	21439.76
230.457	21427.85
230.529	21423.23
230.602	21405.59
230.674	21397.15
230.747	21399.9
230.819	21400.81
230.892	21328.8
230.964	21304.22
231.037	21289.76
231.109	21262.38
231.181	21264.31
231.254	21237.95
231.326	21221.32
231.399	21202.67
231.471	21169.22
231.544	21113.16
231.616	21104.54
231.688	21079.28
231.761	21057.26
231.833	21035.13
231.905	20999.28
231.978	20974.17
232.05	20944.38
232.122	20924.96
232.195	20885.39
232.267	20862.35
232.339	20827.55
232.412	20814.69
232.484	20791.7
232.556	20761.96
232.629	20764.28
232.701	20732.27
232.773	20714.01
232.846	20690.59
232.918	20667.89
232.99	20648.95
233.062	20639.89
233.135	20619.6
233.207	20585.38
233.279	20573.04
233.351	20558.2
233.424	20530.73
233.496	20501.81
233.568	20493.81
233.64	20458.1
233.713	20437.96
233.785	20415.5
233.857	20394.97
233.929	20354.49
234.001	20347.45
234.074	20344.41
234.146	20297.76
234.218	20285.62
234.29	20258.82
234.362	20217.52
234.434	20176.37
234.507	20139.5
234.579	20099.21
234.651	20064.42
234.723	20045.34
234.795	20028.03
234.867	19992.57
234.939	19975.07
235.012	19946.4
235.084	19923.65
235.156	19896.14
235.228	19855.27
235.3	19822.79
235.372	19797.15
235.444	19782.6
235.516	19714.07
235.588	19672.92
235.66	19633.59
235.732	19579.52
235.804	19602.12
235.876	19586.95
235.948	19559.91
236.02	19535.96
236.092	19500.44
236.164	19478.71
236.236	19440.64
236.308	19401.56
236.38	19368.11
236.452	19318.72
236.524	19286.43
236.596	19259.4
236.668	19246.1
236.74	19220.12
236.812	19187.98
236.884	19165.19
236.956	19134.73
237.028	19108.85
237.1	19082.2
237.172	19071.51
237.244	19067.8
237.316	18995.9
237.388	18959.03
237.46	18927.61
237.532	18908
237.604	18880.43
237.675	18854.07
237.747	18840.87
237.819	18803.33
237.891	18781.16
237.963	18748.44
238.035	18714.61
238.107	18659.87
238.178	18637.65
238.25	18605.61
238.322	18601.22
238.394	18548.21
238.466	18514.53
238.538	18485.18
238.609	18459.01
238.681	18411.45
238.753	18364.46
238.825	18332.9
238.897	18305.57
238.968	18293.77
239.04	18250.25
239.112	18246.49
239.184	18194.64
239.255	18151.03
239.327	18126.3
239.399	18102.74
239.471	18088.23
239.542	18072.04
239.614	18047.66
239.686	17989.15
239.758	17964.87
239.829	17920.05
239.901	17903.13
239.973	17870.7
240.044	17844.15
240.116	17804.48
240.188	17776.58
240.259	17746.85
240.331	17716.44
240.403	17692.15
240.474	17644.44
240.546	17607.52
240.618	17547.33
240.689	17521.31
240.761	17491.19
240.833	17473.26
240.904	17436.3
240.976	17401.26
241.048	17367.43
241.119	17342.37
241.191	17324.44
241.262	17310.51
241.334	17278.66
241.405	17243.28
241.477	17202.85
241.549	17176.05
241.62	17146.75
241.692	17117.06
241.763	17096.1
241.835	17061.4
241.906	17033.88
241.978	16986.02
242.049	16971.28
242.121	16956
242.192	16946.36
242.264	16900.72
242.335	16859.27
242.407	16822.88
242.478	16789.15
242.55	16763.75
242.621	16729.96
242.693	16693.48
242.764	16659.65
242.836	16629.38
242.907	16601.72
242.979	16586.15
243.05	16551.21
243.122	16535.4
243.193	16504.84
243.264	16452.45
243.336	16420.16
243.407	16395.68
243.479	16385.84
243.55	16358.85
243.622	16332.49
243.693	16296.49
243.764	16288.82
243.836	16243.85
243.907	16221.83
243.978	16191.46
244.05	16161.05
244.121	16117.72
244.192	16096.32
244.264	16060.51
244.335	16026.48
244.407	15981.75
244.478	15952.69
244.549	15919.09
244.62	15866.17
244.692	15832.33
244.763	15812.09
244.834	15773.82
244.906	15736.65
244.977	15716.6
245.048	15708.07
245.119	15672.02
245.191	15636.49
245.262	15583.28
245.333	15575.95
245.405	15546.65
245.476	15524.57
245.547	15501.82
245.618	15480.56
245.689	15448.17
245.761	15412.79
245.832	15385.08
245.903	15383.1
245.974	15357.22
246.045	15339.82
246.117	15334.08
246.188	15299.95
246.259	15268.81
246.33	15252.81
246.401	15216.76
246.473	15167.44
246.544	15124.55
246.615	15106.42
246.686	15071.14
246.757	15058.56
246.828	15015.36
246.899	15004.04
246.97	14956.27
247.042	14920.64
247.113	14904.5
247.184	14894.66
247.255	14871.48
247.326	14845.25
247.397	14804.96
247.468	14779.55
247.539	14742.53
247.61	14697.99
247.681	14686.04
247.752	14671.38
247.823	14633.25
247.894	14609.39
247.965	14576.52
248.037	14545.23
248.108	14507.58
248.179	14483.38
248.25	14453.83
248.321	14442.65
248.392	14399.56
248.463	14406.16
248.534	14375.02
248.605	14349.47
248.675	14320.64
248.746	14294.85
248.817	14265.79
248.888	14246.7
248.959	14209.1
249.03	14191.36
249.101	14172.56
249.172	14132.74
249.243	14085.25
249.314	14077.06
249.385	14054.21
249.456	14043.03
249.527	14015.31
249.598	13996.46
249.669	13975.59
249.739	13958.76
249.81	13933.4
249.881	13896.96
249.952	13864.47
250.023	13843.64
250.094	13806.38
250.165	13772.3
250.235	13752.05
250.306	13737.3
250.377	13707.46
250.448	13690.49
250.519	13651.35
250.59	13647.01
250.66	13628.79
250.731	13622.76
250.802	13602.03
250.873	13584.92
250.944	13561.97
251.014	13536.38
251.085	13534.83
251.156	13516.56
251.227	13503.89
251.297	13495.21
251.368	13494.87
251.439	13483.88
251.51	13475.11
251.58	13451.24
251.651	13431.58
251.722	13425.21
251.792	13387.32
251.863	13354.93
251.934	13341.24
252.005	13349.96
252.075	13325.23
252.146	13315.3
252.217	13309.47
252.287	13296.45
252.358	13284.59
252.429	13284.06
252.499	13253.55
252.57	13236.92
252.641	13226.55
252.711	13201.53
252.782	13166.3
252.852	13159.4
252.923	13139.54
252.994	13122.04
253.064	13116.84
253.135	13087.86
253.205	13057.88
253.276	13057.35
253.347	13057.73
253.417	13029.39
253.488	13001.67
253.558	12973.42
253.629	12949.9
253.699	12925.99
253.77	12912.59
253.841	12882.17
253.911	12861.44
253.982	12850.79
254.052	12834.25
254.123	12815.31
254.193	12802.19
254.264	12818.54
254.334	12789.08
254.405	12756.3
254.475	12722.22
254.546	12693.88
254.616	12689.15
254.687	12672.67
254.757	12655.51
254.827	12635.55
254.898	12630.39
254.968	12613.76
255.039	12590.86
255.109	12577.56
255.18	12552.97
255.25	12509.11
255.321	12500.91
255.391	12463.36
255.461	12470.74
255.532	12418.73
255.602	12391.2
255.673	12354.08
255.743	12334.8
255.813	12290.12
255.884	12281.63
255.954	12272.91
256.024	12274.6
256.095	12256.62
256.165	12222.63
256.235	12207.98
256.306	12186
256.376	12169.61
256.446	12157.03
256.517	12146.28
256.587	12147.68
256.657	12133.31
256.728	12121.26
256.798	12101.4
256.868	12087.52
256.938	12050.5
257.009	12050.17
257.079	12039.56
257.149	12044.91
257.219	11998.73
257.29	11990.3
257.36	11959.21
257.43	11947.5
257.5	11905.37
257.571	11883.44
257.641	11882.19
257.711	11850.23
257.781	11839.05
257.852	11831.48
257.922	11796.44
257.992	11772.48
258.062	11735.85
258.132	11727.51
258.202	11709.24
258.273	11687.99
258.343	11686.64
258.413	11668.23
258.483	11647.84
258.553	11625.04
258.623	11594.15
258.693	11586.68
258.764	11588.27
258.834	11579.54
258.904	11570.24
258.974	11548.41
259.044	11530.09
259.114	11515.49
259.184	11505.71
259.254	11486.72
259.324	11443.97
259.394	11430.71
259.464	11438.52
259.535	11419.96
259.605	11403.77
259.675	11375.14
259.745	11365.22
259.815	11336.83
259.885	11308.68
259.955	11321.07
260.025	11297.84
260.095	11283.72
260.165	11264.88
260.235	11266.32
260.305	11247.14
260.375	11220.39
260.445	11226.37
260.515	11223.72
260.585	11215.77
260.655	11203.82
260.725	11191.57
260.795	11190.22
260.865	11193.79
260.934	11160.1
261.004	11157.21
261.074	11138.51
261.144	11141.6
261.214	11140.15
261.284	11128.39
261.354	11129.79
261.424	11100.25
261.494	11105.4
261.564	11090.03
261.634	11086.66
261.703	11042.66
261.773	11026.03
261.843	11013.74
261.913	11000.01
261.983	10965.17
262.053	10953.84
262.123	10935.63
262.192	10912.79
262.262	10903.73
262.332	10871.35
262.402	10867.15
262.472	10853.81
262.541	10814.39
262.611	10804.46
262.681	10778.3
262.751	10766.44
262.821	10752.18
262.89	10725
262.96	10712.57
263.03	10720.76
263.1	10708.14
263.169	10699.13
263.239	10695.95
263.309	10701.1
263.379	10684.33
263.448	10676.19
263.518	10661.98
263.588	10648.15
263.657	10647.33
263.727	10642.94
263.797	10631.91
263.867	10614.27
263.936	10586.38
264.006	10588.3
264.076	10578.14
264.145	10554.77
264.215	10535.93
264.285	10523.84
264.354	10494.31
264.424	10470.36
264.494	10441.5
264.563	10420.83
264.633	10425.55
264.702	10417.07
264.772	10379.49
264.842	10363.15
264.911	10354.24
264.981	10327.84
265.05	10311.7
265.12	10296.52
265.19	10278.89
265.259	10273.97
265.329	10259.18
265.398	10244.73
265.468	10252.25
265.537	10232.3
265.607	10231.58
265.676	10230.47
265.746	10222.81
265.815	10220.79
265.885	10207.68
265.955	10179.7
266.024	10160.71
266.094	10123.04
266.163	10121.26
266.232	10125.69
266.302	10116.25
266.371	10106.13
266.441	10089.61
266.51	10085.66
266.58	10067.84
266.649	10045.97
266.719	10045.77
266.788	10040.81
266.858	10046.3
266.927	10013.59
266.996	10004.06
267.066	9991.34
267.135	9961.09
267.205	9952.32
267.274	9946.73
267.343	9946.2
267.413	9936.14
267.482	9937.92
267.552	9940.52
267.621	9907.38
267.69	9874.96
267.76	9860.85
267.829	9854.54
267.898	9846.35
267.968	9824.82
268.037	9818.47
268.106	9817.55
268.176	9789.56
268.245	9781.95
268.314	9764.71
268.384	9761.05
268.453	9751.75
268.522	9742.41
268.592	9750.4
268.661	9733.69
268.73	9727.38
268.799	9703.44
268.869	9712.35
268.938	9687.36
269.007	9665.35
269.076	9652.68
269.146	9652.54
269.215	9648.83
269.284	9648.11
269.353	9631.49
269.422	9617.05
269.492	9599.04
269.561	9560.51
269.63	9557.76
269.699	9535.47
269.768	9525.35
269.838	9521.93
269.907	9512.93
269.976	9493.33
270.045	9462.84
270.114	9454.51
270.183	9441.94
270.253	9439.05
270.322	9406.12
270.391	9394.56
270.46	9404.77
270.529	9405.54
270.598	9403.13
270.667	9389.89
270.736	9366.15
270.806	9361.04
270.875	9364.08
270.944	9349.68
271.013	9368.7
271.082	9361.67
271.151	9355.02
271.22	9327.34
271.289	9308.32
271.358	9297.77
271.427	9289.49
271.496	9274.37
271.565	9257.19
271.634	9247.89
271.703	9246.5
271.772	9248.95
271.841	9233.3
271.91	9203.45
271.979	9192.67
272.048	9165.46
272.117	9166.09
272.186	9153.71
272.255	9153.81
272.324	9146.06
272.393	9144.71
272.462	9123.72
272.531	9109.51
272.6	9103.64
272.669	9110.18
272.738	9101.04
272.807	9092.42
272.876	9079.81
272.945	9108.89
273.013	9114.52
273.082	9114.71
273.151	9094.97
273.22	9089.48
273.289	9085.25
273.358	9097.77
273.427	9092.13
273.496	9093.62
273.564	9085.73
273.633	9085.97
273.702	9072.25
273.771	9061.42
273.84	9059.11
273.909	9063.44
273.977	9059.01
274.046	9043.07
274.115	9046.35
274.184	9036.53
274.253	9027.24
274.322	9028.01
274.39	8998.45
274.459	8986.46
274.528	8958.49
274.597	8949.58
274.665	8945.88
274.734	8948.91
274.803	8936.39
274.872	8926.67
274.94	8915.07
275.009	8964.48
275.078	8951.19
275.147	8944.31
275.215	8941.37
275.284	8944.94
275.353	8932.56
275.421	8909.99
275.49	8926.02
275.559	8910.18
275.627	8897.96
275.696	8889.82
275.765	8889.25
275.833	8878.27
275.902	8872.11
275.971	8880.58
276.039	8893.96
276.108	8897.04
276.177	8892.18
276.245	8882.85
276.314	8878.95
276.383	8878.95
276.451	8821.25
276.52	8822.26
276.588	8833.53
276.657	8838.87
276.725	8828.04
276.794	8827.08
276.863	8841.85
276.931	8822.07
277	8833.57
277.068	8844.74
277.137	8863.22
277.205	8863.61
277.274	8879.16
277.342	8890.32
277.411	8873.19
277.48	8859.18
277.548	8847.44
277.617	8852.97
277.685	8847.97
277.754	8851.91
277.822	8848.21
277.89	8857.88
277.959	8848.69
278.027	8828.14
278.096	8814.85
278.164	8839.55
278.233	8828.67
278.301	8811.59
278.37	8818.61
278.438	8804.75
278.507	8804.08
278.575	8779.38
278.643	8768.6
278.712	8744.68
278.78	8733.27
278.849	8747.9
278.917	8758.06
278.985	8752.67
279.054	8755.27
279.122	8764.03
279.191	8760.95
279.259	8758.16
279.327	8731.92
279.396	8747.81
279.464	8749.01
279.532	8756.37
279.601	8749.39
279.669	8746.17
279.737	8765.85
279.806	8758.73
279.874	8770.81
279.942	8768.55
280.011	8765.57
280.079	8771.34
280.147	8789.63
280.215	8791.46
280.284	8780.63
280.352	8766.67
280.42	8774.42
280.488	8760.27
280.557	8752.38
280.625	8753.92
280.693	8752.38
280.761	8763.01
280.83	8747.03
280.898	8755.46
280.966	8736.25
281.034	8702.41
281.102	8690.58
281.171	8680.52
281.239	8692.5
281.307	8680.37
281.375	8676.67
281.443	8702.42
281.512	8699.58
281.58	8704.87
281.648	8687.64
281.716	8690.24
281.784	8684.03
281.852	8676.24
281.92	8677.58
281.989	8688.89
282.057	8672.53
282.125	8697.32
282.193	8694.82
282.261	8695.06
282.329	8690.39
282.397	8694.48
282.465	8699.05
282.533	8712.86
282.601	8703.81
282.67	8680.66
282.738	8675.61
282.806	8681.38
282.874	8664.83
282.942	8667.76
283.01	8660.49
283.078	8669.78
283.146	8661.79
283.214	8668.63
283.282	8674.98
283.35	8679.17
283.418	8667.47
283.486	8669.83
283.554	8644.51
283.622	8638.54
283.69	8637.77
283.758	8628.15
283.826	8636.09
283.894	8647.78
283.962	8662.8
284.03	8671.99
284.098	8674.93
284.165	8670.26
284.233	8666.89
284.301	8659
284.369	8653.32
284.437	8643.12
284.505	8634.5
284.573	8648.75
284.641	8644.22
284.709	8645.19
284.777	8634.98
284.845	8641.48
284.912	8646.29
284.98	8648.36
285.048	8640.04
285.116	8638.5
285.184	8653.66
285.252	8642.73
285.319	8622.95
285.387	8613.28
285.455	8599.13
285.523	8604.28
285.591	8599.47
285.659	8597.16
285.726	8609.33
285.794	8593.26
285.862	8591.38
285.93	8588.35
285.997	8581.81
286.065	8576.46
286.133	8569.73
286.201	8564.91
286.269	8551.82
286.336	8547.97
286.404	8541.96
286.472	8553.12
286.539	8534.74
286.607	8516.55
286.675	8520.06
286.743	8527.67
286.81	8523.82
286.878	8530.7
286.946	8521.75
287.013	8519.82
287.081	8524.2
287.149	8509.52
287.216	8529.78
287.284	8534.55
287.352	8539.36
287.419	8534.93
287.487	8549.46
287.555	8547.97
287.622	8540.56
287.69	8544.17
287.758	8548.55
287.825	8545.42
287.893	8537.68
287.96	8546.72
288.028	8554.56
288.096	8554.81
288.163	8560.15
288.231	8550.04
288.298	8549.94
288.366	8563.28
288.433	8554.81
288.501	8534.16
288.569	8532.34
288.636	8521.6
288.704	8527.33
288.771	8528.77
288.839	8525.21
288.906	8512.17
288.974	8520.45
289.041	8527.04
289.109	8517.27
289.176	8520.69
289.244	8524.06
289.311	8533.39
289.379	8541.58
289.446	8544.99
289.514	8550.09
289.581	8546.24
289.649	8546.48
289.716	8553.46
289.783	8546.53
289.851	8566.07
289.918	8568.67
289.986	8579.98
290.053	8581.61
290.121	8579.45
290.188	8578.19
290.255	8603.85
290.323	8602.64
290.39	8595.33
290.458	8598.02
290.525	8612.6
290.592	8609.52
290.66	8609.19
290.727	8601.25
290.794	8612.85
290.862	8611.45
290.929	8606.88
290.996	8604.62
291.064	8612.99
291.131	8617.95
291.198	8622.95
291.266	8624.35
291.333	8629.35
291.4	8637.34
291.468	8656.4
291.535	8652.84
291.602	8660.11
291.669	8650.82
291.737	8652.55
291.804	8660.78
291.871	8670.31
291.938	8675.65
292.006	8702.85
292.073	8709.39
292.14	8720.99
292.207	8716.33
292.275	8719.21
292.342	8725.52
292.409	8751.94
292.476	8777.31
292.543	8769.61
292.611	8775.19
292.678	8784.48
292.745	8811.34
292.812	8815.77
292.879	8810.62
292.946	8809.75
293.014	8823.71
293.081	8830.79
293.148	8846.14
293.215	8857.89
293.282	8856.06
293.349	8866.7
293.416	8848.02
293.484	8866.93
293.551	8875.98
293.618	8891.43
293.685	8911.89
293.752	8905.69
293.819	8899.72
293.886	8893.65
293.953	8901.59
294.02	8911.41
294.087	8922
294.154	8910.59
294.221	8925.52
294.288	8923.88
294.356	8948.05
294.423	8951.13
294.49	8946.55
294.557	8958.4
294.624	8946.51
294.691	8965.09
294.758	8960.8
294.825	8967.11
294.892	8956.76
294.959	8955.41
295.026	8953.48
295.093	8947.95
295.16	8953.87
295.226	8951.36
295.293	8964.7
295.36	8967.11
295.427	8977.36
295.494	8987.71
295.561	8997.44
295.628	9016.07
295.695	9033.79
295.762	9028.3
295.829	9032.54
295.896	9043.56
295.963	9048.23
296.03	9056.99
296.096	9055.79
296.163	9066.04
296.23	9081.45
296.297	9089.63
296.364	9087.32
296.431	9098.3
296.498	9092.14
296.564	9115.77
296.631	9118.95
296.698	9105.47
296.765	9118.85
296.832	9107.3
296.899	9091.07
296.965	9110.53
297.032	9083.61
297.099	9097.19
297.166	9102.72
297.233	9098.78
297.299	9091.12
297.366	9091.03
297.433	9091.7
297.5	9103.25
297.566	9104.03
297.633	9096.37
297.7	9106.43
297.767	9106.58
297.833	9109.66
297.9	9110.19
297.967	9098.01
298.033	9112.16
298.1	9142.02
298.167	9136.72
298.234	9135.71
298.3	9143.94
298.367	9128.44
298.434	9138.79
298.5	9122.75
298.567	9125.26
298.634	9123.38
298.7	9140.33
298.767	9142.35
298.834	9160.26
298.9	9155.49
298.967	9145.43
299.033	9157.08
299.1	9170.28
299.167	9179.52
299.233	9173.36
299.3	9191.27
299.366	9197.04
299.433	9213.51
299.5	9184.96
299.566	9189.87
299.633	9207.4
299.699	9220.3
299.766	9223.48
299.832	9227.23
299.899	9238.4
299.965	9243.27
300.032	9243.99
300.099	9245.48
300.165	9248.71
300.232	9236.81
300.298	9234.7
300.365	9248.9
300.431	9252.12
300.498	9242.45
300.564	9248.56
300.631	9259.64
300.697	9270.33
300.763	9273.21
300.83	9272.73
300.896	9281.45
300.963	9290.98
301.029	9288.77
301.096	9289.25
301.162	9303.45
301.229	9293.82
301.295	9282.65
301.361	9281.4
301.428	9286.69
301.494	9275.14
301.561	9275.28
301.627	9273.17
301.693	9275.24
301.76	9278.51
301.826	9269.36
301.892	9282.65
301.959	9290.45
302.025	9283.52
302.092	9270.42
302.158	9275.96
302.224	9267.67
302.291	9262.14
302.357	9258.38
302.423	9250.87
302.49	9244.03
302.556	9246.39
302.622	9246.39
302.688	9257.71
302.755	9270.81
302.821	9269.46
302.887	9279.95
302.954	9283.47
303.02	9290.11
303.086	9295.55
303.152	9284.38
303.219	9274.85
303.285	9273.79
303.351	9283.04
303.417	9282.89
303.483	9276.83
303.55	9274.9
303.616	9273.36
303.682	9271.67
303.748	9261.03
303.815	9281.35
303.881	9287.33
303.947	9273.55
304.013	9279.24
304.079	9267.05
304.145	9244.81
304.212	9248.03
304.278	9232.77
304.344	9226.27
304.41	9216.5
304.476	9205.47
304.542	9205.14
304.608	9210.24
304.674	9193.39
304.741	9177.59
304.807	9181.78
304.873	9185.2
304.939	9194.15
305.005	9172.82
305.071	9169.07
305.137	9169.74
305.203	9142.83
305.269	9137.87
305.335	9150.05
305.401	9140.61
305.467	9136.71
305.533	9144.75
305.599	9149.04
305.666	9159.68
305.732	9152.99
305.798	9162.95
305.864	9188.62
305.93	9190.21
305.996	9186.74
306.062	9183.03
306.128	9185.1
306.194	9168.2
306.259	9166.33
306.325	9150.48
306.391	9157.85
306.457	9164.16
306.523	9166.47
306.589	9189.34
306.655	9176.82
306.721	9153.37
306.787	9142.01
306.853	9151.98
306.919	9130.75
306.985	9119.63
307.051	9111.59
307.117	9105.04
307.183	9095.36
307.248	9060.55
307.314	9069.94
307.38	9067.58
307.446	9072.83
307.512	9059.64
307.578	9063.39
307.644	9062.33
307.709	9064.02
307.775	9060.46
307.841	9050.78
307.907	9047.12
307.973	9023.82
308.039	9020.69
308.104	9024.68
308.17	9028.68
308.236	9016.3
308.302	9024.82
308.368	9012.36
308.433	9011.01
308.499	9005.33
308.565	8996.37
308.631	9005.04
308.696	8976.97
308.762	8964.17
308.828	8961.86
308.894	8936.97
308.959	8910.55
309.025	8896.54
309.091	8890.52
309.156	8882
309.222	8885.85
309.288	8865.83
309.354	8840.75
309.419	8839.98
309.485	8824.29
309.551	8826.7
309.616	8805.66
309.682	8798.06
309.748	8786.7
309.813	8781.36
309.879	8772.31
309.945	8765.47
310.01	8753.53
310.076	8753.63
310.141	8752.91
310.207	8729.03
310.273	8739.04
310.338	8747.32
310.404	8732.93
310.469	8718.49
310.535	8705.11
310.601	8676.23
310.666	8686.48
310.732	8695.29
310.797	8687.54
310.863	8679.94
310.928	8666.41
310.994	8673.72
311.059	8678.06
311.125	8685.66
311.191	8690.47
311.256	8676.76
311.322	8670.98
311.387	8647.45
311.453	8926.56
311.518	8897.69
311.584	8895.04
311.649	8889.94
311.715	8878.73
311.78	8871.17
311.846	8861.11
311.911	8865.73
311.976	8868.72
312.042	8852.4
312.107	8836.57
312.173	8819.24
312.238	8809.67
312.304	8804.23
312.369	8792.29
312.434	8772.27
312.5	8755.38
312.565	8723.43
312.631	8720.78
312.696	8713.47
312.761	8716.4
312.827	8422.04
312.892	8455.39
312.958	8449.8
313.023	8444.17
313.088	8446.19
313.154	8433.88
313.219	8423.77
313.284	8413.33
313.35	8407.8
313.415	8397.02
313.48	8395.38
313.546	8400.1
313.611	8407.46
313.676	8399.81
313.741	8392.5
313.807	8396.2
313.872	8399.18
313.937	8404.81
314.003	8416.51
314.068	8420.45
314.133	8428.44
314.198	8425.65
314.264	8406.11
314.329	8397.11
314.394	8396.01
314.459	8387.68
314.525	8403.17
314.59	8396.73
314.655	8383.16
314.72	8386.86
314.785	8387.49
314.851	8381.24
314.916	8359.68
314.981	8339.76
315.046	8330.28
315.111	8321.34
315.176	8307.38
315.242	8305.36
315.307	8299.06
315.372	8282.36
315.437	8271.82
315.502	8260.47
315.567	8261.38
315.632	8248.44
315.698	8252.19
315.763	8248.58
315.828	8236.99
315.893	8235.35
315.958	8230.01
316.023	8224.63
316.088	8209.76
316.153	8188.4
316.218	8182.73
316.283	8170.22
316.348	8158.05
316.413	8157.43
316.479	8140.79
316.544	8109.09
316.609	8084.17
316.674	8053.15
316.739	8022.95
316.804	7990.19
316.869	7957.73
316.934	7924.06
316.999	7891.74
317.064	7839.04
317.129	7796.33
317.194	7766.37
317.259	7719.62
317.324	7675.15
317.389	7635.48
317.454	7598.6
317.518	7570.43
317.583	7547.44
317.648	7520.04
317.713	7488.41
317.778	7425.96
317.843	7397.98
317.908	7367.22
317.973	7328.76
318.038	7300.36
318.103	7262.16
318.168	7235.67
318.233	7209.48
318.297	7164.26
318.362	7137.68
318.427	7103.62
318.492	7076.95
318.557	7029.15
318.622	7006.09
318.687	6983.03
318.751	6942.25
318.816	6908.38
318.881	6872.4
318.946	6815.52
319.011	6777.72
319.075	6743.76
319.14	6715.43
319.205	6671.96
319.27	6634.03
319.335	6593.79
319.399	6553.74
319.464	6529.21
319.529	6474.96
319.594	6433.28
319.658	6405.19
319.723	6362.85
319.788	6336.98
319.853	6283.6
319.917	6256.39
319.982	6204.69
320.047	6171.62
320.112	6150.65
320.176	6104.63
320.241	6072
320.306	6042.69
320.37	6008.86
320.435	5980.4
320.5	5953.97
320.564	5921.73
320.629	5888.26
320.694	5857.56
320.758	5821.49
320.823	5781.21
320.888	5757.47
320.952	5709.86
321.017	5670.92
321.082	5632.56
321.146	5600.67
321.211	5570.71
321.275	5535.68
321.34	5494.55
321.405	5454.96
321.469	5411.87
321.534	5371.33
321.598	5327.2
321.663	5300.88
321.727	5269.54
321.792	5219.7
321.857	5173.75
321.921	5137.15
321.986	5100.51
322.05	5046.01
322.115	5011.24
322.179	4966.42
322.244	4917.67
322.308	4892.87
322.373	4850.02
322.437	4812.39
322.502	4785.23
322.566	4744.93
322.631	4710.03
322.695	4671.75
322.76	4628.97
322.824	4594.27
322.889	4555.86
322.953	4511.18
323.018	4446.78
323.082	4385.7
323.146	4336.82
323.211	4291.2
323.275	4248.49
323.34	4202.87
323.404	4168.84
323.468	4126.14
323.533	4088.19
323.597	4042.79
323.662	3990.45
323.726	3956.13
323.79	3910.21
323.855	3852.79
323.919	3807.83
323.983	3763.44
324.048	3702
324.112	3858.42
324.177	3739.6
324.241	3547.66
324.305	3360.74
324.37	3176.87
324.434	2998.11
324.498	2959.83
324.562	2914.24
324.627	2858.85
324.691	2808.45
324.755	2753.75
324.82	2685.48
324.884	2616.05
324.948	2552.98
325.012	2469.21
325.077	2358.64
