Data from 20250625_urea_1M_1_MAYP1162681_01-35-05-942.txt Node
Date: Thu Jun 26 01:35:05 BST 2025
User: adleo
Spectrometer: MAYP116268
Trigger mode: 0
Integration Time (sec): 1.000000E0
Scans to average: 1
Electric dark correction enabled: true
Nonlinearity correction enabled: true
Boxcar width: 10
XAxis mode: Wavelengths
Number of Pixels in Spectrum: 2068
>>>>>Begin Spectral Data<<<<<
179.565	1110.45
179.642	1163.49
179.718	1203.69
179.795	1242.57
179.871	1272
179.948	1288.59
180.024	1308.4
180.101	1330.49
180.177	1344.16
180.254	1364.85
180.33	1385.8
180.407	1434.03
180.483	1524.25
180.56	1605.82
180.636	1685.53
180.712	1678.26
180.789	1687.76
180.865	1699.73
180.942	1705.57
181.018	1714.27
181.095	1728.95
181.171	1736.03
181.248	1736.6
181.324	1754.48
181.4	1759.32
181.477	1770.92
181.553	1784.51
181.63	1804.42
181.706	1818.64
181.782	1826.24
181.859	1826.9
181.935	1831.37
182.011	1827.71
182.088	1841.5
182.164	1859.9
182.24	1871.4
182.317	1880.09
182.393	1875.63
182.469	1886.13
182.546	1898.63
182.622	1905
182.698	1900.96
182.775	1912.94
182.851	1924.68
182.927	1914.93
183.003	1911.42
183.08	1906.38
183.156	1915.65
183.232	1912.37
183.308	1902.19
183.385	1908.23
183.461	1925.68
183.537	1925.63
183.613	1936.23
183.69	1929.86
183.766	1919.59
183.842	1924.49
183.918	1929.1
183.995	1941.65
184.071	1948.59
184.147	1944.08
184.223	1933.43
184.299	1946.18
184.375	1934.05
184.452	1942.57
184.528	1995.07
184.604	2004.06
184.68	2011.57
184.756	2016.14
184.832	2019.94
184.908	2027.02
184.985	2028.54
185.061	2010.29
185.137	2019.27
185.213	2010.19
185.289	2010.76
185.365	2005.53
185.441	2004.82
185.517	2018.62
185.593	2016.24
185.669	2014.19
185.745	2024.27
185.822	2040.86
185.898	2029.83
185.974	2035.68
186.05	2027.07
186.126	1987.45
186.202	1979.7
186.278	1977.75
186.354	1971.76
186.43	1976.85
186.506	1972.38
186.582	1968.86
186.658	1978.08
186.734	1960.25
186.81	1962.73
186.886	1963.82
186.962	1974.42
187.038	1971.95
187.114	1965.62
187.19	1973.18
187.266	1959.92
187.341	1959.54
187.417	1954.26
187.493	1957.06
187.569	1963.77
187.645	1957.26
187.721	1946.94
187.797	1957.35
187.873	1963.1
187.949	1956.3
188.025	1951.74
188.101	1954.97
188.176	1959.44
188.252	1955.73
188.328	1965.47
188.404	1962.86
188.48	1957.44
188.556	1952.59
188.632	1953.59
188.707	1953.02
188.783	1947.93
188.859	1949.16
188.935	1940.56
189.011	1946.36
189.086	1939.7
189.162	1933.04
189.238	1933.04
189.314	1933.28
189.39	1927.77
189.465	1919.54
189.541	1933.57
189.617	1920.97
189.693	1914.84
189.768	1922.21
189.844	1940.66
189.92	1930.68
189.996	1941.71
190.071	1951.93
190.147	1952.17
190.223	1958.16
190.298	1951.36
190.374	1941.85
190.45	1950.46
190.526	1956.21
190.601	1951.17
190.677	1953.88
190.753	1976.48
190.828	1978.28
190.904	1990.32
190.98	2002.54
191.055	2011.95
191.131	2004.63
191.207	2021.99
191.282	2031.78
191.358	2020.89
191.433	2009.66
191.509	2022.92
191.585	2020.97
191.66	2025.11
191.736	2032.77
191.811	2025.16
191.887	2037.1
191.963	2055.74
192.038	2060.73
192.114	2064.16
192.189	2068.58
192.265	2066.11
192.34	2046.08
192.416	2047.55
192.491	2042.75
192.567	2046.89
192.642	2052.5
192.718	2051.22
192.793	2042.04
192.869	2039.04
192.944	2041.32
193.02	2050.12
193.095	2054.17
193.171	2059.21
193.246	2058.97
193.322	2054.93
193.397	2056.16
193.473	2044.41
193.548	2028.2
193.624	2032.14
193.699	2029.01
193.775	2043.61
193.85	2043.71
193.925	2051.32
194.001	2045.56
194.076	2041.47
194.152	2031.2
194.227	2024.44
194.302	2017.12
194.378	2018.65
194.453	2015.94
194.529	2028.63
194.604	2014.03
194.679	2007.61
194.755	1988.69
194.83	1996.92
194.905	1994.07
194.981	2003.25
195.056	1998.07
195.131	2005.86
195.207	2003.44
195.282	1994.5
195.357	1973.33
195.433	1986.22
195.508	1974.95
195.583	1986.31
195.659	1999.25
195.734	2005.57
195.809	2003.43
195.884	2010.09
195.96	2008.47
196.035	2025.31
196.11	2022.98
196.185	2032.39
196.261	2035.34
196.336	2064.59
196.411	2051.65
196.486	2057.64
196.561	2051.74
196.637	2059.16
196.712	2072.67
196.787	2076.19
196.862	2089.98
196.937	2099.83
197.013	2107.58
197.088	2120.28
197.163	2139.26
197.238	2155.45
197.313	2154.88
197.388	2165.73
197.464	2194.85
197.539	2210.45
197.614	2199.46
197.689	2210.26
197.764	2225.35
197.839	2246
197.914	2240.29
197.989	2264.75
198.065	2279.02
198.14	2324.97
198.215	2347.58
198.29	2361.62
198.365	2373.43
198.44	2386.13
198.515	2415.36
198.59	2429.79
198.665	2455.12
198.74	2460.26
198.815	2458.73
198.89	2479.73
198.965	2509.35
199.04	2507.25
199.115	2519.68
199.19	2560.86
199.265	2566.05
199.34	2575.24
199.415	2601.44
199.49	2621.39
199.565	2627.72
199.64	2652.73
199.715	2651.02
199.79	2659.4
199.865	2666.12
199.94	2665.21
200.015	2690.7
200.09	2695.37
200.165	2698.56
200.24	2703.61
200.315	2745.33
200.39	2761.86
200.464	2767.87
200.539	2769.96
200.614	2786.3
200.689	2807.56
200.764	2812.32
200.839	2825.85
200.914	2833.04
200.989	2827.94
201.063	2842.05
201.138	2826.86
201.213	2826.67
201.288	2807.28
201.363	2812.42
201.438	2809.23
201.512	2823.52
201.587	2810.13
201.662	2815.46
201.737	2828.52
201.812	2835.81
201.886	2804.38
201.961	2812.73
202.036	2803.11
202.111	2799.63
202.186	2769.82
202.26	2755.42
202.335	2738.79
202.41	2732.93
202.485	2717.36
202.559	2697.49
202.634	2673.72
202.709	2682.91
202.784	2661.85
202.858	2661.52
202.933	2643.46
203.008	2638.7
203.082	2620.8
203.157	2619.03
203.232	2575.37
203.306	2558.51
203.381	2526.73
203.456	2503.31
203.53	2481
203.605	2459.92
203.68	2440.01
203.754	2435.58
203.829	2419.53
203.904	2399.25
203.978	2388.02
204.053	2393.73
204.127	2381.55
204.202	2375.69
204.277	2358.79
204.351	2351.94
204.426	2345.37
204.5	2339.61
204.575	2305.35
204.65	2317.59
204.724	2311.54
204.799	2321.24
204.873	2315.48
204.948	2314.67
205.022	2304.63
205.097	2296.97
205.171	2312.24
205.246	2320.48
205.32	2321.71
205.395	2321.52
205.469	2313.15
205.544	2319.82
205.618	2302.49
205.693	2315.58
205.767	2305.16
205.842	2324.53
205.916	2319.78
205.991	2310.54
206.065	2316.21
206.14	2331.38
206.214	2325.61
206.289	2318.66
206.363	2328.8
206.438	2331.13
206.512	2339.85
206.586	2356.6
206.661	2362.5
206.735	2343.04
206.81	2341.14
206.884	2353.51
206.958	2341.66
207.033	2357.74
207.107	2364.36
207.181	2394.5
207.256	2386.17
207.33	2403.73
207.405	2415.5
207.479	2434.73
207.553	2445.97
207.628	2428.08
207.702	2440.93
207.776	2436.78
207.851	2439.97
207.925	2457.17
207.999	2452.5
208.073	2447.55
208.148	2452.03
208.222	2443.65
208.296	2474.06
208.371	2488.73
208.445	2498.83
208.519	2526.91
208.593	2539.48
208.668	2534.01
208.742	2535.2
208.816	2541.77
208.89	2562.4
208.965	2560.87
209.039	2572.88
209.113	2588.55
209.187	2611.92
209.261	2611.3
209.336	2633.73
209.41	2657.65
209.484	2659.84
209.558	2685.85
209.632	2705.14
209.707	2720.81
209.781	2749.25
209.855	2772.37
209.929	2799.65
210.003	2815.76
210.077	2824.62
210.151	2883.54
210.226	2927.83
210.3	2966.77
210.374	3002.03
210.448	3019.2
210.522	3049.58
210.596	3074.38
210.67	3100.27
210.744	3164.72
210.818	3218.31
210.892	3259.06
210.966	3279.37
211.041	3324.89
211.115	3351.37
211.189	3408.06
211.263	3460.04
211.337	3500.65
211.411	3552.85
211.485	3584.14
211.559	3637.27
211.633	3688.29
211.707	3704.26
211.781	3762.1
211.855	3784.17
211.929	3836.66
212.003	3877.93
212.077	3947.73
212.151	4024.8
212.225	4101.91
212.299	4162.82
212.373	4229.58
212.447	4302.44
212.52	4412.95
212.594	4499.2
212.668	4601.64
212.742	4675.64
212.816	4765.7
212.89	4857.67
212.964	4962.27
213.038	5074.1
213.112	5192.12
213.186	5314.09
213.26	5410.39
213.333	5486.41
213.407	5612.08
213.481	5732.78
213.555	5871.32
213.629	5990.9
213.703	6104.1
213.777	6238.97
213.85	6361.09
213.924	6528.35
213.998	6672.37
214.072	6810.56
214.146	6942.95
214.219	7087.87
214.293	7241.57
214.367	7394.56
214.441	7557.22
214.515	7700.34
214.588	7834.65
214.662	7964.78
214.736	8106.76
214.81	8276.19
214.883	8451.94
214.957	8605.71
215.031	8759.57
215.105	8905.28
215.178	9057.39
215.252	9218.94
215.326	9361.02
215.4	9503.58
215.473	9625.04
215.547	9778.39
215.621	9924.73
215.694	10093.22
215.768	10237.79
215.842	10386.55
215.915	10533.55
215.989	10675.78
216.063	10828.43
216.136	10990.29
216.21	11149.45
216.284	11323.66
216.357	11487.61
216.431	11635.08
216.504	11801.94
216.578	11984.07
216.652	12151.41
216.725	12310.04
216.799	12473.11
216.873	12629.38
216.946	12799.38
217.02	12953.53
217.093	13102
217.167	13230.81
217.24	13362.65
217.314	13504.81
217.387	13641.71
217.461	13784.4
217.535	13939.62
217.608	14067.94
217.682	14209.9
217.755	14349.94
217.829	14477.15
217.902	14606.1
217.976	14741.6
218.049	14860.71
218.123	14980.54
218.196	15117.58
218.27	15235.82
218.343	15350.35
218.417	15483.82
218.49	15594.49
218.563	15722.94
218.637	15840.93
218.71	15981.34
218.784	16109.26
218.857	16227.3
218.931	16343.31
219.004	16449.93
219.077	16561.16
219.151	16676.4
219.224	16775.88
219.298	16887.69
219.371	17003.98
219.444	17097.96
219.518	17202.6
219.591	17304.09
219.665	17412.19
219.738	17501.92
219.811	17583.13
219.885	17686.5
219.958	17782.21
220.031	17881.78
220.105	17965.63
220.178	18049.68
220.251	18116.61
220.325	18205.67
220.398	18292.22
220.471	18384.27
220.544	18477.66
220.618	18541.9
220.691	18617.31
220.764	18692.25
220.838	18773.06
220.911	18836.34
220.984	18923.51
221.057	19001.29
221.131	19078.83
221.204	19122.92
221.277	19210.39
221.35	19308.02
221.424	19353.32
221.497	19405.75
221.57	19466.18
221.643	19538.71
221.716	19603.33
221.79	19660.39
221.863	19704.58
221.936	19764.62
222.009	19814.36
222.082	19863.08
222.155	19918.01
222.229	19976.57
222.302	20028.47
222.375	20070.73
222.448	20123.26
222.521	20163.5
222.594	20195.89
222.667	20216.08
222.74	20264.85
222.814	20289.57
222.887	20316.32
222.96	20369.47
223.033	20420.17
223.106	20450.53
223.179	20482.44
223.252	20518.15
223.325	20556.37
223.398	20594.25
223.471	20624.56
223.544	20643.69
223.617	20674.34
223.69	20708.56
223.763	20724.32
223.837	20748.27
223.91	20769.05
223.983	20772.71
224.056	20782.83
224.129	20803.41
224.202	20833.91
224.275	20855.99
224.348	20863.99
224.42	20871.31
224.493	20870.64
224.566	20877.48
224.639	20891.36
224.712	20897.72
224.785	20902.54
224.858	20916.23
224.931	20927.32
225.004	20925.53
225.077	20942.93
225.15	20926.21
225.223	20931.27
225.296	20962.36
225.369	20962.74
225.442	20958.21
225.514	20970.65
225.587	20971.22
225.66	20988.33
225.733	20993.97
225.806	21003.23
225.879	21000.96
225.952	20997.15
226.025	21007.76
226.097	21018.7
226.17	21019.42
226.243	20998.41
226.316	20997.97
226.389	21007.81
226.461	21011.23
226.534	21019.08
226.607	21012.53
226.68	21034.89
226.753	21028.96
226.825	21010.84
226.898	21022.07
226.971	21032.63
227.044	21033.78
227.117	21040.14
227.189	21041.11
227.262	21056.48
227.335	21045.06
227.407	21038.41
227.48	21039.37
227.553	21047.33
227.626	21042.02
227.698	21048.39
227.771	21058.27
227.844	21051.23
227.916	21041.11
227.989	21021.35
228.062	21014.46
228.134	21033.88
228.207	21028.67
228.28	21024.14
228.352	21009.49
228.425	21008.62
228.498	21011.37
228.57	20999.27
228.643	21008.14
228.716	20995.37
228.788	20981.2
228.861	20974.21
228.934	20989.92
229.006	20985.73
229.079	20969.15
229.151	20945.05
229.224	20914.11
229.296	20916.09
229.369	20927.99
229.442	20932.33
229.514	20918.74
229.587	20925.68
229.659	20897.63
229.732	20893.34
229.804	20891.17
229.877	20912.96
229.949	20906.84
230.022	20913.58
230.094	20901.2
230.167	20890.93
230.239	20871.22
230.312	20853.77
230.384	20866.06
230.457	20851.22
230.529	20841.97
230.602	20833.63
230.674	20832.28
230.747	20833.44
230.819	20837.39
230.892	20798.69
230.964	20792.13
231.037	20788.61
231.109	20760.76
231.181	20762.59
231.254	20738.59
231.326	20716.95
231.399	20688.32
231.471	20665.53
231.544	20616.75
231.616	20604.13
231.688	20588.41
231.761	20570.39
231.833	20552.94
231.905	20503.98
231.978	20485.09
232.05	20465.86
232.122	20450.68
232.195	20427.02
232.267	20430.68
232.339	20403.02
232.412	20404.61
232.484	20375.83
232.556	20344.56
232.629	20349.09
232.701	20333.18
232.773	20318.2
232.846	20304.7
232.918	20285.52
232.99	20264.32
233.062	20251.35
233.135	20245.14
233.207	20207.98
233.279	20195.79
233.351	20178.78
233.424	20163.6
233.496	20134.83
233.568	20136.03
233.64	20093.43
233.713	20073.48
233.785	20033.05
233.857	20008.57
233.929	19966.54
234.001	19954.59
234.074	19947.51
234.146	19906.93
234.218	19882.06
234.29	19855.27
234.362	19813.83
234.434	19773.15
234.507	19740.91
234.579	19709.25
234.651	19678.46
234.723	19674.27
234.795	19655.52
234.867	19631.52
234.939	19616.92
235.012	19602.37
235.084	19575.72
235.156	19560.92
235.228	19528.06
235.3	19497.41
235.372	19469.94
235.444	19459.58
235.516	19416.59
235.588	19395.34
235.66	19366.43
235.732	19321.51
235.804	19353.22
235.876	19345.56
235.948	19341.37
236.02	19314.24
236.092	19284.41
236.164	19251.98
236.236	19209.91
236.308	19182.44
236.38	19147.16
236.452	19112.18
236.524	19076.81
236.596	19061.29
236.668	19045.05
236.74	19014.4
236.812	19002.84
236.884	18976.52
236.956	18951.71
237.028	18910.79
237.1	18867.23
237.172	18854.22
237.244	18847.23
237.316	18774.03
237.388	18735.38
237.46	18691.38
237.532	18681.99
237.604	18655.82
237.675	18646.71
237.747	18625.07
237.819	18577.99
237.891	18557.71
237.963	18528.65
238.035	18500.74
238.107	18443.69
238.178	18430.82
238.25	18412.46
238.322	18400.27
238.394	18356.03
238.466	18312.9
238.538	18290.78
238.609	18267.94
238.681	18218.45
238.753	18180.71
238.825	18149.05
238.897	18125.82
238.968	18120.52
239.04	18077.58
239.112	18066.69
239.184	18017.88
239.255	17980.67
239.327	17956.19
239.399	17925.73
239.471	17907.13
239.542	17880.77
239.614	17861.25
239.686	17796.15
239.758	17756.92
239.829	17709.02
239.901	17693.88
239.973	17672.2
240.044	17642.27
240.116	17616.54
240.188	17583.38
240.259	17559.33
240.331	17523.43
240.403	17497.84
240.474	17444.2
240.546	17401.84
240.618	17354.32
240.689	17321.16
240.761	17298.61
240.833	17289.98
240.904	17257.74
240.976	17216.87
241.048	17195.52
241.119	17170.42
241.191	17153.69
241.262	17155.38
241.334	17122.17
241.405	17088.68
241.477	17049.3
241.549	17025.64
241.62	16988.05
241.692	16968.87
241.763	16950.79
241.835	16923.52
241.906	16899.71
241.978	16858.69
242.049	16846.31
242.121	16828.91
242.192	16814.35
242.264	16773.44
242.335	16719.99
242.407	16701.96
242.478	16664.51
242.55	16622.82
242.621	16578.1
242.693	16546.38
242.764	16500.65
242.836	16472.07
242.907	16447.58
242.979	16424.74
243.05	16397.94
243.122	16382.76
243.193	16349.26
243.264	16292.77
243.336	16256.53
243.407	16231.08
243.479	16215.66
243.55	16189.53
243.622	16159.27
243.693	16121.43
243.764	16103.89
243.836	16073.04
243.907	16040.99
243.978	16018.38
244.05	15996.07
244.121	15956.35
244.192	15933.89
244.264	15891.86
244.335	15862.22
244.407	15824.62
244.478	15802.26
244.549	15766.78
244.62	15721.62
244.692	15701.57
244.763	15683.3
244.834	15657.27
244.906	15618.47
244.977	15595.19
245.048	15580.97
245.119	15539.81
245.191	15517.2
245.262	15468.32
245.333	15454.25
245.405	15419.83
245.476	15392.5
245.547	15367.24
245.618	15346.9
245.689	15322.32
245.761	15306.7
245.832	15276.29
245.903	15256.67
245.974	15228.23
246.045	15206.1
246.117	15199.6
246.188	15151.54
246.259	15111.05
246.33	15078.17
246.401	15051.81
246.473	15011.65
246.544	14974.39
246.615	14965.76
246.686	14933.08
246.757	14932.36
246.828	14890.28
246.899	14877.84
246.97	14836.1
247.042	14802.69
247.113	14788.47
247.184	14775.65
247.255	14738.58
247.326	14716.69
247.397	14688.74
247.468	14663.86
247.539	14628.29
247.61	14580.81
247.681	14564.75
247.752	14555.45
247.823	14523.83
247.894	14499.68
247.965	14456.24
248.037	14421.63
248.108	14381.86
248.179	14348.07
248.25	14314.57
248.321	14299.34
248.392	14266.56
248.463	14264.63
248.534	14243.47
248.605	14222.54
248.675	14192.71
248.746	14170.24
248.817	14152.36
248.888	14129.56
248.959	14084.92
249.03	14068
249.101	14053.54
249.172	14025.77
249.243	13978.09
249.314	13971.2
249.385	13944.01
249.456	13935.14
249.527	13912.44
249.598	13890.45
249.669	13866.45
249.739	13844.85
249.81	13822.67
249.881	13787.68
249.952	13760.44
250.023	13733.3
250.094	13695.99
250.165	13668.32
250.235	13643.44
250.306	13610.66
250.377	13576.87
250.448	13569.11
250.519	13528.66
250.59	13517.67
250.66	13492.65
250.731	13487.74
250.802	13465.32
250.873	13446.09
250.944	13425.26
251.014	13397.73
251.085	13394.79
251.156	13378.36
251.227	13361.63
251.297	13352.08
251.368	13340.95
251.439	13330.87
251.51	13319.25
251.58	13290.81
251.651	13257.26
251.722	13251.19
251.792	13222.7
251.863	13195.22
251.934	13177.04
252.005	13191.75
252.075	13171.12
252.146	13159.55
252.217	13151.16
252.287	13130.91
252.358	13097.55
252.429	13097.84
252.499	13067.13
252.57	13049.64
252.641	13039.85
252.711	13027.41
252.782	12993.23
252.852	12993.28
252.923	12967.25
252.994	12946.14
253.064	12941.22
253.135	12918.13
253.205	12890.85
253.276	12882.02
253.347	12885.06
253.417	12862.79
253.488	12832.95
253.558	12806.77
253.629	12782.77
253.699	12763.1
253.77	12761.03
253.841	12746.81
253.911	12732.68
253.982	12722.13
254.052	12714.03
254.123	12691.37
254.193	12669.39
254.264	12691.18
254.334	12656.76
254.405	12630.25
254.475	12597.37
254.546	12578.48
254.616	12573.75
254.687	12560.35
254.757	12549.07
254.827	12522.99
254.898	12505.88
254.968	12494.65
255.039	12463.12
255.109	12454.88
255.18	12422.1
255.25	12373.75
255.321	12367.58
255.391	12338.56
255.461	12344.54
255.532	12302.27
255.602	12282.74
255.673	12244.66
255.743	12211.79
255.813	12167.73
255.884	12158.96
255.954	12156.6
256.024	12150.72
256.095	12127.1
256.165	12094.17
256.235	12083.04
256.306	12054.36
256.376	12049.54
256.446	12026.79
256.517	12022.16
256.587	12016.28
256.657	12005.24
256.728	11992.18
256.798	11969.86
256.868	11944.17
256.938	11916.41
257.009	11900.74
257.079	11893.9
257.149	11897.8
257.219	11864.3
257.29	11861.07
257.36	11823.09
257.43	11808.97
257.5	11770.31
257.571	11753.54
257.641	11746.21
257.711	11711.51
257.781	11700.43
257.852	11683.55
257.922	11647.36
257.992	11626.92
258.062	11607.98
258.132	11600.41
258.202	11575.64
258.273	11560.36
258.343	11565.66
258.413	11534.34
258.483	11519.54
258.553	11484.16
258.623	11458.14
258.693	11438.76
258.764	11435.19
258.834	11439.15
258.904	11423.1
258.974	11398.42
259.044	11376.25
259.114	11368.06
259.184	11358.23
259.254	11346.81
259.324	11313.31
259.394	11308.73
259.464	11312.59
259.535	11288.87
259.605	11268.73
259.675	11251.28
259.745	11236.1
259.815	11198.08
259.885	11181.16
259.955	11194.75
260.025	11177.21
260.095	11161.21
260.165	11155.29
260.235	11148.2
260.305	11126.61
260.375	11102.13
260.445	11107.24
260.515	11110.37
260.585	11098.75
260.655	11082.61
260.725	11076.11
260.795	11065.36
260.865	11072.73
260.934	11046.13
261.004	11041.26
261.074	11021.7
261.144	11025.75
261.214	11020.35
261.284	11002.13
261.354	10997.27
261.424	10971.63
261.494	10975.82
261.564	10961.84
261.634	10952.35
261.703	10923.48
261.773	10907.2
261.843	10898.14
261.913	10880.98
261.983	10847.16
262.053	10835.64
262.123	10823.83
262.192	10790.1
262.262	10781.48
262.332	10746.64
262.402	10723.08
262.472	10706.21
262.541	10675.66
262.611	10671.47
262.681	10649.93
262.751	10645.88
262.821	10626.03
262.89	10588.3
262.96	10572.6
263.03	10576.35
263.1	10562.57
263.169	10543.44
263.239	10536.7
263.309	10538.29
263.379	10529.66
263.448	10518.63
263.518	10505.38
263.588	10485.77
263.657	10491.46
263.727	10488.52
263.797	10475.41
263.867	10469.44
263.936	10445.64
264.006	10446.41
264.076	10421.64
264.145	10404.11
264.215	10381.56
264.285	10373.71
264.354	10346.58
264.424	10329.58
264.494	10296.43
264.563	10276.87
264.633	10284.72
264.702	10278.17
264.772	10247.24
264.842	10230.33
264.911	10225.17
264.981	10197.76
265.05	10192.56
265.12	10178.25
265.19	10168.03
265.259	10160.04
265.329	10159.36
265.398	10143.51
265.468	10155.46
265.537	10139.61
265.607	10126.65
265.676	10135.95
265.746	10128.24
265.815	10132.48
265.885	10118.18
265.955	10099.97
266.024	10075.98
266.094	10038.36
266.163	10037.93
266.232	10032.82
266.302	10016.59
266.371	10002.81
266.441	9993.8
266.51	9985.42
266.58	9967.31
266.649	9942.89
266.719	9939.66
266.788	9927.52
266.858	9933.54
266.927	9892.64
266.996	9887.87
267.066	9883.97
267.135	9850.54
267.205	9841.39
267.274	9832
267.343	9829.21
267.413	9815.14
267.482	9830.22
267.552	9836.72
267.621	9798.57
267.69	9769.29
267.76	9760.72
267.829	9754.22
267.898	9742.17
267.968	9719.54
268.037	9715.06
268.106	9711.59
268.176	9687.99
268.245	9669.45
268.314	9647.48
268.384	9647.24
268.453	9634
268.522	9626.58
268.592	9622.44
268.661	9612.13
268.73	9598.74
268.799	9578.42
268.869	9587.76
268.938	9549.47
269.007	9527.75
269.076	9522.22
269.146	9522.65
269.215	9515.72
269.284	9512.3
269.353	9500.5
269.422	9484.46
269.492	9462.94
269.561	9427.55
269.63	9422.01
269.699	9404.29
269.768	9394.75
269.838	9389.94
269.907	9382.04
269.976	9356.23
270.045	9330.23
270.114	9320.5
270.183	9308.41
270.253	9303.17
270.322	9272.83
270.391	9269.99
270.46	9273.22
270.529	9272.4
270.598	9276.2
270.667	9264.84
270.736	9248.42
270.806	9239.65
270.875	9240.09
270.944	9232.1
271.013	9252.03
271.082	9245.58
271.151	9242.98
271.22	9217.99
271.289	9202.44
271.358	9187.66
271.427	9188.04
271.496	9184.91
271.565	9166.57
271.634	9167.19
271.703	9185.35
271.772	9185.49
271.841	9163.78
271.91	9136.92
271.979	9128.64
272.048	9101.72
272.117	9096.86
272.186	9079.43
272.255	9081.69
272.324	9082.56
272.393	9077.79
272.462	9060.75
272.531	9051.79
272.6	9035.95
272.669	9043.85
272.738	9032.34
272.807	9033.26
272.876	9008.03
272.945	9030.71
273.013	9034.61
273.082	9029.22
273.151	8984.63
273.22	8982.9
273.289	8977.32
273.358	8991.95
273.427	8982.13
273.496	8987.86
273.564	8982.03
273.633	8988.15
273.702	8964.42
273.771	8954.16
273.84	8946.51
273.909	8943.43
273.977	8939.14
274.046	8932.5
274.115	8935.29
274.184	8920.42
274.253	8907.47
274.322	8918.49
274.39	8886.29
274.459	8868.43
274.528	8841.42
274.597	8835.89
274.665	8834.3
274.734	8849.46
274.803	8836.71
274.872	8830.64
274.94	8808.64
275.009	8862.24
275.078	8844.91
275.147	8842.8
275.215	8837.02
275.284	8847.03
275.353	8841.01
275.421	8815.07
275.49	8831.58
275.559	8818.34
275.627	8812.95
275.696	8806.46
275.765	8804.87
275.833	8791.92
275.902	8798.85
275.971	8808.05
276.039	8821.72
276.108	8821.81
276.177	8816.23
276.245	8809.06
276.314	8798.85
276.383	8804
276.451	8750.74
276.52	8749.97
276.588	8762.77
276.657	8766.43
276.725	8753.77
276.794	8748.62
276.863	8763.3
276.931	8739.71
277	8741.98
277.068	8750.4
277.137	8767.58
277.205	8765.42
277.274	8782.45
277.342	8787.6
277.411	8767.34
277.48	8756.76
277.548	8746.89
277.617	8742.8
277.685	8732.16
277.754	8735.48
277.822	8727.44
277.89	8729.71
277.959	8723.31
278.027	8710.6
278.096	8694.67
278.164	8719.36
278.233	8716.52
278.301	8704.3
278.37	8709.5
278.438	8695.68
278.507	8697.9
278.575	8668.59
278.643	8663.44
278.712	8644.81
278.78	8636.63
278.849	8648.32
278.917	8654.63
278.985	8650.97
279.054	8648.23
279.122	8659.1
279.191	8655.73
279.259	8652.85
279.327	8634.22
279.396	8652.75
279.464	8643.32
279.532	8648.23
279.601	8638.89
279.669	8622.91
279.737	8639.71
279.806	8640.28
279.874	8655.49
279.942	8648.99
280.011	8649.43
280.079	8652.65
280.147	8674.55
280.215	8670.75
280.284	8669.26
280.352	8659.63
280.42	8661.03
280.488	8655.06
280.557	8645.43
280.625	8653.33
280.693	8653.76
280.761	8658.72
280.83	8636.96
280.898	8649.09
280.966	8634.56
281.034	8608.56
281.102	8601.54
281.171	8585.46
281.239	8598.85
281.307	8586.91
281.375	8581.66
281.443	8601.01
281.512	8597.55
281.58	8599.81
281.648	8586.96
281.716	8583.93
281.784	8584.26
281.852	8581.33
281.92	8580.51
281.989	8595.29
282.057	8573.01
282.125	8601.16
282.193	8597.6
282.261	8597.5
282.329	8590.81
282.397	8594.62
282.465	8589.61
282.533	8603.28
282.601	8599.86
282.67	8567.18
282.738	8560.54
282.806	8571.46
282.874	8560.49
282.942	8560.59
283.01	8551.92
283.078	8557.46
283.146	8554.62
283.214	8566.41
283.282	8568.91
283.35	8576.66
283.418	8564.92
283.486	8570.74
283.554	8539.07
283.622	8535.7
283.69	8542.15
283.758	8541.33
283.826	8542.73
283.894	8554.95
283.962	8568.91
284.03	8579.11
284.098	8582.77
284.165	8575.89
284.233	8570.21
284.301	8569.58
284.369	8560
284.437	8548.17
284.505	8541.24
284.573	8555.29
284.641	8537.14
284.709	8541.57
284.777	8529.35
284.845	8540.56
284.912	8542.78
284.98	8547.78
285.048	8539.02
285.116	8536.81
285.184	8544.17
285.252	8546.58
285.319	8523.05
285.387	8519.44
285.455	8502.45
285.523	8509.81
285.591	8505.97
285.659	8507.07
285.726	8513.76
285.794	8504.86
285.862	8504.28
285.93	8504.96
285.997	8504.76
286.065	8504.24
286.133	8495.19
286.201	8493.45
286.269	8478.54
286.336	8469.15
286.404	8467.66
286.472	8479.88
286.539	8457.75
286.607	8438.36
286.675	8438.94
286.743	8454.57
286.81	8447.16
286.878	8456.35
286.946	8444.37
287.013	8445.14
287.081	8438.59
287.149	8419.3
287.216	8433.49
287.284	8427.29
287.352	8427.05
287.419	8420.31
287.487	8431.14
287.555	8430.22
287.622	8421.18
287.69	8421.08
287.758	8435.66
287.825	8427.91
287.893	8411.7
287.96	8420.36
288.028	8430.75
288.096	8433.93
288.163	8440.86
288.231	8428.3
288.298	8425.46
288.366	8443.79
288.433	8445.04
288.501	8441.34
288.569	8444.85
288.636	8439.8
288.704	8457.5
288.771	8464.29
288.839	8448.8
288.906	8439.36
288.974	8454.48
289.041	8454.77
289.109	8449.04
289.176	8451.3
289.244	8450.05
289.311	8465.93
289.379	8476.37
289.446	8476.71
289.514	8475.51
289.581	8470.16
289.649	8471.9
289.716	8480.94
289.783	8471.46
289.851	8490.47
289.918	8489.94
289.986	8498.55
290.053	8500.48
290.121	8494.46
290.188	8492.35
290.255	8526.37
290.323	8521.46
290.39	8510.97
290.458	8521.07
290.525	8530.5
290.592	8526.65
290.66	8534.55
290.727	8533.63
290.794	8546.24
290.862	8548.89
290.929	8545.23
290.996	8546.38
291.064	8549.61
291.131	8557.26
291.198	8569
291.266	8558.9
291.333	8560.29
291.4	8565.59
291.468	8581.42
291.535	8582.09
291.602	8585.17
291.669	8573.24
291.737	8576.89
291.804	8575.31
291.871	8588.2
291.938	8597.11
292.006	8626.86
292.073	8635.66
292.14	8637.15
292.207	8626.04
292.275	8627.14
292.342	8640.19
292.409	8655.3
292.476	8689.76
292.543	8678.02
292.611	8680.86
292.678	8700.5
292.745	8726.97
292.812	8739.77
292.879	8736.21
292.946	8733.18
293.014	8747.81
293.081	8760.13
293.148	8772.35
293.215	8785.2
293.282	8782.17
293.349	8787.32
293.416	8764.07
293.484	8779.62
293.551	8788.19
293.618	8806.28
293.685	8828.14
293.752	8818.8
293.819	8822.22
293.886	8802.91
293.953	8813.93
294.02	8814.75
294.087	8822.26
294.154	8810.28
294.221	8821.11
294.288	8823.47
294.356	8847.87
294.423	8854.66
294.49	8845.56
294.557	8858.22
294.624	8851.43
294.691	8865.34
294.758	8861.73
294.825	8867.27
294.892	8853.98
294.959	8852.3
295.026	8852.54
295.093	8842.77
295.16	8846.81
295.226	8846.71
295.293	8869.05
295.36	8871.22
295.427	8883.59
295.494	8889.7
295.561	8896.78
295.628	8919.99
295.695	8940.16
295.762	8941.46
295.829	8949.36
295.896	8963.94
295.963	8971.84
296.03	8980.07
296.096	8984.21
296.163	9001.97
296.23	9016.46
296.297	9029.6
296.364	9039.33
296.431	9045.87
296.498	9040
296.564	9057.14
296.631	9060.89
296.698	9046.64
296.765	9062.53
296.832	9052.85
296.899	9041.63
296.965	9064.45
297.032	9041.77
297.099	9050.83
297.166	9055.16
297.233	9049.86
297.299	9042.59
297.366	9037.88
297.433	9040.72
297.5	9052.94
297.566	9049.53
297.633	9051.07
297.7	9047.36
297.767	9038.45
297.833	9046.64
297.9	9052.85
297.967	9039.9
298.033	9046.45
298.1	9079.24
298.167	9073.27
298.234	9080.92
298.3	9084.15
298.367	9079.19
298.434	9088.38
298.5	9074.85
298.567	9067.73
298.634	9066.53
298.7	9075.53
298.767	9080.87
298.834	9095.12
298.9	9083.66
298.967	9074.95
299.033	9078.22
299.1	9100.71
299.167	9112.93
299.233	9108.7
299.3	9122.13
299.366	9142.16
299.433	9159.78
299.5	9130.36
299.566	9134.6
299.633	9148.8
299.699	9163.34
299.766	9157.22
299.832	9157.08
299.899	9159.54
299.965	9172.73
300.032	9168.11
300.099	9176.39
300.165	9176.68
300.232	9169.07
300.298	9171.96
300.365	9189.14
300.431	9190.83
300.498	9178.41
300.564	9186.4
300.631	9192.76
300.697	9207.78
300.763	9203.2
300.83	9203.69
300.896	9216.44
300.963	9223.96
301.029	9225.88
301.096	9223.52
301.162	9232.67
301.229	9225.64
301.295	9217.6
301.361	9222.13
301.428	9225.06
301.494	9208.74
301.561	9210.23
301.627	9212.93
301.693	9211.49
301.76	9209.08
301.826	9204.99
301.892	9217.84
301.959	9221.41
302.025	9219.05
302.092	9205.76
302.158	9208.64
302.224	9206.48
302.291	9198.2
302.357	9190.11
302.423	9181.73
302.49	9175.04
302.556	9180.86
302.622	9179.76
302.688	9196.13
302.755	9202.43
302.821	9208.45
302.887	9223.33
302.954	9222.27
303.02	9229.3
303.086	9239.31
303.152	9229.59
303.219	9223.76
303.285	9222.37
303.351	9227.47
303.417	9224.15
303.483	9213.08
303.55	9204.84
303.616	9199.5
303.682	9193.38
303.748	9188.23
303.815	9204.27
303.881	9216.98
303.947	9201.38
304.013	9199.16
304.079	9186.12
304.145	9164.79
304.212	9163.44
304.278	9150.73
304.344	9145.24
304.41	9128.24
304.476	9114.38
304.542	9122.85
304.608	9126.13
304.674	9113.27
304.741	9102.53
304.807	9102.05
304.873	9113.36
304.939	9131.13
305.005	9112.5
305.071	9113.7
305.137	9113.56
305.203	9084.14
305.269	9074.8
305.335	9087.12
305.401	9081.49
305.467	9074.03
305.533	9081.11
305.599	9083.71
305.666	9089.82
305.732	9088.9
305.798	9100.46
305.864	9125.93
305.93	9123.33
305.996	9123.67
306.062	9120.68
306.128	9116.73
306.194	9105.13
306.259	9098.25
306.325	9084.14
306.391	9086.26
306.457	9086.02
306.523	9087.75
306.589	9108.84
306.655	9102.96
306.721	9083.18
306.787	9070.95
306.853	9084.14
306.919	9066.96
306.985	9057.09
307.051	9051.74
307.117	9045.34
307.183	9036.72
307.248	9004.13
307.314	9008.6
307.38	9009.57
307.446	9015.3
307.512	9007.26
307.578	9014.86
307.644	9012.31
307.709	9009.18
307.775	9010.82
307.841	9009.33
307.907	9008.6
307.973	8984.15
308.039	8976.73
308.104	8981.11
308.17	8982.65
308.236	8974.04
308.302	8975.14
308.368	8966.86
308.433	8957.24
308.499	8952.13
308.565	8941.78
308.631	8943.57
308.696	8916.46
308.762	8900.05
308.828	8893.84
308.894	8876.89
308.959	8851.24
309.025	8841.28
309.091	8842.43
309.156	8830.2
309.222	8826.83
309.288	8811.43
309.354	8795.74
309.419	8795.07
309.485	8776.29
309.551	8777.59
309.616	8760.36
309.682	8762.1
309.748	8748.62
309.813	8747.51
309.879	8738.27
309.945	8724.6
310.01	8718.73
310.076	8718.15
310.141	8710.02
310.207	8693.41
310.273	8688.12
310.338	8691.58
310.404	8671.61
310.469	8655.01
310.535	8640.28
310.601	8620.4
310.666	8620.59
310.732	8626.13
310.797	8612.36
310.863	8609.96
310.928	8604.08
310.994	8603.56
311.059	8595.81
311.125	8593.69
311.191	8595.61
311.256	8583.2
311.322	8587.29
311.387	8564.82
311.453	8901.47
311.518	8878.18
311.584	8872.79
311.649	8881.31
311.715	8867.5
311.78	8864.85
311.846	8852.63
311.911	8863.46
311.976	8862.54
312.042	8849.02
312.107	8831.02
312.173	8822.56
312.238	8811.54
312.304	8806.1
312.369	8791.37
312.434	8776.45
312.5	8773.33
312.565	8748.06
312.631	8748.4
312.696	8740.65
312.761	8743.49
312.827	8394.66
312.892	8427.57
312.958	8421.51
313.023	8414.15
313.088	8415.4
313.154	8406.26
313.219	8395.29
313.284	8383.02
313.35	8382.58
313.415	8374.55
313.48	8373.78
313.546	8378.11
313.611	8391.1
313.676	8373.25
313.741	8365.79
313.807	8372.24
313.872	8369.5
313.937	8374.45
314.003	8384.94
314.068	8382.78
314.133	8385.62
314.198	8374.12
314.264	8357.18
314.329	8349.29
314.394	8343.32
314.459	8338.17
314.525	8351.79
314.59	8349.77
314.655	8335.86
314.72	8336.34
314.785	8333.94
314.851	8328.07
314.916	8307.57
314.981	8281.45
315.046	8274.47
315.111	8264.37
315.176	8247.05
315.242	8251.76
315.307	8243.54
315.372	8223.86
315.437	8216.88
315.502	8205.58
315.567	8218.47
315.632	8201.92
315.698	8208.41
315.763	8201.29
315.828	8192.35
315.893	8186.09
315.958	8175.03
316.023	8165.65
316.088	8146.74
316.153	8126.73
316.218	8118.46
316.283	8099.36
316.348	8093.74
316.413	8094.75
316.479	8086.04
316.544	8057.14
316.609	8027.51
316.674	7996.58
316.739	7965.37
316.804	7931.03
316.869	7901.41
316.934	7865.33
316.999	7841.09
317.064	7789.4
317.129	7750.63
317.194	7719.43
317.259	7679.56
317.324	7636.3
317.389	7602.83
317.454	7568.02
317.518	7536.58
317.583	7511.15
317.648	7492.25
317.713	7451.63
317.778	7394.04
317.843	7364.19
317.908	7331.22
317.973	7293.58
318.038	7270.51
318.103	7233.51
318.168	7202.33
318.233	7168.49
318.297	7118.71
318.362	7081.13
318.427	7043.71
318.492	7018.77
318.557	6975.92
318.622	6947.9
318.687	6931.33
318.751	6885.75
318.816	6849.53
318.881	6824.21
318.946	6772.62
319.011	6728.05
319.075	6696.97
319.14	6667.92
319.205	6620.52
319.27	6589.84
319.335	6549.12
319.399	6508.59
319.464	6481.09
319.529	6436.25
319.594	6403.03
319.658	6382.91
319.723	6340.62
319.788	6314.9
319.853	6268.62
319.917	6236.9
319.982	6186.79
320.047	6151.42
320.112	6133.57
320.176	6091.58
320.241	6056.55
320.306	6030.88
320.37	5995.57
320.435	5959.59
320.5	5929.99
320.564	5898.38
320.629	5856.94
320.694	5825.77
320.758	5787.21
320.823	5751.48
320.888	5726.88
320.952	5684.92
321.017	5643.73
321.082	5606.48
321.146	5573.88
321.211	5535.1
321.275	5495.75
321.34	5455.78
321.405	5411.54
321.469	5365.57
321.534	5324.03
321.598	5271.66
321.663	5240.84
321.727	5210.8
321.792	5164.42
321.857	5124.94
321.921	5085.66
321.986	5048.84
322.05	4996.93
322.115	4961.87
322.179	4918.15
322.244	4865.48
322.308	4832.3
322.373	4787.73
322.437	4748.91
322.502	4727.02
322.566	4686.96
322.631	4657.71
322.695	4616.28
322.76	4575.61
322.824	4542.54
322.889	4504.47
322.953	4468.74
323.018	4405.73
323.082	4346.04
323.146	4300.57
323.211	4249.02
323.275	4211.91
323.34	4168.64
323.404	4135.61
323.468	4091.53
323.533	4052.53
323.597	4012.44
323.662	3960.78
323.726	3926.79
323.79	3884.75
323.855	3821.07
323.919	3776.69
323.983	3734.35
324.048	3675.78
324.112	3819.27
324.177	3697.94
324.241	3507.48
324.305	3316.82
324.37	3135.58
324.434	2958.88
324.498	2920.17
324.562	2877.07
324.627	2820.27
324.691	2770.11
324.755	2710.87
324.82	2643.13
324.884	2571.22
324.948	2504.22
325.012	2423.54
325.077	2309.51
