Data from 20250625_urea_1M_1_MAYP1162681_23-15-05-615.txt Node
Date: Wed Jun 25 23:15:05 BST 2025
User: adleo
Spectrometer: MAYP116268
Trigger mode: 0
Integration Time (sec): 1.000000E0
Scans to average: 1
Electric dark correction enabled: true
Nonlinearity correction enabled: true
Boxcar width: 10
XAxis mode: Wavelengths
Number of Pixels in Spectrum: 2068
>>>>>Begin Spectral Data<<<<<
179.565	1137.38
179.642	1189.1
179.718	1228.96
179.795	1269.39
179.871	1299.51
179.948	1316.51
180.024	1336.91
180.101	1357.54
180.177	1371
180.254	1390.71
180.33	1412.62
180.407	1461.9
180.483	1551.69
180.56	1637.92
180.636	1719.86
180.712	1707.69
180.789	1718.71
180.865	1730.54
180.942	1739.9
181.018	1752.92
181.095	1768.56
181.171	1774.17
181.248	1777.93
181.324	1793.47
181.4	1797.84
181.477	1809.58
181.553	1822.55
181.63	1842.14
181.706	1860.06
181.782	1870.94
181.859	1873.89
181.935	1875.22
182.011	1872.46
182.088	1889.91
182.164	1908.08
182.24	1919.39
182.317	1927.75
182.393	1925.14
182.469	1937.02
182.546	1949.05
182.622	1949.05
182.698	1945.15
182.775	1959.41
182.851	1973.06
182.927	1966.45
183.003	1961.79
183.08	1956.28
183.156	1964.08
183.232	1961.03
183.308	1948.62
183.385	1951.43
183.461	1966.88
183.537	1971.83
183.613	1983.33
183.69	1973.2
183.766	1962.41
183.842	1969.49
183.918	1974.25
183.995	1986.99
184.071	1992.98
184.147	1988.56
184.223	1979.82
184.299	1989.61
184.375	1974.11
184.452	1976.97
184.528	2030.86
184.604	2042.32
184.68	2053.45
184.756	2060.82
184.832	2065.77
184.908	2071.47
184.985	2073.94
185.061	2058.49
185.137	2065.76
185.213	2055.49
185.289	2057.35
185.365	2050.74
185.441	2045.94
185.517	2060.59
185.593	2057.12
185.669	2052.79
185.745	2061.44
185.822	2077.56
185.898	2069
185.974	2077.93
186.05	2072.84
186.126	2033.03
186.202	2026.8
186.278	2021
186.354	2010.39
186.43	2017.34
186.506	2014.77
186.582	2010.63
186.658	2017.95
186.734	2000.88
186.81	2003.17
186.886	2004.16
186.962	2016.77
187.038	2015.29
187.114	2007.54
187.19	2018.43
187.266	2008.78
187.341	2007.59
187.417	1998.98
187.493	1999.74
187.569	2005.16
187.645	1997.13
187.721	1986.33
187.797	1995.08
187.873	2000.5
187.949	1996.41
188.025	1986.76
188.101	1990.65
188.176	1996.6
188.252	1992.41
188.328	1997.07
188.404	1996.45
188.48	1994.55
188.556	1985.9
188.632	1985.33
188.707	1982.8
188.783	1976.95
188.859	1971.77
188.935	1962.26
189.011	1971.3
189.086	1965.21
189.162	1957.93
189.238	1957.65
189.314	1955.89
189.39	1948.19
189.465	1942.53
189.541	1958.98
189.617	1947.19
189.693	1941.53
189.768	1945.86
189.844	1969.36
189.92	1961.33
189.996	1969.56
190.071	1980.35
190.147	1980.3
190.223	1992.19
190.298	1988.29
190.374	1973.08
190.45	1984.63
190.526	1995.38
190.601	1991.05
190.677	1993.38
190.753	2019.26
190.828	2020.5
190.904	2033.72
190.98	2048.75
191.055	2057.17
191.131	2050.03
191.207	2069.82
191.282	2075.85
191.358	2066.53
191.433	2050.5
191.509	2066.09
191.585	2062.29
191.66	2061.86
191.736	2071.18
191.811	2059.72
191.887	2073.56
191.963	2096.53
192.038	2101.1
192.114	2098.96
192.189	2101.29
192.265	2098.67
192.34	2076.02
192.416	2078.02
192.491	2075.83
192.567	2078.78
192.642	2081.78
192.718	2082.16
192.793	2069.69
192.869	2069.88
192.944	2073.4
193.02	2083.73
193.095	2085.63
193.171	2092.48
193.246	2094.05
193.322	2088.2
193.397	2090
193.473	2077.97
193.548	2063.03
193.624	2070.31
193.699	2071.12
193.775	2086.3
193.85	2086.06
193.925	2095.76
194.001	2093.86
194.076	2085.2
194.152	2070.74
194.227	2064.27
194.302	2058.09
194.378	2060.85
194.453	2057.71
194.529	2067.51
194.604	2052.43
194.679	2048.2
194.755	2029.7
194.83	2040.17
194.905	2041.65
194.981	2048.92
195.056	2042.27
195.131	2048.88
195.207	2044.17
195.282	2034.94
195.357	2016.58
195.433	2032.32
195.508	2022.33
195.583	2031.32
195.659	2048.21
195.734	2055.53
195.809	2056.82
195.884	2059.19
195.96	2060.52
196.035	2076.22
196.11	2074.03
196.185	2085.78
196.261	2086.54
196.336	2116.6
196.411	2099.47
196.486	2101.09
196.561	2095.71
196.637	2102.32
196.712	2118.46
196.787	2122.07
196.862	2137.29
196.937	2146.33
197.013	2150.89
197.088	2160.84
197.163	2183.35
197.238	2199.35
197.313	2202.06
197.388	2214.15
197.464	2245.03
197.539	2259.31
197.614	2249.98
197.689	2259.59
197.764	2276.21
197.839	2299.24
197.914	2294.67
197.989	2319.46
198.065	2336.16
198.14	2384.64
198.215	2410.82
198.29	2420.77
198.365	2434.77
198.44	2446.52
198.515	2473.71
198.59	2487.95
198.665	2511.47
198.74	2515.37
198.815	2515.42
198.89	2537.51
198.965	2567.04
199.04	2560.76
199.115	2571.52
199.19	2612.56
199.265	2616.56
199.34	2626.56
199.415	2656.63
199.49	2676.3
199.565	2684.68
199.64	2708.5
199.715	2702.97
199.79	2711.79
199.865	2716.03
199.94	2716.36
200.015	2748.38
200.09	2755.67
200.165	2759.06
200.24	2766.68
200.315	2806.88
200.39	2820.66
200.464	2827.52
200.539	2825.52
200.614	2843.48
200.689	2867.31
200.764	2874.46
200.839	2894.8
200.914	2896.51
200.989	2888.02
201.063	2903.9
201.138	2886.42
201.213	2884.66
201.288	2867.17
201.363	2870.17
201.438	2870.03
201.512	2886.42
201.587	2867.44
201.662	2870.64
201.737	2885.79
201.812	2895.42
201.886	2862.56
201.961	2870.43
202.036	2858.04
202.111	2859.09
202.186	2829.8
202.26	2812.59
202.335	2793.1
202.41	2788.81
202.485	2774.47
202.559	2755.41
202.634	2726.97
202.709	2736.58
202.784	2715.19
202.858	2717.53
202.933	2702.43
203.008	2700.66
203.082	2681.32
203.157	2681.56
203.232	2639.8
203.306	2618.07
203.381	2585.96
203.456	2564.19
203.53	2544.93
203.605	2524.61
203.68	2498.36
203.754	2493.41
203.829	2480.27
203.904	2458.65
203.978	2445.65
204.053	2449.03
204.127	2436.84
204.202	2436.22
204.277	2424.04
204.351	2420.09
204.426	2410.37
204.5	2399.09
204.575	2363.49
204.65	2372.58
204.724	2362.25
204.799	2370.91
204.873	2367.19
204.948	2363.81
205.022	2352.58
205.097	2343.72
205.171	2359.71
205.246	2368.05
205.32	2366.67
205.395	2365.67
205.469	2360.96
205.544	2364.43
205.618	2346.82
205.693	2356.01
205.767	2343.3
205.842	2362.11
205.916	2355.97
205.991	2348.12
206.065	2353.3
206.14	2365.43
206.214	2359.91
206.289	2350.62
206.363	2362.48
206.438	2365.81
206.512	2372.33
206.586	2390.56
206.661	2396.23
206.735	2375.29
206.81	2376.2
206.884	2389.33
206.958	2376.2
207.033	2391.95
207.107	2399.19
207.181	2432
207.256	2427.57
207.33	2446.99
207.405	2457.29
207.479	2475.33
207.553	2482.13
207.628	2471.19
207.702	2485.61
207.776	2478.66
207.851	2483.99
207.925	2497.38
207.999	2497.57
208.073	2497.42
208.148	2501.81
208.222	2491.52
208.296	2523.55
208.371	2542.52
208.445	2559.62
208.519	2587.47
208.593	2598.28
208.668	2593.47
208.742	2595.71
208.816	2597.8
208.89	2613.19
208.965	2613.38
209.039	2625.63
209.113	2646.01
209.187	2666.29
209.261	2666.72
209.336	2690.68
209.41	2713.31
209.484	2718.22
209.558	2745
209.632	2763.15
209.707	2778.73
209.781	2809.47
209.855	2832.87
209.929	2853.91
210.003	2865.64
210.077	2877.89
210.151	2934.04
210.226	2983.64
210.3	3020.95
210.374	3062.08
210.448	3081.3
210.522	3107.25
210.596	3133.06
210.67	3165.4
210.744	3237.16
210.818	3292.1
210.892	3340.88
210.966	3366.11
211.041	3412.64
211.115	3441.71
211.189	3502.9
211.263	3558.09
211.337	3604.69
211.411	3660.62
211.485	3705.83
211.559	3770.78
211.633	3827.83
211.707	3856.09
211.781	3921.9
211.855	3956.12
211.929	4015.51
212.003	4071.37
212.077	4156.84
212.151	4253.17
212.225	4348
212.299	4418.04
212.373	4494.92
212.447	4581.04
212.52	4702.66
212.594	4803.07
212.668	4916.83
212.742	5007.3
212.816	5114.38
212.89	5222.22
212.964	5336.64
213.038	5456.74
213.112	5592.17
213.186	5732.16
213.26	5840.89
213.333	5928.77
213.407	6069.25
213.481	6216.92
213.555	6370.45
213.629	6507.73
213.703	6636.98
213.777	6776.86
213.85	6914.79
213.924	7111.24
213.998	7273.98
214.072	7435.43
214.146	7583.96
214.219	7746
214.293	7908.71
214.367	8081
214.441	8267.84
214.515	8434.95
214.588	8594.94
214.662	8746.21
214.736	8909.27
214.81	9100.85
214.883	9294.18
214.957	9467.35
215.031	9637.22
215.105	9802.47
215.178	9974.03
215.252	10154.12
215.326	10324.11
215.4	10492.81
215.473	10632.3
215.547	10795.98
215.621	10963
215.694	11162.64
215.768	11328.32
215.842	11505.03
215.915	11666.87
215.989	11821.63
216.063	11994.47
216.136	12171.84
216.21	12339.67
216.284	12529.15
216.357	12710.77
216.431	12882.91
216.504	13059.04
216.578	13253.2
216.652	13426.11
216.725	13596.75
216.799	13771.11
216.873	13930.33
216.946	14101.12
217.02	14257.06
217.093	14418.94
217.167	14564.95
217.24	14709.12
217.314	14869.4
217.387	15023.02
217.461	15180.5
217.535	15349.35
217.608	15488.61
217.682	15636.05
217.755	15801.76
217.829	15933.59
217.902	16070.38
217.976	16216.03
218.049	16353.59
218.123	16469.65
218.196	16618.92
218.27	16748.71
218.343	16864.14
218.417	17007.32
218.49	17127.62
218.563	17277.12
218.637	17413.07
218.71	17555.68
218.784	17683.96
218.857	17811.34
218.931	17936.4
219.004	18048.06
219.077	18164.05
219.151	18279.28
219.224	18389.39
219.298	18490.02
219.371	18607.65
219.444	18700.32
219.518	18798.63
219.591	18901.95
219.665	19034.33
219.738	19139.53
219.811	19229.4
219.885	19338.31
219.958	19434.35
220.031	19526.35
220.105	19616.18
220.178	19694.29
220.251	19774.58
220.325	19859.69
220.398	19938.24
220.471	20023.39
220.544	20119.97
220.618	20189.03
220.691	20263.19
220.764	20337.6
220.838	20406.52
220.911	20471.96
220.984	20567.14
221.057	20635.67
221.131	20705.8
221.204	20737.61
221.277	20814.91
221.35	20904.75
221.424	20950.05
221.497	21012.22
221.57	21070.01
221.643	21120.33
221.716	21189.44
221.79	21232.72
221.863	21275.62
221.936	21327.05
222.009	21366.71
222.082	21407.49
222.155	21444.02
222.229	21508.37
222.302	21551.36
222.375	21597.06
222.448	21637.3
222.521	21663.96
222.594	21700.78
222.667	21721.7
222.74	21766.62
222.814	21785.95
222.887	21802.59
222.96	21843.41
223.033	21867.47
223.106	21904.39
223.179	21945.22
223.252	21957.27
223.325	21978.57
223.398	22000.12
223.471	22023.98
223.544	22041.77
223.617	22055.84
223.69	22079.37
223.763	22085.35
223.837	22106.85
223.91	22130.61
223.983	22128.15
224.056	22139.67
224.129	22155.15
224.202	22177.9
224.275	22180.84
224.348	22171.97
224.42	22174.81
224.493	22177.37
224.566	22177.22
224.639	22182.62
224.712	22170.91
224.785	22179.06
224.858	22197.66
224.931	22203.35
225.004	22192.07
225.077	22195.21
225.15	22180.7
225.223	22180.94
225.296	22204.75
225.369	22194.68
225.442	22184.89
225.514	22191.69
225.587	22179.11
225.66	22172.74
225.733	22179.83
225.806	22176.26
225.879	22173.66
225.952	22156.98
226.025	22164.45
226.097	22174.62
226.17	22172.55
226.243	22149.32
226.316	22140.83
226.389	22119.19
226.461	22113.45
226.534	22112.68
226.607	22111.76
226.68	22129.65
226.753	22123.43
226.825	22082.65
226.898	22090.6
226.971	22074.69
227.044	22071.61
227.117	22072.72
227.189	22072.38
227.262	22059.31
227.335	22057.82
227.407	22049.77
227.48	22049.82
227.553	22037.81
227.626	22026.58
227.698	22014.1
227.771	22020.17
227.844	21998.09
227.916	21999.49
227.989	21972.06
228.062	21947.29
228.134	21953.41
228.207	21934.08
228.28	21909.83
228.352	21898.65
228.425	21878.02
228.498	21873.92
228.57	21840.76
228.643	21831.65
228.716	21814.39
228.788	21794.39
228.861	21774.67
228.934	21768.46
229.006	21748.02
229.079	21726.42
229.151	21708.3
229.224	21684.3
229.296	21657.21
229.369	21680.25
229.442	21669.4
229.514	21646.51
229.587	21652.44
229.659	21610.55
229.732	21592.62
229.804	21591.22
229.877	21586.21
229.949	21582.45
230.022	21591.61
230.094	21583.85
230.167	21574.69
230.239	21553.48
230.312	21533.82
230.384	21537.33
230.457	21519.69
230.529	21499.07
230.602	21486
230.674	21465.37
230.747	21456.7
230.819	21459.2
230.892	21400.11
230.964	21372.88
231.037	21360.97
231.109	21333.69
231.181	21322.99
231.254	21293.16
231.326	21265.88
231.399	21253.3
231.471	21219.56
231.544	21167.46
231.616	21156.66
231.688	21129.77
231.761	21100.51
231.833	21073.47
231.905	21028.26
231.978	21017.03
232.05	21007.88
232.122	20981.32
232.195	20946.77
232.267	20938.43
232.339	20903.92
232.412	20882.91
232.484	20861.36
232.556	20843.58
232.629	20840.25
232.701	20829.55
232.773	20815.67
232.846	20793.36
232.918	20755.77
232.99	20729.79
233.062	20722.37
233.135	20703.77
233.207	20675.33
233.279	20660.01
233.351	20638.37
233.424	20606.7
233.496	20571.86
233.568	20563.04
233.64	20518.22
233.713	20504.73
233.785	20464.29
233.857	20440.1
233.929	20409.35
234.001	20399.43
234.074	20382.8
234.146	20327.67
234.218	20292.05
234.29	20256.44
234.362	20219.91
234.434	20185.16
234.507	20144.97
234.579	20087.19
234.651	20051.67
234.723	20031.72
234.795	20012.35
234.867	19993.75
234.939	19979.92
235.012	19949.84
235.084	19912.69
235.156	19896.83
235.228	19853.7
235.3	19824.6
235.372	19792.55
235.444	19780.07
235.516	19725.66
235.588	19691.11
235.66	19679.69
235.732	19648.75
235.804	19679.78
235.876	19655.64
235.948	19644.12
236.02	19621.14
236.092	19612.46
236.164	19576.75
236.236	19532.8
236.308	19489.19
236.38	19453.77
236.452	19413.1
236.524	19389.78
236.596	19371.7
236.668	19352.14
236.74	19324.72
236.812	19304.91
236.884	19289.59
236.956	19266.6
237.028	19235.47
237.1	19202.99
237.172	19181.45
237.244	19165.5
237.316	19092.2
237.388	19069.75
237.46	19029.12
237.532	19005.41
237.604	18951.58
237.675	18947.63
237.747	18932.79
237.819	18893.32
237.891	18871.35
237.963	18828.8
238.035	18783.74
238.107	18717.62
238.178	18702.64
238.25	18675.07
238.322	18653.58
238.394	18600.57
238.466	18551.46
238.538	18530.31
238.609	18497.92
238.681	18441.2
238.753	18399.76
238.825	18376.63
238.897	18340.39
238.968	18329.98
239.04	18290.8
239.112	18294.8
239.184	18241.65
239.255	18198.47
239.327	18179.58
239.399	18141.94
239.471	18128.79
239.542	18107.92
239.614	18094.33
239.686	18029.22
239.758	18000.74
239.829	17959.06
239.901	17949.08
239.973	17921.66
240.044	17886.29
240.116	17858.68
240.188	17822.72
240.259	17784.22
240.331	17738.29
240.403	17708.9
240.474	17650.92
240.546	17616.42
240.618	17560.71
240.689	17524.37
240.761	17496.9
240.833	17482.92
240.904	17448.71
240.976	17417.57
241.048	17382.78
241.119	17357.57
241.191	17339.41
241.262	17333.86
241.334	17296.42
241.405	17253.48
241.477	17216.61
241.549	17185.67
241.62	17156.17
241.692	17140.32
241.763	17126.68
241.835	17089.43
241.906	17060.03
241.978	17019.98
242.049	17002.29
242.121	16984.36
242.192	16974.24
242.264	16928.65
242.335	16876.69
242.407	16852.79
242.478	16809.46
242.55	16781.51
242.621	16742.61
242.693	16707.53
242.764	16664.54
242.836	16637.84
242.907	16615.33
242.979	16591.76
243.05	16566.51
243.122	16547.66
243.193	16521.73
243.264	16468.62
243.336	16442.69
243.407	16421.15
243.479	16416.38
243.55	16385.72
243.622	16354.83
243.693	16320.08
243.764	16310.63
243.836	16269.18
243.907	16237.66
243.978	16214.14
244.05	16192.11
244.121	16148.59
244.192	16125.93
244.264	16080.05
244.335	16046.31
244.407	16003.9
244.478	15981.58
244.549	15949.77
244.62	15903.55
244.692	15873.37
244.763	15854.48
244.834	15822.14
244.906	15785.65
244.977	15755.53
245.048	15743.67
245.119	15712.39
245.191	15672.86
245.262	15621.19
245.333	15616.66
245.405	15585.33
245.476	15564.12
245.547	15534.19
245.618	15522.48
245.689	15497.89
245.761	15469.12
245.832	15444.2
245.903	15420.19
245.974	15396.72
246.045	15367.99
246.117	15354.21
246.188	15311.88
246.259	15272.79
246.33	15241.7
246.401	15204.05
246.473	15163.95
246.544	15131.22
246.615	15111.51
246.686	15081.77
246.757	15072.94
246.828	15026.14
246.899	15014.62
246.97	14966.8
247.042	14933.11
247.113	14911.17
247.184	14900.04
247.255	14875.55
247.326	14843.45
247.397	14816.31
247.468	14785.7
247.539	14760.3
247.61	14723.95
247.681	14706.55
247.752	14697.63
247.823	14670.01
247.894	14651.45
247.965	14614.28
248.037	14574.27
248.108	14534.41
248.179	14508.52
248.25	14476.95
248.321	14460.9
248.392	14422.33
248.463	14428.5
248.534	14408.02
248.605	14387.24
248.675	14362.56
248.746	14347.04
248.817	14340.34
248.888	14322.4
248.959	14278.87
249.03	14258
249.101	14230.09
249.172	14198.13
249.243	14149.25
249.314	14139.8
249.385	14119.17
249.456	14106.06
249.527	14080.36
249.598	14059.49
249.669	14043.58
249.739	14030.61
249.81	14011.86
249.881	13984.91
249.952	13963.7
250.023	13935.5
250.094	13897.18
250.165	13853.12
250.235	13821.54
250.306	13790.79
250.377	13761.62
250.448	13746.63
250.519	13704.55
250.59	13700.59
250.66	13682.8
250.731	13680.49
250.802	13653.74
250.873	13634.79
250.944	13614.59
251.014	13593.86
251.085	13595.02
251.156	13572.7
251.227	13555.88
251.297	13549.95
251.368	13535.1
251.439	13514.37
251.51	13496.49
251.58	13468.33
251.651	13443.89
251.722	13431.02
251.792	13390.43
251.863	13360.49
251.934	13355.87
252.005	13362.86
252.075	13336.3
252.146	13320.92
252.217	13307.9
252.287	13296.24
252.358	13269.96
252.429	13265.09
252.499	13232.36
252.57	13214.28
252.641	13202.52
252.711	13180.83
252.782	13143.28
252.852	13139.9
252.923	13110.35
252.994	13100.66
253.064	13097.43
253.135	13083.02
253.205	13060.89
253.276	13064.51
253.347	13066.05
253.417	13036.26
253.488	13004.2
253.558	12981.16
253.629	12959.03
253.699	12943.65
253.77	12933.48
253.841	12914.92
253.911	12896.08
253.982	12887.88
254.052	12871.88
254.123	12853.7
254.193	12835
254.264	12851.24
254.334	12819.62
254.405	12797.11
254.475	12760.23
254.546	12734.73
254.616	12722.29
254.687	12702.19
254.757	12682.43
254.827	12656.11
254.898	12641.89
254.968	12629.55
255.039	12609.11
255.109	12604.24
255.18	12571.08
255.25	12528.32
255.321	12516.07
255.391	12485.71
255.461	12487.59
255.532	12442.03
255.602	12420.34
255.673	12384.72
255.743	12359.51
255.813	12320.99
255.884	12315.21
255.954	12313.66
256.024	12310.77
256.095	12292.5
256.165	12262.38
256.235	12257.22
256.306	12233.07
256.376	12221.5
256.446	12210.46
256.517	12191.13
256.587	12179.37
256.657	12165.83
256.728	12145.73
256.798	12124.9
256.868	12102.3
256.938	12072.27
257.009	12068.31
257.079	12050.77
257.149	12059.06
257.219	12020.4
257.29	12007.15
257.36	11967.62
257.43	11953.35
257.5	11916.87
257.571	11893.3
257.641	11890.4
257.711	11853.48
257.781	11840.76
257.852	11831.02
257.922	11794.82
257.992	11780.41
258.062	11756.94
258.132	11753.95
258.202	11739.2
258.273	11717.9
258.343	11720.55
258.413	11695.63
258.483	11677.79
258.553	11649.74
258.623	11622.32
258.693	11610.27
258.764	11616.05
258.834	11613.16
258.904	11594.27
258.974	11569.74
259.044	11545.73
259.114	11527.56
259.184	11514.12
259.254	11496.43
259.324	11458.5
259.394	11447.41
259.464	11444.23
259.535	11420.95
259.605	11386.06
259.675	11363.02
259.745	11357.34
259.815	11330.88
259.885	11310.54
259.955	11319.12
260.025	11295.41
260.095	11277.38
260.165	11265.62
260.235	11256.95
260.305	11237.38
260.375	11210.3
260.445	11220.8
260.515	11228.18
260.585	11223.26
260.655	11204.56
260.725	11200.75
260.795	11195.31
260.865	11200.03
260.934	11179.74
261.004	11176.13
261.074	11166.92
261.144	11167.5
261.214	11162.63
261.284	11141.19
261.354	11132.76
261.424	11103.02
261.494	11110.2
261.564	11094.15
261.634	11082.49
261.703	11051.45
261.773	11033
261.843	11031.21
261.913	11005.19
261.983	10970.69
262.053	10966.45
262.123	10946.88
262.192	10918.45
262.262	10914.89
262.332	10885.73
262.402	10878.36
262.472	10868.82
262.541	10834.46
262.611	10830.85
262.681	10803.96
262.751	10796.63
262.821	10780.64
262.89	10752.98
262.96	10738.9
263.03	10743.34
263.1	10732.64
263.169	10724.88
263.239	10718.86
263.309	10720.88
263.379	10713.41
263.448	10706.04
263.518	10690.57
263.588	10681.9
263.657	10675.16
263.727	10670.29
263.797	10656.89
263.867	10635.89
263.936	10598.35
264.006	10594.69
264.076	10573.01
264.145	10556.91
264.215	10538.8
264.285	10536.29
264.354	10506.52
264.424	10489.85
264.494	10462.96
264.563	10439.64
264.633	10440.22
264.702	10434.49
264.772	10393.15
264.842	10376.76
264.911	10366.7
264.981	10335.96
265.05	10317.89
265.12	10305.65
265.19	10283.92
265.259	10274
265.329	10265.76
265.398	10262.29
265.468	10274.91
265.537	10264.07
265.607	10259.21
265.676	10256.03
265.746	10241.72
265.815	10245.67
265.885	10230.3
265.955	10205.59
266.024	10192.1
266.094	10151.58
266.163	10147.87
266.232	10153.13
266.302	10142.87
266.371	10126
266.441	10115.55
266.51	10117.48
266.58	10103.46
266.649	10079.9
266.719	10081.73
266.788	10073.11
266.858	10070.89
266.927	10030.53
266.996	10012.75
267.066	9999.65
267.135	9973.4
267.205	9969.16
267.274	9959.14
267.343	9962.27
267.413	9957.12
267.482	9962.13
267.552	9968.73
267.621	9941.65
267.69	9910.54
267.76	9893.2
267.829	9889.05
267.898	9881.44
267.968	9855.53
268.037	9844.74
268.106	9849.08
268.176	9824.17
268.245	9805.63
268.314	9788.1
268.384	9796.52
268.453	9788.29
268.522	9777.84
268.592	9781.3
268.661	9763.05
268.73	9754.43
268.799	9722.54
268.869	9723.12
268.938	9682.86
269.007	9660.03
269.076	9655.89
269.146	9655.02
269.215	9650.2
269.284	9651.26
269.353	9631.32
269.422	9621.93
269.492	9605.75
269.561	9563.33
269.63	9557.79
269.699	9543.82
269.768	9535.49
269.838	9517.33
269.907	9514.2
269.976	9493.78
270.045	9461.33
270.114	9450.4
270.183	9432.87
270.253	9430.32
270.322	9403.25
270.391	9399.69
270.46	9407.15
270.529	9395.88
270.598	9393
270.667	9373.01
270.736	9351.34
270.806	9342
270.875	9346.96
270.944	9338.58
271.013	9361.69
271.082	9351.15
271.151	9347.58
271.22	9320.24
271.289	9312.82
271.358	9292.6
271.427	9287.73
271.496	9283.5
271.565	9275.07
271.634	9267.08
271.703	9293.76
271.772	9289.67
271.841	9282.69
271.91	9250.38
271.979	9244.36
272.048	9223.22
272.117	9228.08
272.186	9208.78
272.255	9212.15
272.324	9203
272.393	9198.18
272.462	9180.7
272.531	9168.95
272.6	9154.51
272.669	9165.58
272.738	9155.09
272.807	9154.7
272.876	9134.05
272.945	9164.34
273.013	9162.89
273.082	9170.84
273.151	9124.32
273.22	9127.11
273.289	9121.05
273.358	9133.52
273.427	9120.18
273.496	9120.71
273.564	9119.41
273.633	9125.38
273.702	9103.52
273.771	9094.37
273.84	9088.4
273.909	9084.41
273.977	9083.11
274.046	9071.94
274.115	9071.27
274.184	9057.02
274.253	9045.03
274.322	9048.26
274.39	9012.14
274.459	8990.1
274.528	8960.97
274.597	8951.87
274.665	8947.4
274.734	8953.61
274.803	8940.32
274.872	8933.2
274.94	8914.33
275.009	8964.99
275.078	8950.17
275.147	8951.76
275.215	8947.09
275.284	8954.64
275.353	8941.5
275.421	8918.16
275.49	8933.13
275.559	8921
275.627	8912.81
275.696	8906.99
275.765	8911.18
275.833	8903.86
275.902	8912.67
275.971	8919.94
276.039	8941.99
276.108	8937.51
276.177	8931.44
276.245	8922.87
276.314	8921.14
276.383	8932.07
276.451	8869.36
276.52	8869.75
276.588	8881.25
276.657	8884
276.725	8872.54
276.794	8870.81
276.863	8884.77
276.931	8868.98
277	8873.12
277.068	8881.83
277.137	8897.91
277.205	8896.7
277.274	8906.43
277.342	8912.73
277.411	8891.89
277.48	8872.97
277.548	8863.3
277.617	8857.71
277.685	8847.22
277.754	8849.63
277.822	8838.37
277.89	8850.55
277.959	8840.87
278.027	8820.99
278.096	8807.71
278.164	8826.1
278.233	8820.03
278.301	8806.12
278.37	8805.02
278.438	8790.67
278.507	8788.99
278.575	8767.23
278.643	8764.87
278.712	8748.17
278.78	8736.81
278.849	8748.65
278.917	8757.07
278.985	8759.48
279.054	8761.02
279.122	8778.49
279.191	8777.53
279.259	8774.64
279.327	8748.45
279.396	8770.4
279.464	8766.02
279.532	8771.56
279.601	8766.02
279.669	8765.2
279.737	8776.08
279.806	8772.61
279.874	8787.73
279.942	8782.43
280.011	8775.26
280.079	8778.34
280.147	8791.63
280.215	8791.48
280.284	8784.65
280.352	8769.25
280.42	8770.31
280.488	8762.41
280.557	8751.44
280.625	8747.35
280.693	8745.81
280.761	8750.14
280.83	8730.93
280.898	8740.27
280.966	8723.42
281.034	8700.7
281.102	8686.84
281.171	8683.43
281.239	8695.6
281.307	8685.01
281.375	8685.74
281.443	8712.06
281.512	8707.59
281.58	8715.29
281.648	8706.29
281.716	8710.19
281.784	8707.88
281.852	8701.04
281.92	8703.02
281.989	8715
282.057	8697.34
282.125	8730.75
282.193	8733.64
282.261	8733.3
282.329	8726.18
282.397	8732.48
282.465	8729.59
282.533	8741.62
282.601	8731.47
282.67	8707.93
282.738	8695.37
282.806	8703.5
282.874	8682.85
282.942	8683.48
283.01	8680.98
283.078	8681.84
283.146	8684.11
283.214	8693.88
283.282	8698.5
283.35	8703.02
283.418	8697.1
283.486	8700.56
283.554	8666.53
283.622	8662.73
283.69	8665.91
283.758	8665.95
283.826	8665.47
283.894	8678.47
283.962	8692.52
284.03	8703.98
284.098	8708.45
284.165	8709.32
284.233	8697.72
284.301	8694.3
284.369	8685.01
284.437	8672.64
284.505	8667.69
284.573	8671.25
284.641	8659.36
284.709	8662.2
284.777	8649.54
284.845	8653.15
284.912	8658.69
284.98	8661.96
285.048	8656.04
285.116	8655.51
285.184	8664.89
285.252	8665.86
285.319	8649.16
285.387	8643.57
285.455	8630.19
285.523	8635.34
285.591	8628.37
285.659	8635.97
285.726	8647.33
285.794	8632.31
285.862	8627.89
285.93	8625.77
285.997	8623.8
286.065	8619.61
286.133	8610.99
286.201	8608.49
286.269	8591.89
286.336	8586.64
286.404	8581.49
286.472	8583.61
286.539	8559.69
286.607	8541.45
286.675	8541.36
286.743	8545.98
286.81	8540.83
286.878	8543.57
286.946	8530.58
287.013	8527.35
287.081	8524.9
287.149	8507.67
287.216	8530.24
287.284	8522.83
287.352	8523.98
287.419	8518.69
287.487	8537.6
287.555	8540.3
287.622	8528.66
287.69	8532.07
287.758	8542.76
287.825	8537.7
287.893	8530.97
287.96	8539.14
288.028	8550.98
288.096	8552.52
288.163	8554.3
288.231	8537.65
288.298	8539.34
288.366	8551.13
288.433	8554.3
288.501	8544.05
288.569	8547.37
288.636	8537.17
288.704	8554.78
288.771	8556.23
288.839	8548.05
288.906	8536.54
288.974	8540.39
289.041	8544.97
289.109	8540.3
289.176	8546.07
289.244	8548.77
289.311	8553.87
289.379	8564.07
289.446	8562.87
289.514	8563.35
289.581	8560.65
289.649	8568.5
289.716	8569.07
289.783	8560.12
289.851	8573.89
289.918	8576.2
289.986	8591.02
290.053	8593.96
290.121	8591.31
290.188	8597.85
290.255	8625.43
290.323	8619.08
290.39	8617.73
290.458	8620.09
290.525	8627.4
290.592	8622.4
290.66	8626.2
290.727	8627.98
290.794	8641.65
290.862	8645.55
290.929	8644.1
290.996	8649.11
291.064	8659.07
291.131	8674.23
291.198	8692.57
291.266	8690.16
291.333	8693.53
291.4	8693.48
291.468	8709.95
291.535	8709.42
291.602	8712.59
291.669	8704.7
291.737	8708.79
291.804	8706.62
291.871	8720.48
291.938	8727.65
292.006	8753.65
292.073	8757.45
292.14	8763.47
292.207	8757.31
292.275	8752.98
292.342	8764.09
292.409	8784.55
292.476	8803.28
292.543	8788.6
292.611	8786.43
292.678	8801.5
292.745	8824.89
292.812	8833.46
292.879	8832.11
292.946	8826.34
293.014	8835.14
293.081	8838.42
293.148	8849.73
293.215	8864.89
293.282	8865.95
293.349	8875.67
293.416	8853.05
293.484	8870.18
293.551	8879.62
293.618	8892.57
293.685	8916.63
293.752	8909.99
293.819	8907.58
293.886	8898.97
293.953	8912.3
294.02	8923.08
294.087	8926.74
294.154	8914.47
294.221	8931.08
294.288	8931.56
294.356	8952.01
294.423	8957.79
294.49	8954.33
294.557	8965.2
294.624	8952.02
294.691	8970.84
294.758	8971.75
294.825	8978.68
294.892	8967.42
294.959	8961.84
295.026	8964.77
295.093	8958.47
295.16	8956.68
295.226	8959.77
295.293	8975.12
295.36	8977.19
295.427	8987.69
295.494	8995.78
295.561	9004.2
295.628	9021.15
295.695	9028.13
295.762	9033.72
295.829	9045.42
295.896	9055.67
295.963	9063.62
296.03	9074.69
296.096	9073
296.163	9086
296.23	9101.7
296.297	9115.75
296.364	9115.61
296.431	9119.56
296.498	9115.8
296.564	9136.07
296.631	9136.26
296.698	9123.26
296.765	9139.73
296.832	9126.15
296.899	9115.89
296.965	9130.96
297.032	9106.93
297.099	9125.23
297.166	9126.53
297.233	9120.03
297.299	9111.08
297.366	9109.2
297.433	9110.84
297.5	9120.85
297.566	9117.87
297.633	9116.76
297.7	9118.2
297.767	9119.7
297.833	9125.91
297.9	9121.48
297.967	9109.64
298.033	9114.64
298.1	9145.41
298.167	9141.17
298.234	9141.75
298.3	9147.67
298.367	9142.67
298.434	9147.67
298.5	9127.84
298.567	9120.13
298.634	9121.19
298.7	9138.19
298.767	9136.65
298.834	9148.3
298.9	9140.21
298.967	9129.62
299.033	9133.23
299.1	9144.3
299.167	9156.91
299.233	9151.04
299.3	9168.66
299.366	9188.16
299.433	9202.89
299.5	9173.04
299.566	9172.37
299.633	9191.58
299.699	9204.43
299.766	9203.66
299.832	9207.66
299.899	9223.88
299.965	9237.85
300.032	9234.62
300.099	9238.23
300.165	9245.74
300.232	9241.51
300.298	9242.71
300.365	9254.75
300.431	9259.22
300.498	9258.84
300.564	9265.68
300.631	9271.31
300.697	9280.02
300.763	9271.84
300.83	9273.43
300.896	9286.28
300.963	9294.85
301.029	9294.95
301.096	9299.24
301.162	9309.35
301.229	9304.87
301.295	9295
301.361	9290.38
301.428	9290.67
301.494	9282.48
301.561	9285.66
301.627	9282.38
301.693	9284.84
301.76	9289.41
301.826	9281.57
301.892	9289.85
301.959	9296.06
302.025	9295.92
302.092	9289.32
302.158	9295.1
302.224	9289.8
302.291	9277.67
302.357	9269.87
302.423	9263.56
302.49	9249.45
302.556	9258.26
302.622	9256.43
302.688	9259.56
302.755	9278.39
302.821	9282.43
302.887	9285.52
302.954	9279.64
303.02	9292.83
303.086	9298.61
303.152	9294.66
303.219	9285.23
303.285	9287.88
303.351	9294.86
303.417	9296.74
303.483	9292.64
303.55	9285.52
303.616	9280.7
303.682	9280.41
303.748	9272.33
303.815	9285.62
303.881	9292.84
303.947	9276.85
304.013	9281.96
304.079	9278.54
304.145	9254.85
304.212	9258.41
304.278	9251.81
304.344	9247.34
304.41	9229.18
304.476	9212.28
304.542	9203.04
304.608	9211.95
304.674	9191.19
304.741	9178.34
304.807	9173.42
304.873	9170.68
304.939	9185.17
305.005	9169.81
305.071	9166.59
305.137	9166.78
305.203	9144.58
305.269	9138.47
305.335	9143.48
305.401	9133.8
305.467	9129.13
305.533	9136.93
305.599	9138.37
305.666	9144.1
305.732	9146.51
305.798	9159.22
305.864	9186.81
305.93	9195.33
305.996	9192.49
306.062	9197.11
306.128	9190.66
306.194	9183.39
306.259	9185.51
306.325	9172.94
306.391	9187.92
306.457	9198.07
306.523	9201.97
306.589	9221.76
306.655	9215.31
306.721	9201.93
306.787	9192.73
306.853	9199.47
306.919	9180.22
306.985	9165.87
307.051	9158.17
307.117	9145.26
307.183	9134.38
307.248	9106.7
307.314	9107.51
307.38	9104.91
307.446	9101.3
307.512	9089.85
307.578	9084.69
307.644	9077.91
307.709	9080.46
307.775	9061.2
307.841	9054.51
307.907	9050.7
307.973	9029.42
308.039	9028.41
308.104	9034.04
308.17	9030.14
308.236	9019.36
308.302	9019.55
308.368	9010.74
308.433	9011.03
308.499	9008
308.565	8993.7
308.631	8994.04
308.696	8968.48
308.762	8958.13
308.828	8951.48
308.894	8933.63
308.959	8922.07
309.025	8908.21
309.091	8902.34
309.156	8894.06
309.222	8898.54
309.288	8884.09
309.354	8860.17
309.419	8859.06
309.485	8837.84
309.551	8841.16
309.616	8824.89
309.682	8827.05
309.748	8819.74
309.813	8811.8
309.879	8804.58
309.945	8794.9
310.01	8789.46
310.076	8789.27
310.141	8776.66
310.207	8763.33
310.273	8768.81
310.338	8769.05
310.404	8749.85
310.469	8729.54
310.535	8722.27
310.601	8690.74
310.666	8690.26
310.732	8700.51
310.797	8691.8
310.863	8685.4
310.928	8680.97
310.994	8683.23
311.059	8676.06
311.125	8672.45
311.191	8675.1
311.256	8661.53
311.322	8670.24
311.387	8643
311.453	8923.17
311.518	8905.46
311.584	8906.08
311.649	8908.59
311.715	8895.54
311.78	8902.09
311.846	8897.23
311.911	8903.53
311.976	8909.02
312.042	8898.48
312.107	8879.61
312.173	8862.34
312.238	8853.92
312.304	8844.29
312.369	8832.31
312.434	8811.9
312.5	8802.42
312.565	8768.25
312.631	8770.66
312.696	8756.56
312.761	8766.57
312.827	8475.09
312.892	8508.4
312.958	8501.95
313.023	8495.02
313.088	8491.7
313.154	8474.76
313.219	8460.13
313.284	8448.44
313.35	8443.87
313.415	8431.16
313.48	8426.88
313.546	8427.56
313.611	8435.74
313.676	8429.72
313.741	8421.49
313.807	8433.57
313.872	8433.23
313.937	8440.31
314.003	8450.41
314.068	8449.45
314.133	8449.4
314.198	8436.56
314.264	8412.39
314.329	8403.68
314.394	8400.65
314.459	8398.92
314.525	8415.37
314.59	8406.91
314.655	8396.56
314.72	8391.13
314.785	8396.13
314.851	8391.41
314.916	8371.3
314.981	8348.11
315.046	8335.12
315.111	8326.61
315.176	8310.77
315.242	8311.26
315.307	8310.01
315.372	8287.39
315.437	8277.38
315.502	8267.42
315.567	8274.97
315.632	8261.36
315.698	8258.18
315.763	8247.6
315.828	8235.19
315.893	8229.17
315.958	8230.61
316.023	8221.52
316.088	8210.55
316.153	8187.32
316.218	8180.05
316.283	8164.95
316.348	8154.66
316.413	8152.54
316.479	8135.52
316.544	8107.14
316.609	8081.35
316.674	8048.36
316.739	8015.66
316.804	7984.64
316.869	7950.44
316.934	7917.15
316.999	7892.87
317.064	7841.41
317.129	7802.17
317.194	7767.93
317.259	7728.45
317.324	7682.05
317.389	7636.81
317.454	7594.3
317.518	7558.68
317.583	7534.87
317.648	7516.56
317.713	7480.17
317.778	7421.08
317.843	7391.66
317.908	7355.76
317.973	7315.77
318.038	7291.2
318.103	7256.22
318.168	7228.3
318.233	7199.94
318.297	7155.92
318.362	7117.28
318.427	7088.41
318.492	7070.96
318.557	7030.56
318.622	7000.19
318.687	6977.13
318.751	6942.74
318.816	6917.95
318.881	6892.25
318.946	6838.93
319.011	6797.47
319.075	6762.79
319.14	6732.49
319.205	6693.54
319.27	6665.79
319.335	6629.1
319.399	6593.42
319.464	6564.71
319.529	6515.11
319.594	6478.09
319.658	6450.39
319.723	6412.51
319.788	6379.63
319.853	6321.11
319.917	6291.11
319.982	6241.05
320.047	6207.36
320.112	6181.97
320.176	6132.93
320.241	6099.91
320.306	6068.43
320.37	6027.55
320.435	5999.29
320.5	5970.65
320.564	5935.06
320.629	5894
320.694	5863.25
320.758	5820.17
320.823	5785.16
320.888	5762.67
320.952	5716.83
321.017	5673.67
321.082	5630.09
321.146	5601.85
321.211	5569.78
321.275	5532.82
321.34	5492.61
321.405	5453.45
321.469	5410.31
321.534	5373.32
321.598	5327.55
321.663	5301.66
321.727	5271
321.792	5225.33
321.857	5186.18
321.921	5149.2
321.986	5108.68
322.05	5052.84
322.115	5017.34
322.179	4969.99
322.244	4914.16
322.308	4879.35
322.373	4838.08
322.437	4804.81
322.502	4776.65
322.566	4732.23
322.631	4700.87
322.695	4665.7
322.76	4621.58
322.824	4587.26
322.889	4547.51
322.953	4504.26
323.018	4440.29
323.082	4380.79
323.146	4330.53
323.211	4281.6
323.275	4238.13
323.34	4198.15
323.404	4167.46
323.468	4126.91
323.533	4087.82
323.597	4049.07
323.662	4005.24
323.726	3971.4
323.79	3929.1
323.855	3870.06
323.919	3827.4
323.983	3784.24
324.048	3720.98
324.112	3871.45
324.177	3752.3
324.241	3557.54
324.305	3366.27
324.37	3183.4
324.434	3006.27
324.498	2968.36
324.562	2922.3
324.627	2869.17
324.691	2815.87
324.755	2755.96
324.82	2684.86
324.884	2618.36
324.948	2553.66
325.012	2466.65
325.077	2356.34
