Data from 20250625_urea_1M_1_MAYP1162681_00-15-06-318.txt Node
Date: Thu Jun 26 00:15:06 BST 2025
User: adleo
Spectrometer: MAYP116268
Trigger mode: 0
Integration Time (sec): 1.000000E0
Scans to average: 1
Electric dark correction enabled: true
Nonlinearity correction enabled: true
Boxcar width: 10
XAxis mode: Wavelengths
Number of Pixels in Spectrum: 2068
>>>>>Begin Spectral Data<<<<<
179.565	1140.02
179.642	1193.01
179.718	1231.4
179.795	1267.23
179.871	1292.29
179.948	1310.98
180.024	1330.4
180.101	1348.78
180.177	1360.23
180.254	1382.51
180.33	1405.09
180.407	1452.51
180.483	1542.11
180.56	1627.15
180.636	1706.01
180.712	1694.32
180.789	1704.48
180.865	1716.36
180.942	1722.58
181.018	1733.94
181.095	1747.3
181.171	1751.19
181.248	1749.06
181.324	1765.65
181.4	1770.35
181.477	1782.47
181.553	1793.92
181.63	1812.27
181.706	1829.52
181.782	1840.68
181.859	1839.59
181.935	1843.11
182.011	1842.4
182.088	1858.46
182.164	1874.92
182.24	1886.32
182.317	1897.92
182.393	1894.83
182.469	1908
182.546	1917.17
182.622	1917.27
182.698	1912.42
182.775	1923.64
182.851	1939.56
182.927	1930.2
183.003	1927.82
183.08	1924.73
183.156	1933.33
183.232	1931.29
183.308	1920.74
183.385	1925.92
183.461	1939.94
183.537	1939.94
183.613	1950.97
183.69	1942.27
183.766	1932.28
183.842	1937.28
183.918	1938.94
183.995	1949.07
184.071	1955.63
184.147	1952.54
184.223	1942.46
184.299	1956.73
184.375	1947.41
184.452	1953.74
184.528	2009.82
184.604	2019.85
184.68	2031.02
184.756	2035.4
184.832	2040.11
184.908	2045.43
184.985	2047.71
185.061	2035.45
185.137	2044.91
185.213	2033.4
185.289	2034.17
185.365	2028.89
185.441	2031.31
185.517	2048.3
185.593	2046.82
185.669	2043.35
185.745	2053.15
185.822	2068.98
185.898	2058.18
185.974	2065.41
186.05	2058.89
186.126	2017.79
186.202	2011.37
186.278	2008.23
186.354	2001.71
186.43	2007.33
186.506	2002.62
186.582	2000.15
186.658	2006.09
186.734	1988.26
186.81	1990.97
186.886	1992.87
186.962	2002.86
187.038	1998.29
187.114	1988.49
187.19	1996.48
187.266	1987.02
187.341	1987.4
187.417	1979.08
187.493	1978.03
187.569	1982.31
187.645	1976.75
187.721	1965.38
187.797	1972.85
187.873	1974.8
187.949	1967.95
188.025	1961.86
188.101	1966.57
188.176	1970.61
188.252	1966.05
188.328	1972.61
188.404	1972.22
188.48	1968.99
188.556	1961.91
188.632	1960.43
188.707	1960.43
188.783	1958.29
188.859	1952.26
188.935	1940.18
189.011	1949.21
189.086	1946.17
189.162	1937.9
189.238	1932.52
189.314	1930.34
189.39	1924.58
189.465	1918.02
189.541	1934.24
189.617	1920.64
189.693	1916.36
189.768	1921.88
189.844	1943.61
189.92	1936.58
189.996	1945.04
190.071	1957.22
190.147	1958.5
190.223	1968.96
190.298	1961.21
190.374	1949.66
190.45	1961.87
190.526	1969.77
190.601	1964.2
190.677	1965.91
190.753	1992.08
190.828	1998.4
190.904	2012.2
190.98	2028.84
191.055	2041.4
191.131	2033.74
191.207	2052.38
191.282	2063.17
191.358	2052.33
191.433	2040.91
191.509	2051.8
191.585	2049.75
191.66	2049.47
191.736	2056.84
191.811	2048.85
191.887	2063.83
191.963	2084.66
192.038	2088.18
192.114	2090.46
192.189	2097.41
192.265	2093.94
192.34	2072.57
192.416	2070.95
192.491	2070.48
192.567	2071.95
192.642	2073.38
192.718	2073.9
192.793	2061.82
192.869	2055.5
192.944	2060.44
193.02	2069.72
193.095	2073.67
193.171	2077.76
193.246	2076.76
193.322	2073.86
193.397	2075.33
193.473	2060.92
193.548	2043.51
193.624	2051.07
193.699	2047.98
193.775	2063.3
193.85	2063.16
193.925	2071.25
194.001	2067.59
194.076	2059.83
194.152	2048.94
194.227	2042.14
194.302	2032.01
194.378	2036.81
194.453	2034.06
194.529	2046.9
194.604	2029.21
194.679	2025.4
194.755	2007.72
194.83	2018.23
194.905	2017.95
194.981	2023.61
195.056	2017.81
195.131	2023.94
195.207	2021.13
195.282	2015.52
195.357	1993.5
195.433	2006.72
195.508	1994.06
195.583	2006.43
195.659	2019.84
195.734	2026.5
195.809	2024.27
195.884	2032.02
195.96	2031.3
196.035	2052.66
196.11	2045.52
196.185	2057.93
196.261	2057.03
196.336	2088.75
196.411	2076
196.486	2080.66
196.561	2073.82
196.637	2085.04
196.712	2100.45
196.787	2103.31
196.862	2116.01
196.937	2126.28
197.013	2137.08
197.088	2147.3
197.163	2165.58
197.238	2181.58
197.313	2181.43
197.388	2195.85
197.464	2225.21
197.539	2237.34
197.614	2226.02
197.689	2240.1
197.764	2255.28
197.839	2278.26
197.914	2272.84
197.989	2294.68
198.065	2307.91
198.14	2358.24
198.215	2380.37
198.29	2393.75
198.365	2408.42
198.44	2420.69
198.515	2446.59
198.59	2456.69
198.665	2482.77
198.74	2490.25
198.815	2489.25
198.89	2509.43
198.965	2536.96
199.04	2532.15
199.115	2547.25
199.19	2587.29
199.265	2586.67
199.34	2596.58
199.415	2626.98
199.49	2647.31
199.565	2656.03
199.64	2677.84
199.715	2674.74
199.79	2683.27
199.865	2690.7
199.94	2687.04
200.015	2717.63
200.09	2723.63
200.165	2730.82
200.24	2739.64
200.315	2775.12
200.39	2790.98
200.464	2797.03
200.539	2799.8
200.614	2817.76
200.689	2838.53
200.764	2844.07
200.839	2861.31
200.914	2866.55
200.989	2855.34
201.063	2867.35
201.138	2854.4
201.213	2854.45
201.288	2836.77
201.363	2837.39
201.438	2833.48
201.512	2851.77
201.587	2832.75
201.662	2837.38
201.737	2846.91
201.812	2851.53
201.886	2824.63
201.961	2833.98
202.036	2822.79
202.111	2817.4
202.186	2787.82
202.26	2775.1
202.335	2754.18
202.41	2749.94
202.485	2735.93
202.559	2719.88
202.634	2694.96
202.709	2700.58
202.784	2681.52
202.858	2682.24
202.933	2665.43
203.008	2661.57
203.082	2642.13
203.157	2643.75
203.232	2602.47
203.306	2582.04
203.381	2552.79
203.456	2530.64
203.53	2506.47
203.605	2488.1
203.68	2465.34
203.754	2459.96
203.829	2442.62
203.904	2426.06
203.978	2414.96
204.053	2414.91
204.127	2402.35
204.202	2397.78
204.277	2381.69
204.351	2376.69
204.426	2369.12
204.5	2364.17
204.575	2328.71
204.65	2336.62
204.724	2323.9
204.799	2333.18
204.873	2330.04
204.948	2328.89
205.022	2317.66
205.097	2311.33
205.171	2329.46
205.246	2340.32
205.32	2340.65
205.395	2340.7
205.469	2330.99
205.544	2336.71
205.618	2322.29
205.693	2332.81
205.767	2321.77
205.842	2340.33
205.916	2334.19
205.991	2324.2
206.065	2328.86
206.14	2343.7
206.214	2338.99
206.289	2336.61
206.363	2348.36
206.438	2353.74
206.512	2360.69
206.586	2379.68
206.661	2387.02
206.735	2363.42
206.81	2360.46
206.884	2374.07
206.958	2363.22
207.033	2379.59
207.107	2384.5
207.181	2415.21
207.256	2409.12
207.33	2426.87
207.405	2440.45
207.479	2458.68
207.553	2467.01
207.628	2451.83
207.702	2464.73
207.776	2458.92
207.851	2461.49
207.925	2477.93
207.999	2473.12
208.073	2470.93
208.148	2474.21
208.222	2464.12
208.296	2492.39
208.371	2510.3
208.445	2524.02
208.519	2552.16
208.593	2564.49
208.668	2562.01
208.742	2563.25
208.816	2567.82
208.89	2585.5
208.965	2585.11
209.039	2595.45
209.113	2610.31
209.187	2633.2
209.261	2633.63
209.336	2658.64
209.41	2682.7
209.484	2685.66
209.558	2714.2
209.632	2731.06
209.707	2743.49
209.781	2771.27
209.855	2795
209.929	2818.04
210.003	2830.05
210.077	2836.72
210.151	2894.73
210.226	2940.47
210.3	2980.21
210.374	3017.67
210.448	3037.7
210.522	3065.12
210.596	3091.35
210.67	3126.12
210.744	3199.94
210.818	3252.44
210.892	3299.3
210.966	3319.53
211.041	3363.48
211.115	3395.16
211.189	3456.83
211.263	3513.39
211.337	3558.07
211.411	3614.38
211.485	3650.73
211.559	3713.61
211.633	3767.27
211.707	3792.51
211.781	3859.02
211.855	3888.51
211.929	3941.77
212.003	3993.32
212.077	4073.32
212.151	4158.92
212.225	4243.72
212.299	4305.71
212.373	4377.98
212.447	4456.76
212.52	4578.55
212.594	4678.33
212.668	4785.8
212.742	4872.67
212.816	4971.1
212.89	5077.04
212.964	5183.24
213.038	5304.06
213.112	5434.13
213.186	5569.18
213.26	5671.27
213.333	5748.72
213.407	5881.25
213.481	6018.59
213.555	6165.31
213.629	6291.89
213.703	6415.94
213.777	6553.66
213.85	6683.67
213.924	6871.99
213.998	7025.89
214.072	7174.08
214.146	7316.59
214.219	7471.19
214.293	7626.7
214.367	7788.79
214.441	7961.1
214.515	8117.76
214.588	8265.25
214.662	8396.03
214.736	8548.41
214.81	8726.7
214.883	8915.66
214.957	9080.74
215.031	9247.62
215.105	9396.46
215.178	9558.05
215.252	9732.37
215.326	9892.46
215.4	10056.5
215.473	10178.09
215.547	10334.09
215.621	10494.43
215.694	10673.77
215.768	10828.77
215.842	10996.07
215.915	11165.75
215.989	11319.19
216.063	11479.53
216.136	11653.03
216.21	11830.33
216.284	12017.82
216.357	12193.55
216.431	12355.56
216.504	12529.37
216.578	12721.36
216.652	12905.87
216.725	13074.39
216.799	13247.63
216.873	13409.65
216.946	13569.88
217.02	13729.87
217.093	13891.84
217.167	14033.47
217.24	14172.2
217.314	14315.85
217.387	14460.61
217.461	14598.86
217.535	14759.04
217.608	14895.27
217.682	15034.82
217.755	15179.04
217.829	15307.4
217.902	15441.74
217.976	15582.82
218.049	15713.06
218.123	15824.83
218.196	15955.6
218.27	16082.51
218.343	16205.7
218.417	16338.05
218.49	16460.57
218.563	16603.76
218.637	16734.37
218.71	16869.56
218.784	17001.66
218.857	17134.1
218.931	17252.66
219.004	17365.77
219.077	17483.51
219.151	17608.91
219.224	17721.1
219.298	17837.63
219.371	17956.57
219.444	18055.45
219.518	18159.36
219.591	18268.51
219.665	18395.88
219.738	18493.7
219.811	18576.83
219.885	18672.44
219.958	18769.93
220.031	18862.84
220.105	18952.04
220.178	19035.8
220.251	19115.21
220.325	19201.38
220.398	19292.12
220.471	19370.96
220.544	19458.52
220.618	19519.63
220.691	19591.62
220.764	19666.03
220.838	19743.33
220.911	19805.93
220.984	19900.86
221.057	19971.8
221.131	20032.04
221.204	20067.51
221.277	20147.84
221.35	20241.43
221.424	20293
221.497	20345.86
221.57	20407.94
221.643	20460.51
221.716	20518.39
221.79	20569.48
221.863	20612.42
221.936	20650.2
222.009	20703.99
222.082	20756.18
222.155	20791.41
222.229	20853.1
222.302	20894.26
222.375	20928.62
222.448	20971.8
222.521	21006.89
222.594	21035.47
222.667	21058.41
222.74	21108.83
222.814	21145.36
222.887	21179.29
222.96	21226.14
223.033	21270.43
223.106	21303.06
223.179	21348.08
223.252	21376.28
223.325	21417.3
223.398	21446.46
223.471	21485.83
223.544	21508.1
223.617	21530.13
223.69	21567.19
223.763	21581.65
223.837	21617.9
223.91	21647.78
223.983	21648.94
224.056	21647.88
224.129	21674.44
224.202	21704.42
224.275	21718.54
224.348	21718.06
224.42	21709.96
224.493	21699.36
224.566	21696.66
224.639	21713.62
224.712	21716.52
224.785	21719.6
224.858	21717.43
224.931	21721.29
225.004	21713.09
225.077	21725.67
225.15	21702.1
225.223	21697.33
225.296	21721.19
225.369	21698.88
225.442	21690.54
225.514	21703.46
225.587	21710.88
225.66	21725
225.733	21735.03
225.806	21732.91
225.879	21734.16
225.952	21730.02
226.025	21750.26
226.097	21769.35
226.17	21759.9
226.243	21740.57
226.316	21737
226.389	21723.17
226.461	21724.04
226.534	21724.81
226.607	21710.01
226.68	21734.02
226.753	21740.33
226.825	21713.87
226.898	21736.57
226.971	21723.27
227.044	21723.46
227.117	21714.3
227.189	21697.96
227.262	21697.77
227.335	21694.06
227.407	21682.34
227.48	21681.38
227.553	21669.91
227.626	21655.64
227.698	21647.01
227.771	21639.59
227.844	21613.9
227.916	21620.02
227.989	21594.09
228.062	21575.19
228.134	21585.46
228.207	21560.15
228.28	21536.49
228.352	21515.67
228.425	21489.69
228.498	21493.3
228.57	21467.23
228.643	21471.03
228.716	21458.65
228.788	21434.11
228.861	21402.98
228.934	21402.59
229.006	21399.07
229.079	21377.96
229.151	21351.74
229.224	21325.33
229.296	21318.53
229.369	21340.32
229.442	21342.58
229.514	21327.11
229.587	21335.45
229.659	21303.88
229.732	21310.29
229.804	21307.21
229.877	21321.91
229.949	21319.79
230.022	21321.71
230.094	21305.09
230.167	21294.05
230.239	21273.71
230.312	21261.56
230.384	21286.87
230.457	21275.06
230.529	21257.42
230.602	21250.62
230.674	21242.53
230.747	21244.69
230.819	21234.57
230.892	21189.12
230.964	21165.8
231.037	21159.96
231.109	21137.79
231.181	21134.95
231.254	21090.13
231.326	21070.51
231.399	21045.55
231.471	21021.69
231.544	20979.23
231.616	20977.78
231.688	20955.61
231.761	20922.12
231.833	20893.01
231.905	20837.63
231.978	20812.08
232.05	20781.19
232.122	20761.43
232.195	20731.07
232.267	20711.55
232.339	20689.53
232.412	20679.84
232.484	20642.82
232.556	20617.43
232.629	20616.08
232.701	20598.87
232.773	20588.08
232.846	20564.9
232.918	20535.11
232.99	20519.69
233.062	20499.4
233.135	20472.46
233.207	20445.18
233.279	20440.03
233.351	20424.08
233.424	20398.53
233.496	20361.04
233.568	20359.5
233.64	20311.84
233.713	20294.15
233.785	20270.29
233.857	20243.93
233.929	20204.61
234.001	20197.19
234.074	20192.51
234.146	20140.37
234.218	20105.48
234.29	20076.13
234.362	20046.2
234.434	20010.44
234.507	19972.95
234.579	19932.81
234.651	19907.27
234.723	19877
234.795	19853.34
234.867	19826.35
234.939	19814.74
235.012	19802.21
235.084	19775.08
235.156	19768.62
235.228	19723.95
235.3	19687.47
235.372	19663.09
235.444	19649.54
235.516	19602.41
235.588	19560.34
235.66	19540.59
235.732	19513.5
235.804	19546.27
235.876	19525.55
235.948	19508.49
236.02	19473.65
236.092	19442.09
236.164	19409.75
236.236	19369.66
236.308	19329.13
236.38	19302
236.452	19269.18
236.524	19237.13
236.596	19221.33
236.668	19192.7
236.74	19169.81
236.812	19151.93
236.884	19120.76
236.956	19092.13
237.028	19053.1
237.1	19018.02
237.172	18997.1
237.244	18983.99
237.316	18915.56
237.388	18881.06
237.46	18844.87
237.532	18824.82
237.604	18796.82
237.675	18784.54
237.747	18770.13
237.819	18739.14
237.891	18708.35
237.963	18664.4
238.035	18628.64
238.107	18558.43
238.178	18543.2
238.25	18515.49
238.322	18508.21
238.394	18459.98
238.466	18423.25
238.538	18400.8
238.609	18379.02
238.681	18331.6
238.753	18292.61
238.825	18264.52
238.897	18234.93
238.968	18226.49
239.04	18187.94
239.112	18183.89
239.184	18137.05
239.255	18103.9
239.327	18078.21
239.399	18044.96
239.471	18024.38
239.542	18002.45
239.614	17990.7
239.686	17930.17
239.758	17902.75
239.829	17852.29
239.901	17840.63
239.973	17808.73
240.044	17782.65
240.116	17746.12
240.188	17713.02
240.259	17671.04
240.331	17627.86
240.403	17597.6
240.474	17546.27
240.546	17505.21
240.618	17444.39
240.689	17406.08
240.761	17366.32
240.833	17344.73
240.904	17310.66
240.976	17280.58
241.048	17245.07
241.119	17224.83
241.191	17202.27
241.262	17188.44
241.334	17147.09
241.405	17115.28
241.477	17087.52
241.549	17058.85
241.62	17033.54
241.692	17013.45
241.763	16997.06
241.835	16974.12
241.906	16949.06
241.978	16897.25
242.049	16887.71
242.121	16880.19
242.192	16864.57
242.264	16826.31
242.335	16777.39
242.407	16754.83
242.478	16719.07
242.55	16685.14
242.621	16642.54
242.693	16606.63
242.764	16570.48
242.836	16537.76
242.907	16513.66
242.979	16486.28
243.05	16454.43
243.122	16427.53
243.193	16390.13
243.264	16346.22
243.336	16305.5
243.407	16285.93
243.479	16289.16
243.55	16263.28
243.622	16235.56
243.693	16205.2
243.764	16201.54
243.836	16164.81
243.907	16125.96
243.978	16097.09
244.05	16081.38
244.121	16032.26
244.192	16019.39
244.264	15973.6
244.335	15955.82
244.407	15909.11
244.478	15887.37
244.549	15860.62
244.62	15813.63
244.692	15786.01
244.763	15768.03
244.834	15735.54
244.906	15689.32
244.977	15658.04
245.048	15643.72
245.119	15604.39
245.191	15570.17
245.262	15518.11
245.333	15512.09
245.405	15494.5
245.476	15468.95
245.547	15440.03
245.618	15430.48
245.689	15399.68
245.761	15387.54
245.832	15361.65
245.903	15337.36
245.974	15302.65
246.045	15274.6
246.117	15267.03
246.188	15232.71
246.259	15188.65
246.33	15167.4
246.401	15143.58
246.473	15101.84
246.544	15063.33
246.615	15046.94
246.686	15015.66
246.757	15003.89
246.828	14959.55
246.899	14947.69
246.97	14909.99
247.042	14871.96
247.113	14847.04
247.184	14838.6
247.255	14803.12
247.326	14772.42
247.397	14750.39
247.468	14730.39
247.539	14703.25
247.61	14667.86
247.681	14655.72
247.752	14646.46
247.823	14608.72
247.894	14584.04
247.965	14552.36
248.037	14522
248.108	14484.59
248.179	14460.1
248.25	14430.84
248.321	14417.15
248.392	14376.46
248.463	14373.14
248.534	14352.55
248.605	14330.48
248.675	14292.88
248.746	14276.54
248.817	14256.34
248.888	14242.55
248.959	14204.23
249.03	14188.51
249.101	14169.23
249.172	14132.16
249.243	14082.17
249.314	14075.71
249.385	14053.63
249.456	14032.76
249.527	14002.77
249.598	13979.83
249.669	13953.22
249.739	13931.91
249.81	13918.08
249.881	13882.45
249.952	13853.82
250.023	13822.87
250.094	13788.35
250.165	13764.54
250.235	13730.07
250.306	13703.65
250.377	13670.58
250.448	13654.77
250.519	13603.96
250.59	13593.84
250.66	13565.59
250.731	13568.67
250.802	13543.37
250.873	13527.8
250.944	13511.55
251.014	13486.63
251.085	13485.52
251.156	13464.84
251.227	13456.45
251.297	13447.92
251.368	13438.61
251.439	13428.49
251.51	13425.94
251.58	13400
251.651	13368.91
251.722	13358.35
251.792	13323.64
251.863	13293.42
251.934	13278.42
252.005	13289.7
252.075	13263.91
252.146	13256.92
252.217	13242.46
252.287	13227.18
252.358	13203.61
252.429	13199.17
252.499	13173.57
252.57	13159.5
252.641	13149.76
252.711	13129.56
252.782	13086.18
252.852	13085.12
252.923	13059.9
252.994	13029.68
253.064	13017.67
253.135	12994.2
253.205	12974.05
253.276	12974.19
253.347	12971.69
253.417	12947.87
253.488	12918.47
253.558	12895.67
253.629	12867.22
253.699	12849.48
253.77	12838.93
253.841	12814.44
253.911	12799.11
253.982	12786.72
254.052	12769.37
254.123	12752.3
254.193	12733.5
254.264	12748.25
254.334	12719.47
254.405	12694.7
254.475	12671.27
254.546	12649.14
254.616	12642.35
254.687	12627.79
254.757	12612.56
254.827	12592.89
254.898	12583.44
254.968	12569.75
255.039	12543.67
255.109	12543.09
255.18	12513.01
255.25	12469.58
255.321	12455.02
255.391	12419.64
255.461	12422.29
255.532	12381.95
255.602	12352.98
255.673	12312.05
255.743	12283.85
255.813	12233.29
255.884	12228.47
255.954	12218.63
256.024	12220.9
256.095	12203.88
256.165	12171.4
256.235	12159.49
256.306	12124.98
256.376	12115.05
256.446	12105.7
256.517	12089.5
256.587	12080.77
256.657	12067.9
256.728	12054.7
256.798	12043.8
256.868	12027.8
256.938	11989.34
257.009	11981.34
257.079	11981
257.149	11987.6
257.219	11946.63
257.29	11940.99
257.36	11899.97
257.43	11892.36
257.5	11848.35
257.571	11827.48
257.641	11821.36
257.711	11788.58
257.781	11783.38
257.852	11763.61
257.922	11725.44
257.992	11710.35
258.062	11693.15
258.132	11681.14
258.202	11667.94
258.273	11651.12
258.343	11646.83
258.413	11630.54
258.483	11611.88
258.553	11585.81
258.623	11556.7
258.693	11549.47
258.764	11548.31
258.834	11553.13
258.904	11536.36
258.974	11521.13
259.044	11499.29
259.114	11489.37
259.184	11474.47
259.254	11449.46
259.324	11406.13
259.394	11400.88
259.464	11401.17
259.535	11372.97
259.605	11351.14
259.675	11323.24
259.745	11310.13
259.815	11285.26
259.885	11268.49
259.955	11276.63
260.025	11247.53
260.095	11234.66
260.165	11221.02
260.235	11223.86
260.305	11195.53
260.375	11167.91
260.445	11175.14
260.515	11171.43
260.585	11159.04
260.655	11147.33
260.725	11143.72
260.795	11145.65
260.865	11146.85
260.934	11122.32
261.004	11111.14
261.074	11096.01
261.144	11100.34
261.214	11086.27
261.284	11063.96
261.354	11049.5
261.424	11019.86
261.494	11018.8
261.564	11000.25
261.634	11000.06
261.703	10964.59
261.773	10951.15
261.843	10937.65
261.913	10912.31
261.983	10886.09
262.053	10872.65
262.123	10855.2
262.192	10831.25
262.262	10825.28
262.332	10789.91
262.402	10774.73
262.472	10760.85
262.541	10725.68
262.611	10717.05
262.681	10695.08
262.751	10691.22
262.821	10673.3
262.89	10648.24
262.96	10646.46
263.03	10652.77
263.1	10637.59
263.169	10624.68
263.239	10615.43
263.309	10619.09
263.379	10612.49
263.448	10600.01
263.518	10597.02
263.588	10581.46
263.657	10580.79
263.727	10571.39
263.797	10559.73
263.867	10551.2
263.936	10531.21
264.006	10532.89
264.076	10515.21
264.145	10504.56
264.215	10478.98
264.285	10476.96
264.354	10451.86
264.424	10427.28
264.494	10395.82
264.563	10372.16
264.633	10379.1
264.702	10368.07
264.772	10335.79
264.842	10324.42
264.911	10318.35
264.981	10282.31
265.05	10264.72
265.12	10246.85
265.19	10232.97
265.259	10229.84
265.329	10221.22
265.398	10205.03
265.468	10211.39
265.537	10191.54
265.607	10181.62
265.676	10182.34
265.746	10166.78
265.815	10168.61
265.885	10150.31
265.955	10127.52
266.024	10109.07
266.094	10071.35
266.163	10074.1
266.232	10076.41
266.302	10057.62
266.371	10042.88
266.441	10029.69
266.51	10027.61
266.58	10013.16
266.649	9995.68
266.719	9985.56
266.788	9975.88
266.858	9979.78
266.927	9945.29
266.996	9932.52
267.066	9919.37
267.135	9893.7
267.205	9895.92
267.274	9880.41
267.343	9882.09
267.413	9873.38
267.482	9876.89
267.552	9880.5
267.621	9849.72
267.69	9820.25
267.76	9808.93
267.829	9796.4
267.898	9790.82
267.968	9771.12
268.037	9766.4
268.106	9766.49
268.176	9743.42
268.245	9728.78
268.314	9712.02
268.384	9714.23
268.453	9706.62
268.522	9701.18
268.592	9702.77
268.661	9681.19
268.73	9670.55
268.799	9652.2
268.869	9654.56
268.938	9624.65
269.007	9608.33
269.076	9594.07
269.146	9594.99
269.215	9589.11
269.284	9596.29
269.353	9578.03
269.422	9569.08
269.492	9548.76
269.561	9506.04
269.63	9506.04
269.699	9489.67
269.768	9482.06
269.838	9476.09
269.907	9476.57
269.976	9456.15
270.045	9425.86
270.114	9422.78
270.183	9412.91
270.253	9408.53
270.322	9383.73
270.391	9380.6
270.46	9379.54
270.529	9378.53
270.598	9374.67
270.667	9362.44
270.736	9345.49
270.806	9337.74
270.875	9338.6
270.944	9329.75
271.013	9350.21
271.082	9339.37
271.151	9332.87
271.22	9303.31
271.289	9287.47
271.358	9273.02
271.427	9268.79
271.496	9262.09
271.565	9244.33
271.634	9234.84
271.703	9232.19
271.772	9234.99
271.841	9220.88
271.91	9195.55
271.979	9188.43
272.048	9167.67
272.117	9161.8
272.186	9143.99
272.255	9144.95
272.324	9142.35
272.393	9135.99
272.462	9120.78
272.531	9109.13
272.6	9094.3
272.669	9101.47
272.738	9090.78
272.807	9083.8
272.876	9059.11
272.945	9089.44
273.013	9096.66
273.082	9102.73
273.151	9078.22
273.22	9072.97
273.289	9066.43
273.358	9075.19
273.427	9064.36
273.496	9058.72
273.564	9053.28
273.633	9052.85
273.702	9035.62
273.771	9024.21
273.84	9020.69
273.909	9013.18
273.977	9010.63
274.046	9002.59
274.115	9002.88
274.184	8985.79
274.253	8975.44
274.322	8985.02
274.39	8946.6
274.459	8922.68
274.528	8891.92
274.597	8888.02
274.665	8882.67
274.734	8885.08
274.803	8874.63
274.872	8866.98
274.94	8853.31
275.009	8876.9
275.078	8861.16
275.147	8861.26
275.215	8853.27
275.284	8855.05
275.353	8847.59
275.421	8828.05
275.49	8843.74
275.559	8826.65
275.627	8819.14
275.696	8816.21
275.765	8816.35
275.833	8805.96
275.902	8808.56
275.971	8817.7
276.039	8829.35
276.108	8830.75
276.177	8830.17
276.245	8815.34
276.314	8808.6
276.383	8819.77
276.451	8790.59
276.52	8790.79
276.588	8797.91
276.657	8799.4
276.725	8793.48
276.794	8789.68
276.863	8798.87
276.931	8777.88
277	8788.91
277.068	8797.33
277.137	8806.71
277.205	8802.96
277.274	8823.27
277.342	8834.87
277.411	8814.18
277.48	8801.57
277.548	8793.53
277.617	8793.24
277.685	8790.26
277.754	8795.69
277.822	8781.16
277.89	8788.57
277.959	8781.35
278.027	8763.06
278.096	8756.08
278.164	8781.65
278.233	8772.45
278.301	8758.98
278.37	8763.17
278.438	8752.48
278.507	8753.06
278.575	8739.29
278.643	8733.51
278.712	8716.38
278.78	8704.54
278.849	8719.55
278.917	8724.61
278.985	8718.4
279.054	8715.61
279.122	8725.47
279.191	8724.8
279.259	8717.87
279.327	8696.74
279.396	8710.79
279.464	8705.55
279.532	8709.64
279.601	8698.03
279.669	8694.95
279.737	8709.87
279.806	8711.51
279.874	8718.92
279.942	8717.91
280.011	8703.47
280.079	8710.65
280.147	8725.08
280.215	8725.33
280.284	8719.6
280.352	8711.42
280.42	8711.85
280.488	8704.1
280.557	8698.95
280.625	8698.04
280.693	8705.93
280.761	8712.95
280.83	8694.57
280.898	8710.07
280.966	8679.99
281.034	8652.07
281.102	8636.87
281.171	8627.58
281.239	8634.66
281.307	8622.62
281.375	8612.37
281.443	8639.9
281.512	8635.47
281.58	8636.68
281.648	8624.45
281.716	8625.95
281.784	8622.67
281.852	8623.3
281.92	8622.77
281.989	8630.13
282.057	8616.47
282.125	8643.37
282.193	8637.26
282.261	8645.44
282.329	8642.55
282.397	8663.34
282.465	8667.38
282.533	8679.6
282.601	8672.87
282.67	8646.78
282.738	8640.04
282.806	8653.37
282.874	8635.13
282.942	8634.12
283.01	8627.62
283.078	8628.63
283.146	8619.11
283.214	8627.77
283.282	8629.31
283.35	8639.99
283.418	8633.83
283.486	8636.72
283.554	8607.41
283.622	8607.55
283.69	8603.07
283.758	8597.06
283.826	8596.43
283.894	8603.84
283.962	8627.14
284.03	8639.41
284.098	8648.6
284.165	8644.42
284.233	8639.51
284.301	8631.52
284.369	8624.01
284.437	8613.09
284.505	8600.53
284.573	8616.12
284.641	8601.68
284.709	8605.29
284.777	8584.21
284.845	8588.06
284.912	8599.18
284.98	8600.58
285.048	8594.8
285.116	8600.19
285.184	8611.69
285.252	8612.27
285.319	8595.57
285.387	8585.18
285.455	8566.02
285.523	8566.99
285.591	8566.79
285.659	8565.78
285.726	8579.5
285.794	8564.2
285.862	8565.3
285.93	8573.43
285.997	8568.38
286.065	8563.47
286.133	8552.07
286.201	8551.97
286.269	8536.09
286.336	8524.25
286.404	8521.12
286.472	8526.8
286.539	8500.05
286.607	8475.99
286.675	8471.37
286.743	8480.22
286.81	8472.9
286.878	8481.61
286.946	8471.41
287.013	8469.1
287.081	8470.59
287.149	8455.15
287.216	8478.82
287.284	8471.65
287.352	8464.72
287.419	8457.26
287.487	8476.32
287.555	8480.41
287.622	8479.11
287.69	8487.73
287.758	8498.79
287.825	8492.06
287.893	8481.71
287.96	8491.81
288.028	8503.6
288.096	8506.78
288.163	8508.03
288.231	8495.71
288.298	8499.13
288.366	8504.13
288.433	8500.72
288.501	8486.04
288.569	8489.7
288.636	8476.95
288.704	8491.29
288.771	8503.12
288.839	8498.6
288.906	8487.77
288.974	8494.75
289.041	8494.08
289.109	8482.58
289.176	8483.88
289.244	8489.84
289.311	8502.5
289.379	8517.9
289.446	8517.95
289.514	8514.48
289.581	8515.83
289.649	8518.38
289.716	8518.96
289.783	8517.37
289.851	8535.75
289.918	8541.67
289.986	8549.32
290.053	8560.73
290.121	8557.6
290.188	8560.92
290.255	8585.13
290.323	8578.24
290.39	8567.08
290.458	8574.06
290.525	8591.38
290.592	8588.88
290.66	8589.17
290.727	8581.32
290.794	8587.05
290.862	8588.3
290.929	8593.35
290.996	8590.08
291.064	8603.07
291.131	8612.27
291.198	8627.28
291.266	8625.89
291.333	8626.9
291.4	8632.1
291.468	8642.3
291.535	8636.86
291.602	8637.29
291.669	8630.03
291.737	8641.91
291.804	8646.87
291.871	8659.24
291.938	8661.12
292.006	8683.45
292.073	8695.1
292.14	8704
292.207	8696.4
292.275	8696.83
292.342	8703.91
292.409	8728.6
292.476	8753.92
292.543	8747.47
292.611	8744
292.678	8762.01
292.745	8782.46
292.812	8787.66
292.879	8781.26
292.946	8787.75
293.014	8800.22
293.081	8802.15
293.148	8808.07
293.215	8820.15
293.282	8814.85
293.349	8822.26
293.416	8806.09
293.484	8814.08
293.551	8828.04
293.618	8844.79
293.685	8867.7
293.752	8859.14
293.819	8855.96
293.886	8838.92
293.953	8840.79
294.02	8850.9
294.087	8845.27
294.154	8841.51
294.221	8850.81
294.288	8851.58
294.356	8866.74
294.423	8872.76
294.49	8871.31
294.557	8884.12
294.624	8872.18
294.691	8891
294.758	8889.94
294.825	8894.56
294.892	8889.46
294.959	8885.51
295.026	8892.44
295.093	8883.73
295.16	8888.88
295.226	8891.91
295.293	8912.95
295.36	8915.36
295.427	8922.39
295.494	8942.51
295.561	8948.38
295.628	8976.46
295.695	8987.38
295.762	8992.01
295.829	9005.63
295.896	9023.73
295.963	9032.83
296.03	9049.1
296.096	9048.52
296.163	9056.99
296.23	9071.92
296.297	9082.51
296.364	9078.75
296.431	9083.42
296.498	9085.06
296.564	9109.04
296.631	9112.6
296.698	9096.57
296.765	9113.03
296.832	9103.06
296.899	9090.26
296.965	9102.58
297.032	9078.79
297.099	9102
297.166	9102.1
297.233	9094.73
297.299	9082.21
297.366	9080.63
297.433	9078.41
297.5	9083.8
297.566	9089.58
297.633	9086.5
297.7	9087.17
297.767	9084.19
297.833	9083.8
297.9	9079.33
297.967	9059.01
298.033	9061.18
298.1	9090.65
298.167	9091.99
298.234	9099.31
298.3	9107.11
298.367	9105.52
298.434	9115.54
298.5	9097.48
298.567	9094.06
298.634	9087.18
298.7	9103.21
298.767	9103.3
298.834	9118.95
298.9	9113.7
298.967	9106
299.033	9113.27
299.1	9125.93
299.167	9144.23
299.233	9141.72
299.3	9160.02
299.366	9176.29
299.433	9190.2
299.5	9161.32
299.566	9163.77
299.633	9176.19
299.699	9180.48
299.766	9178.84
299.832	9180.19
299.899	9185.68
299.965	9200.84
300.032	9196.75
300.099	9207.2
300.165	9213.36
300.232	9209.13
300.298	9209.27
300.365	9219.38
300.431	9221.55
300.498	9220.78
300.564	9221.4
300.631	9230.5
300.697	9234.31
300.763	9233.49
300.83	9237.29
300.896	9255.59
300.963	9263.29
301.029	9268.35
301.096	9272.3
301.162	9284
301.229	9278.75
301.295	9272.35
301.361	9273.16
301.428	9279.23
301.494	9260.55
301.561	9259.3
301.627	9261.95
301.693	9264.64
301.76	9267.87
301.826	9262.91
301.892	9266.95
301.959	9277.06
302.025	9273.6
302.092	9265.22
302.158	9272.87
302.224	9263.2
302.291	9254.87
302.357	9247.84
302.423	9237.72
302.49	9231.22
302.556	9235.94
302.622	9230.74
302.688	9234.64
302.755	9244.66
302.821	9252.46
302.887	9261.94
302.954	9260.55
303.02	9263.2
303.086	9272.54
303.152	9268.78
303.219	9263.19
303.285	9265.36
303.351	9270.08
303.417	9270.42
303.483	9268.44
303.55	9259.15
303.616	9260.89
303.682	9253.42
303.748	9245
303.815	9254.44
303.881	9261.27
303.947	9247.41
304.013	9251.79
304.079	9246.68
304.145	9228
304.212	9222.46
304.278	9214.13
304.344	9207.88
304.41	9195.07
304.476	9178.99
304.542	9171.24
304.608	9172.68
304.674	9156.12
304.741	9144.95
304.807	9142.01
304.873	9146.87
304.939	9158.43
305.005	9141.82
305.071	9136.38
305.137	9134.64
305.203	9112.45
305.269	9103.35
305.335	9115.38
305.401	9111.73
305.467	9109.41
305.533	9117.98
305.599	9123.43
305.666	9127.42
305.732	9128.96
305.798	9141
305.864	9163.34
305.93	9168.83
305.996	9168.49
306.062	9167.38
306.128	9165.02
306.194	9151.45
306.259	9146.34
306.325	9135.99
306.391	9139.65
306.457	9150.44
306.523	9152.89
306.589	9172.29
306.655	9165.5
306.721	9142.11
306.787	9128.38
306.853	9137.05
306.919	9111.2
306.985	9099.21
307.051	9089.87
307.117	9079.52
307.183	9066.23
307.248	9037.39
307.314	9036.62
307.38	9032.58
307.446	9037.92
307.512	9026.99
307.578	9031.13
307.644	9021.12
307.709	9019.39
307.775	9013.37
307.841	9005.62
307.907	9001.91
307.973	8982.7
308.039	8977.02
308.104	8982.7
308.17	8985.3
308.236	8975.96
308.302	8983.85
308.368	8970.62
308.433	8971.53
308.499	8963.59
308.565	8956.27
308.631	8956.66
308.696	8933.46
308.762	8926.04
308.828	8916.41
308.894	8893.69
308.959	8872.52
309.025	8861.98
309.091	8855.33
309.156	8848.06
309.222	8849.03
309.288	8836.08
309.354	8811.63
309.419	8813.94
309.485	8793.14
309.551	8789.44
309.616	8773.31
309.682	8766.38
309.748	8759.07
309.813	8748.09
309.879	8742.8
309.945	8729.46
310.01	8728.16
310.076	8727.97
310.141	8722.82
310.207	8713.05
310.273	8715.65
310.338	8719.26
310.404	8707.61
310.469	8686.48
310.535	8674.11
310.601	8645.77
310.666	8649.66
310.732	8664.01
310.797	8652.89
310.863	8647.69
310.928	8641.05
310.994	8638.83
311.059	8633.39
311.125	8636.47
311.191	8647.64
311.256	8631.14
311.322	8633.74
311.387	8613.96
311.453	8965.12
311.518	8929.61
311.584	8927.63
311.649	8933.65
311.715	8917.96
311.78	8915.99
311.846	8911.47
311.911	8915.41
311.976	8920.03
312.042	8907.09
312.107	8888.46
312.173	8877.01
312.238	8869.02
312.304	8865.6
312.369	8855.98
312.434	8846.88
312.5	8833.6
312.565	8800.44
312.631	8808.48
312.696	8795.77
312.761	8796.4
312.827	8436.81
312.892	8473.67
312.958	8470.06
313.023	8462.41
313.088	8459.33
313.154	8445.04
313.219	8434.84
313.284	8424.06
313.35	8416.37
313.415	8406.07
313.48	8395.68
313.546	8392.16
313.611	8398.95
313.676	8385.43
313.741	8381
313.807	8385.38
313.872	8386.87
313.937	8390.43
314.003	8400.49
314.068	8402.27
314.133	8403.71
314.198	8390.05
314.264	8369.16
314.329	8350.92
314.394	8342.41
314.459	8338.8
314.525	8355.11
314.59	8351.02
314.655	8343.37
314.72	8347.31
314.785	8347.36
314.851	8345.53
314.916	8327.97
314.981	8309.26
315.046	8302.04
315.111	8286.02
315.176	8266.1
315.242	8265.48
315.307	8260.86
315.372	8237.14
315.437	8225.68
315.502	8219.14
315.567	8228.04
315.632	8217.65
315.698	8224.43
315.763	8218.52
315.828	8217.31
315.893	8213.13
315.958	8213.56
316.023	8202.78
316.088	8186.52
316.153	8165.16
316.218	8159.97
316.283	8145.45
316.348	8137.41
316.413	8131.83
316.479	8119.38
316.544	8090.33
316.609	8064.88
316.674	8033.57
316.739	8002.07
316.804	7974.71
316.869	7939.12
316.934	7909.24
316.999	7878.8
317.064	7825.66
317.129	7787.72
317.194	7752.81
317.259	7706.11
317.324	7660.43
317.389	7618.17
317.454	7583.84
317.518	7550.19
317.583	7528.45
317.648	7508.93
317.713	7471.82
317.778	7414.66
317.843	7384.62
317.908	7353.04
317.973	7317.62
318.038	7293.63
318.103	7260.76
318.168	7230.39
318.233	7199.97
318.297	7150.56
318.362	7112.55
318.427	7077.72
318.492	7053.31
318.557	7013
318.622	6986.57
318.687	6963.47
318.751	6926.05
318.816	6895.06
318.881	6866.24
318.946	6806.2
319.011	6757.3
319.075	6719.21
319.14	6689.35
319.205	6650.83
319.27	6620.29
319.335	6575.15
319.399	6533.52
319.464	6504.14
319.529	6451.76
319.594	6415.8
319.658	6386.18
319.723	6350.9
319.788	6322.87
319.853	6272.18
319.917	6241.41
319.982	6196.48
320.047	6157.13
320.112	6136.4
320.176	6089.32
320.241	6054.82
320.306	6031.31
320.37	6001.32
320.435	5971.43
320.5	5943.95
320.564	5906.19
320.629	5865.38
320.694	5842.12
320.758	5804.95
320.823	5767.68
320.888	5748.02
320.952	5700.36
321.017	5664.78
321.082	5623.79
321.146	5592.29
321.211	5563.57
321.275	5525.08
321.34	5485.87
321.405	5445.56
321.469	5400.17
321.534	5360.54
321.598	5310.47
321.663	5286.31
321.727	5253.92
321.792	5209.31
321.857	5170.64
321.921	5135.05
321.986	5098.51
322.05	5039.79
322.115	5003.2
322.179	4958.38
322.244	4901.64
322.308	4874.21
322.373	4827.57
322.437	4793.77
322.502	4774.61
322.566	4731.48
322.631	4694.82
322.695	4654.24
322.76	4612.8
322.824	4581.26
322.889	4541.12
322.953	4502.81
323.018	4430.72
323.082	4366.39
323.146	4318.14
323.211	4267.01
323.275	4225.79
323.34	4179.56
323.404	4148.54
323.468	4104.6
323.533	4061.68
323.597	4024.22
323.662	3976.32
323.726	3945.68
323.79	3900.81
323.855	3832.06
323.919	3786.91
323.983	3745.58
324.048	3684.85
324.112	3844.15
324.177	3723.71
324.241	3532.3
324.305	3344.41
324.37	3166.14
324.434	2992.82
324.498	2954.76
324.562	2910.15
324.627	2855.3
324.691	2809.39
324.755	2750.34
324.82	2685.97
324.884	2621.85
324.948	2557.04
325.012	2471.25
325.077	2356.17
