Data from 20250625_urea_1M_1_MAYP1162681_21-35-06-085.txt Node
Date: Wed Jun 25 21:35:06 BST 2025
User: adleo
Spectrometer: MAYP116268
Trigger mode: 0
Integration Time (sec): 1.000000E0
Scans to average: 1
Electric dark correction enabled: true
Nonlinearity correction enabled: true
Boxcar width: 10
XAxis mode: Wavelengths
Number of Pixels in Spectrum: 2068
>>>>>Begin Spectral Data<<<<<
179.565	1175.2
179.642	1230.84
179.718	1269.63
179.795	1312.65
179.871	1344.81
179.948	1364.15
180.024	1384.86
180.101	1406.43
180.177	1419.84
180.254	1441.15
180.33	1465.27
180.407	1516.45
180.483	1610.28
180.56	1696.51
180.636	1779.59
180.712	1767.66
180.789	1775.69
180.865	1790.47
180.942	1800.11
181.018	1807.81
181.095	1825.31
181.171	1828.59
181.248	1830.11
181.324	1846.65
181.4	1849.03
181.477	1862.58
181.553	1874.03
181.63	1893.52
181.706	1906.45
181.782	1916.1
181.859	1918
181.935	1920.33
182.011	1918.24
182.088	1934.26
182.164	1954.76
182.24	1966.27
182.317	1974.11
182.393	1972.64
182.469	1984.05
182.546	1994.51
182.622	1997.12
182.698	1990.89
182.775	2003.11
182.851	2012.67
182.927	2006.15
183.003	2002.92
183.08	1993.41
183.156	2001.73
183.232	1998.4
183.308	1990.42
183.385	1996.6
183.461	2012.91
183.537	2012.29
183.613	2027.37
183.69	2018.81
183.766	2007.82
183.842	2015.66
183.918	2019.66
183.995	2030.02
184.071	2035.26
184.147	2030.31
184.223	2020.9
184.299	2031.89
184.375	2021.14
184.452	2031.51
184.528	2087.13
184.604	2100.73
184.68	2113.15
184.756	2120.61
184.832	2124.37
184.908	2127.13
184.985	2129.98
185.061	2111.63
185.137	2123.37
185.213	2109.68
185.289	2109.34
185.365	2102.07
185.441	2099.98
185.517	2117.1
185.593	2117.58
185.669	2114.01
185.745	2125.33
185.822	2142.73
185.898	2135.83
185.974	2146.87
186.05	2138.4
186.126	2097.86
186.202	2088.15
186.278	2083.21
186.354	2075.74
186.43	2081.64
186.506	2082.49
186.582	2079.35
186.658	2086.68
186.734	2066.85
186.81	2067.8
186.886	2070.94
186.962	2082.11
187.038	2076.55
187.114	2067.03
187.19	2071.93
187.266	2060.52
187.341	2061.66
187.417	2054.29
187.493	2053.72
187.569	2056.38
187.645	2050.48
187.721	2035.45
187.797	2044.82
187.873	2051.86
187.949	2042.11
188.025	2036.07
188.101	2038.64
188.176	2039.59
188.252	2035.83
188.328	2043.77
188.404	2041.73
188.48	2034.22
188.556	2028.08
188.632	2031.88
188.707	2032.03
188.783	2028.89
188.859	2025.13
188.935	2012.86
189.011	2023.61
189.086	2017.95
189.162	2011.67
189.238	2008.25
189.314	2007.49
189.39	1998.98
189.465	1990.37
189.541	2007.58
189.617	1994.32
189.693	1989.18
189.768	1994.22
189.844	2016.01
189.92	2006.79
189.996	2018.58
190.071	2031.14
190.147	2031.52
190.223	2038.79
190.298	2031.8
190.374	2018.96
190.45	2031.7
190.526	2038.46
190.601	2029.47
190.677	2030.47
190.753	2057.64
190.828	2061.26
190.904	2078.9
190.98	2094.22
191.055	2102.02
191.131	2095.26
191.207	2112.53
191.282	2122.18
191.358	2114.81
191.433	2103.25
191.509	2117.75
191.585	2113.85
191.66	2116.51
191.736	2125.26
191.811	2115.8
191.887	2130.83
191.963	2154.33
192.038	2157.75
192.114	2158.99
192.189	2162.89
192.265	2161.18
192.34	2136.57
192.416	2135.24
192.491	2130.15
192.567	2135.81
192.642	2141.47
192.718	2139.67
192.793	2129.87
192.869	2125.45
192.944	2127.73
193.02	2135.15
193.095	2138.1
193.171	2143.43
193.246	2140.43
193.322	2137.34
193.397	2140.33
193.473	2128.01
193.548	2110.55
193.624	2115.83
193.699	2116.64
193.775	2134.87
193.85	2132.54
193.925	2139.39
194.001	2138.2
194.076	2132.54
194.152	2117.69
194.227	2108.65
194.302	2103.52
194.378	2108.65
194.453	2106.23
194.529	2119.93
194.604	2104.99
194.679	2098.57
194.755	2079.6
194.83	2093.83
194.905	2091.26
194.981	2098.54
195.056	2088.74
195.131	2095.35
195.207	2094.54
195.282	2085.74
195.357	2064.57
195.433	2082.45
195.508	2071.04
195.583	2080.98
195.659	2091.87
195.734	2102.77
195.809	2101.58
195.884	2107.14
195.96	2106.38
196.035	2122.84
196.11	2118.32
196.185	2128.69
196.261	2131.07
196.336	2161.79
196.411	2143.43
196.486	2148.28
196.561	2139.72
196.637	2151.51
196.712	2164.98
196.787	2168.07
196.862	2182.15
196.937	2192.43
197.013	2199.18
197.088	2210.46
197.163	2231.12
197.238	2247.92
197.313	2245.92
197.388	2261.63
197.464	2291.95
197.539	2305.89
197.614	2294.19
197.689	2304.52
197.764	2320.56
197.839	2340.64
197.914	2333.4
197.989	2361.63
198.065	2374
198.14	2425.77
198.215	2450.77
198.29	2463.72
198.365	2478.1
198.44	2486.62
198.515	2515.1
198.59	2526.81
198.665	2555.14
198.74	2562.38
198.815	2563.81
198.89	2589.15
198.965	2617.5
199.04	2613.4
199.115	2627.21
199.19	2672.45
199.265	2677.4
199.34	2686.45
199.415	2718.62
199.49	2742.86
199.565	2750.44
199.64	2774.16
199.715	2772.68
199.79	2777.97
199.865	2785.83
199.94	2783.17
200.015	2817.95
200.09	2823.2
200.165	2829.92
200.24	2834.59
200.315	2872.46
200.39	2887.23
200.464	2890.04
200.539	2896.05
200.614	2911.97
200.689	2933.66
200.764	2941.29
200.839	2956.63
200.914	2963.11
200.989	2954.05
201.063	2967.25
201.138	2948.44
201.213	2948.58
201.288	2926.51
201.363	2931.61
201.438	2929.66
201.512	2944.24
201.587	2924.88
201.662	2927.07
201.737	2941.95
201.812	2949.62
201.886	2917.52
201.961	2927.3
202.036	2917.19
202.111	2906.42
202.186	2878.31
202.26	2863.06
202.335	2841.56
202.41	2838.79
202.485	2823.55
202.559	2805.53
202.634	2777.18
202.709	2789.42
202.784	2771.22
202.858	2771.6
202.933	2755.45
203.008	2750.83
203.082	2731.96
203.157	2735.16
203.232	2695.86
203.306	2675.42
203.381	2641.16
203.456	2619.11
203.53	2595.94
203.605	2574.85
203.68	2554.36
203.754	2549.98
203.829	2534.31
203.904	2515.4
203.978	2500.5
204.053	2505.64
204.127	2491.55
204.202	2492.74
204.277	2476.12
204.351	2468.6
204.426	2464.36
204.5	2455.93
204.575	2420.61
204.65	2432.81
204.724	2420.89
204.799	2428.89
204.873	2421.13
204.948	2421.98
205.022	2412.89
205.097	2405.99
205.171	2420.84
205.246	2428.65
205.32	2425.51
205.395	2423.03
205.469	2414.94
205.544	2419.99
205.618	2401.09
205.693	2415.7
205.767	2401.14
205.842	2416.76
205.916	2413
205.991	2401.38
206.065	2407.09
206.14	2423.27
206.214	2417.12
206.289	2406.93
206.363	2414.88
206.438	2418.74
206.512	2426.5
206.586	2444.45
206.661	2452.83
206.735	2429.94
206.81	2427.89
206.884	2442.74
206.958	2433.94
207.033	2448.31
207.107	2459.17
207.181	2489.7
207.256	2479.7
207.33	2499.46
207.405	2515.09
207.479	2533.52
207.553	2541.85
207.628	2528
207.702	2541.23
207.776	2536.85
207.851	2544.95
207.925	2565.34
207.999	2561.53
208.073	2558.15
208.148	2559.77
208.222	2547.48
208.296	2579.18
208.371	2599.48
208.445	2613.72
208.519	2637.82
208.593	2653.49
208.668	2647.72
208.742	2650.01
208.816	2656.01
208.89	2672.21
208.965	2673.02
209.039	2681.08
209.113	2701.75
209.187	2724.03
209.261	2722.8
209.336	2744.95
209.41	2767.35
209.484	2771.11
209.558	2798.66
209.632	2820.67
209.707	2840.35
209.781	2870.94
209.855	2897.69
209.929	2921.83
210.003	2935.85
210.077	2951.63
210.151	3005.79
210.226	3056.26
210.3	3097.87
210.374	3137.82
210.448	3155.57
210.522	3183.62
210.596	3219.69
210.67	3250.17
210.744	3321.91
210.818	3381.92
210.892	3430.79
210.966	3458.71
211.041	3509.03
211.115	3543.73
211.189	3606.51
211.263	3664.77
211.337	3710.66
211.411	3769.05
211.485	3814.59
211.559	3879.41
211.633	3938.25
211.707	3970.58
211.781	4043.64
211.855	4080.45
211.929	4141.82
212.003	4203.23
212.077	4296.05
212.151	4387.78
212.225	4484.2
212.299	4563.31
212.373	4643.43
212.447	4735.7
212.52	4869.74
212.594	4975.56
212.668	5094.43
212.742	5192.08
212.816	5303.8
212.89	5422.49
212.964	5544.05
213.038	5675.61
213.112	5816.58
213.186	5964.88
213.26	6082.86
213.333	6175.77
213.407	6328.99
213.481	6486.16
213.555	6648.9
213.629	6793.32
213.703	6937.11
213.777	7096.65
213.85	7240.83
213.924	7442.1
213.998	7614.08
214.072	7775.98
214.146	7948.07
214.219	8128.16
214.293	8307.86
214.367	8490.8
214.441	8685.24
214.515	8863.71
214.588	9026.36
214.662	9187.24
214.736	9358.39
214.81	9564.72
214.883	9770.68
214.957	9954.55
215.031	10136.79
215.105	10314.07
215.178	10494.49
215.252	10685.8
215.326	10853.23
215.4	11032.51
215.473	11186.29
215.547	11361.9
215.621	11542.1
215.694	11728.32
215.768	11903.91
215.842	12084.21
215.915	12265.83
215.989	12433.72
216.063	12612.93
216.136	12801.98
216.21	12986.93
216.284	13179.79
216.357	13369.96
216.431	13545.47
216.504	13733.75
216.578	13937.46
216.652	14122.38
216.725	14304.2
216.799	14489.4
216.873	14670.36
216.946	14856.04
217.02	15020.94
217.093	15188.69
217.167	15341.97
217.24	15501.32
217.314	15659.71
217.387	15816.75
217.461	15966.99
217.535	16136.5
217.608	16276.86
217.682	16439.86
217.755	16610.86
217.829	16764.9
217.902	16903.51
217.976	17060.33
218.049	17194.75
218.123	17328.58
218.196	17483.14
218.27	17616.78
218.343	17731.77
218.417	17873.21
218.49	18001.11
218.563	18149.69
218.637	18286.6
218.71	18429.29
218.784	18551.22
218.857	18684.75
218.931	18811.49
219.004	18938.09
219.077	19064.88
219.151	19194.32
219.224	19306.84
219.298	19415.13
219.371	19523.51
219.444	19625
219.518	19715.98
219.591	19828.6
219.665	19944.94
219.738	20035.15
219.811	20124.11
219.885	20243.39
219.958	20346.96
220.031	20440.31
220.105	20531.59
220.178	20621.27
220.251	20706.82
220.325	20808.32
220.398	20886.88
220.471	20980.42
220.544	21062.79
220.618	21120
220.691	21191.57
220.764	21256.35
220.838	21331.73
220.911	21399.69
220.984	21487.7
221.057	21567.32
221.131	21628.63
221.204	21665.17
221.277	21747.5
221.35	21832
221.424	21875.23
221.497	21927.73
221.57	21978.39
221.643	22037.2
221.716	22093.7
221.79	22126.81
221.863	22170.63
221.936	22220.96
222.009	22258.32
222.082	22309.61
222.155	22359.55
222.229	22416.25
222.302	22458.14
222.375	22493.23
222.448	22536.91
222.521	22568.11
222.594	22603.68
222.667	22618.73
222.74	22653.1
222.814	22675.13
222.887	22693.89
222.96	22730.09
223.033	22753.09
223.106	22779.32
223.179	22805.45
223.252	22817.12
223.325	22850.05
223.398	22868.32
223.471	22889.87
223.544	22903.28
223.617	22917.45
223.69	22934.23
223.763	22935.68
223.837	22960.17
223.91	22972.27
223.983	22967.98
224.056	22957.76
224.129	22966.58
224.202	22987.89
224.275	22994.55
224.348	22977.77
224.42	22975.89
224.493	22962.34
224.566	22968.17
224.639	22975.41
224.712	22959.49
224.785	22964.32
224.858	22957.95
224.931	22949.8
225.004	22930.03
225.077	22934.9
225.15	22904.48
225.223	22905.69
225.296	22926.52
225.369	22894.02
225.442	22883.12
225.514	22873.77
225.587	22875.94
225.66	22878.21
225.733	22886.74
225.806	22878.69
225.879	22880.14
225.952	22865.24
226.025	22870.15
226.097	22870.78
226.17	22855.59
226.243	22828.74
226.316	22802.22
226.389	22797.21
226.461	22783.9
226.534	22781.78
226.607	22759.99
226.68	22766.55
226.753	22733.76
226.825	22693.6
226.898	22701.26
226.971	22677.74
227.044	22668
227.117	22661.2
227.189	22640.23
227.262	22621.18
227.335	22611.35
227.407	22591.44
227.48	22576.88
227.553	22559.81
227.626	22528.32
227.698	22525.96
227.771	22523.07
227.844	22514.63
227.916	22491.93
227.989	22468.74
228.062	22444.2
228.134	22447.82
228.207	22433.5
228.28	22416.38
228.352	22394.84
228.425	22374.68
228.498	22374.15
228.57	22347.25
228.643	22346.24
228.716	22323.25
228.788	22297.31
228.861	22266.17
228.934	22260.29
229.006	22239.85
229.079	22210.15
229.151	22190.48
229.224	22149.27
229.296	22129.5
229.369	22155.59
229.442	22149.56
229.514	22121.6
229.587	22120.59
229.659	22086.51
229.732	22058.55
229.804	22051.37
229.877	22058.84
229.949	22043.12
230.022	22033.63
230.094	22022.15
230.167	21988.6
230.239	21968.89
230.312	21944.45
230.384	21951.34
230.457	21923.48
230.529	21915.19
230.602	21898.42
230.674	21879.13
230.747	21864.77
230.819	21855.95
230.892	21781.57
230.964	21759.73
231.037	21740.55
231.109	21704.45
231.181	21678.37
231.254	21644.58
231.326	21615.86
231.399	21577.63
231.471	21550.78
231.544	21498.39
231.616	21479.83
231.688	21459.39
231.761	21425.03
231.833	21396.21
231.905	21342.61
231.978	21324.87
232.05	21291.08
232.122	21271.42
232.195	21250.21
232.267	21234.98
232.339	21197
232.412	21187.99
232.484	21163.21
232.556	21136.51
232.629	21144.08
232.701	21126.87
232.773	21110.97
232.846	21076.12
232.918	21048.22
232.99	21025.13
233.062	21012.26
233.135	20982.82
233.207	20927.83
233.279	20896.69
233.351	20875.29
233.424	20851.44
233.496	20812.06
233.568	20795.97
233.64	20764.21
233.713	20721.46
233.785	20698.37
233.857	20684.83
233.929	20635.48
234.001	20622.18
234.074	20615.24
234.146	20555.43
234.218	20524.05
234.29	20498.75
234.362	20471.38
234.434	20429.93
234.507	20393.35
234.579	20354.65
234.651	20320.05
234.723	20315.43
234.795	20304.15
234.867	20281.11
234.939	20263.91
235.012	20239.48
235.084	20213.64
235.156	20188.34
235.228	20156.78
235.3	20118.66
235.372	20089.65
235.444	20070.56
235.516	20004.16
235.588	19972.25
235.66	19940.93
235.732	19904.11
235.804	19917.12
235.876	19896.88
235.948	19888.26
236.02	19846.62
236.092	19806.04
236.164	19773.18
236.236	19729.81
236.308	19689.62
236.38	19657.52
236.452	19611.45
236.524	19582.25
236.596	19564.56
236.668	19532.03
236.74	19500.85
236.812	19464.28
236.884	19432.14
236.956	19409.92
237.028	19378.02
237.1	19331.8
237.172	19316.09
237.244	19296.19
237.316	19229.69
237.388	19181.84
237.46	19135.19
237.532	19120.39
237.604	19080.3
237.675	19067.38
237.747	19046.18
237.819	19009.85
237.891	18970.76
237.963	18934.96
238.035	18895.83
238.107	18823.45
238.178	18803.74
238.25	18771.4
238.322	18766.01
238.394	18712.66
238.466	18668.86
238.538	18642.3
238.609	18613.29
238.681	18562.5
238.753	18522.65
238.825	18494.41
238.897	18473.35
238.968	18461.88
239.04	18421.98
239.112	18426.07
239.184	18382.37
239.255	18341.84
239.327	18312.49
239.399	18284.78
239.471	18266.56
239.542	18239.82
239.614	18228.49
239.686	18167.44
239.758	18146.71
239.829	18101.46
239.901	18084.55
239.973	18053.46
240.044	18030.14
240.116	17994.53
240.188	17961.56
240.259	17933.66
240.331	17894.1
240.403	17863.35
240.474	17810.05
240.546	17768.46
240.618	17706.58
240.689	17669.14
240.761	17637.81
240.833	17618.1
240.904	17575.6
240.976	17542.1
241.048	17522.1
241.119	17496.8
241.191	17475.21
241.262	17459.12
241.334	17422.15
241.405	17386.59
241.477	17346.78
241.549	17312.51
241.62	17287.6
241.692	17268.27
241.763	17239.6
241.835	17198.2
241.906	17174.68
241.978	17130.34
242.049	17124.41
242.121	17113.62
242.192	17103.35
242.264	17062.39
242.335	17009.76
242.407	16991.06
242.478	16953.32
242.55	16920.94
242.621	16884.74
242.693	16857.7
242.764	16818.52
242.836	16784.3
242.907	16758.13
242.979	16741.51
243.05	16715.48
243.122	16692.3
243.193	16648.01
243.264	16606.03
243.336	16588.39
243.407	16569.16
243.479	16562.22
243.55	16531.04
243.622	16502.65
243.693	16457.68
243.764	16446.69
243.836	16415.56
243.907	16386.2
243.978	16351.16
244.05	16323.55
244.121	16281.18
244.192	16255.73
244.264	16211.97
244.335	16184.98
244.407	16140.78
244.478	16119.33
244.549	16081.4
244.62	16037.73
244.692	16019.71
244.763	16000.04
244.834	15958.2
244.906	15919.79
244.977	15895.5
245.048	15880.03
245.119	15844.6
245.191	15812.02
245.262	15764.49
245.333	15757.07
245.405	15732.39
245.476	15716.19
245.547	15689.44
245.618	15661.97
245.689	15637.39
245.761	15616.56
245.832	15586.29
245.903	15571.21
245.974	15537.13
246.045	15512.69
246.117	15502.09
246.188	15457.89
246.259	15412.24
246.33	15391.46
246.401	15354.16
246.473	15312.46
246.544	15272.55
246.615	15258.86
246.686	15225.6
246.757	15210.71
246.828	15164.24
246.899	15142.64
246.97	15104.23
247.042	15075.02
247.113	15064.6
247.184	15048.55
247.255	15013.22
247.326	14986.42
247.397	14954.94
247.468	14935.18
247.539	14908.96
247.61	14866.06
247.681	14856.37
247.752	14843.35
247.823	14805.75
247.894	14786.81
247.965	14756
248.037	14723.08
248.108	14672.66
248.179	14654.44
248.25	14626.72
248.321	14614.57
248.392	14579.87
248.463	14578.56
248.534	14548.34
248.605	14517.73
248.675	14487.75
248.746	14468.18
248.817	14447.79
248.888	14436.46
248.959	14392.01
249.03	14373.79
249.101	14351.66
249.172	14318.64
249.243	14284.9
249.314	14280.9
249.385	14255.06
249.456	14236.69
249.527	14214.57
249.598	14198.85
249.669	14177.93
249.739	14157.2
249.81	14135.46
249.881	14102.58
249.952	14073.66
250.023	14047.2
250.094	14014.95
250.165	13983.42
250.235	13961.49
250.306	13944.32
250.377	13905.76
250.448	13895.49
250.519	13854.03
250.59	13848.01
250.66	13827.38
250.731	13822.36
250.802	13798.36
250.873	13781.34
250.944	13759.4
251.014	13729.95
251.085	13735.01
251.156	13710.81
251.227	13701.56
251.297	13692.25
251.368	13681.21
251.439	13668.68
251.51	13663.28
251.58	13635.03
251.651	13612.09
251.722	13602.11
251.792	13566.53
251.863	13543
251.934	13529.65
252.005	13544.79
252.075	13526.71
252.146	13517.46
252.217	13503.86
252.287	13486.07
252.358	13457.25
252.429	13450.45
252.499	13427.21
252.57	13404.07
252.641	13391.35
252.711	13377.03
252.782	13340.97
252.852	13341.02
252.923	13318.84
252.994	13296.38
253.064	13289.78
253.135	13255.79
253.205	13225.95
253.276	13220.7
253.347	13221.03
253.417	13189.17
253.488	13158.32
253.558	13126.65
253.629	13101.39
253.699	13084.03
253.77	13069.76
253.841	13054.67
253.911	13043.01
253.982	13024.54
254.052	13012.64
254.123	12994.8
254.193	12961.3
254.264	12977.74
254.334	12943.85
254.405	12913.28
254.475	12882.63
254.546	12862.52
254.616	12866.77
254.687	12854.18
254.757	12835.53
254.827	12814.61
254.898	12801.5
254.968	12782.5
255.039	12765.05
255.109	12754.98
255.18	12724.99
255.25	12684.45
255.321	12680.36
255.391	12641.7
255.461	12641.65
255.532	12598.26
255.602	12581.34
255.673	12548.42
255.743	12524.41
255.813	12480.84
255.884	12470.67
255.954	12458.13
256.024	12452.44
256.095	12431.43
256.165	12404.87
256.235	12394.79
256.306	12363.27
256.376	12359.03
256.446	12347.07
256.517	12325.62
256.587	12321.62
256.657	12302.87
256.728	12286.38
256.798	12256.26
256.868	12237.17
256.938	12211.91
257.009	12202.7
257.079	12184.1
257.149	12193.5
257.219	12153.05
257.29	12143.8
257.36	12110.64
257.43	12102.83
257.5	12059.98
257.571	12038
257.641	12031.34
257.711	12003.19
257.781	11999.29
257.852	11982.9
257.922	11948.39
257.992	11938.03
258.062	11908.14
258.132	11905.97
258.202	11893.92
258.273	11883.46
258.343	11888.67
258.413	11867.94
258.483	11858.16
258.553	11831.12
258.623	11801.81
258.693	11785.62
258.764	11786.92
258.834	11787.25
258.904	11775.4
258.974	11760.46
259.044	11738.72
259.114	11723.68
259.184	11705.75
259.254	11678.42
259.324	11643
259.394	11628.68
259.464	11622.51
259.535	11602.32
259.605	11574.17
259.675	11545.54
259.745	11528.87
259.815	11500.86
259.885	11479.75
259.955	11485.58
260.025	11464.81
260.095	11452.48
260.165	11441.49
260.235	11440.33
260.305	11418.5
260.375	11386.64
260.445	11393.39
260.515	11399.51
260.585	11394.06
260.655	11385.43
260.725	11377.67
260.795	11375.36
260.865	11373.82
260.934	11349.77
261.004	11341.48
261.074	11324.47
261.144	11329.19
261.214	11324.9
261.284	11306.2
261.354	11299.94
261.424	11266.82
261.494	11277.62
261.564	11257.62
261.634	11247.88
261.703	11212.27
261.773	11197.57
261.843	11187.31
261.913	11162.78
261.983	11122.63
262.053	11109.76
262.123	11091.74
262.192	11066.88
262.262	11056.13
262.332	11033.62
262.402	11026.88
262.472	11012.23
262.541	10976.86
262.611	10970.45
262.681	10943.08
262.751	10930.69
262.821	10913.87
262.89	10884.04
262.96	10867.42
263.03	10877.63
263.1	10866.45
263.169	10855.61
263.239	10853.93
263.309	10859.37
263.379	10851.47
263.448	10842.99
263.518	10829.59
263.588	10811.04
263.657	10813.21
263.727	10809.06
263.797	10790.9
263.867	10770.37
263.936	10746.76
264.006	10745.6
264.076	10723.73
264.145	10713.51
264.215	10692.31
264.285	10687.78
264.354	10660.22
264.424	10644.66
264.494	10605.63
264.563	10589.82
264.633	10592.57
264.702	10570.94
264.772	10534.56
264.842	10515.19
264.911	10507.91
264.981	10478.81
265.05	10464.88
265.12	10448.6
265.19	10429.23
265.259	10422.82
265.329	10413.91
265.398	10397.24
265.468	10413.57
265.537	10396.56
265.607	10382.83
265.676	10379.85
265.746	10364.81
265.815	10362.26
265.885	10342.36
265.955	10322.51
266.024	10298.52
266.094	10262.53
266.163	10264.46
266.232	10269.28
266.302	10259.02
266.371	10248.08
266.441	10235.7
266.51	10229.34
266.58	10213.2
266.649	10192.25
266.719	10190.51
266.788	10184.63
266.858	10195.91
266.927	10156.06
266.996	10153.51
267.066	10145.51
267.135	10121.33
267.205	10111.99
267.274	10100.52
267.343	10096.33
267.413	10086.31
267.482	10087.42
267.552	10095.56
267.621	10066.75
267.69	10034.38
267.76	10024.41
267.829	10017.23
267.898	10002.64
267.968	9981.49
268.037	9975.23
268.106	9973.88
268.176	9947.96
268.245	9936.4
268.314	9911.16
268.384	9917.66
268.453	9900.32
268.522	9895.31
268.592	9901.77
268.661	9882.31
268.73	9878.98
268.799	9859.04
268.869	9867.86
268.938	9840.98
269.007	9816.17
269.076	9806.73
269.146	9806.06
269.215	9805.77
269.284	9807.7
269.353	9795.18
269.422	9787.71
269.492	9764.02
269.561	9723.95
269.63	9718.36
269.699	9700.68
269.768	9689.75
269.838	9674.62
269.907	9677.85
269.976	9649.58
270.045	9617.07
270.114	9616.4
270.183	9600.7
270.253	9592.46
270.322	9563.57
270.391	9555.48
270.46	9557.79
270.529	9552.59
270.598	9548.54
270.667	9527.54
270.736	9501.34
270.806	9497.59
270.875	9496.58
270.944	9493.64
271.013	9514.15
271.082	9503.7
271.151	9497.44
271.22	9472.74
271.289	9461.47
271.358	9436.19
271.427	9432.43
271.496	9424.87
271.565	9406.72
271.634	9399.06
271.703	9399.69
271.772	9399.25
271.841	9384.62
271.91	9360.2
271.979	9351.25
272.048	9327.55
272.117	9325.29
272.186	9309.83
272.255	9307.38
272.324	9299
272.393	9288.36
272.462	9275.55
272.531	9271.94
272.6	9254.75
272.669	9260.48
272.738	9246.46
272.807	9246.56
272.876	9222.68
272.945	9242.42
273.013	9246.28
273.082	9251.19
273.151	9235.3
273.22	9231.16
273.289	9227.83
273.358	9238.38
273.427	9233.32
273.496	9240.3
273.564	9234.91
273.633	9236.64
273.702	9218.3
273.771	9205.78
273.84	9201.64
273.909	9199.76
273.977	9191.15
274.046	9182.38
274.115	9187.92
274.184	9174.83
274.253	9161.44
274.322	9173.28
274.39	9144.25
274.459	9122.97
274.528	9091.92
274.597	9080.89
274.665	9078.15
274.734	9083.35
274.803	9070.11
274.872	9058.02
274.94	9035.06
275.009	9062.75
275.078	9051.53
275.147	9047.2
275.215	9047.44
275.284	9056.4
275.353	9044.41
275.421	9013.89
275.49	9029.87
275.559	9016.54
275.627	9006.77
275.696	9004.7
275.765	8997.86
275.833	8988.86
275.902	8989.58
275.971	9006.05
276.039	9020.05
276.108	9018.08
276.177	9013.31
276.245	9003.54
276.314	8998.82
276.383	9004.79
276.451	8966.8
276.52	8964.01
276.588	8974.69
276.657	8979.61
276.725	8967.09
276.794	8966.03
276.863	8989.86
276.931	8965.4
277	8967.9
277.068	8976.85
277.137	8989.95
277.205	8990.82
277.274	9006.89
277.342	9017.29
277.411	8985.04
277.48	8977.29
277.548	8974.02
277.617	8971.56
277.685	8963.67
277.754	8967.95
277.822	8959.92
277.89	8971.52
277.959	8968.39
278.027	8954.09
278.096	8937.39
278.164	8963.68
278.233	8953.9
278.301	8936.72
278.37	8942.83
278.438	8930.36
278.507	8934.5
278.575	8912.22
278.643	8904.03
278.712	8887.43
278.78	8872.6
278.849	8892.38
278.917	8893.68
278.985	8880.25
279.054	8881.11
279.122	8890.79
279.191	8881.26
279.259	8875.96
279.327	8857.38
279.396	8872.5
279.464	8866.82
279.532	8879.43
279.601	8870.42
279.669	8860.36
279.737	8872.74
279.806	8871.39
279.874	8880.34
279.942	8877.07
280.011	8864.7
280.079	8876.44
280.147	8890.69
280.215	8896.04
280.284	8893.72
280.352	8884.15
280.42	8889.87
280.488	8879.33
280.557	8872.74
280.625	8880.1
280.693	8880.01
280.761	8883.66
280.83	8863.35
280.898	8873.99
280.966	8848.48
281.034	8816.75
281.102	8804.38
281.171	8800.39
281.239	8808.57
281.307	8797.84
281.375	8782.53
281.443	8810.16
281.512	8804.43
281.58	8812.52
281.648	8796.73
281.716	8787.64
281.784	8783.84
281.852	8780.37
281.92	8778.25
281.989	8788.02
282.057	8768.1
282.125	8805.94
282.193	8800.88
282.261	8795.78
282.329	8789.09
282.397	8792.56
282.465	8793.04
282.533	8807.52
282.601	8795.15
282.67	8774.98
282.738	8769.21
282.806	8789.18
282.874	8776.42
282.942	8779.65
283.01	8773.15
283.078	8780.75
283.146	8777.67
283.214	8791.92
283.282	8794.96
283.35	8808.29
283.418	8804.68
283.486	8811.03
283.554	8775.79
283.622	8774.83
283.69	8782.91
283.758	8777.23
283.826	8786.91
283.894	8800.05
283.962	8820.7
284.03	8831.77
284.098	8832.4
284.165	8826.91
284.233	8819.79
284.301	8818
284.369	8802.17
284.437	8790.95
284.505	8780.27
284.573	8799.47
284.641	8780.7
284.709	8786.96
284.777	8773.58
284.845	8777.09
284.912	8779.4
284.98	8778.39
285.048	8771.31
285.116	8767.8
285.184	8778.53
285.252	8773
285.319	8751.68
285.387	8741.37
285.455	8723.71
285.523	8727.18
285.591	8725.3
285.659	8726.74
285.726	8736.95
285.794	8724.2
285.862	8718.76
285.93	8717.8
285.997	8709.61
286.065	8703.74
286.133	8692.91
286.201	8682.47
286.269	8668.27
286.336	8661.48
286.404	8661.43
286.472	8664.99
286.539	8647.82
286.607	8628.13
286.675	8630.44
286.743	8641.56
286.81	8635.2
286.878	8650.17
286.946	8641.03
287.013	8642.42
287.081	8638.81
287.149	8621.58
287.216	8643.19
287.284	8642.03
287.352	8643.48
287.419	8636.45
287.487	8654.07
287.555	8660.32
287.622	8655.37
287.69	8654.12
287.758	8668.84
287.825	8659.94
287.893	8648.68
287.96	8654.36
288.028	8667.98
288.096	8666.1
288.163	8664.61
288.231	8649.45
288.298	8643.62
288.366	8659.51
288.433	8648.39
288.501	8642.62
288.569	8641.8
288.636	8637.23
288.704	8643.63
288.771	8654.36
288.839	8644.45
288.906	8628.8
288.974	8628.52
289.041	8631.4
289.109	8627.55
289.176	8627.26
289.244	8627.74
289.311	8643.15
289.379	8651.71
289.446	8653.97
289.514	8652.77
289.581	8651.95
289.649	8659.56
289.716	8667.45
289.783	8662.4
289.851	8683.33
289.918	8682.41
289.986	8696.18
290.053	8698.25
290.121	8699.65
290.188	8696.57
290.255	8724.91
290.323	8720.01
290.39	8713.46
290.458	8719.76
290.525	8734.01
290.592	8728.71
290.66	8734.2
290.727	8727.37
290.794	8738.53
290.862	8733.77
290.929	8735.16
290.996	8737.38
291.064	8749.7
291.131	8753.12
291.198	8760.34
291.266	8757.4
291.333	8755.33
291.4	8756.58
291.468	8769.15
291.535	8762.17
291.602	8768.04
291.669	8757.35
291.737	8766.59
291.804	8767.6
291.871	8781.51
291.938	8785.85
292.006	8815.84
292.073	8828.16
292.14	8839.33
292.207	8833.12
292.275	8837.89
292.342	8852.13
292.409	8872.06
292.476	8893.92
292.543	8888.67
292.611	8890.31
292.678	8906.48
292.745	8935.8
292.812	8941.96
292.879	8940.56
292.946	8945.96
293.014	8951.54
293.081	8962.9
293.148	8971.08
293.215	8983.16
293.282	8976.28
293.349	8980.71
293.416	8955.82
293.484	8972.86
293.551	8975.94
293.618	8993.37
293.685	9014.65
293.752	9002.47
293.819	9002.08
293.886	8981.09
293.953	8987.98
294.02	8995.44
294.087	9002.18
294.154	8991.54
294.221	9002.71
294.288	8995.49
294.356	9009.74
294.423	9019.56
294.49	9016.33
294.557	9028.66
294.624	9016.86
294.691	9036.74
294.758	9040.64
294.825	9047.05
294.892	9032.36
294.959	9035.44
295.026	9044.06
295.093	9033.85
295.16	9033.47
295.226	9038.24
295.293	9064.24
295.36	9066.79
295.427	9080.32
295.494	9092.74
295.561	9101.02
295.628	9123.65
295.695	9142.19
295.762	9147.63
295.829	9152.59
295.896	9165.59
295.963	9175.94
296.03	9192.16
296.096	9194.04
296.163	9201.02
296.23	9216.62
296.297	9227.16
296.364	9223.84
296.431	9225.19
296.498	9222.25
296.564	9249.12
296.631	9243.58
296.698	9231.69
296.765	9249.31
296.832	9232.5
296.899	9216.28
296.965	9235.44
297.032	9208.62
297.099	9221.19
297.166	9222.97
297.233	9221.52
297.299	9211.08
297.366	9204.58
297.433	9207.51
297.5	9216.76
297.566	9210.93
297.633	9208.48
297.7	9210.6
297.767	9204.58
297.833	9204.34
297.9	9205.25
297.967	9189.61
298.033	9200.82
298.1	9221.39
298.167	9213.39
298.234	9219.99
298.3	9229.18
298.367	9217.68
298.434	9224.66
298.5	9215.41
298.567	9211.37
298.634	9204.05
298.7	9220.76
298.767	9225.76
298.834	9233.9
298.9	9227.54
298.967	9230.87
299.033	9238.38
299.1	9247.34
299.167	9262.02
299.233	9259.51
299.3	9270.06
299.366	9288.93
299.433	9307.71
299.5	9288.6
299.566	9292.64
299.633	9305.98
299.699	9317.54
299.766	9311.52
299.832	9315.71
299.899	9324.47
299.965	9335.83
300.032	9336.32
300.099	9338.96
300.165	9343.54
300.232	9342.43
300.298	9340.22
300.365	9347.97
300.431	9353.8
300.498	9348.35
300.564	9362.8
300.631	9373.25
300.697	9392.7
300.763	9383.27
300.83	9381.53
300.896	9392.37
300.963	9399.25
301.029	9409.03
301.096	9409.75
301.162	9420.3
301.229	9416.59
301.295	9403.3
301.361	9407.49
301.428	9407.63
301.494	9392.75
301.561	9393.38
301.627	9394.05
301.693	9398.34
301.76	9399.98
301.826	9383.99
301.892	9391.79
301.959	9396.17
302.025	9392.03
302.092	9373.83
302.158	9379.27
302.224	9368.19
302.291	9352.5
302.357	9345.8
302.423	9322.78
302.49	9307.28
302.556	9315.13
302.622	9312.14
302.688	9323.27
302.755	9332.46
302.821	9341.03
302.887	9353.07
302.954	9353.46
303.02	9357.79
303.086	9362.03
303.152	9362.17
303.219	9361.69
303.285	9366.8
303.351	9370.12
303.417	9370.94
303.483	9363.86
303.55	9358.9
303.616	9359.43
303.682	9363.86
303.748	9356.3
303.815	9374.7
303.881	9381.97
303.947	9367.52
304.013	9364.34
304.079	9355.58
304.145	9327.89
304.212	9322.93
304.278	9310.17
304.344	9302.95
304.41	9286.05
304.476	9269.77
304.542	9261.35
304.608	9269.29
304.674	9245.79
304.741	9233.71
304.807	9232.17
304.873	9239.77
304.939	9250.03
305.005	9231.68
305.071	9227.25
305.137	9229.66
305.203	9204.24
305.269	9205.25
305.335	9212.38
305.401	9210.35
305.467	9205.68
305.533	9215.26
305.599	9221.52
305.666	9224.27
305.732	9222.78
305.798	9233.51
305.864	9262.45
305.93	9264.19
305.996	9257.49
306.062	9259.13
306.128	9254.12
306.194	9238.43
306.259	9236.16
306.325	9228.89
306.391	9240.01
306.457	9245.74
306.523	9241.36
306.589	9265.24
306.655	9257.59
306.721	9241.36
306.787	9228.17
306.853	9240.35
306.919	9224.18
306.985	9213.39
307.051	9213.58
307.117	9200.39
307.183	9190.04
307.248	9158.17
307.314	9159.37
307.38	9154.65
307.446	9162.84
307.512	9152.72
307.578	9156.34
307.644	9148.34
307.709	9141.27
307.775	9130.43
307.841	9123.31
307.907	9129.61
307.973	9103.85
308.039	9102.75
308.104	9104.38
308.17	9107.17
308.236	9091.91
308.302	9094.03
308.368	9082.62
308.433	9077.04
308.499	9075.16
308.565	9063.7
308.631	9068.03
308.696	9043.82
308.762	9033.56
308.828	9026.82
308.894	9006.27
308.959	8979.36
309.025	8970.41
309.091	8969.4
309.156	8956.74
309.222	8956.01
309.288	8940.13
309.354	8920.68
309.419	8912.74
309.485	8900.46
309.551	8902.82
309.616	8886.74
309.682	8887.51
309.748	8881.4
309.813	8873.02
309.879	8867.87
309.945	8860.56
310.01	8853.67
310.076	8853.34
310.141	8845.2
310.207	8828.35
310.273	8829.65
310.338	8844.72
310.404	8829.65
310.469	8819.4
310.535	8810.78
310.601	8786.38
310.666	8784.36
310.732	8791.05
310.797	8781.9
310.863	8771.26
310.928	8760.62
310.994	8763.56
311.059	8754.32
311.125	8755.04
311.191	8764.48
311.256	8751.91
311.322	8756.01
311.387	8732.23
311.453	8954.17
311.518	8934.53
311.584	8933.33
311.649	8941.9
311.715	8927.07
311.78	8922.65
311.846	8904.6
311.911	8911.53
311.976	8914.46
312.042	8898.49
312.107	8883.23
312.173	8865.76
312.238	8860.32
312.304	8856.23
312.369	8842.8
312.434	8825.72
312.5	8819.12
312.565	8783.61
312.631	8780.38
312.696	8765.99
312.761	8769.75
312.827	8537.7
312.892	8569.85
312.958	8563.59
313.023	8553.68
313.088	8547.76
313.154	8533.61
313.219	8527.84
313.284	8512.77
313.35	8503.05
313.415	8490.35
313.48	8482.36
313.546	8488.72
313.611	8492.42
313.676	8479.43
313.741	8468.6
313.807	8481.16
313.872	8469.76
313.937	8475.92
314.003	8486.89
314.068	8491.85
314.133	8493.63
314.198	8480.59
314.264	8459.55
314.329	8446.17
314.394	8436.98
314.459	8433.61
314.525	8449.73
314.59	8446.46
314.655	8435.63
314.72	8438.47
314.785	8444.29
314.851	8441.31
314.916	8422.88
314.981	8409.02
315.046	8395.26
315.111	8382.8
315.176	8366.68
315.242	8373.85
315.307	8369.81
315.372	8346.04
315.437	8331.36
315.502	8320.63
315.567	8328.14
315.632	8312.84
315.698	8310.1
315.763	8308.51
315.828	8297.06
315.893	8285.03
315.958	8279.4
316.023	8272.28
316.088	8255.82
316.153	8233.94
316.218	8226.62
316.283	8210.41
316.348	8197.67
316.413	8201.37
316.479	8196.71
316.544	8166.31
316.609	8139.08
316.674	8105.89
316.739	8078.91
316.804	8052.69
316.869	8018.78
316.934	7987.32
316.999	7954.33
317.064	7909.6
317.129	7867.23
317.194	7835.92
317.259	7797.07
317.324	7750.28
317.389	7710.27
317.454	7677.14
317.518	7648.05
317.583	7626.99
317.648	7603.09
317.713	7568.14
317.778	7510.88
317.843	7479.05
317.908	7445.02
317.973	7407.9
318.038	7383.68
318.103	7346.96
318.168	7313.99
318.233	7283.32
318.297	7234.73
318.362	7206.09
318.427	7172.5
318.492	7154.58
318.557	7109.22
318.622	7084.71
318.687	7066.74
318.751	7025.2
318.816	6994.01
318.881	6960.38
318.946	6905.71
319.011	6864.2
319.075	6825.96
319.14	6794.07
319.205	6749.64
319.27	6720.83
319.335	6676.36
319.399	6640.67
319.464	6613.21
319.529	6561.64
319.594	6526.78
319.658	6499.22
319.723	6458.55
319.788	6432.34
319.853	6374.68
319.917	6347.23
319.982	6297.59
320.047	6259.57
320.112	6238.93
320.176	6190.17
320.241	6155.71
320.306	6133.73
320.37	6097.79
320.435	6065.98
320.5	6037.96
320.564	6002.07
320.629	5956.98
320.694	5928.01
320.758	5884.69
320.823	5845.79
320.888	5825.98
320.952	5780.19
321.017	5743.21
321.082	5704.46
321.146	5673.29
321.211	5641.98
321.275	5606.22
321.34	5567.78
321.405	5526.5
321.469	5482.54
321.534	5442.62
321.598	5396.95
321.663	5364.68
321.727	5332.95
321.792	5287.91
321.857	5248.23
321.921	5214.5
321.986	5181.06
322.05	5126.41
322.115	5089.44
322.179	5045.14
322.244	4989.3
322.308	4957.74
322.373	4916.17
322.437	4880.12
322.502	4852.38
322.566	4810.54
322.631	4776.3
322.695	4736.96
322.76	4692.93
322.824	4660.72
322.889	4618.95
322.953	4576.61
323.018	4506.66
323.082	4444.14
323.146	4392.82
323.211	4342.6
323.275	4296.53
323.34	4246.09
323.404	4216.26
323.468	4177.71
323.533	4137.8
323.597	4094.74
323.662	4047.75
323.726	4009.5
323.79	3963.33
323.855	3902.8
323.919	3856.21
323.983	3809.28
324.048	3745.25
324.112	3870.85
324.177	3749.48
324.241	3556.64
324.305	3365.5
324.37	3182.59
324.434	3004.02
324.498	2966.16
324.562	2918.56
324.627	2863.27
324.691	2815.28
324.755	2751.51
324.82	2676.5
324.884	2603.6
324.948	2537.61
325.012	2447.09
325.077	2328.35
