Data from 20250625_urea_1M_1_MAYP1162681_02-15-05-749.txt Node
Date: Thu Jun 26 02:15:05 BST 2025
User: adleo
Spectrometer: MAYP116268
Trigger mode: 0
Integration Time (sec): 1.000000E0
Scans to average: 1
Electric dark correction enabled: true
Nonlinearity correction enabled: true
Boxcar width: 10
XAxis mode: Wavelengths
Number of Pixels in Spectrum: 2068
>>>>>Begin Spectral Data<<<<<
179.565	1126.42
179.642	1177.22
179.718	1215.98
179.795	1249.41
179.871	1277.33
179.948	1292.96
180.024	1311.98
180.101	1331.54
180.177	1343.06
180.254	1363.41
180.33	1383.05
180.407	1431.18
180.483	1522.4
180.56	1606.97
180.636	1687.96
180.712	1672.84
180.789	1678.12
180.865	1692.56
180.942	1701.25
181.018	1709.42
181.095	1722.25
181.171	1725.2
181.248	1726.25
181.324	1741.65
181.4	1749.63
181.477	1762.94
181.553	1774.24
181.63	1794.59
181.706	1812.79
181.782	1824.05
181.859	1824.76
181.935	1830.32
182.011	1825.81
182.088	1839.69
182.164	1857.81
182.24	1866.93
182.317	1875.91
182.393	1874.87
182.469	1886.89
182.546	1898.35
182.622	1903.58
182.698	1899.82
182.775	1913.47
182.851	1924.83
182.927	1916.36
183.003	1912.8
183.08	1905.1
183.156	1914.13
183.232	1909.33
183.308	1895.78
183.385	1899.15
183.461	1913.32
183.537	1914.41
183.613	1928.54
183.69	1917.98
183.766	1905.57
183.842	1914.46
183.918	1921.64
183.995	1934
184.071	1939.09
184.147	1934.33
184.223	1921.36
184.299	1932.87
184.375	1921.69
184.452	1927.64
184.528	1982.19
184.604	1990.89
184.68	2002.02
184.756	2011.15
184.832	2017.14
184.908	2022.18
184.985	2023.27
185.061	2010.39
185.137	2019.99
185.213	2007.58
185.289	2010.91
185.365	2005.97
185.441	2002.92
185.517	2014.58
185.593	2012.67
185.669	2008.87
185.745	2020.57
185.822	2040.67
185.898	2033.83
185.974	2040.29
186.05	2034.11
186.126	1996.91
186.202	1990.78
186.278	1986.07
186.354	1976.75
186.43	1978.98
186.506	1977.8
186.582	1976.09
186.658	1982.88
186.734	1965.62
186.81	1969
186.886	1971.47
186.962	1981.69
187.038	1977.7
187.114	1970.66
187.19	1974.99
187.266	1965.57
187.341	1962.34
187.417	1951.93
187.493	1949.55
187.569	1952.78
187.645	1948.31
187.721	1934.38
187.797	1940.51
187.873	1946.12
187.949	1938.09
188.025	1934.33
188.101	1936.04
188.176	1942.08
188.252	1939.04
188.328	1944.45
188.404	1942.46
188.48	1935.9
188.556	1928.77
188.632	1928.39
188.707	1928.24
188.783	1930.15
188.859	1925.35
188.935	1914.55
189.011	1925.01
189.086	1921.02
189.162	1916.17
189.238	1913.98
189.314	1912.94
189.39	1910.04
189.465	1903.52
189.541	1920.21
189.617	1908.09
189.693	1904.48
189.768	1909.42
189.844	1927.54
189.92	1917.33
189.996	1927.26
190.071	1936.91
190.147	1937.15
190.223	1945.71
190.298	1935.96
190.374	1921.22
190.45	1934.39
190.526	1944.99
190.601	1936.05
190.677	1936.96
190.753	1959.55
190.828	1965.16
190.904	1979.81
190.98	1990.99
191.055	1998.02
191.131	1990.75
191.207	2007.91
191.282	2014.38
191.358	2004.82
191.433	1996.11
191.509	2011.13
191.585	2004.86
191.66	2007.95
191.736	2017.03
191.811	2008.56
191.887	2025.35
191.963	2047.51
192.038	2050.51
192.114	2050.99
192.189	2059.59
192.265	2056.41
192.34	2037.9
192.416	2033.72
192.491	2028.96
192.567	2034.38
192.642	2039.14
192.718	2039.38
192.793	2028.06
192.869	2026.87
192.944	2029.72
193.02	2036.48
193.095	2040
193.171	2047.65
193.246	2047.94
193.322	2043.99
193.397	2046.7
193.473	2035.33
193.548	2019.16
193.624	2026.2
193.699	2023.58
193.775	2033.29
193.85	2035
193.925	2042.56
194.001	2042.37
194.076	2035.1
194.152	2024.2
194.227	2014.36
194.302	2005.94
194.378	2009.37
194.453	2006.37
194.529	2014.08
194.604	2001.71
194.679	1992.53
194.755	1974.04
194.83	1984.94
194.905	1981.47
194.981	1987.55
195.056	1980.99
195.131	1986.51
195.207	1981.75
195.282	1972.72
195.357	1958.64
195.433	1971.29
195.508	1960.92
195.583	1969.19
195.659	1981.13
195.734	1986.93
195.809	1989.78
195.884	1996.53
195.96	1997.49
196.035	2014.32
196.11	2015.32
196.185	2024.12
196.261	2029.63
196.336	2057.45
196.411	2042.46
196.486	2047.55
196.561	2042.46
196.637	2052.02
196.712	2064.2
196.787	2066.63
196.862	2080.42
196.937	2086.5
197.013	2094.69
197.088	2104.48
197.163	2123.9
197.238	2142.37
197.313	2142.51
197.388	2155.31
197.464	2184.67
197.539	2196.27
197.614	2185.76
197.689	2194.66
197.764	2206.08
197.839	2226.54
197.914	2222.97
197.989	2246.14
198.065	2260.32
198.14	2305.79
198.215	2329.54
198.29	2341.87
198.365	2358.48
198.44	2369.28
198.515	2397.17
198.59	2407.36
198.665	2431.21
198.74	2441.12
198.815	2441.36
198.89	2463.82
198.965	2491.3
199.04	2486.06
199.115	2501.58
199.19	2544.67
199.265	2550.1
199.34	2563.76
199.415	2594.11
199.49	2615.44
199.565	2622.35
199.64	2647.16
199.715	2644.21
199.79	2652.64
199.865	2659.07
199.94	2657.45
200.015	2689.08
200.09	2694.09
200.165	2702.09
200.24	2709.85
200.315	2746.57
200.39	2764.92
200.464	2768.3
200.539	2768.92
200.614	2786.4
200.689	2810.7
200.764	2817.67
200.839	2830.48
200.914	2835
200.989	2823.9
201.063	2838.1
201.138	2822.58
201.213	2823.43
201.288	2805.38
201.363	2807
201.438	2806.47
201.512	2820.81
201.587	2803.03
201.662	2810.71
201.737	2822.14
201.812	2829.96
201.886	2800.25
201.961	2804.87
202.036	2796.68
202.111	2791.87
202.186	2764.77
202.26	2745.32
202.335	2723.07
202.41	2721.64
202.485	2707.97
202.559	2690.92
202.634	2663.71
202.709	2673.04
202.784	2651.42
202.858	2654.75
202.933	2639.03
203.008	2635.56
203.082	2617.84
203.157	2615.46
203.232	2574.79
203.306	2552.5
203.381	2522.96
203.456	2499.53
203.53	2476.56
203.605	2458.05
203.68	2439.19
203.754	2431.67
203.829	2416.38
203.904	2397.68
203.978	2383.49
204.053	2387.87
204.127	2378.92
204.202	2377.06
204.277	2363.31
204.351	2357.74
204.426	2349.21
204.5	2339.12
204.575	2304.63
204.65	2311.1
204.724	2304.15
204.799	2308.29
204.873	2304.48
204.948	2300.77
205.022	2289.39
205.097	2282.49
205.171	2294.48
205.246	2304.29
205.32	2307
205.395	2307.1
205.469	2298.82
205.544	2306.63
205.618	2289.44
205.693	2296.68
205.767	2286.45
205.842	2304.82
205.916	2298.78
205.991	2290.4
206.065	2295.59
206.14	2311.24
206.214	2308.57
206.289	2301.81
206.363	2316.14
206.438	2320.61
206.512	2330.13
206.586	2348.45
206.661	2358.07
206.735	2338.09
206.81	2334.28
206.884	2344.94
206.958	2332.62
207.033	2347.32
207.107	2350.89
207.181	2379.56
207.256	2377.08
207.33	2392.74
207.405	2403.79
207.479	2424.36
207.553	2431.97
207.628	2419.89
207.702	2432.36
207.776	2428.79
207.851	2434.21
207.925	2445.4
207.999	2443.74
208.073	2441.12
208.148	2443.07
208.222	2433.31
208.296	2463.43
208.371	2480.49
208.445	2492.3
208.519	2520.53
208.593	2533.81
208.668	2533.57
208.742	2535.57
208.816	2539.57
208.89	2557.24
208.965	2558.63
209.039	2565.53
209.113	2581.73
209.187	2607.43
209.261	2604.95
209.336	2622.72
209.41	2643.2
209.484	2649.3
209.558	2675.31
209.632	2688.07
209.707	2704.51
209.781	2730.28
209.855	2751.4
209.929	2776.34
210.003	2791.06
210.077	2798.88
210.151	2854.83
210.226	2893.02
210.3	2933.48
210.374	2969.7
210.448	2989.82
210.522	3013.38
210.596	3041.13
210.67	3070.79
210.744	3134.35
210.818	3186.79
210.892	3228.53
210.966	3249.8
211.041	3291.74
211.115	3317.11
211.189	3374.47
211.263	3424.1
211.337	3466.77
211.411	3516.47
211.485	3550.47
211.559	3604.75
211.633	3653.76
211.707	3669
211.781	3729.75
211.855	3747.91
211.929	3792.47
212.003	3831.24
212.077	3904.1
212.151	3980.16
212.225	4052.86
212.299	4107.98
212.373	4171.81
212.447	4246.01
212.52	4354.45
212.594	4436.13
212.668	4529.89
212.742	4605.18
212.816	4690.15
212.89	4779.38
212.964	4877.86
213.038	4979.37
213.112	5093.93
213.186	5209.94
213.26	5301.08
213.333	5370.81
213.407	5488.92
213.481	5608.88
213.555	5740.87
213.629	5853.62
213.703	5963.3
213.777	6093.54
213.85	6207.1
213.924	6368.31
213.998	6506.84
214.072	6640.39
214.146	6769.3
214.219	6913.65
214.293	7060.75
214.367	7210.54
214.441	7363.36
214.515	7502.2
214.588	7636.24
214.662	7752.02
214.736	7887.85
214.81	8056.28
214.883	8223.87
214.957	8376.16
215.031	8522.97
215.105	8659.16
215.178	8798.1
215.252	8952.79
215.326	9088.93
215.4	9231.46
215.473	9352.62
215.547	9494.53
215.621	9641.49
215.694	9808.37
215.768	9944.05
215.842	10086.63
215.915	10232.89
215.989	10367.92
216.063	10521.38
216.136	10679.46
216.21	10846.31
216.284	11016.4
216.357	11164.44
216.431	11316.43
216.504	11468.48
216.578	11648.58
216.652	11809.49
216.725	11962.46
216.799	12117.67
216.873	12265.93
216.946	12416.94
217.02	12552.52
217.093	12697.57
217.167	12817.35
217.24	12943.12
217.314	13076.93
217.387	13214.46
217.461	13343.07
217.535	13489.67
217.608	13612.3
217.682	13738.02
217.755	13875.41
217.829	13992.16
217.902	14120.96
217.976	14246.06
218.049	14371.2
218.123	14468.52
218.196	14598.05
218.27	14714.75
218.343	14821.23
218.417	14947.14
218.49	15070.63
218.563	15206.66
218.637	15328.03
218.71	15466.66
218.784	15585.62
218.857	15714.17
218.931	15823.2
219.004	15937.77
219.077	16056.53
219.151	16165.51
219.224	16274.1
219.298	16374.54
219.371	16493.25
219.444	16586.9
219.518	16686.91
219.591	16788.8
219.665	16915.11
219.738	17004.61
219.811	17094.64
219.885	17199.61
219.958	17293.83
220.031	17382.22
220.105	17471.81
220.178	17563.04
220.251	17635.28
220.325	17731.03
220.398	17826.93
220.471	17913.2
220.544	18002.11
220.618	18065.15
220.691	18148.18
220.764	18227.89
220.838	18305.71
220.911	18377.9
220.984	18472.02
221.057	18546.09
221.131	18613.65
221.204	18655.82
221.277	18751.28
221.35	18849.54
221.424	18912.43
221.497	18970.6
221.57	19032.18
221.643	19102.11
221.716	19156.9
221.79	19205.18
221.863	19251.83
221.936	19293.56
222.009	19344.69
222.082	19398.18
222.155	19451.24
222.229	19513.6
222.302	19563.28
222.375	19603.38
222.448	19644.87
222.521	19678.94
222.594	19724.24
222.667	19752.67
222.74	19810.07
222.814	19831.75
222.887	19866.16
222.96	19905.49
223.033	19958.5
223.106	19992.86
223.179	20025.82
223.252	20058.25
223.325	20090.2
223.398	20130.35
223.471	20160.66
223.544	20192.42
223.617	20222.15
223.69	20250.39
223.763	20261.23
223.837	20293.72
223.91	20337.96
223.983	20357.04
224.056	20373.43
224.129	20408.99
224.202	20452.22
224.275	20463.11
224.348	20483.35
224.42	20479.69
224.493	20486.63
224.566	20495.98
224.639	20520.85
224.712	20524.12
224.785	20540.27
224.858	20565.91
224.931	20567.74
225.004	20561.57
225.077	20579.26
225.15	20564.32
225.223	20580.27
225.296	20618.44
225.369	20608.85
225.442	20596.8
225.514	20596.8
225.587	20617.81
225.66	20621.43
225.733	20625.72
225.806	20628.99
225.879	20636.75
225.952	20639.64
226.025	20667.79
226.097	20694.49
226.17	20707.17
226.243	20703.36
226.316	20703.02
226.389	20703.02
226.461	20718.68
226.534	20740.66
226.607	20743.41
226.68	20764.13
226.753	20765.77
226.825	20743.07
226.898	20761.14
226.971	20764.18
227.044	20782.83
227.117	20783.74
227.189	20778.44
227.262	20790.83
227.335	20803.7
227.407	20801.24
227.48	20809.14
227.553	20801.29
227.626	20777.91
227.698	20762.49
227.771	20764.75
227.844	20749.43
227.916	20755.21
227.989	20734.2
228.062	20733.62
228.134	20743.16
228.207	20742.1
228.28	20730.06
228.352	20717.28
228.425	20713.04
228.498	20716.32
228.57	20695.69
228.643	20697.33
228.716	20693.04
228.788	20678.25
228.861	20664.32
228.934	20662.2
229.006	20653.86
229.079	20638
229.151	20627.5
229.224	20614.63
229.296	20612.12
229.369	20646.82
229.442	20654.87
229.514	20645.86
229.587	20646.39
229.659	20616.22
229.732	20612.22
229.804	20608.46
229.877	20627.07
229.949	20629.76
230.022	20640.17
230.094	20635.36
230.167	20628.37
230.239	20605.96
230.312	20590.78
230.384	20604.66
230.457	20599.98
230.529	20594.83
230.602	20597.19
230.674	20602.54
230.747	20604.95
230.819	20619.31
230.892	20575.21
230.964	20567.45
231.037	20565.09
231.109	20546.34
231.181	20550.82
231.254	20525.09
231.326	20518.2
231.399	20500.08
231.471	20472.9
231.544	20435.11
231.616	20430.77
231.688	20410
231.761	20388.75
231.833	20378.39
231.905	20336.75
231.978	20324.94
232.05	20296.03
232.122	20273.19
232.195	20248.37
232.267	20237.76
232.339	20198.49
232.412	20192.27
232.484	20162.29
232.556	20130.05
232.629	20124.75
232.701	20111.79
232.773	20098.49
232.846	20074.1
232.918	20062.2
232.99	20055.84
233.062	20056.03
233.135	20042.68
233.207	20012.81
233.279	20011.5
233.351	19999.55
233.424	19986.64
233.496	19952.42
233.568	19964.47
233.64	19931.89
233.713	19913.72
233.785	19896.38
233.857	19882.26
233.929	19836.86
234.001	19832.91
234.074	19830.6
234.146	19796.57
234.218	19770.6
234.29	19750.31
234.362	19721.35
234.434	19674.94
234.507	19634.03
234.579	19588.2
234.651	19550.61
234.723	19540.59
234.795	19519.58
234.867	19489.12
234.939	19476.25
235.012	19452.98
235.084	19428.83
235.156	19405.41
235.228	19367.44
235.3	19331.59
235.372	19302.77
235.444	19300.36
235.516	19248.12
235.588	19227.4
235.66	19205.42
235.732	19167.11
235.804	19192.08
235.876	19179.98
235.948	19175.31
236.02	19148.85
236.092	19123.45
236.164	19106.88
236.236	19081.82
236.308	19059.27
236.38	19031.65
236.452	18992.52
236.524	18967.17
236.596	18949.87
236.668	18936.96
236.74	18919.85
236.812	18899.85
236.884	18887.23
236.956	18856.15
237.028	18824.24
237.1	18782.99
237.172	18776.78
237.244	18773.79
237.316	18705.65
237.388	18671.39
237.46	18628.98
237.532	18612.16
237.604	18577.8
237.675	18561.27
237.747	18543.87
237.819	18500.84
237.891	18474.53
237.963	18440.51
238.035	18409.38
238.107	18343.69
238.178	18327.79
238.25	18296.47
238.322	18291.16
238.394	18236.76
238.466	18207.6
238.538	18180.76
238.609	18156.47
238.681	18100.57
238.753	18062.5
238.825	18044.86
238.897	18015.71
238.968	17996.86
239.04	17960.53
239.112	17965.78
239.184	17927.28
239.255	17878.8
239.327	17853.21
239.399	17827.81
239.471	17808.2
239.542	17785.88
239.614	17770.41
239.686	17720.53
239.758	17700.15
239.829	17650.85
239.901	17638.71
239.973	17607.67
240.044	17588.01
240.116	17565.98
240.188	17539.86
240.259	17520.01
240.331	17478.18
240.403	17464.63
240.474	17433.45
240.546	17393.69
240.618	17329.12
240.689	17292.39
240.761	17272.25
240.833	17262.95
240.904	17225.64
240.976	17194.66
241.048	17166.8
241.119	17141.98
241.191	17116.73
241.262	17093.88
241.334	17067.09
241.405	17037.88
241.477	17007.23
241.549	16974.41
241.62	16945.49
241.692	16915.61
241.763	16884.53
241.835	16857.68
241.906	16823.27
241.978	16775.61
242.049	16762.01
242.121	16757.68
242.192	16738.98
242.264	16692.32
242.335	16644.56
242.407	16626.15
242.478	16592.89
242.55	16567.78
242.621	16538
242.693	16506.24
242.764	16478.43
242.836	16444.79
242.907	16414.23
242.979	16394.33
243.05	16368.97
243.122	16341.94
243.193	16320.58
243.264	16271.95
243.336	16235.37
243.407	16213.25
243.479	16206.89
243.55	16182.35
243.622	16148.37
243.693	16115.84
243.764	16110.2
243.836	16077.81
243.907	16045.81
243.978	16009.27
244.05	15986.86
244.121	15949.89
244.192	15927.48
244.264	15875.52
244.335	15842.89
244.407	15801.29
244.478	15775.6
244.549	15744.99
244.62	15703.69
244.692	15664.16
244.763	15646.47
244.834	15616.92
244.906	15577.64
244.977	15548.82
245.048	15530.6
245.119	15496.86
245.191	15459.5
245.262	15405.47
245.333	15394.43
245.405	15361.22
245.476	15337.55
245.547	15300.77
245.618	15274.07
245.689	15245.44
245.761	15227.27
245.832	15203.12
245.903	15192.08
245.974	15164.46
246.045	15132.55
246.117	15121.17
246.188	15080.87
246.259	15033.01
246.33	15001.39
246.401	14969.72
246.473	14927.97
246.544	14897.94
246.615	14879.77
246.686	14854.56
246.757	14845.79
246.828	14802.35
246.899	14791.99
246.97	14762.68
247.042	14740.27
247.113	14722.48
247.184	14716.5
247.255	14685.12
247.326	14655.38
247.397	14615.75
247.468	14593.2
247.539	14574.11
247.61	14533.42
247.681	14518.28
247.752	14507.87
247.823	14471.33
247.894	14445.69
247.965	14411.56
248.037	14382.35
248.108	14341.18
248.179	14311.1
248.25	14278.08
248.321	14261.78
248.392	14226.83
248.463	14220.37
248.534	14199.94
248.605	14179.3
248.675	14151.49
248.746	14125.7
248.817	14106.9
248.888	14086.99
248.959	14042.79
249.03	14015.84
249.101	13989.32
249.172	13964.74
249.243	13923.86
249.314	13920.73
249.385	13901.01
249.456	13884.67
249.527	13851.12
249.598	13833.76
249.669	13813.08
249.739	13795.29
249.81	13776.59
249.881	13743.91
249.952	13711.75
250.023	13671.69
250.094	13630.52
250.165	13596.01
250.235	13578.75
250.306	13562.5
250.377	13533.44
250.448	13516.66
250.519	13478.72
250.59	13474
250.66	13449.41
250.731	13444.83
250.802	13423.33
250.873	13401.06
250.944	13389.44
251.014	13365.58
251.085	13374.55
251.156	13359.31
251.227	13345.43
251.297	13332.32
251.368	13317.86
251.439	13311.49
251.51	13306.96
251.58	13286.76
251.651	13261.36
251.722	13248.63
251.792	13206.07
251.863	13180.71
251.934	13167.6
252.005	13178.83
252.075	13159.88
252.146	13152.07
252.217	13142.77
252.287	13127.63
252.358	13109.27
252.429	13104.93
252.499	13081.74
252.57	13051.95
252.641	13038.11
252.711	13019.27
252.782	12980.07
252.852	12975.78
252.923	12946.19
252.994	12925.46
253.064	12917.55
253.135	12884.63
253.205	12858.11
253.276	12861.39
253.347	12860.23
253.417	12839.46
253.488	12815.45
253.558	12793.13
253.629	12769.17
253.699	12755.63
253.77	12746.71
253.841	12722.46
253.911	12697.69
253.982	12683.42
254.052	12670.55
254.123	12654.83
254.193	12632.17
254.264	12649.96
254.334	12621.42
254.405	12594.86
254.475	12565.36
254.546	12540.92
254.616	12538.9
254.687	12519.09
254.757	12496.91
254.827	12480.48
254.898	12463.31
254.968	12441.28
255.039	12412.75
255.109	12401.37
255.18	12369.46
255.25	12326.08
255.321	12316
255.391	12287.23
255.461	12285.78
255.532	12248.66
255.602	12221.72
255.673	12193.71
255.743	12166.48
255.813	12124.93
255.884	12124.35
255.954	12113.07
256.024	12113.17
256.095	12094.56
256.165	12070.41
256.235	12055.61
256.306	12026.98
256.376	12019.7
256.446	12008.18
256.517	11993.09
256.587	11985
256.657	11969.86
256.728	11950.73
256.798	11936.8
256.868	11916.7
256.938	11886.28
257.009	11872.21
257.079	11864.54
257.149	11874.18
257.219	11834.37
257.29	11825.94
257.36	11782.36
257.43	11773.83
257.5	11732
257.571	11710.35
257.641	11699.56
257.711	11675.8
257.781	11669.24
257.852	11655.21
257.922	11620.99
257.992	11610.73
258.062	11592.99
258.132	11579.21
258.202	11564.41
258.273	11549.95
258.343	11554.05
258.413	11535.64
258.483	11512.5
258.553	11486.72
258.623	11452.93
258.693	11437.94
258.764	11435.77
258.834	11438.76
258.904	11426.37
258.974	11407.63
259.044	11387.14
259.114	11373.02
259.184	11358.03
259.254	11333.6
259.324	11295.86
259.394	11279.72
259.464	11270.71
259.535	11245.69
259.605	11231.91
259.675	11210.18
259.745	11189.11
259.815	11154.9
259.885	11135.09
259.955	11150.22
260.025	11132.05
260.095	11113.16
260.165	11106.85
260.235	11104.54
260.305	11076.1
260.375	11054.61
260.445	11057.94
260.515	11058.71
260.585	11056.06
260.655	11039
260.725	11037.84
260.795	11026.95
260.865	11033.7
260.934	11013.26
261.004	11007.82
261.074	10992.54
261.144	10993.6
261.214	10985.7
261.284	10971.63
261.354	10966.04
261.424	10940.49
261.494	10936.83
261.564	10923.48
261.634	10914.47
261.703	10880.64
261.773	10877.8
261.843	10856.69
261.913	10836.75
261.983	10803.93
262.053	10787.98
262.123	10774.01
262.192	10740.57
262.262	10739.75
262.332	10703.42
262.402	10690.98
262.472	10675.27
262.541	10631.33
262.611	10623.53
262.681	10600.59
262.751	10591.39
262.821	10572.79
262.89	10542.77
262.96	10527.69
263.03	10528.89
263.1	10515.11
263.169	10501.82
263.239	10485.58
263.309	10493.29
263.379	10489.29
263.448	10480.62
263.518	10473.05
263.588	10455.03
263.657	10463.99
263.727	10462.12
263.797	10452.19
263.867	10433.5
263.936	10404.35
264.006	10405.07
264.076	10393.94
264.145	10384.69
264.215	10366.38
264.285	10358.34
264.354	10325.92
264.424	10308.43
264.494	10276.58
264.563	10255
264.633	10259.19
264.702	10255.05
264.772	10219.4
264.842	10199.79
264.911	10199.4
264.981	10171.99
265.05	10156.09
265.12	10134.36
265.19	10112.78
265.259	10113.94
265.329	10109.79
265.398	10104.64
265.468	10118.75
265.537	10094.57
265.607	10086.33
265.676	10083.92
265.746	10074.14
265.815	10079.83
265.885	10064.22
265.955	10044.09
266.024	10027.23
266.094	9992.88
266.163	9992.59
266.232	9995.2
266.302	9979.2
266.371	9958.06
266.441	9946.26
266.51	9946.4
266.58	9927.95
266.649	9911.67
266.719	9903.72
266.788	9897.03
266.858	9894.95
266.927	9862.15
266.996	9850.64
267.066	9837.97
267.135	9806.91
267.205	9799.39
267.274	9784.08
267.343	9786.72
267.413	9779.69
267.482	9785.96
267.552	9788.32
267.621	9757.63
267.69	9728.35
267.76	9722.81
267.829	9716.69
267.898	9709.32
267.968	9687.17
268.037	9680.19
268.106	9669.25
268.176	9646.47
268.245	9627.59
268.314	9607.89
268.384	9602.45
268.453	9591.37
268.522	9581.02
268.592	9580.49
268.661	9561.8
268.73	9561.56
268.799	9538.93
268.869	9546.58
268.938	9519.76
269.007	9502.13
269.076	9488.94
269.146	9488.31
269.215	9476.61
269.284	9484.17
269.353	9463.27
269.422	9456.15
269.492	9440.4
269.561	9414.4
269.63	9409.63
269.699	9393.88
269.768	9384.45
269.838	9379.05
269.907	9379.97
269.976	9357.77
270.045	9327.49
270.114	9319.83
270.183	9304.66
270.253	9302.64
270.322	9271.15
270.391	9256.13
270.46	9259.06
270.529	9265.18
270.598	9264.5
270.667	9245.53
270.736	9219.1
270.806	9214.28
270.875	9207.49
270.944	9199.26
271.013	9214.43
271.082	9200.22
271.151	9192.71
271.22	9165.61
271.289	9152.66
271.358	9138.36
271.427	9136.33
271.496	9136.19
271.565	9126.8
271.634	9117.61
271.703	9114.91
271.772	9118.81
271.841	9107.69
271.91	9079.52
271.979	9065.61
272.048	9040.24
272.117	9041.05
272.186	9027.48
272.255	9033.01
272.324	9035.23
272.393	9032
272.462	9016.21
272.531	9015.39
272.6	9002.73
272.669	9013.61
272.738	9007.59
272.807	9001.81
272.876	8979
272.945	9001.29
273.013	8997.05
273.082	9004.76
273.151	8977.89
273.22	8971.49
273.289	8966.77
273.358	8977.7
273.427	8964.9
273.496	8964.03
273.564	8958.35
273.633	8957.24
273.702	8935
273.771	8918.63
273.84	8906.99
273.909	8901.06
273.977	8896.2
274.046	8892.5
274.115	8895
274.184	8874.73
274.253	8866.94
274.322	8873.67
274.39	8842.87
274.459	8829.72
274.528	8796.37
274.597	8795.74
274.665	8792.18
274.734	8803.15
274.803	8798.44
274.872	8789.39
274.94	8776.68
275.009	8830.61
275.078	8816.51
275.147	8815.07
275.215	8811.07
275.284	8819.69
275.353	8809.05
275.421	8778.2
275.49	8787.68
275.559	8769.44
275.627	8762.65
275.696	8753.89
275.765	8755.63
275.833	8746.2
275.902	8743.36
275.971	8756.69
276.039	8769.59
276.108	8774.35
276.177	8765.74
276.245	8752.5
276.314	8750.24
276.383	8753.12
276.451	8696.01
276.52	8700.54
276.588	8705.5
276.657	8714.3
276.725	8701.31
276.794	8704.82
276.863	8726.24
276.931	8705.35
277	8718.73
277.068	8727.78
277.137	8742.36
277.205	8738.85
277.274	8755.21
277.342	8766.96
277.411	8745.54
277.48	8732.11
277.548	8717.09
277.617	8715.46
277.685	8702.75
277.754	8708.24
277.822	8697.12
277.89	8702.32
277.959	8692.17
278.027	8675.08
278.096	8661.03
278.164	8687.84
278.233	8684.08
278.301	8664.16
278.37	8669.74
278.438	8652.51
278.507	8651.26
278.575	8627.58
278.643	8624.79
278.712	8610.69
278.78	8597.16
278.849	8612.23
278.917	8625.75
278.985	8627.92
279.054	8629.79
279.122	8646.44
279.191	8642.74
279.259	8642.93
279.327	8625.6
279.396	8638.94
279.464	8636.24
279.532	8644.57
279.601	8641
279.669	8626.62
279.737	8644.08
279.806	8646.2
279.874	8661.17
279.942	8660.5
280.011	8658.67
280.079	8665.36
280.147	8679.07
280.215	8689.18
280.284	8679.51
280.352	8661.46
280.42	8658.96
280.488	8653.52
280.557	8645.34
280.625	8646.06
280.693	8642.98
280.761	8646.78
280.83	8632.25
280.898	8646.15
280.966	8624.74
281.034	8585.08
281.102	8570.79
281.171	8562.61
281.239	8571.51
281.307	8560.06
281.375	8550.1
281.443	8567.9
281.512	8567.42
281.58	8573.78
281.648	8551.35
281.716	8551.88
281.784	8550.58
281.852	8546.68
281.92	8541.53
281.989	8550.2
282.057	8532.82
282.125	8562.81
282.193	8559.83
282.261	8558.91
282.329	8552.8
282.397	8557.76
282.465	8569.16
282.533	8591.39
282.601	8580.75
282.67	8558.95
282.738	8549.04
282.806	8563.67
282.874	8558.95
282.942	8557.41
283.01	8550.09
283.078	8558.08
283.146	8550.09
283.214	8563.52
283.282	8565.16
283.35	8577.72
283.418	8571.08
283.486	8578.2
283.554	8551.05
283.622	8551.82
283.69	8551.63
283.758	8541.43
283.826	8543.64
283.894	8549.18
283.962	8562.65
284.03	8575.12
284.098	8578.29
284.165	8575.89
284.233	8575.55
284.301	8563.04
284.369	8552.64
284.437	8539.12
284.505	8532.67
284.573	8554.66
284.641	8533.97
284.709	8539.22
284.777	8516.45
284.845	8521.17
284.912	8520.11
284.98	8523.38
285.048	8517.46
285.116	8522.23
285.184	8537.43
285.252	8536.18
285.319	8521.51
285.387	8510.68
285.455	8493.55
285.523	8498.17
285.591	8495.86
285.659	8495.23
285.726	8509.57
285.794	8499.76
285.862	8497.83
285.93	8500.96
285.997	8492.2
286.065	8487.87
286.133	8479.11
286.201	8480.51
286.269	8468.43
286.336	8466.69
286.404	8461.21
286.472	8471.7
286.539	8453.85
286.607	8433.45
286.675	8432.1
286.743	8438.16
286.81	8432.48
286.878	8446.29
286.946	8433.64
287.013	8431.33
287.081	8421.17
287.149	8406.45
287.216	8419.68
287.284	8415.45
287.352	8415.4
287.419	8406.83
287.487	8427.43
287.555	8428.39
287.622	8423.39
287.69	8425.5
287.758	8434.45
287.825	8429.69
287.893	8417.23
287.96	8417.32
288.028	8429.93
288.096	8429.74
288.163	8433.35
288.231	8425.02
288.298	8425.89
288.366	8443.36
288.433	8441.19
288.501	8431.71
288.569	8429.5
288.636	8422.19
288.704	8437.39
288.771	8436.77
288.839	8431.23
288.906	8416.89
288.974	8423.2
289.041	8416.99
289.109	8408.71
289.176	8411.07
289.244	8415.98
289.311	8421.9
289.379	8434.51
289.446	8440.67
289.514	8443.55
289.581	8433.45
289.649	8433.3
289.716	8431.57
289.783	8419.92
289.851	8439.94
289.918	8445.96
289.986	8456.06
290.053	8461.6
290.121	8459.91
290.188	8462.94
290.255	8492.39
290.323	8482.77
290.39	8480.89
290.458	8493.4
290.525	8507.31
290.592	8505.19
290.66	8502.64
290.727	8493.98
290.794	8506.3
290.862	8505.87
290.929	8513.42
290.996	8518.24
291.064	8527.62
291.131	8538.74
291.198	8547.98
291.266	8540.71
291.333	8538.98
291.4	8545.62
291.468	8559.43
291.535	8550.29
291.602	8553.99
291.669	8543.4
291.737	8556.01
291.804	8558.37
291.871	8576.03
291.938	8585.75
292.006	8606.93
292.073	8621.9
292.14	8635.08
292.207	8629.21
292.275	8625.99
292.342	8630.42
292.409	8657.13
292.476	8681.58
292.543	8671.76
292.611	8670.37
292.678	8685.91
292.745	8712.14
292.812	8721.91
292.879	8717.48
292.946	8719.17
293.014	8727.78
293.081	8735.91
293.148	8746.31
293.215	8754.88
293.282	8748.14
293.349	8750.31
293.416	8737.6
293.484	8754.25
293.551	8761.57
293.618	8773.7
293.685	8795.98
293.752	8787.51
293.819	8782.79
293.886	8765.13
293.953	8773.36
294.02	8784.57
294.087	8789.68
294.154	8785.25
294.221	8792.47
294.288	8788.76
294.356	8806.43
294.423	8818.22
294.49	8808.01
294.557	8816.29
294.624	8813.98
294.691	8834.92
294.758	8836.51
294.825	8837.23
294.892	8823.37
294.959	8830.16
295.026	8835.21
295.093	8830.01
295.16	8833.67
295.226	8833.43
295.293	8862.02
295.36	8865.73
295.427	8876.56
295.494	8893.41
295.561	8903.42
295.628	8928.85
295.695	8949.84
295.762	8953.93
295.829	8958.89
295.896	8976.89
295.963	8983.15
296.03	8990.08
296.096	8988.15
296.163	9002.88
296.23	9018.67
296.297	9032.83
296.364	9027.72
296.431	9032.44
296.498	9030.47
296.564	9049.38
296.631	9053.91
296.698	9037.3
296.765	9055.11
296.832	9045.44
296.899	9028.15
296.965	9033.78
297.032	9005.62
297.099	9020.01
297.166	9027.52
297.233	9025.89
297.299	9018.04
297.366	9025.84
297.433	9023.91
297.5	9038.02
297.566	9030.56
297.633	9030.22
297.7	9025.17
297.767	9025.12
297.833	9034.27
297.9	9038.98
297.967	9022.71
298.033	9028.39
298.1	9053.38
298.167	9049.48
298.234	9056.03
298.3	9066.04
298.367	9064.89
298.434	9077.45
298.5	9062.72
298.567	9060.12
298.634	9056.8
298.7	9073.5
298.767	9073.21
298.834	9087.37
298.9	9075.43
298.967	9068.54
299.033	9080.29
299.1	9104.12
299.167	9117.84
299.233	9110.67
299.3	9114.18
299.366	9132.19
299.433	9145.28
299.5	9120.92
299.566	9116.44
299.633	9133.58
299.699	9139.6
299.766	9134.5
299.832	9139.07
299.899	9145.19
299.965	9158.91
300.032	9154.24
300.099	9159.25
300.165	9156.65
300.232	9156.6
300.298	9155.73
300.365	9168.93
300.431	9165.55
300.498	9150.24
300.564	9158.24
300.631	9170.66
300.697	9185.54
300.763	9180.91
300.83	9186.07
300.896	9205.18
300.963	9219.48
301.029	9214.14
301.096	9217.46
301.162	9228.87
301.229	9222.17
301.295	9208.84
301.361	9203.83
301.428	9209.99
301.494	9191.6
301.561	9196.37
301.627	9193.29
301.693	9195.89
301.76	9197.67
301.826	9193.29
301.892	9206.72
301.959	9205.57
302.025	9196.66
302.092	9191.02
302.158	9196.32
302.224	9191.7
302.291	9177.06
302.357	9168.1
302.423	9159.53
302.49	9149.81
302.556	9158.28
302.622	9154.82
302.688	9169.93
302.755	9180.91
302.821	9187.7
302.887	9194.97
302.954	9191.79
303.02	9193.91
303.086	9198.39
303.152	9193.67
303.219	9190.39
303.285	9193.77
303.351	9197.28
303.417	9194.06
303.483	9181.87
303.55	9177.01
303.616	9173.54
303.682	9170.42
303.748	9162.57
303.815	9184.04
303.881	9195.7
303.947	9176.97
304.013	9170.76
304.079	9159.92
304.145	9137.92
304.212	9134.45
304.278	9133.92
304.344	9134.5
304.41	9121.12
304.476	9113.03
304.542	9108.79
304.608	9106.72
304.674	9082.41
304.741	9079.18
304.807	9086.12
304.873	9089.58
304.939	9099.26
305.005	9079.18
305.071	9076.05
305.137	9077.16
305.203	9047.89
305.269	9035.8
305.335	9051.83
305.401	9056.31
305.467	9051.64
305.533	9065.17
305.599	9064.74
305.666	9066.42
305.732	9065.7
305.798	9076.24
305.864	9096.99
305.93	9102.48
305.996	9101.04
306.062	9103.21
306.128	9097.23
306.194	9082.7
306.259	9087.12
306.325	9081.06
306.391	9090.69
306.457	9093.82
306.523	9095.02
306.589	9114.57
306.655	9111.77
306.721	9088.38
306.787	9072.3
306.853	9084.04
306.919	9061.13
306.985	9057.9
307.051	9053.04
307.117	9042.64
307.183	9041.01
307.248	9014.24
307.314	9015.01
307.38	9014.19
307.446	9016.26
307.512	9005.14
307.578	9005.76
307.644	8997.48
307.709	8994.06
307.775	8988.62
307.841	8985.64
307.907	8982.22
307.973	8959.21
308.039	8955.41
308.104	8966.14
308.17	8965.9
308.236	8953.67
308.302	8958.44
308.368	8947.75
308.433	8939.9
308.499	8932.15
308.565	8914.73
308.631	8916.17
308.696	8888.11
308.762	8878.24
308.828	8880.12
308.894	8859.23
308.959	8843.97
309.025	8830.59
309.091	8827.37
309.156	8820.29
309.222	8822.17
309.288	8807.53
309.354	8788.62
309.419	8787.27
309.485	8767.44
309.551	8769.9
309.616	8751.7
309.682	8742.75
309.748	8728.41
309.813	8723.26
309.879	8716.9
309.945	8705.84
310.01	8695.44
310.076	8700.59
310.141	8690.1
310.207	8670.22
310.273	8676.62
310.338	8673.25
310.404	8655.25
310.469	8635.18
310.535	8627.48
310.601	8602.21
310.666	8602.64
310.732	8611.21
310.797	8599.03
310.863	8595.28
310.928	8581.99
310.994	8587.62
311.059	8581.08
311.125	8580.21
311.191	8586.08
311.256	8570.49
311.322	8579.01
311.387	8562.26
311.453	8916.61
311.518	8891.35
311.584	8889.81
311.649	8888.51
311.715	8878.98
311.78	8883.99
311.846	8882.5
311.911	8878.41
311.976	8879.32
312.042	8868.59
312.107	8856.27
312.173	8841.64
312.238	8830.28
312.304	8833.12
312.369	8821.77
312.434	8812.38
312.5	8808.2
312.565	8777.16
312.631	8780.09
312.696	8766.47
312.761	8765.51
312.827	8397.6
312.892	8431.9
312.958	8424.97
313.023	8428.97
313.088	8426.47
313.154	8409.96
313.219	8399.09
313.284	8391.1
313.35	8386.77
313.415	8375.71
313.48	8366.85
313.546	8365.65
313.611	8371.23
313.676	8358.53
313.741	8346.31
313.807	8352.75
313.872	8344.48
313.937	8351.07
314.003	8357.23
314.068	8358.29
314.133	8360.55
314.198	8351.02
314.264	8328.07
314.329	8314.98
314.394	8302.95
314.459	8302.66
314.525	8313.68
314.59	8309.06
314.655	8299
314.72	8303.77
314.785	8301.65
314.851	8293.04
314.916	8277.79
314.981	8263.74
315.046	8255.56
315.111	8248.92
315.176	8235.07
315.242	8243.34
315.307	8246.37
315.372	8229.1
315.437	8215.58
315.502	8205.57
315.567	8217.03
315.632	8207.69
315.698	8211.83
315.763	8205.86
315.828	8191.67
315.893	8187.68
315.958	8181.76
316.023	8172.53
316.088	8150.54
316.153	8128.42
316.218	8128.37
316.283	8116.06
316.348	8103.5
316.413	8098.74
316.479	8084.55
316.544	8054.97
316.609	8024.19
316.674	7987.63
316.739	7957.82
316.804	7931.18
316.869	7899.58
316.934	7867.83
316.999	7840.08
317.064	7792.09
317.129	7750.3
317.194	7715.06
317.259	7672.5
317.324	7621.54
317.389	7577.98
317.454	7544.85
317.518	7526.01
317.583	7500.48
317.648	7476.73
317.713	7443.41
317.778	7384.24
317.843	7357.17
317.908	7321.08
317.973	7282.82
318.038	7256.34
318.103	7221.79
318.168	7191.27
318.233	7159.8
318.297	7101.6
318.362	7066.33
318.427	7030.35
318.492	7011.03
318.557	6967.71
318.622	6945.07
318.687	6928.84
318.751	6891.67
318.816	6859.72
318.881	6821.29
318.946	6766.38
319.011	6721.09
319.075	6681.23
319.14	6653.14
319.205	6609.96
319.27	6584.42
319.335	6545.1
319.399	6500.87
319.464	6474.23
319.529	6420.56
319.594	6386.95
319.658	6361.8
319.723	6321.82
319.788	6293.65
319.853	6240.12
319.917	6214.69
319.982	6160.11
320.047	6123.59
320.112	6104.97
320.176	6059.91
320.241	6030.74
320.306	6000.17
320.37	5966.69
320.435	5939.05
320.5	5909.79
320.564	5877.22
320.629	5833.58
320.694	5803.22
320.758	5769.22
320.823	5726.25
320.888	5707.12
320.952	5662.57
321.017	5626.04
321.082	5588.07
321.146	5560.36
321.211	5528.86
321.275	5487.31
321.34	5447.54
321.405	5405.74
321.469	5358.87
321.534	5316.13
321.598	5267.35
321.663	5240.17
321.727	5211.23
321.792	5161.74
321.857	5120.05
321.921	5076.03
321.986	5037.96
322.05	4986.1
322.115	4952.81
322.179	4914.03
322.244	4860.89
322.308	4827.18
322.373	4781.95
322.437	4743.03
322.502	4715.35
322.566	4670.11
322.631	4641.21
322.695	4603.17
322.76	4563.98
322.824	4532.92
322.889	4496.47
322.953	4451.27
323.018	4387.94
323.082	4325.14
323.146	4280.53
323.211	4235.24
323.275	4201.48
323.34	4156.97
323.404	4123.71
323.468	4079.1
323.533	4037.99
323.597	3998.91
323.662	3951.55
323.726	3920.63
323.79	3878.87
323.855	3820.3
323.919	3776.02
323.983	3730.96
324.048	3671.3
324.112	3806.67
324.177	3686.14
324.241	3493.97
324.305	3308.95
324.37	3129.33
324.434	2954.63
324.498	2913.61
324.562	2866.63
324.627	2808.4
324.691	2759.68
324.755	2701.47
324.82	2631.03
324.884	2559.69
324.948	2492.34
325.012	2409.18
325.077	2296.21
