Data from 20250625_urea_1M_1_MAYP1162681_09-15-05-724.txt Node
Date: Thu Jun 26 09:15:05 BST 2025
User: adleo
Spectrometer: MAYP116268
Trigger mode: 0
Integration Time (sec): 1.000000E0
Scans to average: 1
Electric dark correction enabled: true
Nonlinearity correction enabled: true
Boxcar width: 10
XAxis mode: Wavelengths
Number of Pixels in Spectrum: 2068
>>>>>Begin Spectral Data<<<<<
179.565	1130.09
179.642	1180.54
179.718	1222.54
179.795	1259.68
179.871	1288.54
179.948	1306.43
180.024	1325.51
180.101	1346.62
180.177	1357.74
180.254	1378.22
180.33	1396.99
180.407	1446.12
180.483	1535.15
180.56	1619.1
180.636	1697.15
180.712	1685.03
180.789	1693.63
180.865	1705.31
180.942	1713.77
181.018	1721.99
181.095	1735.44
181.171	1740.29
181.248	1741.57
181.324	1754.36
181.4	1761.63
181.477	1772.32
181.553	1783.77
181.63	1803.5
181.706	1816.62
181.782	1827.78
181.859	1828.07
181.935	1835.72
182.011	1831.3
182.088	1847.51
182.164	1865.81
182.24	1876.6
182.317	1886.3
182.393	1882.4
182.469	1894.47
182.546	1906.5
182.622	1910.4
182.698	1907.73
182.775	1919.81
182.851	1932.27
182.927	1924.42
183.003	1917.77
183.08	1911.59
183.156	1916.96
183.232	1915.39
183.308	1906.45
183.385	1911.59
183.461	1924.9
183.537	1923.33
183.613	1935.69
183.69	1928.42
183.766	1919.05
183.842	1930.41
183.918	1935.12
183.995	1946.76
184.071	1950.33
184.147	1943.48
184.223	1931.84
184.299	1942.78
184.375	1931.27
184.452	1937.88
184.528	1992.87
184.604	2004.18
184.68	2016.4
184.756	2025.2
184.832	2027.91
184.908	2031.8
184.985	2030.81
185.061	2019.3
185.137	2031.76
185.213	2019.16
185.289	2019.73
185.365	2012.17
185.441	2006.94
185.517	2022.12
185.593	2021.31
185.669	2015.36
185.745	2027.11
185.822	2044.51
185.898	2035.37
185.974	2042.7
186.05	2034.04
186.126	1996.89
186.202	1990.57
186.278	1987.09
186.354	1979.72
186.43	1987.24
186.506	1985.91
186.582	1986.19
186.658	1991.23
186.734	1968.79
186.81	1974.69
186.886	1973.69
186.962	1986.24
187.038	1983.58
187.114	1974.4
187.19	1980.63
187.266	1975.73
187.341	1978.01
187.417	1971.5
187.493	1970.74
187.569	1974.4
187.645	1971.55
187.721	1959.18
187.797	1969.88
187.873	1972.73
187.949	1966.36
188.025	1961.13
188.101	1964.31
188.176	1968.26
188.252	1966.03
188.328	1974.77
188.404	1972.58
188.48	1970.63
188.556	1962.22
188.632	1963.64
188.707	1963.45
188.783	1961.88
188.859	1958.03
188.935	1946.38
189.011	1952.99
189.086	1949.38
189.162	1940.63
189.238	1938.06
189.314	1936.07
189.39	1927.13
189.465	1918.81
189.541	1935.4
189.617	1920.8
189.693	1915.81
189.768	1920.57
189.844	1941.21
189.92	1932.23
189.996	1939.84
190.071	1951.77
190.147	1952.82
190.223	1962.23
190.298	1957.76
190.374	1944.55
190.45	1957.14
190.526	1962.9
190.601	1957.57
190.677	1959.14
190.753	1986.5
190.828	1990.58
190.904	2005.52
190.98	2021.12
191.055	2032.34
191.131	2024.02
191.207	2042.42
191.282	2053.54
191.358	2043.32
191.433	2031.09
191.509	2046.92
191.585	2041.6
191.66	2039.74
191.736	2048.21
191.811	2037.51
191.887	2052.11
191.963	2073.08
192.038	2077.03
192.114	2079.27
192.189	2081.88
192.265	2077.22
192.34	2055.95
192.416	2053.91
192.491	2048.58
192.567	2049.1
192.642	2053.1
192.718	2053
192.793	2042.59
192.869	2035.74
192.944	2039.78
193.02	2049.58
193.095	2051.29
193.171	2059.24
193.246	2061
193.322	2056.33
193.397	2056.29
193.473	2042.01
193.548	2023.94
193.624	2029.27
193.699	2026.7
193.775	2044.83
193.85	2045.59
193.925	2053.72
194.001	2053.15
194.076	2045.64
194.152	2035.6
194.227	2029.94
194.302	2018.34
194.378	2021.1
194.453	2019.24
194.529	2029.33
194.604	2013.01
194.679	2008.07
194.755	1990.48
194.83	2000.14
194.905	1999.52
194.981	2008.65
195.056	2000.33
195.131	2008.27
195.207	2003.99
195.282	1992.1
195.357	1970.93
195.433	1984.96
195.508	1972.55
195.583	1980.44
195.659	1996.9
195.734	2003.7
195.809	1999.47
195.884	2012.26
195.96	2008.74
196.035	2024.19
196.11	2021.29
196.185	2031.66
196.261	2034.56
196.336	2064.04
196.411	2051.29
196.486	2056.38
196.561	2049.01
196.637	2057.14
196.712	2072.65
196.787	2077.03
196.862	2096.33
196.937	2105.99
197.013	2113.41
197.088	2123.97
197.163	2142.81
197.238	2154.66
197.313	2152.24
197.388	2167.98
197.464	2194.78
197.539	2209.81
197.614	2200.96
197.689	2211.33
197.764	2228.52
197.839	2246.83
197.914	2242.74
197.989	2264.39
198.065	2274.72
198.14	2322.47
198.215	2350.69
198.29	2363.69
198.365	2379.31
198.44	2387.3
198.515	2413.2
198.59	2427.67
198.665	2451.66
198.74	2460.85
198.815	2461.71
198.89	2484.8
198.965	2513.47
199.04	2507.47
199.115	2520.75
199.19	2563.93
199.265	2567.6
199.34	2575.93
199.415	2608.57
199.49	2626.09
199.565	2633.62
199.64	2657.57
199.715	2656.14
199.79	2662.05
199.865	2666.34
199.94	2662.62
200.015	2693.88
200.09	2700.74
200.165	2704.98
200.24	2714.27
200.315	2754.71
200.39	2770.19
200.464	2777.91
200.539	2777.62
200.614	2795.77
200.689	2818.22
200.764	2824.51
200.839	2843.66
200.914	2849.61
200.989	2838.93
201.063	2856.14
201.138	2840.71
201.213	2841.09
201.288	2822.79
201.363	2827.8
201.438	2829.47
201.512	2843.75
201.587	2825.74
201.662	2828.65
201.737	2842.37
201.812	2847.14
201.886	2812.65
201.961	2823.29
202.036	2811.28
202.111	2809.71
202.186	2784.13
202.26	2764.4
202.335	2742.15
202.41	2735.57
202.485	2718.47
202.559	2700.37
202.634	2674.45
202.709	2682.26
202.784	2662.26
202.858	2662.45
202.933	2644.58
203.008	2637.53
203.082	2621.1
203.157	2619.62
203.232	2580.54
203.306	2560.14
203.381	2529.85
203.456	2506.23
203.53	2480.59
203.605	2463.17
203.68	2439.54
203.754	2431.17
203.829	2419.79
203.904	2401.32
203.978	2388.32
204.053	2392.99
204.127	2381.8
204.202	2378.23
204.277	2365.05
204.351	2363.76
204.426	2355.19
204.5	2346.24
204.575	2312.17
204.65	2323.74
204.724	2317.03
204.799	2326.16
204.873	2320.26
204.948	2318.07
205.022	2307.74
205.097	2304.03
205.171	2318.97
205.246	2326.73
205.32	2324.74
205.395	2323.31
205.469	2316.74
205.544	2322.79
205.618	2305.99
205.693	2315.89
205.767	2305.32
205.842	2323.7
205.916	2315.99
205.991	2309.42
206.065	2315.18
206.14	2330.78
206.214	2323.02
206.289	2315.16
206.363	2325.87
206.438	2330.92
206.512	2339.11
206.586	2358.62
206.661	2367.05
206.735	2344.35
206.81	2347.06
206.884	2360.44
206.958	2349.59
207.033	2362.96
207.107	2368.53
207.181	2399.48
207.256	2394.86
207.33	2413.47
207.405	2425.53
207.479	2443.66
207.553	2449.52
207.628	2432.72
207.702	2442.86
207.776	2438
207.851	2445
207.925	2457.91
207.999	2451.24
208.073	2450.53
208.148	2452.39
208.222	2439.81
208.296	2469.46
208.371	2487
208.445	2499.14
208.519	2528.8
208.593	2543.99
208.668	2543.23
208.742	2546.61
208.816	2547.56
208.89	2562.19
208.965	2563.48
209.039	2573
209.113	2590.72
209.187	2613.94
209.261	2613.18
209.336	2630.71
209.41	2652.38
209.484	2654.72
209.558	2681.87
209.632	2692.35
209.707	2702.68
209.781	2726.88
209.855	2744.8
209.929	2761.49
210.003	2774.5
210.077	2778.08
210.151	2827.59
210.226	2862.68
210.3	2892.3
210.374	2924.46
210.448	2936
210.522	2949.97
210.596	2963.98
210.67	2982.29
210.744	3038.66
210.818	3082.61
210.892	3120.34
210.966	3128.58
211.041	3157.1
211.115	3170.79
211.189	3219.53
211.263	3257.21
211.337	3286.79
211.411	3322.53
211.485	3340.48
211.559	3376.69
211.633	3405.02
211.707	3400.53
211.781	3440.18
211.855	3439.42
211.929	3463.89
212.003	3478.83
212.077	3526.82
212.151	3578.59
212.225	3630.64
212.299	3659.12
212.373	3691.7
212.447	3732.32
212.52	3809
212.594	3865.06
212.668	3930.85
212.742	3967.9
212.816	4019.33
212.89	4066.79
212.964	4122.31
213.038	4190.43
213.112	4263.42
213.186	4341.27
213.26	4393.57
213.333	4418.44
213.407	4493.62
213.481	4571.97
213.555	4661.55
213.629	4728.05
213.703	4796.04
213.777	4877.32
213.85	4946.05
213.924	5060.84
213.998	5144.64
214.072	5219.56
214.146	5293.45
214.219	5374.55
214.293	5464.22
214.367	5559.57
214.441	5665.15
214.515	5750.46
214.588	5820.39
214.662	5883.42
214.736	5959.97
214.81	6061.01
214.883	6173.53
214.957	6268.57
215.031	6360.47
215.105	6442.19
215.178	6531.15
215.252	6623.68
215.326	6701
215.4	6782.01
215.473	6842.11
215.547	6935.24
215.621	7030.78
215.694	7143.76
215.768	7231.47
215.842	7319.46
215.915	7410.66
215.989	7490.66
216.063	7587.79
216.136	7697.51
216.21	7804.34
216.284	7928.33
216.357	8039
216.431	8137.13
216.504	8245.61
216.578	8370.56
216.652	8490.74
216.725	8598.63
216.799	8720.88
216.873	8830.37
216.946	8951.65
217.02	9054.32
217.093	9152.24
217.167	9235.05
217.24	9327.26
217.314	9425.87
217.387	9524.23
217.461	9621.45
217.535	9738.24
217.608	9832.73
217.682	9933.4
217.755	10049.49
217.829	10135.67
217.902	10236.21
217.976	10339.1
218.049	10432.04
218.123	10513.76
218.196	10606.36
218.27	10695.11
218.343	10768.07
218.417	10861.64
218.49	10952.33
218.563	11060.85
218.637	11158.44
218.71	11277.19
218.784	11373.29
218.857	11478.15
218.931	11575.26
219.004	11666.88
219.077	11762.7
219.151	11850.61
219.224	11927.54
219.298	12016.57
219.371	12123.86
219.444	12198.43
219.518	12284.86
219.591	12378.51
219.665	12492.37
219.738	12587.09
219.811	12671.64
219.885	12771.76
219.958	12866.29
220.031	12945.93
220.105	13032.36
220.178	13112.72
220.251	13181.89
220.325	13273.44
220.398	13357.46
220.471	13443.6
220.544	13529.36
220.618	13595.6
220.691	13679
220.764	13762.58
220.838	13838.7
220.911	13893.85
220.984	13987.18
221.057	14070.19
221.131	14139.8
221.204	14179.37
221.277	14261.66
221.35	14360.96
221.424	14421.51
221.497	14491.16
221.57	14560.92
221.643	14628.07
221.716	14696.08
221.79	14751.71
221.863	14809.89
221.936	14869.42
222.009	14929.58
222.082	14994.85
222.155	15049.47
222.229	15128.04
222.302	15192.34
222.375	15246.28
222.448	15317.04
222.521	15370.45
222.594	15416.29
222.667	15461.26
222.74	15531.49
222.814	15577.57
222.887	15616.99
222.96	15671.32
223.033	15726.51
223.106	15775.48
223.179	15831
223.252	15879.35
223.325	15939.26
223.398	15987.89
223.471	16038.93
223.544	16087.38
223.617	16129.21
223.69	16180.88
223.763	16212.02
223.837	16257.47
223.91	16304.46
223.983	16333.33
224.056	16365.19
224.129	16417.82
224.202	16469.54
224.275	16498.6
224.348	16529.01
224.42	16554.7
224.493	16584.92
224.566	16613.79
224.639	16660.15
224.712	16681.41
224.785	16713.36
224.858	16741.75
224.931	16759.53
225.004	16771.77
225.077	16806.43
225.15	16824.4
225.223	16863.01
225.296	16911.49
225.369	16925.37
225.442	16943.4
225.514	16974.96
225.587	17012.84
225.66	17041.62
225.733	17077.71
225.806	17111.93
225.879	17139.98
225.952	17166.78
226.025	17209.38
226.097	17255.74
226.17	17281.28
226.243	17300.13
226.316	17330.58
226.389	17364.66
226.461	17405.48
226.534	17446.73
226.607	17470.15
226.68	17517.19
226.753	17537.86
226.825	17543.79
226.898	17584.32
226.971	17607.79
227.044	17637.43
227.117	17662.2
227.189	17689.52
227.262	17719.93
227.335	17752.56
227.407	17771.02
227.48	17791.31
227.553	17816.12
227.626	17822.77
227.698	17839.4
227.771	17870.34
227.844	17880.41
227.916	17895.35
227.989	17896.41
228.062	17906.53
228.134	17941.28
228.207	17944.94
228.28	17951.69
228.352	17969.23
228.425	17985.37
228.498	18015.78
228.57	18023.06
228.643	18050.38
228.716	18057.71
228.788	18059.34
228.861	18052.45
228.934	18079.68
229.006	18094.96
229.079	18098.96
229.151	18109.03
229.224	18108.11
229.296	18127.1
229.369	18172.21
229.442	18199
229.514	18213.94
229.587	18241.12
229.659	18241.55
229.732	18259.43
229.804	18284.83
229.877	18313.36
229.949	18335.57
230.022	18357.5
230.094	18361.31
230.167	18364.2
230.239	18363.04
230.312	18369.55
230.384	18410.94
230.457	18419.81
230.529	18442.89
230.602	18451.13
230.674	18458.8
230.747	18479.57
230.819	18483.47
230.892	18457.45
230.964	18468.96
231.037	18474.6
231.109	18474.17
231.181	18488.1
231.254	18486.84
231.326	18481.4
231.399	18485.4
231.471	18483.13
231.544	18461.78
231.616	18481.73
231.688	18484.19
231.761	18486.02
231.833	18493.69
231.905	18466.99
231.978	18469.16
232.05	18459.42
232.122	18458.8
232.195	18461.01
232.267	18471.28
232.339	18469.73
232.412	18479.9
232.484	18468.67
232.556	18462.89
232.629	18486.22
232.701	18491.08
232.773	18492.77
232.846	18489.16
232.918	18476.63
232.99	18471.52
233.062	18481.16
233.135	18482.07
233.207	18467.04
233.279	18468.24
233.351	18460.58
233.424	18454.02
233.496	18432.1
233.568	18437.78
233.64	18423.71
233.713	18406.75
233.785	18389.69
233.857	18383.96
233.929	18364.87
234.001	18374.94
234.074	18391.47
234.146	18361.31
234.218	18335.86
234.29	18319.67
234.362	18304.97
234.434	18284.3
234.507	18256.44
234.579	18233.75
234.651	18210.86
234.723	18208.54
234.795	18205.41
234.867	18193.03
234.939	18197.7
235.012	18193.94
235.084	18183.29
235.156	18177.46
235.228	18167.2
235.3	18154.57
235.372	18143.1
235.444	18144.79
235.516	18105.17
235.588	18085.32
235.66	18070.28
235.732	18050.86
235.804	18089.08
235.876	18087.78
235.948	18093.9
236.02	18088.26
236.092	18071.01
236.164	18057.08
236.236	18033.18
236.308	18003.54
236.38	17992.5
236.452	17964.17
236.524	17948.22
236.596	17945.52
236.668	17943.97
236.74	17931.25
236.812	17920.02
236.884	17913.04
236.956	17901.52
237.028	17875.59
237.1	17839.4
237.172	17833.76
237.244	17835.11
237.316	17784.17
237.388	17759.16
237.46	17729.67
237.532	17725.04
237.604	17701.04
237.675	17696.08
237.747	17688.66
237.819	17668.03
237.891	17650.78
237.963	17622.58
238.035	17603.11
238.107	17545.52
238.178	17525.96
238.25	17494.54
238.322	17497.91
238.394	17454.87
238.466	17426.83
238.538	17407.16
238.609	17397.43
238.681	17361.19
238.753	17327.6
238.825	17312.8
238.897	17290.58
238.968	17276.8
239.04	17243.55
239.112	17247.07
239.184	17215.36
239.255	17191.45
239.327	17174.92
239.399	17153.33
239.471	17134.34
239.542	17116.32
239.614	17114
239.686	17065.91
239.758	17065.57
239.829	17027.59
239.901	17024.03
239.973	16991.74
240.044	16983.3
240.116	16952.6
240.188	16933.9
240.259	16912.55
240.331	16875.35
240.403	16859.25
240.474	16824.4
240.546	16789.8
240.618	16746.28
240.689	16716.01
240.761	16688.73
240.833	16682.52
240.904	16653.98
240.976	16639.09
241.048	16609.31
241.119	16592.34
241.191	16575.62
241.262	16553.74
241.334	16515.56
241.405	16474.21
241.477	16446.6
241.549	16415.12
241.62	16397.72
241.692	16371.7
241.763	16354.25
241.835	16325.14
241.906	16305.23
241.978	16268.12
242.049	16259.3
242.121	16241.23
242.192	16221.27
242.264	16183.82
242.335	16142.85
242.407	16120.78
242.478	16088.92
242.55	16071.38
242.621	16032.67
242.693	16007.56
242.764	15977.63
242.836	15954.21
242.907	15932.37
242.979	15909.62
243.05	15887.4
243.122	15865.23
243.193	15833.61
243.264	15787.29
243.336	15761.94
243.407	15741.07
243.479	15733.98
243.55	15710.56
243.622	15686.89
243.693	15664.96
243.764	15661.73
243.836	15629.15
243.907	15601.38
243.978	15572.22
244.05	15548.41
244.121	15509.94
244.192	15483.92
244.264	15443.33
244.335	15424.44
244.407	15390.07
244.478	15366.83
244.549	15335.21
244.62	15299.69
244.692	15277.13
244.763	15264.89
244.834	15239.87
244.906	15203.72
244.977	15180.29
245.048	15163.95
245.119	15129.2
245.191	15096.47
245.262	15037.51
245.333	15021.37
245.405	14989.31
245.476	14972.97
245.547	14950.17
245.618	14934.75
245.689	14914.55
245.761	14891.94
245.832	14860.17
245.903	14841.91
245.974	14821.9
246.045	14790.23
246.117	14777.94
246.188	14740.39
246.259	14700.43
246.33	14672.13
246.401	14638
246.473	14593.32
246.544	14561.02
246.615	14548.34
246.686	14513.34
246.757	14517.97
246.828	14479.46
246.899	14473.57
246.97	14422.48
247.042	14385.31
247.113	14367.38
247.184	14359.95
247.255	14326.26
247.326	14304.42
247.397	14280.46
247.468	14258.48
247.539	14241.8
247.61	14202.23
247.681	14188.78
247.752	14180.92
247.823	14144.91
247.894	14126.49
247.965	14092.41
248.037	14064.16
248.108	14027.82
248.179	14011.52
248.25	13974.07
248.321	13958.74
248.392	13915.54
248.463	13918.44
248.534	13896.94
248.605	13882.04
248.675	13857.41
248.746	13845.89
248.817	13824.72
248.888	13797.01
248.959	13753.47
249.03	13736.22
249.101	13711.39
249.172	13677.98
249.243	13633.25
249.314	13624.33
249.385	13598.73
249.456	13590.39
249.527	13565.42
249.598	13541.32
249.669	13513.65
249.739	13497.64
249.81	13473.44
249.881	13444.04
249.952	13418.2
250.023	13394.34
250.094	13351.62
250.165	13310.89
250.235	13289.2
250.306	13271.51
250.377	13243.16
250.448	13232.46
250.519	13190.76
250.59	13182.76
250.66	13160.1
250.731	13153.59
250.802	13137.39
250.873	13124.19
250.944	13102.93
251.014	13072.12
251.085	13077.47
251.156	13064.31
251.227	13048.07
251.297	13045.56
251.368	13035.34
251.439	13031.44
251.51	13013.89
251.58	12987.23
251.651	12967.18
251.722	12954.79
251.792	12916.23
251.863	12891.21
251.934	12876.7
252.005	12881.76
252.075	12863.54
252.146	12859.34
252.217	12850.57
252.287	12831.29
252.358	12805.83
252.429	12797.35
252.499	12775.42
252.57	12753.63
252.641	12743.22
252.711	12728.66
252.782	12688.7
252.852	12688.16
252.923	12653.02
252.994	12640.25
253.064	12630.03
253.135	12603.18
253.205	12572.28
253.276	12570.21
253.347	12574.98
253.417	12549.48
253.488	12524.46
253.558	12503.25
253.629	12478.86
253.699	12456.35
253.77	12444.25
253.841	12427.09
253.911	12415.86
253.982	12394.41
254.052	12376.23
254.123	12356.23
254.193	12331.6
254.264	12349.72
254.334	12319.11
254.405	12296.17
254.475	12261.75
254.546	12238.03
254.616	12226.95
254.687	12214.7
254.757	12199.33
254.827	12175.56
254.898	12163.51
254.968	12149
255.039	12122.11
255.109	12116.47
255.18	12093.04
255.25	12053.42
255.321	12035.25
255.391	11999.58
255.461	12009.12
255.532	11965.45
255.602	11940.39
255.673	11909.54
255.743	11890.45
255.813	11848.23
255.884	11841.34
255.954	11834.11
256.024	11842.06
256.095	11829.24
256.165	11802.05
256.235	11787.21
256.306	11766.63
256.376	11760.36
256.446	11740.12
256.517	11727.49
256.587	11717.8
256.657	11702.33
256.728	11684.54
256.798	11666.81
256.868	11648.83
256.938	11617.11
257.009	11618.22
257.079	11608.54
257.149	11613.93
257.219	11568.53
257.29	11555.71
257.36	11517.78
257.43	11506.65
257.5	11464.14
257.571	11436.67
257.641	11418.16
257.711	11388.52
257.781	11379.02
257.852	11364.85
257.922	11337.67
257.992	11317.09
258.062	11288.51
258.132	11282.68
258.202	11269.04
258.273	11254.39
258.343	11253.52
258.413	11233.23
258.483	11214.1
258.553	11184.56
258.623	11153.96
258.693	11142.1
258.764	11141.47
258.834	11146.25
258.904	11130.97
258.974	11105.24
259.044	11089.33
259.114	11083.26
259.184	11064.37
259.254	11040.37
259.324	11002.78
259.394	10992.9
259.464	10992.47
259.535	10977.96
259.605	10951.17
259.675	10932.28
259.745	10924.09
259.815	10902.06
259.885	10885.78
259.955	10895.61
260.025	10868.72
260.095	10861.3
260.165	10849.01
260.235	10847.09
260.305	10818.32
260.375	10791.33
260.445	10801.79
260.515	10797.64
260.585	10787.67
260.655	10780.35
260.725	10774.32
260.795	10765.07
260.865	10769.46
260.934	10751.53
261.004	10739.15
261.074	10726.52
261.144	10727
261.214	10716.55
261.284	10693.51
261.354	10678.39
261.424	10644.03
261.494	10652.55
261.564	10635.88
261.634	10626.58
261.703	10593.09
261.773	10584.62
261.843	10579.12
261.913	10562.26
261.983	10538.65
262.053	10527.23
262.123	10505.16
262.192	10479
262.262	10472.59
262.332	10441.08
262.402	10428.46
262.472	10421.38
262.541	10389.68
262.611	10381.63
262.681	10359.08
262.751	10352.67
262.821	10340.24
262.89	10318.56
262.96	10307.87
263.03	10306.86
263.1	10297.99
263.169	10288.98
263.239	10282.53
263.309	10283.83
263.379	10269.76
263.448	10254.58
263.518	10250.2
263.588	10240.32
263.657	10242.06
263.727	10235.03
263.797	10216.58
263.867	10202.8
263.936	10170.62
264.006	10170.04
264.076	10149.9
264.145	10135.69
264.215	10116.18
264.285	10109.73
264.354	10081.26
264.424	10058.38
264.494	10030.77
264.563	10015.31
264.633	10022.15
264.702	10009.62
264.772	9980.58
264.842	9963.33
264.911	9958.13
264.981	9930.72
265.05	9922.38
265.12	9905.91
265.19	9892.47
265.259	9893.72
265.329	9884.81
265.398	9874.99
265.468	9886.21
265.537	9873.83
265.607	9863.38
265.676	9864.92
265.746	9856.97
265.815	9856.2
265.885	9851.14
265.955	9830.05
266.024	9806.45
266.094	9766.86
266.163	9767.53
266.232	9764.35
266.302	9751.3
266.371	9734.35
266.441	9718.93
266.51	9711.47
266.58	9697.02
266.649	9674.72
266.719	9670.96
266.788	9665.86
266.858	9672.46
266.927	9633.59
266.996	9623.28
267.066	9624.25
267.135	9597.52
267.205	9590.63
267.274	9583.31
267.343	9572.09
267.413	9561.45
267.482	9565.49
267.552	9574.4
267.621	9545.99
267.69	9518.15
267.76	9512.42
267.829	9512.9
267.898	9504.72
267.968	9477.22
268.037	9469.18
268.106	9468.7
268.176	9442.5
268.245	9420.92
268.314	9402.77
268.384	9406.86
268.453	9394.77
268.522	9381.43
268.592	9378.11
268.661	9359.86
268.73	9350.66
268.799	9340.84
268.869	9352.11
268.938	9323.46
269.007	9301.26
269.076	9295.14
269.146	9297.17
269.215	9288.02
269.284	9292.4
269.353	9279.11
269.422	9271.79
269.492	9254.65
269.561	9226.29
269.63	9220.61
269.699	9210.84
269.768	9205.25
269.838	9191.24
269.907	9195.05
269.976	9166.5
270.045	9134.87
270.114	9131.26
270.183	9120.81
270.253	9113.88
270.322	9082.34
270.391	9076.76
270.46	9079.07
270.529	9075.02
270.598	9072.38
270.667	9061.93
270.736	9038.48
270.806	9029.43
270.875	9029.91
270.944	9024.23
271.013	9035.45
271.082	9020.91
271.151	9012.92
271.22	8975.32
271.289	8968
271.358	8943.11
271.427	8938.01
271.496	8935.75
271.565	8920.1
271.634	8914.66
271.703	8930.41
271.772	8931.13
271.841	8917.32
271.91	8887.23
271.979	8875.15
272.048	8853.77
272.117	8851.75
272.186	8833.22
272.255	8831.82
272.324	8830.28
272.393	8820.66
272.462	8810.26
272.531	8807.52
272.6	8795.67
272.669	8806.74
272.738	8797.31
272.807	8801.74
272.876	8789.08
272.945	8811.08
273.013	8814.54
273.082	8813.82
273.151	8774.73
273.22	8770.59
273.289	8761.83
273.358	8779.35
273.427	8774.97
273.496	8776.22
273.564	8772.81
273.633	8779.64
273.702	8763.28
273.771	8751.87
273.84	8747.92
273.909	8744.65
273.977	8739.84
274.046	8728.77
274.115	8730.88
274.184	8712.93
274.253	8703.6
274.322	8704.37
274.39	8678.57
274.459	8660.13
274.528	8636.55
274.597	8637.47
274.665	8631.45
274.734	8637.18
274.803	8626.15
274.872	8612.53
274.94	8595.5
275.009	8643.22
275.078	8627.48
275.147	8625.89
275.215	8621.41
275.284	8633.45
275.353	8621.89
275.421	8600.82
275.49	8620.31
275.559	8604.67
275.627	8602.74
275.696	8594.56
275.765	8596.49
275.833	8587.3
275.902	8588.4
275.971	8598.8
276.039	8608.95
276.108	8613.43
276.177	8611.6
276.245	8602.22
276.314	8602.6
276.383	8609.48
276.451	8553.87
276.52	8554.16
276.588	8567.3
276.657	8569.71
276.725	8554.21
276.794	8551.22
276.863	8563.35
276.931	8542.61
277	8553.92
277.068	8556.37
277.137	8566.14
277.205	8565.66
277.274	8580
277.342	8589.09
277.411	8564.07
277.48	8547.81
277.548	8534.91
277.617	8534.86
277.685	8525.57
277.754	8527.07
277.822	8511.43
277.89	8525.63
277.959	8518.46
278.027	8498.82
278.096	8487.03
278.164	8509.37
278.233	8509.22
278.301	8500.03
278.37	8501.14
278.438	8488.1
278.507	8495.27
278.575	8474.53
278.643	8471.06
278.712	8459.37
278.78	8447.1
278.849	8463.16
278.917	8470.86
278.985	8471.59
279.054	8473.03
279.122	8487.75
279.191	8490.06
279.259	8493.38
279.327	8469.13
279.396	8490.69
279.464	8486.16
279.532	8491.89
279.601	8485.25
279.669	8477.64
279.737	8484.04
279.806	8482.94
279.874	8492.08
279.942	8488.81
280.011	8481.64
280.079	8488.14
280.147	8498.77
280.215	8501.32
280.284	8493.86
280.352	8483.66
280.42	8482.31
280.488	8476.88
280.557	8465.23
280.625	8466.53
280.693	8468.12
280.761	8470.28
280.83	8447.95
280.898	8456.23
280.966	8437.22
281.034	8405.66
281.102	8392.09
281.171	8393.97
281.239	8402.58
281.307	8396.52
281.375	8384.25
281.443	8409.03
281.512	8404.65
281.58	8410.81
281.648	8398.64
281.716	8401.62
281.784	8400.13
281.852	8402.39
281.92	8404.02
281.989	8411.58
282.057	8388.77
282.125	8416.06
282.193	8410.24
282.261	8411.49
282.329	8417.84
282.397	8423.57
282.465	8431.12
282.533	8448.82
282.601	8438.91
282.67	8419.14
282.738	8408.6
282.806	8421.69
282.874	8411.58
282.942	8413.5
283.01	8404.6
283.078	8412.97
283.146	8411
283.214	8420.24
283.282	8421.3
283.35	8432.27
283.418	8432.03
283.486	8447.91
283.554	8418.07
283.622	8418.84
283.69	8413.55
283.758	8398.25
283.826	8405.99
283.894	8409.94
283.962	8428.71
284.03	8438.72
284.098	8441.03
284.165	8441.12
284.233	8433.52
284.301	8424.23
284.369	8412.4
284.437	8407.05
284.505	8400.17
284.573	8406.38
284.641	8392.81
284.709	8399.84
284.777	8377.22
284.845	8379.67
284.912	8374
284.98	8377.89
285.048	8371.06
285.116	8379.43
285.184	8395.12
285.252	8392.52
285.319	8384.15
285.387	8372.36
285.455	8356.77
285.523	8362.49
285.591	8355.9
285.659	8365.72
285.726	8377.41
285.794	8366.4
285.862	8362.83
285.93	8358.84
285.997	8354.32
286.065	8349.17
286.133	8338.1
286.201	8337.52
286.269	8322.42
286.336	8314.91
286.404	8308.03
286.472	8316.69
286.539	8294.95
286.607	8275.99
286.675	8281.52
286.743	8282.34
286.81	8275.12
286.878	8286.62
286.946	8281.04
287.013	8284.5
287.081	8279.02
287.149	8264.1
287.216	8287.48
287.284	8285.27
287.352	8287.92
287.419	8286.33
287.487	8305.14
287.555	8308.32
287.622	8306.2
287.69	8323.09
287.758	8336.23
287.825	8335.5
287.893	8319
287.96	8326.36
288.028	8341.28
288.096	8338.29
288.163	8342.38
288.231	8326.07
288.298	8328.82
288.366	8338.68
288.433	8336.28
288.501	8326.65
288.569	8329.06
288.636	8318.95
288.704	8330.74
288.771	8336.42
288.839	8330.89
288.906	8316.35
288.974	8325.31
289.041	8322.37
289.109	8297.98
289.176	8308.85
289.244	8317.8
289.311	8340.13
289.379	8354.56
289.446	8355.48
289.514	8357.5
289.581	8358.89
289.649	8365.29
289.716	8363.08
289.783	8350.95
289.851	8369.96
289.918	8369.19
289.986	8375.49
290.053	8380.83
290.121	8381.07
290.188	8384.82
290.255	8412.59
290.323	8413.84
290.39	8410.38
290.458	8421.87
290.525	8440.06
290.592	8428.46
290.66	8423.94
290.727	8409.55
290.794	8415.28
290.862	8414.27
290.929	8418.55
290.996	8422.16
291.064	8429.47
291.131	8440.97
291.198	8458.01
291.266	8450.21
291.333	8454.54
291.4	8461.04
291.468	8474.18
291.535	8463.83
291.602	8473.12
291.669	8467.1
291.737	8470.38
291.804	8465.66
291.871	8475.67
291.938	8483.61
292.006	8507.14
292.073	8516.29
292.14	8531.35
292.207	8526.2
292.275	8529.42
292.342	8534.91
292.409	8558.93
292.476	8585.01
292.543	8580.25
292.611	8582.51
292.678	8600.94
292.745	8625.44
292.812	8635.98
292.879	8627.89
292.946	8638.57
293.014	8639.49
293.081	8641.46
293.148	8656.67
293.215	8667.21
293.282	8661.72
293.349	8667.74
293.416	8652
293.484	8666.97
293.551	8675.72
293.618	8699.36
293.685	8719.76
293.752	8713.12
293.819	8709.61
293.886	8697.19
293.953	8702.39
294.02	8716.01
294.087	8725.11
294.154	8717.79
294.221	8731.12
294.288	8736.56
294.356	8751.05
294.423	8754.27
294.49	8747.34
294.557	8753.6
294.624	8748.69
294.691	8768.96
294.758	8774.11
294.825	8783.83
294.892	8780.7
294.959	8780.8
295.026	8774.68
295.093	8763.76
295.16	8765.34
295.226	8766.11
295.293	8785.56
295.36	8786.33
295.427	8788.3
295.494	8794.27
295.561	8796.25
295.628	8818.06
295.695	8830.09
295.762	8829.47
295.829	8843.91
295.896	8861.91
295.963	8873.17
296.03	8886.75
296.096	8885.3
296.163	8891.7
296.23	8902.34
296.297	8906.1
296.364	8907.11
296.431	8917.94
296.498	8920.59
296.564	8945.23
296.631	8942.54
296.698	8930.55
296.765	8953.61
296.832	8949.52
296.899	8939.55
296.965	8967.33
297.032	8942.29
297.099	8968.72
297.166	8974.98
297.233	8966.94
297.299	8959.14
297.366	8955.58
297.433	8955.87
297.5	8968.1
297.566	8966.27
297.633	8965.45
297.7	8971.51
297.767	8969.83
297.833	8970.07
297.9	8972.24
297.967	8953.9
298.033	8967.76
298.1	8992.89
298.167	8978.11
298.234	8985
298.3	8991.59
298.367	8979.46
298.434	8983.65
298.5	8960.87
298.567	8958.66
298.634	8964.63
298.7	8981.91
298.767	8984.08
298.834	8998.37
298.9	8986.87
298.967	8981.33
299.033	8992.55
299.1	9009.79
299.167	9025.24
299.233	9021.05
299.3	9034.72
299.366	9045.36
299.433	9058.12
299.5	9031.06
299.566	9038.57
299.633	9051.38
299.699	9060.38
299.766	9055.28
299.832	9064.77
299.899	9071.79
299.965	9087.15
300.032	9080.46
300.099	9086.57
300.165	9091.53
300.232	9081.23
300.298	9090.71
300.365	9106.02
300.431	9103.13
300.498	9090.71
300.564	9093.36
300.631	9107.08
300.697	9116.81
300.763	9118.16
300.83	9117.67
300.896	9132.84
300.963	9148.92
301.029	9148.44
301.096	9150.51
301.162	9162.83
301.229	9149.88
301.295	9140.64
301.361	9138.09
301.428	9143.29
301.494	9125.52
301.561	9129.85
301.627	9134.96
301.693	9132.16
301.76	9130.77
301.826	9125.28
301.892	9135.05
301.959	9143.38
302.025	9136.16
302.092	9123.98
302.158	9131.73
302.224	9131.92
302.291	9124.22
302.357	9108.86
302.423	9101.01
302.49	9089.51
302.556	9102.17
302.622	9107.03
302.688	9115.94
302.755	9128.89
302.821	9135.2
302.887	9139.63
302.954	9138.28
303.02	9149.88
303.086	9157.2
303.152	9157.39
303.219	9155.47
303.285	9158.12
303.351	9161.44
303.417	9165.34
303.483	9158.74
303.55	9154.26
303.616	9142.47
303.682	9145.45
303.748	9138.42
303.815	9153.54
303.881	9167.36
303.947	9151.18
304.013	9148.29
304.079	9144.59
304.145	9124.99
304.212	9122.05
304.278	9119.21
304.344	9110.69
304.41	9088.83
304.476	9079.98
304.542	9074.63
304.608	9072.9
304.674	9054.89
304.741	9046.9
304.807	9048.01
304.873	9055.13
304.939	9064.86
305.005	9049.6
305.071	9044.21
305.137	9043.44
305.203	9020.47
305.269	9013.34
305.335	9022.64
305.401	9022.92
305.467	9015.75
305.533	9016.81
305.599	9022.83
305.666	9032.79
305.732	9032.07
305.798	9049.26
305.864	9067.94
305.93	9070.01
305.996	9070.49
306.062	9072.32
306.128	9063.37
306.194	9045.36
306.259	9043.92
306.325	9035.97
306.391	9047.24
306.457	9048.59
306.523	9053.06
306.589	9070.39
306.655	9066.06
306.721	9050.37
306.787	9036.12
306.853	9049.21
306.919	9037.85
306.985	9021.63
307.051	9013.25
307.117	8998.96
307.183	8985.04
307.248	8956.49
307.314	8957.79
307.38	8962.8
307.446	8965.06
307.512	8957.99
307.578	8961.64
307.644	8950.52
307.709	8955.96
307.775	8945.13
307.841	8941.33
307.907	8938.2
307.973	8914.66
308.039	8907.73
308.104	8908.83
308.17	8917.06
308.236	8904.02
308.302	8906.52
308.368	8900.41
308.433	8895.16
308.499	8894.44
308.565	8886.83
308.631	8885.15
308.696	8863.39
308.762	8847.12
308.828	8840.09
308.894	8825.17
308.959	8805.68
309.025	8796.25
309.091	8791
309.156	8787.2
309.222	8787.53
309.288	8772.71
309.354	8753.02
309.419	8752.83
309.485	8737.19
309.551	8730.69
309.616	8714.86
309.682	8715.24
309.748	8710.24
309.813	8703.83
309.879	8695.7
309.945	8678.9
310.01	8674.43
310.076	8673.32
310.141	8664.75
310.207	8654.41
310.273	8651.95
310.338	8656.57
310.404	8643.48
310.469	8622.35
310.535	8606.95
310.601	8583.8
310.666	8591.7
310.732	8599.2
310.797	8589.72
310.863	8579.76
310.928	8576.05
310.994	8577.4
311.059	8563.54
311.125	8557.47
311.191	8570.86
311.256	8557.86
311.322	8569.27
311.387	8553.49
311.453	8833.55
311.518	8810.93
311.584	8803.19
311.649	8804.48
311.715	8790.19
311.78	8794.14
311.846	8780.76
311.911	8793.37
311.976	8797.85
312.042	8778.5
312.107	8765.07
312.173	8750.49
312.238	8744.38
312.304	8735.82
312.369	8724.36
312.434	8711.37
312.5	8701.99
312.565	8664.16
312.631	8667.92
312.696	8649.25
312.761	8649.29
312.827	8355.81
312.892	8390.89
312.958	8390.5
313.023	8387.32
313.088	8390.45
313.154	8374.43
313.219	8368.95
313.284	8357.59
313.35	8350.32
313.415	8343.49
313.48	8337
313.546	8340.32
313.611	8344.74
313.676	8336.75
313.741	8328.09
313.807	8334.78
313.872	8339.93
313.937	8348.59
314.003	8360.33
314.068	8364.33
314.133	8368.56
314.198	8358.51
314.264	8340.89
314.329	8331.46
314.394	8326.6
314.459	8322.46
314.525	8337.66
314.59	8331.46
314.655	8317.99
314.72	8321.74
314.785	8319.58
314.851	8316.98
314.916	8301.25
314.981	8289.27
315.046	8277.96
315.111	8265.65
315.176	8248.81
315.242	8246.21
315.307	8242.21
315.372	8219.94
315.437	8211.04
315.502	8196.36
315.567	8205.94
315.632	8185.68
315.698	8181.78
315.763	8177.89
315.828	8163.41
315.893	8155.76
315.958	8154.99
316.023	8146.28
316.088	8127.04
316.153	8105.25
316.218	8096.06
316.283	8071.78
316.348	8053.16
316.413	8046.52
316.479	8039.07
316.544	8010.75
316.609	7981.31
316.674	7945
316.739	7914.61
316.804	7881.76
316.869	7852.86
316.934	7819.62
316.999	7786.88
317.064	7741.72
317.129	7696.28
317.194	7667
317.259	7623.33
317.324	7572.28
317.389	7531.36
317.454	7499.39
317.518	7472.85
317.583	7446.51
317.648	7428.53
317.713	7396.99
317.778	7347.72
317.843	7315.85
317.908	7288.56
317.973	7256.06
318.038	7228.67
318.103	7193.21
318.168	7168.22
318.233	7139.72
318.297	7093.11
318.362	7061.16
318.427	7020.28
318.492	6998.37
318.557	6955.52
318.622	6930.25
318.687	6913.82
318.751	6874.97
318.816	6837.59
318.881	6808.34
318.946	6760.11
319.011	6719
319.075	6681.49
319.14	6649.65
319.205	6608.74
319.27	6573.4
319.335	6528.84
319.399	6493.59
319.464	6467.29
319.529	6413.23
319.594	6375.64
319.658	6344.06
319.723	6305.95
319.788	6282.82
319.853	6232.32
319.917	6202.76
319.982	6153.37
320.047	6115.17
320.112	6088.59
320.176	6047.13
320.241	6013.97
320.306	5987.68
320.37	5955.87
320.435	5927.23
320.5	5897.39
320.564	5862.52
320.629	5824.63
320.694	5799.35
320.758	5756.86
320.823	5716.87
320.888	5695.82
320.952	5650.37
321.017	5615.32
321.082	5579.89
321.146	5550.12
321.211	5518.72
321.275	5480.24
321.34	5441.71
321.405	5401.78
321.469	5361.19
321.534	5320.37
321.598	5266.51
321.663	5237.23
321.727	5205.36
321.792	5157.74
321.857	5119.55
321.921	5083.05
321.986	5043.87
322.05	4986.41
322.115	4956.67
322.179	4916.74
322.244	4861.16
322.308	4832.52
322.373	4787
322.437	4747.7
322.502	4721.26
322.566	4681.34
322.631	4645.64
322.695	4603.15
322.76	4559.42
322.824	4528.41
322.889	4487.76
322.953	4448.35
323.018	4384.19
323.082	4322.54
323.146	4276.4
323.211	4228.52
323.275	4184
323.34	4137.97
323.404	4107.53
323.468	4060.19
323.533	4016.89
323.597	3980.92
323.662	3932.21
323.726	3901.72
323.79	3861.73
323.855	3799.16
323.919	3753.06
323.983	3712.78
324.048	3654.21
324.112	3807.06
324.177	3686.64
324.241	3497.32
324.305	3312.5
324.37	3130.16
324.434	2952.69
324.498	2914.3
324.562	2866.8
324.627	2814.86
324.691	2768.84
324.755	2709.93
324.82	2646.3
324.884	2579.6
324.948	2511.89
325.012	2426.55
325.077	2315.3
