Data from 20250625_urea_1M_1_MAYP1162681_08-25-05-952.txt Node
Date: Thu Jun 26 08:25:05 BST 2025
User: adleo
Spectrometer: MAYP116268
Trigger mode: 0
Integration Time (sec): 1.000000E0
Scans to average: 1
Electric dark correction enabled: true
Nonlinearity correction enabled: true
Boxcar width: 10
XAxis mode: Wavelengths
Number of Pixels in Spectrum: 2068
>>>>>Begin Spectral Data<<<<<
179.565	1129.38
179.642	1178.21
179.718	1220.07
179.795	1257.51
179.871	1284.84
179.948	1300.59
180.024	1319.29
180.101	1340.13
180.177	1348.86
180.254	1369.63
180.33	1389.7
180.407	1437.4
180.483	1525.63
180.56	1609.77
180.636	1687.91
180.712	1679.21
180.789	1685.1
180.865	1697.12
180.942	1703.72
181.018	1713.98
181.095	1724.58
181.171	1727.62
181.248	1730.9
181.324	1744.07
181.4	1748.92
181.477	1760.47
181.553	1772.11
181.63	1791.07
181.706	1804.66
181.782	1815.45
181.859	1815.26
181.935	1820.82
182.011	1818.15
182.088	1834.17
182.164	1854.29
182.24	1865.22
182.317	1875.29
182.393	1873.35
182.469	1890.32
182.546	1902.39
182.622	1904.2
182.698	1900.49
182.775	1910.57
182.851	1922.69
182.927	1915.94
183.003	1910.95
183.08	1906.19
183.156	1915.61
183.232	1913.75
183.308	1903.72
183.385	1913.61
183.461	1928.96
183.537	1929.63
183.613	1941.66
183.69	1934.1
183.766	1920.5
183.842	1931.05
183.918	1934.43
183.995	1949.07
184.071	1950.69
184.147	1946.03
184.223	1936.52
184.299	1948.41
184.375	1939.66
184.452	1945.23
184.528	1998.69
184.604	2009.29
184.68	2018.42
184.756	2024.27
184.832	2028.12
184.908	2033.92
184.985	2032.25
185.061	2017.85
185.137	2025.22
185.213	2014.28
185.289	2014.09
185.365	2008.63
185.441	2003.54
185.517	2014.96
185.593	2011.44
185.669	2006.25
185.745	2015.24
185.822	2033.3
185.898	2025.03
185.974	2031.4
186.05	2023.98
186.126	1986.21
186.202	1980.84
186.278	1978.74
186.354	1970.71
186.43	1975.37
186.506	1973.61
186.582	1972.18
186.658	1980.31
186.734	1964.29
186.81	1965.39
186.886	1967.43
186.962	1978.51
187.038	1976.8
187.114	1970.32
187.19	1976.74
187.266	1968.62
187.341	1970.66
187.417	1961.72
187.493	1963.81
187.569	1969.66
187.645	1961.91
187.721	1952.21
187.797	1959.63
187.873	1964.19
187.949	1959.01
188.025	1951.64
188.101	1953.83
188.176	1959.34
188.252	1955.68
188.328	1961
188.404	1961.81
188.48	1958.44
188.556	1948.59
188.632	1947.69
188.707	1945.69
188.783	1942.32
188.859	1939.75
188.935	1928.39
189.011	1936.04
189.086	1928.67
189.162	1919.16
189.238	1921.54
189.314	1915.79
189.39	1911.22
189.465	1902.66
189.541	1917.16
189.617	1905.42
189.693	1902.33
189.768	1905.9
189.844	1924.83
189.92	1917.27
189.996	1924.93
190.071	1937.29
190.147	1941.52
190.223	1951.32
190.298	1944.47
190.374	1933.25
190.45	1943.42
190.526	1950.08
190.601	1944.95
190.677	1947.61
190.753	1974.39
190.828	1977.01
190.904	1994.08
190.98	2006.44
191.055	2017.86
191.131	2012.77
191.207	2032.69
191.282	2038.54
191.358	2029.08
191.433	2019.7
191.509	2032.58
191.585	2027.92
191.66	2026.5
191.736	2031.58
191.811	2023.02
191.887	2036.58
191.963	2057.36
192.038	2059.69
192.114	2063.21
192.189	2067.06
192.265	2061.5
192.34	2039.42
192.416	2039.52
192.491	2032.14
192.567	2035.05
192.642	2037.81
192.718	2035.9
192.793	2024.49
192.869	2022.11
192.944	2023.02
193.02	2027.82
193.095	2027.49
193.171	2035.67
193.246	2036.62
193.322	2033.53
193.397	2034.34
193.473	2023.82
193.548	2010.55
193.624	2015.74
193.699	2012.65
193.775	2029.44
193.85	2033.86
193.925	2041.85
194.001	2039.38
194.076	2032.86
194.152	2023.06
194.227	2017.12
194.302	2010.22
194.378	2012.08
194.453	2009.46
194.529	2020.92
194.604	2007.18
194.679	2005.8
194.755	1986.64
194.83	1997.63
194.905	1997.06
194.981	2006.67
195.056	1999.11
195.131	2003.77
195.207	2004.82
195.282	1996.07
195.357	1976.52
195.433	1990.12
195.508	1978.47
195.583	1985.65
195.659	2003.39
195.734	2011.43
195.809	2007.24
195.884	2012.33
195.96	2012.62
196.035	2028.45
196.11	2026.5
196.185	2038.15
196.261	2040.91
196.336	2072.11
196.411	2058.69
196.486	2064.26
196.561	2054.93
196.637	2064.63
196.712	2078.72
196.787	2080.52
196.862	2097.41
196.937	2106.73
197.013	2111.34
197.088	2123.71
197.163	2142.65
197.238	2152.93
197.313	2152.26
197.388	2168.39
197.464	2199.56
197.539	2213.4
197.614	2204.74
197.689	2219.26
197.764	2234.91
197.839	2254.94
197.914	2249.57
197.989	2270.46
198.065	2282.97
198.14	2331.58
198.215	2355.76
198.29	2367.81
198.365	2383.18
198.44	2389.94
198.515	2415.55
198.59	2430.21
198.665	2453.49
198.74	2460.87
198.815	2461.25
198.89	2483.34
198.965	2512.25
199.04	2507.25
199.115	2518.77
199.19	2562.48
199.265	2564.1
199.34	2571.77
199.415	2602.78
199.49	2620.16
199.565	2629.73
199.64	2652.07
199.715	2650.21
199.79	2655.55
199.865	2663.46
199.94	2659.74
200.015	2693.14
200.09	2697.19
200.165	2702.9
200.24	2712.39
200.315	2754.82
200.39	2771.21
200.464	2774.6
200.539	2774.12
200.614	2786.98
200.689	2811.04
200.764	2811.09
200.839	2826.52
200.914	2834
200.989	2823.9
201.063	2839.67
201.138	2825.14
201.213	2825.91
201.288	2807.32
201.363	2812.28
201.438	2810.04
201.512	2827.47
201.587	2808.31
201.662	2815.65
201.737	2830.09
201.812	2835.29
201.886	2799.38
201.961	2811.25
202.036	2800.06
202.111	2796.86
202.186	2769.25
202.26	2750.8
202.335	2738.94
202.41	2731.08
202.485	2713.69
202.559	2694.83
202.634	2667.91
202.709	2675.34
202.784	2654.62
202.858	2655.86
202.933	2637.95
203.008	2632.95
203.082	2611.61
203.157	2612.18
203.232	2569.71
203.306	2547.84
203.381	2516.98
203.456	2495.31
203.53	2470.53
203.605	2452.11
203.68	2431.58
203.754	2430.15
203.829	2418.3
203.904	2395.54
203.978	2386.54
204.053	2389.97
204.127	2380.64
204.202	2380.69
204.277	2363.26
204.351	2360.46
204.426	2351.5
204.5	2344.56
204.575	2310.2
204.65	2321.25
204.724	2312.91
204.799	2322.62
204.873	2318.47
204.948	2316.47
205.022	2308.05
205.097	2300.1
205.171	2312.66
205.246	2316.28
205.32	2313.52
205.395	2314.62
205.469	2306.72
205.544	2310.2
205.618	2294.68
205.693	2303.87
205.767	2291.97
205.842	2315.49
205.916	2308.02
205.991	2298.31
206.065	2305.11
206.14	2319.28
206.214	2312.95
206.289	2303.95
206.363	2314.62
206.438	2316.62
206.512	2322.52
206.586	2339.7
206.661	2348.7
206.735	2332.76
206.81	2333.66
206.884	2347.08
206.958	2334.85
207.033	2349.65
207.107	2357.65
207.181	2389.69
207.256	2384.84
207.33	2402.88
207.405	2411.79
207.479	2428.35
207.553	2438.54
207.628	2423.6
207.702	2437.78
207.776	2432.31
207.851	2440.73
207.925	2455.73
207.999	2453.5
208.073	2453.02
208.148	2454.16
208.222	2445.64
208.296	2473.96
208.371	2493.92
208.445	2507.01
208.519	2532.72
208.593	2545.44
208.668	2542.72
208.742	2541.39
208.816	2543.96
208.89	2555.96
208.965	2556.58
209.039	2568.44
209.113	2584.11
209.187	2605.81
209.261	2603.48
209.336	2625.44
209.41	2644.92
209.484	2649.21
209.558	2671.6
209.632	2688.31
209.707	2702.51
209.781	2724.57
209.855	2742.48
209.929	2762.18
210.003	2771.95
210.077	2775.71
210.151	2826.18
210.226	2863.65
210.3	2900.04
210.374	2928.77
210.448	2943.17
210.522	2959.67
210.596	2981.65
210.67	3004.48
210.744	3060.71
210.818	3104.57
210.892	3136.91
210.966	3148.73
211.041	3178.16
211.115	3191.61
211.189	3234.39
211.263	3270.5
211.337	3298.55
211.411	3337.4
211.485	3354.16
211.559	3395.38
211.633	3430.82
211.707	3430.72
211.781	3468.51
211.855	3466.93
211.929	3496.37
212.003	3513.93
212.077	3562.07
212.151	3612.08
212.225	3660.13
212.299	3694.4
212.373	3730.13
212.447	3774.57
212.52	3848.15
212.594	3903.98
212.668	3971.16
212.742	4011.31
212.816	4068.06
212.89	4122.17
212.964	4183.88
213.038	4253.96
213.112	4329.6
213.186	4409.42
213.26	4459.67
213.333	4489.1
213.407	4573.48
213.481	4655.72
213.555	4749.14
213.629	4820.87
213.703	4889.79
213.777	4979.42
213.85	5048.98
213.924	5167.34
213.998	5259.69
214.072	5347.85
214.146	5430.64
214.219	5525.75
214.293	5618.59
214.367	5723.91
214.441	5835.37
214.515	5926.67
214.588	6005.92
214.662	6078.76
214.736	6164.74
214.81	6278.42
214.883	6401.33
214.957	6496.42
215.031	6587.95
215.105	6674.34
215.178	6772.65
215.252	6880.58
215.326	6961.53
215.4	7052.8
215.473	7118.4
215.547	7209.67
215.621	7307.45
215.694	7420.38
215.768	7503.49
215.842	7608.92
215.915	7699.67
215.989	7785.66
216.063	7887
216.136	8000.8
216.21	8108.1
216.284	8231.07
216.357	8347.79
216.431	8449.27
216.504	8567.02
216.578	8707.79
216.652	8834.01
216.725	8941.35
216.799	9055.7
216.873	9165.01
216.946	9289.27
217.02	9393.35
217.093	9506.51
217.167	9596.37
217.24	9689.22
217.314	9798.92
217.387	9898.28
217.461	10000.25
217.535	10126.88
217.608	10215.62
217.682	10317.55
217.755	10433.51
217.829	10522.89
217.902	10623.06
217.976	10728.43
218.049	10820.61
218.123	10902.53
218.196	11004.26
218.27	11103.14
218.343	11180.97
218.417	11289.26
218.49	11374.18
218.563	11492.01
218.637	11594.67
218.71	11708.61
218.784	11816.96
218.857	11917.07
218.931	12023.44
219.004	12114.3
219.077	12201.98
219.151	12303.06
219.224	12400.28
219.298	12485.84
219.371	12589.77
219.444	12669.3
219.518	12748.99
219.591	12834.5
219.665	12943.16
219.738	13029.25
219.811	13106.62
219.885	13209.73
219.958	13293.47
220.031	13374.02
220.105	13454.71
220.178	13534.06
220.251	13604.2
220.325	13688.51
220.398	13779.48
220.471	13848.7
220.544	13931.33
220.618	14000.99
220.691	14074.93
220.764	14148.26
220.838	14233.34
220.911	14293.55
220.984	14380.7
221.057	14469.26
221.131	14556.12
221.204	14598.35
221.277	14682.75
221.35	14786.63
221.424	14846.16
221.497	14916.25
221.57	14993.72
221.643	15066.55
221.716	15127.86
221.79	15190.67
221.863	15252.08
221.936	15308
222.009	15383.34
222.082	15455.45
222.155	15515.84
222.229	15596.87
222.302	15655.87
222.375	15712.94
222.448	15786.49
222.521	15844.09
222.594	15894.46
222.667	15929.6
222.74	15999.73
222.814	16047.25
222.887	16087.01
222.96	16143.55
223.033	16204.42
223.106	16258.07
223.179	16311.08
223.252	16365.26
223.325	16421.6
223.398	16458.67
223.471	16516.69
223.544	16560.99
223.617	16601.38
223.69	16648.46
223.763	16680.37
223.837	16732.03
223.91	16775.07
223.983	16795.22
224.056	16814.26
224.129	16859.13
224.202	16912.48
224.275	16946.75
224.348	16973.06
224.42	16995.42
224.493	17016.39
224.566	17045.26
224.639	17081.79
224.712	17101.93
224.785	17131.96
224.858	17158.37
224.931	17195.67
225.004	17213.07
225.077	17239.43
225.15	17250.22
225.223	17282.61
225.296	17334.56
225.369	17346.13
225.442	17365.93
225.514	17394.56
225.587	17441.07
225.66	17470.22
225.733	17495.53
225.806	17519.24
225.879	17551.91
225.952	17571.28
226.025	17611.67
226.097	17652.44
226.17	17673.64
226.243	17676.58
226.316	17694.8
226.389	17726.94
226.461	17745.55
226.534	17766.03
226.607	17789.16
226.68	17831.95
226.753	17848.24
226.825	17846.94
226.898	17879.37
226.971	17897.25
227.044	17926.27
227.117	17951.18
227.189	17973.2
227.262	18005.68
227.335	18030.79
227.407	18034.94
227.48	18047.61
227.553	18071.66
227.626	18076.81
227.698	18086.02
227.771	18117.01
227.844	18122.26
227.916	18131.94
227.989	18145.58
228.062	18164.81
228.134	18193.53
228.207	18205.68
228.28	18212.47
228.352	18220.42
228.425	18228.52
228.498	18253.05
228.57	18262.2
228.643	18277.77
228.716	18280.71
228.788	18283.55
228.861	18288.47
228.934	18315.07
229.006	18331.84
229.079	18337.77
229.151	18333.77
229.224	18342.34
229.296	18355.26
229.369	18397.62
229.442	18426.48
229.514	18429.18
229.587	18444.46
229.659	18430.44
229.732	18444.51
229.804	18468.31
229.877	18505.47
229.949	18526.91
230.022	18557.56
230.094	18561.95
230.167	18566.23
230.239	18570.09
230.312	18573.17
230.384	18607.49
230.457	18618.95
230.529	18643.19
230.602	18657.12
230.674	18675.29
230.747	18690.32
230.819	18709.5
230.892	18678.9
230.964	18683.19
231.037	18689.26
231.109	18700.78
231.181	18732.15
231.254	18726.76
231.326	18726.9
231.399	18720.88
231.471	18703.19
231.544	18666.95
231.616	18683.14
231.688	18694.08
231.761	18696.16
231.833	18693.5
231.905	18660.98
231.978	18666.47
232.05	18647.05
232.122	18632.74
232.195	18619.2
232.267	18629.8
232.339	18618.86
232.412	18636.11
232.484	18621.03
232.556	18613.03
232.629	18621.94
232.701	18615.29
232.773	18608.21
232.846	18595.2
232.918	18589.94
232.99	18606.47
233.062	18623.77
233.135	18622.47
233.207	18599.1
233.279	18596.06
233.351	18604.02
233.424	18603.53
233.496	18582.67
233.568	18601.51
233.64	18583.44
233.713	18581.99
233.785	18573.42
233.857	18565.32
233.929	18547.01
234.001	18553.27
234.074	18562.28
234.146	18536.98
234.218	18517.27
234.29	18511.78
234.362	18503.64
234.434	18474.29
234.507	18449.37
234.579	18419.83
234.651	18404.12
234.723	18400.65
234.795	18398.68
234.867	18384.41
234.939	18380.51
235.012	18369.14
235.084	18359.6
235.156	18363.16
235.228	18343.02
235.3	18318.06
235.372	18308.76
235.444	18304.51
235.516	18262.35
235.588	18249.91
235.66	18227.31
235.732	18202.54
235.804	18237.48
235.876	18227.46
235.948	18233.92
236.02	18210.16
236.092	18193
236.164	18163.51
236.236	18138.35
236.308	18109.58
236.38	18088.23
236.452	18059.32
236.524	18042.16
236.596	18032.09
236.668	18018.12
236.74	17999.71
236.812	17985.2
236.884	17975.03
236.956	17957.78
237.028	17942.5
237.1	17907.13
237.172	17900.63
237.244	17904.92
237.316	17844.97
237.388	17815.86
237.46	17782.7
237.532	17779.09
237.604	17747.67
237.675	17752.82
237.747	17737.26
237.819	17707.28
237.891	17687.72
237.963	17659.43
238.035	17635.09
238.107	17579.77
238.178	17569.55
238.25	17551.96
238.322	17548.78
238.394	17506.03
238.466	17480.34
238.538	17468.39
238.609	17456.1
238.681	17421.6
238.753	17383.62
238.825	17357.07
238.897	17340.25
238.968	17335.62
239.04	17299.09
239.112	17307.24
239.184	17265.36
239.255	17246.13
239.327	17238.71
239.399	17217.89
239.471	17202.66
239.542	17186.42
239.614	17180.73
239.686	17130.61
239.758	17107.96
239.829	17069.93
239.901	17064
239.973	17035.76
240.044	17015.86
240.116	16989.4
240.188	16960.77
240.259	16937.73
240.331	16904.72
240.403	16878.98
240.474	16836.52
240.546	16807.75
240.618	16764.23
240.689	16728.08
240.761	16699.5
240.833	16686.25
240.904	16655.07
240.976	16636.08
241.048	16607.21
241.119	16585.57
241.191	16567.16
241.262	16560.22
241.334	16530.58
241.405	16497.18
241.477	16471.63
241.549	16433.56
241.62	16411.82
241.692	16395.29
241.763	16380.11
241.835	16364.54
241.906	16354.23
241.978	16313.26
242.049	16306.27
242.121	16291.42
242.192	16282.89
242.264	16241.49
242.335	16194.69
242.407	16172.95
242.478	16135.6
242.55	16116.9
242.621	16084.8
242.693	16056.46
242.764	16030.48
242.836	16007.15
242.907	15987.1
242.979	15969.32
243.05	15949.31
243.122	15921.5
243.193	15889.79
243.264	15845.2
243.336	15813.73
243.407	15787.89
243.479	15778.06
243.55	15749.19
243.622	15727.55
243.693	15700.89
243.764	15689.13
243.836	15647.39
243.907	15619.19
243.978	15589.16
244.05	15569.01
244.121	15528.28
244.192	15508.86
244.264	15465.24
244.335	15436.08
244.407	15388.07
244.478	15359.34
244.549	15325.55
244.62	15291.76
244.692	15271.47
244.763	15247.89
244.834	15219.26
244.906	15180.65
244.977	15153.23
245.048	15141.37
245.119	15100.54
245.191	15071.04
245.262	15029.63
245.333	15028.53
245.405	15000.66
245.476	14988.66
245.547	14954.15
245.618	14938.14
245.689	14910.23
245.761	14890.09
245.832	14855.09
245.903	14843.91
245.974	14823.47
246.045	14808.52
246.117	14797.82
246.188	14756.22
246.259	14727.2
246.33	14697.12
246.401	14661.98
246.473	14630.12
246.544	14595.08
246.615	14588.81
246.686	14555.16
246.757	14542.39
246.828	14504.02
246.899	14495.92
246.97	14449.93
247.042	14415.22
247.113	14397.14
247.184	14389.34
247.255	14353.37
247.326	14333.13
247.397	14307.29
247.468	14277.64
247.539	14248.29
247.61	14211.7
247.681	14199.5
247.752	14183.64
247.823	14156.7
247.894	14139.15
247.965	14103.57
248.037	14075.47
248.108	14020.85
248.179	13994.05
248.25	13960.3
248.321	13938.32
248.392	13899.71
248.463	13900.53
248.534	13880.47
248.605	13857
248.675	13827.4
248.746	13812.55
248.817	13805.9
248.888	13786.95
248.959	13748.58
249.03	13731.28
249.101	13705.77
249.172	13671.4
249.243	13627.34
249.314	13619.58
249.385	13598.95
249.456	13573.88
249.527	13545.25
249.598	13538.84
249.669	13519.41
249.739	13512.61
249.81	13495.11
249.881	13463.63
249.952	13433.65
250.023	13416.39
250.094	13381.68
250.165	13350.35
250.235	13319.54
250.306	13292.21
250.377	13261.55
250.448	13250.41
250.519	13205.44
250.59	13198.06
250.66	13179.41
250.731	13178.25
250.802	13150.29
250.873	13137.9
250.944	13129.71
251.014	13102.57
251.085	13101.65
251.156	13084.58
251.227	13067.47
251.297	13062.07
251.368	13042.07
251.439	13032.57
251.51	13013.77
251.58	12982.97
251.651	12961.37
251.722	12963.01
251.792	12924.2
251.863	12891.71
251.934	12881.16
252.005	12887.57
252.075	12868.09
252.146	12854.93
252.217	12842.78
252.287	12829.53
252.358	12800.89
252.429	12795.64
252.499	12770.86
252.57	12748.4
252.641	12737.31
252.711	12720.58
252.782	12685.68
252.852	12692.33
252.923	12668.86
252.994	12656.28
253.064	12648.56
253.135	12623.02
253.205	12588.07
253.276	12582.14
253.347	12583.44
253.417	12558.32
253.488	12535.67
253.558	12512.92
253.629	12491.27
253.699	12472.62
253.77	12466.01
253.841	12441.48
253.911	12426.92
253.982	12410.87
254.052	12397.37
254.123	12383.01
254.193	12369.27
254.264	12386.04
254.334	12352.44
254.405	12326.32
254.475	12289.49
254.546	12274.36
254.616	12269.01
254.687	12250.88
254.757	12240.9
254.827	12225.33
254.898	12203.93
254.968	12187.64
255.039	12154.67
255.109	12149.32
255.18	12123.63
255.25	12078.03
255.321	12067.67
255.391	12034.31
255.461	12039.76
255.532	11996.9
255.602	11970.35
255.673	11926.87
255.743	11896.5
255.813	11855.34
255.884	11845.65
255.954	11838.37
256.024	11834.95
256.095	11813.36
256.165	11786.03
256.235	11769.98
256.306	11738.55
256.376	11741.01
256.446	11724.91
256.517	11722.11
256.587	11709.1
256.657	11693.05
256.728	11674.74
256.798	11656.66
256.868	11637.19
256.938	11599.31
257.009	11591.74
257.079	11581.52
257.149	11589.76
257.219	11557.13
257.29	11544.31
257.36	11509.32
257.43	11505.71
257.5	11466.77
257.571	11441.7
257.641	11438.91
257.711	11409.85
257.781	11409.12
257.852	11386.18
257.922	11350.56
257.992	11330.95
258.062	11311.28
258.132	11301.69
258.202	11284.49
258.273	11269.69
258.343	11270.46
258.413	11263.19
258.483	11243.24
258.553	11215.86
258.623	11191.09
258.693	11173.55
258.764	11178.75
258.834	11181.5
258.904	11160.53
258.974	11138.56
259.044	11124.73
259.114	11105.55
259.184	11097.5
259.254	11072.25
259.324	11038.42
259.394	11030.47
259.464	11028.59
259.535	11008.2
259.605	10984.78
259.675	10961.89
259.745	10956.45
259.815	10923.25
259.885	10894.19
259.955	10912.55
260.025	10884.03
260.095	10863.11
260.165	10847.79
260.235	10843.35
260.305	10818.06
260.375	10790.83
260.445	10793.53
260.515	10792.52
260.585	10791.79
260.655	10766.01
260.725	10762.3
260.795	10758.01
260.865	10766.93
260.934	10738.6
261.004	10729.54
261.074	10718.69
261.144	10717.06
261.214	10704.53
261.284	10692.67
261.354	10692.24
261.424	10656.39
261.494	10669.54
261.564	10659.42
261.634	10656.58
261.703	10623.14
261.773	10611.04
261.843	10600.64
261.913	10581.61
261.983	10545.23
262.053	10531.69
262.123	10519.74
262.192	10493.1
262.262	10482.64
262.332	10443.37
262.402	10437.4
262.472	10418.51
262.541	10382.19
262.611	10389.17
262.681	10365.03
262.751	10351.06
262.821	10334.87
262.89	10309.34
262.96	10296.52
263.03	10295.99
263.1	10285.44
263.169	10276.09
263.239	10271.66
263.309	10276.38
263.379	10271.28
263.448	10259.04
263.518	10249.79
263.588	10241.89
263.657	10243.53
263.727	10238.18
263.797	10232.5
263.867	10213.42
263.936	10190.44
264.006	10195.74
264.076	10178.15
264.145	10164.43
264.215	10154.55
264.285	10143.57
264.354	10119.05
264.424	10100.6
264.494	10074.1
264.563	10053.82
264.633	10056.08
264.702	10043.03
264.772	10013.31
264.842	9995.53
264.911	9998.04
264.981	9968.31
265.05	9950.06
265.12	9930.98
265.19	9921.2
265.259	9911.66
265.329	9904.34
265.398	9894.61
265.468	9898.8
265.537	9871.98
265.607	9865.95
265.676	9857.14
265.746	9847.8
265.815	9841.54
265.885	9825.59
265.955	9797.23
266.024	9778.01
266.094	9744.53
266.163	9748.72
266.232	9749.01
266.302	9729.17
266.371	9718.77
266.441	9705.57
266.51	9703.5
266.58	9690.06
266.649	9665.79
266.719	9665.02
266.788	9663.38
266.858	9669.69
266.927	9638.04
266.996	9636.41
267.066	9626.1
267.135	9602.17
267.205	9597.4
267.274	9592.25
267.343	9593.5
267.413	9587.58
267.482	9592.01
267.552	9592.63
267.621	9565.32
267.69	9534.6
267.76	9531.66
267.829	9516.15
267.898	9511.63
267.968	9490.15
268.037	9481.29
268.106	9484.13
268.176	9459.62
268.245	9441.65
268.314	9425.04
268.384	9424.8
268.453	9408.43
268.522	9395.04
268.592	9403.03
268.661	9382.18
268.73	9377.41
268.799	9350.79
268.869	9363.69
268.938	9331.86
269.007	9316.65
269.076	9302.44
269.146	9308.07
269.215	9295.12
269.284	9301.82
269.353	9288.19
269.422	9276.06
269.492	9257.95
269.561	9216.21
269.63	9207.59
269.699	9191.12
269.768	9178.61
269.838	9170.28
269.907	9172.54
269.976	9154
270.045	9117.9
270.114	9115.44
270.183	9096.9
270.253	9095.41
270.322	9061.33
270.391	9051.65
270.46	9052.13
270.529	9056.66
270.598	9050.35
270.667	9038.17
270.736	9012.07
270.806	9000.04
270.875	9005.43
270.944	8994.79
271.013	9012.31
271.082	9008.75
271.151	9000.04
271.22	8970.29
271.289	8961.63
271.358	8946.46
271.427	8944.15
271.496	8937.17
271.565	8925.67
271.634	8921.62
271.703	8940.11
271.772	8945.17
271.841	8933.47
271.91	8913.4
271.979	8900.64
272.048	8872.24
272.117	8873.87
272.186	8870.36
272.255	8876.28
272.324	8871.8
272.393	8866.36
272.462	8851.44
272.531	8846.39
272.6	8836.66
272.669	8849.56
272.738	8835.22
272.807	8826.94
272.876	8808.89
272.945	8838.15
273.013	8841.14
273.082	8838.83
273.151	8798.05
273.22	8793.19
273.289	8792.9
273.358	8803.11
273.427	8785.92
273.496	8789.44
273.564	8786.21
273.633	8781.45
273.702	8753.87
273.771	8738.37
273.84	8738.47
273.909	8734.37
273.977	8727.15
274.046	8721.23
274.115	8723.54
274.184	8711.85
274.253	8707.09
274.322	8708.96
274.39	8678.35
274.459	8659.82
274.528	8632.68
274.597	8627.48
274.665	8624.06
274.734	8634.27
274.803	8623.48
274.872	8622.52
274.94	8609.72
275.009	8641.78
275.078	8626.72
275.147	8633.41
275.215	8629.61
275.284	8633.41
275.353	8627.39
275.421	8600.69
275.49	8620.13
275.559	8607.23
275.627	8597.71
275.696	8591.5
275.765	8592.22
275.833	8580.38
275.902	8582.84
275.971	8598.81
276.039	8611.57
276.108	8611.33
276.177	8601.84
276.245	8586.11
276.314	8577.16
276.383	8580.43
276.451	8542.11
276.52	8549.33
276.588	8557.22
276.657	8560.25
276.725	8550.91
276.794	8549.81
276.863	8568.04
276.931	8542.05
277	8550.62
277.068	8562.75
277.137	8574.25
277.205	8572.71
277.274	8591.19
277.342	8598.65
277.411	8580.17
277.48	8571.51
277.548	8565.59
277.617	8563.95
277.685	8563.13
277.754	8570.69
277.822	8566.31
277.89	8573.34
277.959	8560.49
278.027	8543.74
278.096	8539.7
278.164	8565.69
278.233	8558.42
278.301	8543.55
278.37	8544.42
278.438	8529.5
278.507	8532
278.575	8505.83
278.643	8503.71
278.712	8486.19
278.78	8473.01
278.849	8480.32
278.917	8489.08
278.985	8484.03
279.054	8486.14
279.122	8493.94
279.191	8490.67
279.259	8484.56
279.327	8465.79
279.396	8486.43
279.464	8479.36
279.532	8482.82
279.601	8476.52
279.669	8474.11
279.737	8485.85
279.806	8495.38
279.874	8506.5
279.942	8501.3
280.011	8503.61
280.079	8507.84
280.147	8524.54
280.215	8530.65
280.284	8527.57
280.352	8507.7
280.42	8515.3
280.488	8509
280.557	8506.93
280.625	8505.39
280.693	8509.77
280.761	8513.18
280.83	8490.23
280.898	8505.87
280.966	8489.8
281.034	8455.44
281.102	8441.39
281.171	8437.3
281.239	8440.62
281.307	8431.04
281.375	8419.78
281.443	8443.17
281.512	8438.02
281.58	8441.63
281.648	8422.77
281.716	8423.01
281.784	8427.19
281.852	8415.69
281.92	8412.33
281.989	8418
282.057	8409.54
282.125	8428.26
282.193	8429.84
282.261	8435.09
282.329	8428.4
282.397	8430.66
282.465	8440.81
282.533	8454.57
282.601	8441.73
282.67	8420.02
282.738	8409.48
282.806	8419.2
282.874	8404.24
282.942	8409.15
283.01	8402.7
283.078	8415.06
283.146	8409.72
283.214	8416.46
283.282	8424.21
283.35	8439.61
283.418	8430.13
283.486	8435.13
283.554	8417.13
283.622	8412.22
283.69	8411.02
283.758	8406.59
283.826	8409.58
283.894	8415.06
283.962	8434.7
284.03	8450.67
284.098	8446.1
284.165	8440.81
284.233	8441.34
284.301	8438.69
284.369	8426.13
284.437	8415.07
284.505	8404.29
284.573	8425.99
284.641	8413.57
284.709	8415.26
284.777	8393.8
284.845	8403.28
284.912	8402.7
284.98	8401.5
285.048	8394.81
285.116	8399.57
285.184	8409.58
285.252	8411.7
285.319	8394.38
285.387	8383.35
285.455	8372.86
285.523	8383.93
285.591	8389.9
285.659	8392.49
285.726	8399.57
285.794	8391.05
285.862	8393.22
285.93	8391.68
285.997	8380.27
286.065	8381.38
286.133	8368.68
286.201	8369.11
286.269	8354.87
286.336	8352.17
286.404	8350.2
286.472	8358.62
286.539	8339.57
286.607	8319.98
286.675	8317.29
286.743	8324.55
286.81	8319.12
286.878	8325.76
286.946	8317.72
287.013	8312.43
287.081	8306.27
287.149	8298.19
287.216	8320.17
287.284	8311.8
287.352	8313.73
287.419	8310.17
287.487	8318.88
287.555	8329.41
287.622	8323.54
287.69	8328.98
287.758	8332.83
287.825	8327.01
287.893	8317.96
287.96	8319.84
288.028	8333.22
288.096	8333.79
288.163	8335.53
288.231	8323.88
288.298	8318.64
288.366	8333.89
288.433	8328.84
288.501	8326.19
288.569	8327.83
288.636	8313.87
288.704	8329.51
288.771	8333.31
288.839	8322.87
288.906	8312.67
288.974	8317.58
289.041	8321.53
289.109	8314.93
289.176	8324.17
289.244	8327.3
289.311	8339.91
289.379	8351.74
289.446	8356.41
289.514	8361.75
289.581	8361.22
289.649	8365.65
289.716	8371.13
289.783	8361.37
289.851	8385.57
289.918	8380.13
289.986	8386.19
290.053	8395.48
290.121	8391.05
290.188	8391.34
290.255	8426.32
290.323	8420.7
290.39	8415.21
290.458	8415.16
290.525	8424.16
290.592	8416.84
290.66	8413
290.727	8406.64
290.794	8415.79
290.862	8408.91
290.929	8405.73
290.996	8411.94
291.064	8420.45
291.131	8432.34
291.198	8446.01
291.266	8440.28
291.333	8442.64
291.4	8443.46
291.468	8455.63
291.535	8447.16
291.602	8454
291.669	8441.15
291.737	8450.82
291.804	8448.75
291.871	8468.28
291.938	8474.83
292.006	8504.86
292.073	8521.66
292.14	8528.3
292.207	8525.84
292.275	8529.02
292.342	8538.55
292.409	8558.86
292.476	8578.64
292.543	8566.85
292.611	8564.87
292.678	8580.51
292.745	8607.85
292.812	8616.51
292.879	8612.32
292.946	8622.43
293.014	8632.49
293.081	8643.7
293.148	8656.26
293.215	8673.3
293.282	8667.47
293.349	8676.72
293.416	8651.88
293.484	8662.95
293.551	8674.21
293.618	8696.3
293.685	8718.54
293.752	8711.22
293.819	8707.95
293.886	8699.14
293.953	8712.86
294.02	8724.89
294.087	8732.49
294.154	8719.79
294.221	8735.48
294.288	8735.77
294.356	8751.46
294.423	8760.08
294.49	8749.29
294.557	8759.21
294.624	8747.51
294.691	8765.8
294.758	8768.21
294.825	8777.55
294.892	8773.65
294.959	8768.59
295.026	8760.32
295.093	8757.67
295.16	8762.77
295.226	8769.7
295.293	8789
295.36	8783.08
295.427	8795.84
295.494	8804.07
295.561	8819.91
295.628	8841.43
295.695	8855.15
295.762	8857.03
295.829	8862.42
295.896	8879.07
295.963	8886.44
296.03	8899.48
296.096	8899.14
296.163	8908.19
296.23	8924.61
296.297	8939
296.364	8945.45
296.431	8957.68
296.498	8956.28
296.564	8983.24
296.631	8975.82
296.698	8965.91
296.765	8987.76
296.832	8973.13
296.899	8957.77
296.965	8970
297.032	8946.79
297.099	8965.66
297.166	8975.77
297.233	8972.31
297.299	8965.86
297.366	8967.2
297.433	8966.14
297.5	8978.9
297.566	8981.07
297.633	8978.08
297.7	8977.8
297.767	8975.97
297.833	8976.35
297.9	8978.71
297.967	8956.66
298.033	8971.1
298.1	8996.57
298.167	8985.02
298.234	8985.79
298.3	8994.12
298.367	8990.27
298.434	8999.46
298.5	8984.3
298.567	8979.29
298.634	8977.36
298.7	8994.5
298.767	8996.04
298.834	9014.43
298.9	9006.3
298.967	8993.06
299.033	9000.86
299.1	9013.42
299.167	9029.12
299.233	9024.45
299.3	9038.6
299.366	9052.46
299.433	9065.46
299.5	9036.24
299.566	9046.3
299.633	9062.52
299.699	9073.74
299.766	9069.65
299.832	9072.59
299.899	9084.91
299.965	9093.63
300.032	9086.41
300.099	9087.27
300.165	9090.11
300.232	9085.92
300.298	9089.68
300.365	9105.9
300.431	9108.94
300.498	9103.64
300.564	9101.14
300.631	9115.43
300.697	9126.03
300.763	9129.59
300.83	9133.73
300.896	9147.89
300.963	9153.52
301.029	9159.49
301.096	9161.85
301.162	9167.53
301.229	9162.09
301.295	9150.82
301.361	9149.52
301.428	9156.79
301.494	9138.59
301.561	9141.39
301.627	9137.15
301.693	9134.12
301.76	9137.15
301.826	9125.21
301.892	9135.27
301.959	9146.01
302.025	9136.57
302.092	9122.27
302.158	9127.76
302.224	9125.16
302.291	9113.51
302.357	9108.31
302.423	9102.44
302.49	9091.8
302.556	9105.08
302.622	9093.96
302.688	9097.48
302.755	9107.78
302.821	9116.78
302.887	9129.59
302.954	9131.08
303.02	9136.52
303.086	9140.95
303.152	9130.98
303.219	9127.81
303.285	9132.24
303.351	9134.26
303.417	9135.27
303.483	9131.8
303.55	9123.43
303.616	9115.77
303.682	9115.72
303.748	9108.6
303.815	9117.55
303.881	9130.51
303.947	9112.93
304.013	9122.42
304.079	9116.88
304.145	9100.61
304.212	9099.69
304.278	9089.87
304.344	9081.64
304.41	9070.04
304.476	9063.15
304.542	9051.74
304.608	9056.27
304.674	9035.18
304.741	9028.34
304.807	9028.1
304.873	9034.31
304.939	9042.74
305.005	9028.29
305.071	9028.78
305.137	9029.83
305.203	9007.06
305.269	9000.27
305.335	9011.49
305.401	9003.16
305.467	8999.41
305.533	9000.61
305.599	9000.23
305.666	9006.92
305.732	9004.03
305.798	9008.75
305.864	9028.82
305.93	9036.24
305.996	9033.92
306.062	9032.63
306.128	9031.33
306.194	9022.13
306.259	9015.01
306.325	9007.98
306.391	9014.72
306.457	9024.78
306.523	9025.35
306.589	9047.36
306.655	9038.4
306.721	9017.41
306.787	9005.62
306.853	9015.39
306.919	8995.61
306.985	8987.23
307.051	8985.89
307.117	8977.65
307.183	8983.53
307.248	8958.83
307.314	8966.63
307.38	8969.42
307.446	8973.66
307.512	8965.33
307.578	8964.9
307.644	8954.64
307.709	8950.98
307.775	8940.44
307.841	8931.34
307.907	8932.83
307.973	8906.98
308.039	8902.5
308.104	8910.59
308.17	8913.82
308.236	8900.87
308.302	8909
308.368	8894.9
308.433	8894.32
308.499	8890.9
308.565	8875.98
308.631	8874.54
308.696	8852.2
308.762	8835.06
308.828	8832.7
308.894	8810.28
308.959	8792.03
309.025	8790.3
309.091	8784
309.156	8773.74
309.222	8771.77
309.288	8754.78
309.354	8732.5
309.419	8734.86
309.485	8718.25
309.551	8720.9
309.616	8704.15
309.682	8695.39
309.748	8693.7
309.813	8678.83
309.879	8664.39
309.945	8648.75
310.01	8641.1
310.076	8642.59
310.141	8637.68
310.207	8622.52
310.273	8621.61
310.338	8625.17
310.404	8602.36
310.469	8591.38
310.535	8581.37
310.601	8554.18
310.666	8557.07
310.732	8569.63
310.797	8555.67
310.863	8545.81
310.928	8536.76
310.994	8542.97
311.059	8540.99
311.125	8536.28
311.191	8546.82
311.256	8537.82
311.322	8535.61
311.387	8514.96
311.453	8849.16
311.518	8826.11
311.584	8818.32
311.649	8825.63
311.715	8812.26
311.78	8815
311.846	8803.16
311.911	8808.6
311.976	8818.37
312.042	8803.06
312.107	8786.99
312.173	8771.59
312.238	8766.06
312.304	8758.26
312.369	8747.1
312.434	8736.32
312.5	8730.35
312.565	8696.57
312.631	8697.92
312.696	8691.28
312.761	8696.67
312.827	8349.57
312.892	8378.3
312.958	8375.75
313.023	8366.51
313.088	8361.94
313.154	8349.19
313.219	8341.35
313.284	8330.91
313.35	8326.43
313.415	8316.86
313.48	8310.89
313.546	8315.27
313.611	8317
313.676	8309.16
313.741	8296.84
313.807	8305.89
313.872	8308.58
313.937	8314.84
314.003	8327.64
314.068	8328.94
314.133	8337.41
314.198	8325.47
314.264	8309.93
314.329	8298.67
314.394	8290.97
314.459	8292.08
314.525	8306.46
314.59	8302.9
314.655	8287.94
314.72	8282.22
314.785	8284
314.851	8275
314.916	8260.76
314.981	8255.42
315.046	8246.42
315.111	8241.37
315.176	8227.76
315.242	8228.81
315.307	8222.94
315.372	8201.77
315.437	8193.6
315.502	8174.11
315.567	8185.8
315.632	8168.72
315.698	8168.48
315.763	8164.97
315.828	8153.57
315.893	8144.57
315.958	8137.98
316.023	8133.51
316.088	8117.44
316.153	8096.9
316.218	8091.47
316.283	8073
316.348	8050.88
316.413	8046.74
316.479	8030.34
316.544	8000.52
316.609	7967.86
316.674	7933.67
316.739	7905.01
316.804	7873.17
316.869	7840.23
316.934	7803.05
316.999	7776.7
317.064	7730.15
317.129	7695.91
317.194	7663.36
317.259	7623.78
317.324	7579.99
317.389	7537.44
317.454	7508.12
317.518	7478.36
317.583	7455.42
317.648	7435.04
317.713	7402.64
317.778	7347.27
317.843	7322.8
317.908	7283.2
317.973	7251.09
318.038	7226.68
318.103	7189.83
318.168	7160.42
318.233	7136.34
318.297	7086.85
318.362	7052.78
318.427	7019.3
318.492	6991.91
318.557	6946.13
318.622	6919.7
318.687	6896.99
318.751	6861.93
318.816	6828.68
318.881	6794.77
318.946	6741.74
319.011	6695.35
319.075	6658.71
319.14	6627.78
319.205	6581.1
319.27	6553.02
319.335	6507.88
319.399	6468.7
319.464	6444.22
319.529	6399.29
319.594	6362.13
319.658	6339.28
319.723	6299.1
319.788	6269.06
319.853	6219.18
319.917	6193.8
319.982	6142.06
320.047	6111.06
320.112	6090.52
320.176	6042.87
320.241	6012.74
320.306	5984.68
320.37	5951.29
320.435	5923.94
320.5	5900.1
320.564	5865.57
320.629	5825.67
320.694	5798.33
320.758	5761.26
320.823	5725.24
320.888	5706.68
320.952	5659.65
321.017	5622.1
321.082	5586.72
321.146	5553.12
321.211	5521.72
321.275	5486.92
321.34	5451.12
321.405	5406.69
321.469	5360.92
321.534	5322.69
321.598	5272.52
321.663	5243.14
321.727	5213.44
321.792	5162.22
321.857	5120.44
321.921	5084.47
321.986	5050.71
322.05	4995.83
322.115	4961.35
322.179	4913.03
322.244	4851.55
322.308	4821.3
322.373	4777.68
322.437	4737.71
322.502	4713.58
322.566	4670.97
322.631	4636.27
322.695	4597.8
322.76	4556.37
322.824	4527.22
322.889	4485.32
322.953	4445.86
323.018	4389.99
323.082	4329.82
323.146	4285.98
323.211	4236.86
323.275	4195.74
323.34	4148.65
323.404	4120.11
323.468	4079.71
323.533	4041.09
323.597	4000.06
323.662	3954.03
323.726	3916.99
323.79	3876
323.855	3813.48
323.919	3768.62
323.983	3723.37
324.048	3663.51
324.112	3816.79
324.177	3693.41
324.241	3505.76
324.305	3319.41
324.37	3134.73
324.434	2958.55
324.498	2920.72
324.562	2874.72
324.627	2820.5
324.691	2772.94
324.755	2710.84
324.82	2641.8
324.884	2572.86
324.948	2510.74
325.012	2425.15
325.077	2318.07
