Data from 20250625_urea_1M_1_MAYP1162681_11-55-05-844.txt Node
Date: Thu Jun 26 11:55:05 BST 2025
User: adleo
Spectrometer: MAYP116268
Trigger mode: 0
Integration Time (sec): 1.000000E0
Scans to average: 1
Electric dark correction enabled: true
Nonlinearity correction enabled: true
Boxcar width: 10
XAxis mode: Wavelengths
Number of Pixels in Spectrum: 2068
>>>>>Begin Spectral Data<<<<<
179.565	1129.1
179.642	1181.79
179.718	1220.93
179.795	1260.89
179.871	1290.53
179.948	1311.23
180.024	1330.79
180.101	1351.39
180.177	1365.4
180.254	1387.3
180.33	1408.11
180.407	1457.95
180.483	1547.98
180.56	1631.17
180.636	1712.64
180.712	1702.37
180.789	1712.35
180.865	1726.84
180.942	1736.1
181.018	1747.93
181.095	1765.85
181.171	1769.7
181.248	1771.22
181.324	1787.24
181.4	1791.61
181.477	1801.45
181.553	1809.81
181.63	1829.87
181.706	1842.14
181.782	1850.07
181.859	1849.69
181.935	1855.87
182.011	1850.45
182.088	1866.76
182.164	1886.78
182.24	1896.19
182.317	1903.36
182.393	1899.99
182.469	1911.16
182.546	1924.57
182.622	1926.66
182.698	1921.43
182.775	1934.22
182.851	1947.24
182.927	1939.3
183.003	1935.83
183.08	1930.27
183.156	1940.87
183.232	1934.22
183.308	1928.65
183.385	1937.78
183.461	1953.14
183.537	1950.48
183.613	1965.26
183.69	1956.28
183.766	1947.91
183.842	1957.56
183.918	1964.6
183.995	1978.57
184.071	1981.47
184.147	1975.24
184.223	1964.65
184.299	1974.54
184.375	1966.6
184.452	1972.26
184.528	2024.1
184.604	2033.42
184.68	2044.3
184.756	2051.39
184.832	2061.33
184.908	2066.56
184.985	2065.04
185.061	2051.34
185.137	2062.47
185.213	2049.59
185.289	2049.21
185.365	2040.51
185.441	2035.8
185.517	2050.93
185.593	2045.13
185.669	2041.75
185.745	2052.35
185.822	2069.75
185.898	2063.33
185.974	2068.04
186.05	2059.52
186.126	2023.85
186.202	2017.01
186.278	2015.63
186.354	2007.64
186.43	2012.49
186.506	2007.83
186.582	2007.64
186.658	2012.44
186.734	1993.85
186.81	1996.8
186.886	2001.89
186.962	2014.77
187.038	2013.01
187.114	2002.64
187.19	2010.58
187.266	2001.5
187.341	2000.79
187.417	1993.42
187.493	1989.99
187.569	1996.08
187.645	1993.89
187.721	1984.33
187.797	1990.94
187.873	1996.46
187.949	1988.61
188.025	1980.72
188.101	1985.09
188.176	1988.99
188.252	1985.04
188.328	1992.27
188.404	1992.7
188.48	1987.56
188.556	1979.14
188.632	1978.48
188.707	1976.2
188.783	1974.63
188.859	1971.39
188.935	1960.69
189.011	1968.82
189.086	1964.12
189.162	1955.04
189.238	1951.52
189.314	1947
189.39	1942.72
189.465	1934.92
189.541	1952.57
189.617	1941.25
189.693	1935.31
189.768	1938.97
189.844	1960.94
189.92	1952.06
189.996	1958.67
190.071	1967.37
190.147	1967.56
190.223	1977.78
190.298	1972.31
190.374	1960.57
190.45	1971.31
190.526	1981.44
190.601	1975.21
190.677	1976.45
190.753	2004.76
190.828	2007.37
190.904	2020.83
190.98	2036.86
191.055	2045.37
191.131	2036.52
191.207	2054.02
191.282	2062.68
191.358	2050.55
191.433	2039.61
191.509	2053.3
191.585	2048.59
191.66	2053.01
191.736	2060.91
191.811	2053.06
191.887	2066.95
191.963	2089.78
192.038	2096.11
192.114	2096.77
192.189	2100.34
192.265	2098.11
192.34	2074.41
192.416	2073.08
192.491	2071.03
192.567	2069.65
192.642	2073.36
192.718	2075.26
192.793	2065.18
192.869	2060.66
192.944	2063.14
193.02	2070.7
193.095	2074.69
193.171	2085.3
193.246	2084.44
193.322	2080.4
193.397	2078.69
193.473	2068.27
193.548	2051.29
193.624	2055.09
193.699	2050.81
193.775	2065.32
193.85	2068.41
193.925	2078.69
194.001	2080.16
194.076	2069.65
194.152	2063.09
194.227	2054.14
194.302	2042.45
194.378	2045.16
194.453	2043.21
194.529	2057.95
194.604	2043.3
194.679	2038.26
194.755	2018.81
194.83	2029.95
194.905	2027.43
194.981	2036.7
195.056	2028.57
195.131	2031.24
195.207	2028.38
195.282	2019.97
195.357	2001.32
195.433	2013.97
195.508	1998.99
195.583	2005.02
195.659	2025.05
195.734	2031.71
195.809	2032.28
195.884	2041.22
195.96	2038.84
196.035	2054.77
196.11	2050.3
196.185	2062.48
196.261	2063.29
196.336	2090.16
196.411	2073.88
196.486	2077.26
196.561	2071.55
196.637	2083.2
196.712	2097.52
196.787	2099.24
196.862	2113.93
196.937	2121.45
197.013	2127.92
197.088	2139.04
197.163	2159.51
197.238	2170.65
197.313	2169.41
197.388	2183.26
197.464	2213.57
197.539	2227.13
197.614	2219.09
197.689	2230.75
197.764	2242.65
197.839	2263.87
197.914	2258.92
197.989	2281.48
198.065	2299.13
198.14	2347.66
198.215	2370.88
198.29	2383.88
198.365	2401.69
198.44	2414.2
198.515	2443.67
198.59	2457.62
198.665	2483.47
198.74	2491.19
198.815	2492.52
198.89	2516.28
198.965	2544.76
199.04	2540.47
199.115	2555.14
199.19	2598.47
199.265	2603.23
199.34	2614.99
199.415	2645.91
199.49	2669.01
199.565	2678.06
199.64	2699.54
199.715	2696.01
199.79	2701.92
199.865	2707.97
199.94	2704.25
200.015	2732.89
200.09	2739.13
200.165	2747.38
200.24	2755
200.315	2793.01
200.39	2809.4
200.464	2812.64
200.539	2811.68
200.614	2828.07
200.689	2851.38
200.764	2853.76
200.839	2868.62
200.914	2871.29
200.989	2863.09
201.063	2876.29
201.138	2859.63
201.213	2859.63
201.288	2839.9
201.363	2843.9
201.438	2843.66
201.512	2860.96
201.587	2844.56
201.662	2850.28
201.737	2861.96
201.812	2871.35
201.886	2838.3
201.961	2848.07
202.036	2836.55
202.111	2837.12
202.186	2805.59
202.26	2788.67
202.335	2772.65
202.41	2767.22
202.485	2752.51
202.559	2734.4
202.634	2710.01
202.709	2717.48
202.784	2700.76
202.858	2701.66
202.933	2683.37
203.008	2679.47
203.082	2657.79
203.157	2654.89
203.232	2608.7
203.306	2588.5
203.381	2554.2
203.456	2532.29
203.53	2506.88
203.605	2486.14
203.68	2462.6
203.754	2457.04
203.829	2442.51
203.904	2422.23
203.978	2411.99
204.053	2417.13
204.127	2404.23
204.202	2400.18
204.277	2384.1
204.351	2377.15
204.426	2370.86
204.5	2363.58
204.575	2326.84
204.65	2337.27
204.724	2329.51
204.799	2342.21
204.873	2336.49
204.948	2335.78
205.022	2326.36
205.097	2318.69
205.171	2335.15
205.246	2341.58
205.32	2342.25
205.395	2340.49
205.469	2333.87
205.544	2337.3
205.618	2320.69
205.693	2329.97
205.767	2319.98
205.842	2340.49
205.916	2335.02
205.991	2326.64
206.065	2333.21
206.14	2351.62
206.214	2347.24
206.289	2342.81
206.363	2350.76
206.438	2352.33
206.512	2359.9
206.586	2376.79
206.661	2387.32
206.735	2367.81
206.81	2371
206.884	2386.09
206.958	2374.38
207.033	2389.23
207.107	2396.56
207.181	2429.76
207.256	2424.38
207.33	2441.46
207.405	2455.04
207.479	2470.23
207.553	2479.42
207.628	2462.67
207.702	2473.19
207.776	2466.62
207.851	2468.38
207.925	2486.34
207.999	2482.57
208.073	2481.38
208.148	2484.62
208.222	2472.86
208.296	2504.8
208.371	2520.09
208.445	2529.09
208.519	2559.42
208.593	2568.61
208.668	2565.99
208.742	2566.56
208.816	2571.66
208.89	2584.28
208.965	2584.09
209.039	2594.14
209.113	2606.91
209.187	2629.8
209.261	2627.47
209.336	2650.09
209.41	2670.96
209.484	2670.15
209.558	2694.87
209.632	2709.11
209.707	2723.12
209.781	2747.65
209.855	2765.38
209.929	2782.6
210.003	2794.42
210.077	2794.99
210.151	2851.71
210.226	2889.95
210.3	2919.62
210.374	2945.58
210.448	2960.22
210.522	2975
210.596	2995.22
210.67	3014.29
210.744	3071.52
210.818	3113.37
210.892	3142.8
210.966	3148.95
211.041	3176.08
211.115	3186.24
211.189	3226.4
211.263	3257.12
211.337	3280.49
211.411	3310.61
211.485	3326.69
211.559	3358.18
211.633	3381.73
211.707	3368.5
211.781	3398.21
211.855	3392.68
211.929	3412.71
212.003	3422.82
212.077	3463.03
212.151	3504.57
212.225	3544.39
212.299	3563.46
212.373	3587.09
212.447	3623.35
212.52	3693.28
212.594	3739.48
212.668	3794.21
212.742	3826.09
212.816	3869.71
212.89	3906.4
212.964	3951.87
213.038	4006.71
213.112	4070.26
213.186	4140.99
213.26	4178.26
213.333	4189.07
213.407	4250.82
213.481	4316.36
213.555	4387.73
213.629	4440.12
213.703	4493.58
213.777	4562.84
213.85	4612.23
213.924	4718.38
213.998	4784.8
214.072	4849.18
214.146	4911.34
214.219	4984.43
214.293	5060.78
214.367	5138.1
214.441	5232.1
214.515	5307.54
214.588	5363.08
214.662	5407.5
214.736	5468.71
214.81	5563.48
214.883	5667.9
214.957	5748.49
215.031	5824.91
215.105	5894.95
215.178	5969.87
215.252	6047.93
215.326	6113.14
215.4	6185.91
215.473	6226.67
215.547	6301.22
215.621	6379.88
215.694	6471.88
215.768	6541.65
215.842	6614.69
215.915	6694.95
215.989	6764.94
216.063	6848.36
216.136	6941.65
216.21	7048.1
216.284	7150.49
216.357	7244.35
216.431	7327.79
216.504	7425.66
216.578	7539.4
216.652	7637.02
216.725	7729.77
216.799	7829.41
216.873	7920.68
216.946	8024.64
217.02	8120.2
217.093	8216.22
217.167	8290.65
217.24	8364.22
217.314	8455.14
217.387	8541.55
217.461	8620.23
217.535	8716.34
217.608	8794.84
217.682	8885.77
217.755	8974.29
217.829	9050.36
217.902	9140.68
217.976	9233.12
218.049	9310.01
218.123	9378.97
218.196	9480.09
218.27	9562.58
218.343	9632.75
218.417	9734.28
218.49	9812.35
218.563	9905.26
218.637	9991.01
218.71	10096.75
218.784	10198.68
218.857	10296.62
218.931	10387.62
219.004	10482.96
219.077	10578.12
219.151	10668.85
219.224	10757.12
219.298	10849.45
219.371	10949.77
219.444	11017.14
219.518	11096.65
219.591	11176.26
219.665	11298.29
219.738	11382.1
219.811	11453.85
219.885	11551.4
219.958	11632.23
220.031	11715.41
220.105	11788.82
220.178	11859.23
220.251	11921.89
220.325	12004.51
220.398	12080.48
220.471	12157.36
220.544	12240.46
220.618	12306.74
220.691	12386.08
220.764	12453.27
220.838	12524.91
220.911	12589.26
220.984	12675.4
221.057	12750.45
221.131	12832.59
221.204	12859.69
221.277	12941.49
221.35	13050.29
221.424	13113.97
221.497	13181.17
221.57	13253.72
221.643	13331.38
221.716	13412.94
221.79	13486.6
221.863	13544.64
221.936	13604.95
222.009	13666.7
222.082	13728.6
222.155	13790.59
222.229	13866.57
222.302	13938.44
222.375	14001.59
222.448	14068.65
222.521	14131.02
222.594	14197.11
222.667	14246.67
222.74	14315.41
222.814	14368.44
222.887	14413.36
222.96	14481.33
223.033	14538.7
223.106	14594.28
223.179	14659.69
223.252	14711.8
223.325	14763.38
223.398	14815.2
223.471	14874.39
223.544	14937.88
223.617	14988.73
223.69	15043.68
223.763	15075.3
223.837	15121.68
223.91	15165.44
223.983	15194.32
224.056	15236.49
224.129	15277.03
224.202	15334.39
224.275	15382.6
224.348	15409.49
224.42	15438.94
224.493	15462.37
224.566	15499.73
224.639	15543.35
224.712	15570
224.785	15603.16
224.858	15641.34
224.931	15682.31
225.004	15713.01
225.077	15749.6
225.15	15759.29
225.223	15787.92
225.296	15846.19
225.369	15861.85
225.442	15894.87
225.514	15932.95
225.587	15973.63
225.66	16012.33
225.733	16046.12
225.806	16071.76
225.879	16107.28
225.952	16137.12
226.025	16184.21
226.097	16230.91
226.17	16260.07
226.243	16280.89
226.316	16316.36
226.389	16356.03
226.461	16390.2
226.534	16418.3
226.607	16441.34
226.68	16492.62
226.753	16521.83
226.825	16526.84
226.898	16572.82
226.971	16597.55
227.044	16634.9
227.117	16653.79
227.189	16689.12
227.262	16721.65
227.335	16754.13
227.407	16774.76
227.48	16806.33
227.553	16828.55
227.626	16847.97
227.698	16868.79
227.771	16894.96
227.844	16905.42
227.916	16919.44
227.989	16926.19
228.062	16952.02
228.134	16994.48
228.207	17021.18
228.28	17038.29
228.352	17054.63
228.425	17083.55
228.498	17115.26
228.57	17135.31
228.643	17174.39
228.716	17184.85
228.788	17199.11
228.861	17219.21
228.934	17252.03
229.006	17265.77
229.079	17276.75
229.151	17285.14
229.224	17287.98
229.296	17309.57
229.369	17357.86
229.442	17385.43
229.514	17395.45
229.587	17418.78
229.659	17412.95
229.732	17433.62
229.804	17459.26
229.877	17500.42
229.949	17518.73
230.022	17554.73
230.094	17560.8
230.167	17569.86
230.239	17569.62
230.312	17580.22
230.384	17613.48
230.457	17627.69
230.529	17638.58
230.602	17668.61
230.674	17690.78
230.747	17731.5
230.819	17754.58
230.892	17731.5
230.964	17741.91
231.037	17763.45
231.109	17774.82
231.181	17787.74
231.254	17783.3
231.326	17787.98
231.399	17785.62
231.471	17788.65
231.544	17765.04
231.616	17788.41
231.688	17796.65
231.761	17804.08
231.833	17813.76
231.905	17786.58
231.978	17792.61
232.05	17801.28
232.122	17797.67
232.195	17792.8
232.267	17808.65
232.339	17803.5
232.412	17828.85
232.484	17835.35
232.556	17831.45
232.629	17856.65
232.701	17866.48
232.773	17872.8
232.846	17875.5
232.918	17882.92
232.99	17891.06
233.062	17900.65
233.135	17904.8
233.207	17896.7
233.279	17913.42
233.351	17927.54
233.424	17931.93
233.496	17919.06
233.568	17940.31
233.64	17930.72
233.713	17930.14
233.785	17911.06
233.857	17914.34
233.929	17894.1
234.001	17907.11
234.074	17925.61
234.146	17896.07
234.218	17893.95
234.29	17896.36
234.362	17889.76
234.434	17872.7
234.507	17851.83
234.579	17836.65
234.651	17827.4
234.723	17819.55
234.795	17807.98
234.867	17788.37
234.939	17805.09
235.012	17799.98
235.084	17789.14
235.156	17783.84
235.228	17772.17
235.3	17764.41
235.372	17756.37
235.444	17758.73
235.516	17718.87
235.588	17700.42
235.66	17701.62
235.732	17684.99
235.804	17721.19
235.876	17718.58
235.948	17718.39
236.02	17702.01
236.092	17689.33
236.164	17677.48
236.236	17671.84
236.308	17656.42
236.38	17643.36
236.452	17612.66
236.524	17617.24
236.596	17626.83
236.668	17624.99
236.74	17612.66
236.812	17600.56
236.884	17595.69
236.956	17590.05
237.028	17574.49
237.1	17549.19
237.172	17541.72
237.244	17545.91
237.316	17487.41
237.388	17453.86
237.46	17430.68
237.532	17432.51
237.604	17404.85
237.675	17396.61
237.747	17380.37
237.819	17354.63
237.891	17342.78
237.963	17317.43
238.035	17284.94
238.107	17224.8
238.178	17221.62
238.25	17196.22
238.322	17203.02
238.394	17162.53
238.466	17126.2
238.538	17114.68
238.609	17104.99
238.681	17061.76
238.753	17029.04
238.825	17012.65
238.897	17003.35
238.968	17004.41
239.04	16975.54
239.112	16993.57
239.184	16960.7
239.255	16935.06
239.327	16930.24
239.399	16904.84
239.471	16900.74
239.542	16887.73
239.614	16881.66
239.686	16826.57
239.758	16819.82
239.829	16777.99
239.901	16776.64
239.973	16759.97
240.044	16743
240.116	16716.3
240.188	16685.31
240.259	16661.74
240.331	16637.26
240.403	16622.03
240.474	16580
240.546	16546.55
240.618	16497.25
240.689	16470.5
240.761	16450.21
240.833	16433.44
240.904	16412.42
240.976	16376.32
241.048	16350.97
241.119	16339.79
241.191	16327.5
241.262	16316.99
241.334	16292.75
241.405	16270.72
241.477	16246.77
241.549	16217.42
241.62	16198.33
241.692	16189.94
241.763	16178.42
241.835	16155.87
241.906	16135.19
241.978	16094.13
242.049	16091.72
242.121	16073.98
242.192	16067.23
242.264	16028.96
242.335	15990.16
242.407	15975.89
242.478	15950.68
242.55	15929.91
242.621	15889.18
242.693	15866.63
242.764	15842.57
242.836	15816.45
242.907	15793.85
242.979	15775.1
243.05	15757.84
243.122	15739.04
243.193	15712.29
243.264	15678.21
243.336	15642.79
243.407	15621.24
243.479	15621.1
243.55	15595.74
243.622	15581.72
243.693	15555.21
243.764	15553.33
243.836	15519.49
243.907	15483.14
243.978	15461.79
244.05	15431.28
244.121	15394.02
244.192	15376.04
244.264	15325.77
244.335	15303.59
244.407	15256.6
244.478	15233.7
244.549	15193.98
244.62	15153.92
244.692	15131.51
244.763	15110.2
244.834	15083.69
244.906	15048.12
244.977	15025.75
245.048	15006.52
245.119	14972.06
245.191	14932
245.262	14884.81
245.333	14882.3
245.405	14860.27
245.476	14839.54
245.547	14826.19
245.618	14810.33
245.689	14780.54
245.761	14765.45
245.832	14738.03
245.903	14724.43
245.974	14699.41
246.045	14683.17
246.117	14681.1
246.188	14637.9
246.259	14592.69
246.33	14569.07
246.401	14543.04
246.473	14497.68
246.544	14469.43
246.615	14456.17
246.686	14431.15
246.757	14419.15
246.828	14374.99
246.899	14361.83
246.97	14321.25
247.042	14278.82
247.113	14262.05
247.184	14259.64
247.255	14229.22
247.326	14206.52
247.397	14179.71
247.468	14159.42
247.539	14138.93
247.61	14092.56
247.681	14084.27
247.752	14076.65
247.823	14041.12
247.894	14017.11
247.965	13988.19
248.037	13956.04
248.108	13903.93
248.179	13884.26
248.25	13863.43
248.321	13851.33
248.392	13810.65
248.463	13806.69
248.534	13793.24
248.605	13770.93
248.675	13734.53
248.746	13711.92
248.817	13693.41
248.888	13682.27
248.959	13636.86
249.03	13622.21
249.101	13604.66
249.172	13576.89
249.243	13540.59
249.314	13539.53
249.385	13524.88
249.456	13510.85
249.527	13491.42
249.598	13484.72
249.669	13449.87
249.739	13422.3
249.81	13401.57
249.881	13365.12
249.952	13336.39
250.023	13306.55
250.094	13273.48
250.165	13243.16
250.235	13221.9
250.306	13197.22
250.377	13155.71
250.448	13145.2
250.519	13095.17
250.59	13095.7
250.66	13069.38
250.731	13061.71
250.802	13037.03
250.873	13019.24
250.944	13002.75
251.014	12975.81
251.085	12976.96
251.156	12966.5
251.227	12963.08
251.297	12955.85
251.368	12954.07
251.439	12947.99
251.51	12947.03
251.58	12924.81
251.651	12898.87
251.722	12892.31
251.792	12857.46
251.863	12838.28
251.934	12835.63
252.005	12844.3
252.075	12817.84
252.146	12817.36
252.217	12806.17
252.287	12795.33
252.358	12770.26
252.429	12768.72
252.499	12744.23
252.57	12722.58
252.641	12710.1
252.711	12684.65
252.782	12643.33
252.852	12643.72
252.923	12621.69
252.994	12592.67
253.064	12577
253.135	12546.68
253.205	12514.82
253.276	12516.85
253.347	12522.49
253.417	12489.22
253.488	12463.1
253.558	12434.66
253.629	12411.47
253.699	12393.35
253.77	12379.66
253.841	12361
253.911	12339.69
253.982	12321.19
254.052	12312.65
254.123	12294.82
254.193	12274.86
254.264	12298.87
254.334	12269.66
254.405	12243.82
254.475	12218.27
254.546	12196.05
254.616	12199.52
254.687	12187.08
254.757	12166.6
254.827	12136.38
254.898	12128.23
254.968	12108.42
255.039	12083.31
255.109	12071.64
255.18	12041.23
255.25	12003.58
255.321	11987.67
255.391	11954.51
255.461	11954.56
255.532	11905.78
255.602	11892.52
255.673	11855.65
255.743	11828.51
255.813	11787.59
255.884	11777.28
255.954	11773.76
256.024	11783.3
256.095	11756.89
256.165	11730.86
256.235	11716.31
256.306	11689.85
256.376	11675.67
256.446	11670.81
256.517	11662.32
256.587	11656.35
256.657	11644.49
256.728	11626.13
256.798	11607.33
256.868	11591.76
256.938	11566.8
257.009	11561.3
257.079	11544.91
257.149	11559.9
257.219	11522.21
257.29	11511.27
257.36	11475.8
257.43	11462.6
257.5	11413.97
257.571	11399.31
257.641	11391.36
257.711	11366.06
257.781	11351.41
257.852	11336.61
257.922	11294.59
257.992	11276.03
258.062	11244.99
258.132	11233.91
258.202	11216.7
258.273	11202.83
258.343	11196.27
258.413	11168.56
258.483	11154.15
258.553	11122.34
258.623	11090.15
258.693	11072.18
258.764	11065.91
258.834	11065.33
258.904	11052.17
258.974	11033.24
259.044	11018.64
259.114	11004.8
259.184	10996.9
259.254	10978.83
259.324	10941.19
259.394	10933.97
259.464	10936.33
259.535	10920.09
259.605	10900.57
259.675	10876
259.745	10862.17
259.815	10839.33
259.885	10818.51
259.955	10827.09
260.025	10806.56
260.095	10794.23
260.165	10783.43
260.235	10787
260.305	10762.57
260.375	10726.81
260.445	10736.55
260.515	10734.09
260.585	10728.6
260.655	10708.26
260.725	10708.41
260.795	10704.89
260.865	10708.17
260.934	10680.07
261.004	10679.25
261.074	10662.53
261.144	10667.45
261.214	10667.26
261.284	10652.7
261.354	10653.14
261.424	10623.5
261.494	10628.8
261.564	10607.99
261.634	10606.06
261.703	10569.44
261.773	10561.78
261.843	10556.04
261.913	10534.56
261.983	10498.71
262.053	10492.01
262.123	10477.51
262.192	10447.11
262.262	10440.27
262.332	10412.51
262.402	10405.29
262.472	10381.39
262.541	10346.56
262.611	10340.54
262.681	10319.15
262.751	10311.53
262.821	10293.66
262.89	10261.48
262.96	10254.3
263.03	10261.52
263.1	10243.46
263.169	10231.46
263.239	10226.79
263.309	10233.34
263.379	10227.9
263.448	10216.67
263.518	10202.56
263.588	10187.86
263.657	10193.07
263.727	10191.04
263.797	10172.98
263.867	10155.97
263.936	10137.62
264.006	10146.14
264.076	10129.62
264.145	10106.93
264.215	10084.43
264.285	10083.04
264.354	10059.68
264.424	10037.47
264.494	10009.91
264.563	9987.8
264.633	9993.3
264.702	9977.21
264.772	9941.08
264.842	9916.8
264.911	9908.9
264.981	9877.88
265.05	9859.48
265.12	9840.07
265.19	9820.17
265.259	9815.79
265.329	9808.9
265.398	9791.08
265.468	9795.75
265.537	9780.39
265.607	9775.86
265.676	9779.28
265.746	9768.01
265.815	9769.69
265.885	9752.89
265.955	9730.64
266.024	9717.92
266.094	9684.83
266.163	9688.2
266.232	9695.19
266.302	9685.36
266.371	9676.55
266.441	9668.36
266.51	9670.1
266.58	9657.04
266.649	9639.71
266.719	9640
266.788	9632.19
266.858	9636
266.927	9601.9
266.996	9590
267.066	9580.32
267.135	9548.73
267.205	9537.13
267.274	9523.45
267.343	9524.51
267.413	9518.63
267.482	9526.44
267.552	9530.14
267.621	9498.94
267.69	9467.83
267.76	9462.67
267.829	9453.67
267.898	9439.32
267.968	9415.43
268.037	9414.47
268.106	9412.16
268.176	9386.54
268.245	9371.37
268.314	9354.04
268.384	9360.92
268.453	9346.72
268.522	9335.79
268.592	9339.2
268.661	9324.28
268.73	9319.56
268.799	9298.23
268.869	9301.36
268.938	9270.25
269.007	9246.47
269.076	9244.44
269.146	9247.04
269.215	9234.19
269.284	9241.75
269.353	9226.63
269.422	9216.04
269.492	9193.75
269.561	9157.64
269.63	9157.01
269.699	9143.39
269.768	9140.74
269.838	9126.82
269.907	9129.52
269.976	9105.45
270.045	9079.26
270.114	9074.3
270.183	9062.02
270.253	9061.11
270.322	9029.72
270.391	9018.17
270.46	9025.49
270.529	9022.07
270.598	9016.39
270.667	9005.55
270.736	8981.72
270.806	8976.23
270.875	8980.52
270.944	8970.99
271.013	8996.31
271.082	8984.22
271.151	8980.52
271.22	8943.41
271.289	8931.27
271.358	8915.87
271.427	8916.59
271.496	8909.52
271.565	8894.26
271.634	8885.4
271.703	8881.84
271.772	8889.25
271.841	8880.97
271.91	8856.61
271.979	8843.18
272.048	8818.15
272.117	8817.96
272.186	8805.06
272.255	8806.21
272.324	8800.82
272.393	8793.75
272.462	8772.71
272.531	8763.9
272.6	8752.88
272.669	8768.85
272.738	8760.96
272.807	8752.63
272.876	8732.76
272.945	8751.34
273.013	8753.6
273.082	8756.97
273.151	8733.58
273.22	8728.96
273.289	8723.66
273.358	8731.12
273.427	8723.95
273.496	8729.63
273.564	8726.16
273.633	8728.57
273.702	8711.49
273.771	8700.03
273.84	8697.38
273.909	8700.13
273.977	8701.57
274.046	8696.71
274.115	8700.08
274.184	8677.89
274.253	8669.81
274.322	8678.57
274.39	8654.84
274.459	8641.36
274.528	8611.09
274.597	8612.11
274.665	8608.93
274.734	8616.58
274.803	8607.1
274.872	8596.9
274.94	8581.59
275.009	8607.45
275.078	8588.92
275.147	8586.9
275.215	8586.13
275.284	8593.78
275.353	8580.98
275.421	8555.81
275.49	8566.49
275.559	8554.51
275.627	8546.81
275.696	8544.21
275.765	8540.99
275.833	8534.97
275.902	8531.94
275.971	8550.71
276.039	8566.59
276.108	8565.44
276.177	8565.05
276.245	8554.46
276.314	8549.03
276.383	8554.32
276.451	8522.02
276.52	8531.74
276.588	8540.74
276.657	8542.47
276.725	8530.05
276.794	8529.52
276.863	8546.7
276.931	8519.41
277	8532.31
277.068	8549.25
277.137	8565.37
277.205	8565.18
277.274	8575.81
277.342	8591.45
277.411	8572.83
277.48	8555.56
277.548	8547.37
277.617	8545.06
277.685	8541.31
277.754	8547.13
277.822	8537.61
277.89	8546.08
277.959	8535.44
278.027	8518.79
278.096	8508.74
278.164	8535.11
278.233	8528.61
278.301	8511.29
278.37	8516.1
278.438	8496.71
278.507	8497.91
278.575	8474.52
278.643	8472.21
278.712	8458.98
278.78	8447.72
278.849	8460.76
278.917	8470.33
278.985	8466.53
279.054	8468.12
279.122	8472.45
279.191	8469.23
279.259	8468.36
279.327	8446.13
279.396	8456.04
279.464	8451.85
279.532	8455.32
279.601	8445.26
279.669	8436.6
279.737	8451.22
279.806	8458.25
279.874	8467.63
279.942	8469.94
280.011	8461.33
280.079	8461.86
280.147	8477.45
280.215	8476.44
280.284	8466.67
280.352	8455.61
280.42	8459.89
280.488	8446.32
280.557	8445.16
280.625	8448.1
280.693	8449.78
280.761	8460.71
280.83	8451.61
280.898	8471.73
280.966	8454.69
281.034	8427.31
281.102	8412.11
281.171	8404.51
281.239	8407.44
281.307	8402.34
281.375	8387.14
281.443	8415.33
281.512	8411.48
281.58	8416.87
281.648	8400.03
281.716	8401.81
281.784	8396.86
281.852	8390.65
281.92	8392.86
281.989	8405.09
282.057	8382.28
282.125	8407.79
282.193	8408.08
282.261	8403.6
282.329	8396.87
282.397	8407.35
282.465	8415.05
282.533	8431.7
282.601	8424.1
282.67	8406.29
282.738	8395.8
282.806	8406.68
282.874	8388.29
282.942	8389.83
283.01	8380.5
283.078	8389.49
283.146	8385.79
283.214	8397.53
283.282	8405.52
283.35	8417.5
283.418	8414.56
283.486	8425.44
283.554	8391.27
283.622	8381.79
283.69	8380.87
283.758	8370.34
283.826	8370.87
283.894	8377.65
283.962	8398.54
284.03	8413.84
284.098	8412.01
284.165	8404.89
284.233	8407.39
284.301	8400.46
284.369	8392.14
284.437	8377.37
284.505	8367.75
284.573	8380.78
284.641	8368.08
284.709	8373.76
284.777	8358.17
284.845	8359.13
284.912	8363.37
284.98	8371.88
285.048	8363.75
285.116	8372.12
285.184	8381.55
285.252	8382.85
285.319	8364.09
285.387	8353.16
285.455	8334.59
285.523	8340.22
285.591	8339.74
285.659	8338.2
285.726	8354.27
285.794	8351.43
285.862	8359.66
285.93	8366.63
285.997	8360.67
286.065	8352.92
286.133	8342.62
286.201	8343.15
286.269	8332.95
286.336	8332.13
286.404	8328.04
286.472	8337.62
286.539	8315.82
286.607	8303.03
286.675	8294.36
286.743	8301.73
286.81	8296.38
286.878	8306.63
286.946	8300.95
287.013	8298.84
287.081	8294.51
287.149	8282.86
287.216	8298.12
287.284	8290.95
287.352	8290.66
287.419	8287.92
287.487	8304.03
287.555	8303.02
287.622	8296.48
287.69	8299.32
287.758	8306.97
287.825	8304.42
287.893	8296.63
287.96	8308.36
288.028	8321.45
288.096	8325.59
288.163	8329.34
288.231	8320.78
288.298	8324.82
288.366	8337.33
288.433	8336.41
288.501	8326.7
288.569	8329.39
288.636	8320.92
288.704	8337.23
288.771	8342.19
288.839	8333.43
288.906	8328.96
288.974	8344.69
289.041	8341.71
289.109	8331.37
289.176	8337.38
289.244	8337.53
289.311	8347.25
289.379	8352.59
289.446	8355.57
289.514	8360.86
289.581	8362.55
289.649	8368.13
289.716	8367.74
289.783	8359.85
289.851	8374.91
289.918	8379.24
289.986	8383.62
290.053	8388.53
290.121	8378.04
290.188	8376.83
290.255	8405.08
290.323	8399.11
290.39	8385.4
290.458	8390.26
290.525	8406.57
290.592	8398.97
290.66	8398
290.727	8392.71
290.794	8401.47
290.862	8397.09
290.929	8399.35
290.996	8401.61
291.064	8406.95
291.131	8409.79
291.198	8423.22
291.266	8425.29
291.333	8424.71
291.4	8436.79
291.468	8452.43
291.535	8446.8
291.602	8459.26
291.669	8447.28
291.737	8451.95
291.804	8456.28
291.871	8470.67
291.938	8468.69
292.006	8489.63
292.073	8504.21
292.14	8512.87
292.207	8509.45
292.275	8510.03
292.342	8517.39
292.409	8535.54
292.476	8556.57
292.543	8545.17
292.611	8544.88
292.678	8565.23
292.745	8590.31
292.812	8594.45
292.879	8584.77
292.946	8596.13
293.014	8600.7
293.081	8619.66
293.148	8632.85
293.215	8644.59
293.282	8642.91
293.349	8659.7
293.416	8640.84
293.484	8652.53
293.551	8667.93
293.618	8681.12
293.685	8704.32
293.752	8696.86
293.819	8695.85
293.886	8685.35
293.953	8702.68
294.02	8711.77
294.087	8711.39
294.154	8702.53
294.221	8714.42
294.288	8712.69
294.356	8729.58
294.423	8733.72
294.49	8720.39
294.557	8730.31
294.624	8723.18
294.691	8746.48
294.758	8746.86
294.825	8755.29
294.892	8747.87
294.959	8743.78
295.026	8747.83
295.093	8740.46
295.16	8743.35
295.226	8745.95
295.293	8769.05
295.36	8776.13
295.427	8789.37
295.494	8801.21
295.561	8812.37
295.628	8836.31
295.695	8852.67
295.762	8855.65
295.829	8867.88
295.896	8886.85
295.963	8901.67
296.03	8915.2
296.096	8914.38
296.163	8919.34
296.23	8938.26
296.297	8952.26
296.364	8952.41
296.431	8960.54
296.498	8957.99
296.564	8979.94
296.631	8974.98
296.698	8960.64
296.765	8979.36
296.832	8960.3
296.899	8943.69
296.965	8962.8
297.032	8936.47
297.099	8955.63
297.166	8958.81
297.233	8951.3
297.299	8938.25
297.366	8931.27
297.433	8928.09
297.5	8937.63
297.566	8945.47
297.633	8941.24
297.7	8946.05
297.767	8941
297.833	8950.24
297.9	8952.55
297.967	8941.09
298.033	8959.05
298.1	8990.97
298.167	8981.49
298.234	8992.22
298.3	9002.38
298.367	8995.06
298.434	9005.46
298.5	8995.97
298.567	8993.28
298.634	8998.19
298.7	9014.6
298.767	9021.29
298.834	9038.77
298.9	9026.01
298.967	9014.75
299.033	9027.17
299.1	9034.68
299.167	9053.45
299.233	9043.05
299.3	9064.62
299.366	9073.53
299.433	9083.25
299.5	9053.93
299.566	9055.23
299.633	9070.39
299.699	9079.88
299.766	9072.66
299.832	9077.13
299.899	9083.25
299.965	9094.23
300.032	9081.28
300.099	9088.6
300.165	9084.02
300.232	9068.33
300.298	9070.78
300.365	9082.58
300.431	9080.17
300.498	9073
300.564	9079.45
300.631	9092.01
300.697	9094.76
300.763	9091.92
300.83	9091.82
300.896	9107.03
300.963	9116.9
301.029	9119.31
301.096	9121.19
301.162	9129.57
301.229	9124.9
301.295	9112.04
301.361	9115.99
301.428	9126.48
301.494	9108.48
301.561	9116.66
301.627	9123.84
301.693	9128.75
301.76	9127.16
301.826	9120.71
301.892	9139.29
301.959	9141.36
302.025	9140.4
302.092	9131.3
302.158	9142.56
302.224	9141.5
302.291	9123.26
302.357	9119.89
302.423	9113.24
302.49	9110.11
302.556	9124.32
302.622	9117.77
302.688	9127.01
302.755	9136.02
302.821	9137.17
302.887	9149.98
302.954	9146.56
303.02	9158.5
303.086	9160.71
303.152	9160.43
303.219	9161.48
303.285	9161.87
303.351	9165.48
303.417	9166.88
303.483	9161.87
303.55	9150.75
303.616	9150.85
303.682	9154.6
303.748	9144.73
303.815	9160.72
303.881	9163.22
303.947	9147.28
304.013	9148.54
304.079	9142.08
304.145	9120.66
304.212	9120.76
304.278	9111.32
304.344	9104
304.41	9085.03
304.476	9081.33
304.542	9071.02
304.608	9071.84
304.674	9050.47
304.741	9041.65
304.807	9034.72
304.873	9036.45
304.939	9050.61
305.005	9028.46
305.071	9025.28
305.137	9024.51
305.203	8993.22
305.269	8988.41
305.335	8999.48
305.401	8997.31
305.467	8992.35
305.533	8998.85
305.599	9005.4
305.666	9010.22
305.732	9013.25
305.798	9026.82
305.864	9041.03
305.93	9049.4
305.996	9047.33
306.062	9051.23
306.128	9052
306.194	9039.2
306.259	9035.59
306.325	9029.52
306.391	9037.46
306.457	9043.96
306.523	9047.96
306.589	9070.3
306.655	9066.54
306.721	9044.01
306.787	9024.52
306.853	9038.81
306.919	9026.39
306.985	9017.54
307.051	9012
307.117	9000.35
307.183	8996.74
307.248	8975.41
307.314	8982.1
307.38	8982.97
307.446	8987.11
307.512	8972.28
307.578	8983.45
307.644	8979.02
307.709	8978.11
307.775	8977.19
307.841	8975.65
307.907	8973.01
307.973	8952.35
308.039	8948.69
308.104	8956.4
308.17	8972.14
308.236	8958.94
308.302	8960.05
308.368	8947.05
308.433	8941.81
308.499	8940.27
308.565	8920.48
308.631	8924
308.696	8894.2
308.762	8883.75
308.828	8877.11
308.894	8860.27
308.959	8832.98
309.025	8826.72
309.091	8817.38
309.156	8802.99
309.222	8800.39
309.288	8785.18
309.354	8766.31
309.419	8765.59
309.485	8748.74
309.551	8738.54
309.616	8718.66
309.682	8712.88
309.748	8706.72
309.813	8703.74
309.879	8691.8
309.945	8684.25
310.01	8675.39
310.076	8683.76
310.141	8668.46
310.207	8645.45
310.273	8649.54
310.338	8651.85
310.404	8626.59
310.469	8612.87
310.535	8604.84
310.601	8576.15
310.666	8578.66
310.732	8585.01
310.797	8572.59
310.863	8568.07
310.928	8564.6
310.994	8570.18
311.059	8564.17
311.125	8558.25
311.191	8562.58
311.256	8552.67
311.322	8554.74
311.387	8530.39
311.453	8808.1
311.518	8783.7
311.584	8786.4
311.649	8785.87
311.715	8772.15
311.78	8780.19
311.846	8770.37
311.911	8773.6
311.976	8778.89
312.042	8763.68
312.107	8750.74
312.173	8736.25
312.238	8729.52
312.304	8719.75
312.369	8711.62
312.434	8695.59
312.5	8691.6
312.565	8659.45
312.631	8660.95
312.696	8650.7
312.761	8654.02
312.827	8357.87
312.892	8398.25
312.958	8396.37
313.023	8395.89
313.088	8397.04
313.154	8382.71
313.219	8374.24
313.284	8369.96
313.35	8367.79
313.415	8356.92
313.48	8350.86
313.546	8356.05
313.611	8362.4
313.676	8356.05
313.741	8339.31
313.807	8348.45
313.872	8345.52
313.937	8354.22
314.003	8362.31
314.068	8358.07
314.133	8360
314.198	8353.7
314.264	8332.71
314.329	8316.02
314.394	8306.83
314.459	8301
314.525	8319.96
314.59	8312.55
314.655	8295.81
314.72	8300.19
314.785	8300.19
314.851	8292.92
314.916	8273.68
314.981	8256.84
315.046	8248.76
315.111	8245.44
315.176	8230.14
315.242	8236.2
315.307	8231.2
315.372	8213.06
315.437	8209.3
315.502	8197.85
315.567	8202.86
315.632	8188.33
315.698	8191.79
315.763	8189.48
315.828	8185.59
315.893	8175.67
315.958	8173.12
316.023	8161.05
316.088	8142.29
316.153	8123.87
316.218	8126.22
316.283	8110.4
316.348	8096.64
316.413	8091.06
316.479	8076.92
316.544	8044.46
316.609	8013.68
316.674	7978.86
316.739	7947.84
316.804	7920.62
316.869	7891.76
316.934	7859.15
316.999	7828.52
317.064	7783.22
317.129	7738.55
317.194	7706.14
317.259	7665.74
317.324	7617.96
317.389	7583.15
317.454	7546.32
317.518	7517.52
317.583	7492.61
317.648	7470.59
317.713	7435.45
317.778	7380.46
317.843	7352.53
317.908	7323.6
317.973	7288.99
318.038	7270.06
318.103	7237.38
318.168	7204.55
318.233	7177.98
318.297	7132.37
318.362	7103.92
318.427	7066.22
318.492	7044.83
318.557	6999.34
318.622	6970.17
318.687	6954.66
318.751	6916.66
318.816	6881.45
318.881	6849.13
318.946	6795.46
319.011	6754.49
319.075	6715.4
319.14	6680.73
319.205	6640.29
319.27	6609.99
319.335	6568.75
319.399	6525.67
319.464	6494.99
319.529	6446.07
319.594	6406.46
319.658	6377.9
319.723	6333.97
319.788	6307.34
319.853	6257.36
319.917	6227.28
319.982	6179.52
320.047	6144.1
320.112	6120.06
320.176	6071.98
320.241	6039.35
320.306	6009.41
320.37	5974.77
320.435	5948.58
320.5	5931.21
320.564	5893.94
320.629	5852.55
320.694	5821.52
320.758	5782.33
320.823	5746.85
320.888	5722.87
320.952	5680.96
321.017	5642.74
321.082	5604.15
321.146	5574.04
321.211	5543.84
321.275	5504.78
321.34	5464.72
321.405	5420.52
321.469	5377.77
321.534	5342.03
321.598	5293.4
321.663	5264.21
321.727	5232
321.792	5184.33
321.857	5136.36
321.921	5098.95
321.986	5063.37
322.05	5009.35
322.115	4976.5
322.179	4931.58
322.244	4877.67
322.308	4845.4
322.373	4799.3
322.437	4763.49
322.502	4739.31
322.566	4696.79
322.631	4666.79
322.695	4628.84
322.76	4588.89
322.824	4557.44
322.889	4518.6
322.953	4478.19
323.018	4415.51
323.082	4355.2
323.146	4311.06
323.211	4263.33
323.275	4223.83
323.34	4178.65
323.404	4146.15
323.468	4104.98
323.533	4066.07
323.597	4024.46
323.662	3976.33
323.726	3944.36
323.79	3900.44
323.855	3838.25
323.919	3789.09
323.983	3746.8
324.048	3689.6
324.112	3847.08
324.177	3724.5
324.241	3534.52
324.305	3348.12
324.37	3164.49
324.434	2987.64
324.498	2946.23
324.562	2901.94
324.627	2846.49
324.691	2798.62
324.755	2742.5
324.82	2672.29
324.884	2602.79
324.948	2542.49
325.012	2456.86
325.077	2349.09
