Data from 20250625_urea_1M_1_MAYP1162681_00-35-06-196.txt Node
Date: Thu Jun 26 00:35:06 BST 2025
User: adleo
Spectrometer: MAYP116268
Trigger mode: 0
Integration Time (sec): 1.000000E0
Scans to average: 1
Electric dark correction enabled: true
Nonlinearity correction enabled: true
Boxcar width: 10
XAxis mode: Wavelengths
Number of Pixels in Spectrum: 2068
>>>>>Begin Spectral Data<<<<<
179.565	1128.68
179.642	1184.19
179.718	1222.41
179.795	1260.88
179.871	1290.96
179.948	1310.6
180.024	1330.28
180.101	1351.71
180.177	1362.54
180.254	1381.66
180.33	1402
180.407	1449.99
180.483	1539.64
180.56	1624.21
180.636	1704.2
180.712	1694.41
180.789	1700.78
180.865	1713.03
180.942	1721.25
181.018	1732.13
181.095	1743.11
181.171	1750.48
181.248	1749.67
181.324	1762.88
181.4	1767.16
181.477	1776.52
181.553	1784.84
181.63	1806.09
181.706	1821.63
181.782	1831.65
181.859	1835.69
181.935	1843.44
182.011	1838.69
182.088	1851.24
182.164	1868.69
182.24	1880.57
182.317	1889.98
182.393	1888.22
182.469	1902.06
182.546	1914.46
182.622	1916.36
182.698	1913.7
182.775	1924.97
182.851	1939.95
182.927	1936.62
183.003	1934.81
183.08	1931.58
183.156	1941.47
183.232	1936.05
183.308	1926.11
183.385	1932.48
183.461	1943.75
183.537	1941.37
183.613	1956.2
183.69	1948.88
183.766	1938.23
183.842	1944.36
183.918	1949.73
183.995	1962.38
184.071	1969.28
184.147	1964.38
184.223	1957.96
184.299	1970.33
184.375	1957.11
184.452	1961.68
184.528	2016.05
184.604	2023.75
184.68	2034.31
184.756	2040.44
184.832	2046.1
184.908	2047.57
184.985	2048.53
185.061	2036.35
185.137	2048.05
185.213	2036.4
185.289	2039.11
185.365	2033.74
185.441	2032.08
185.517	2042.45
185.593	2040.78
185.669	2035.41
185.745	2045.39
185.822	2060.04
185.898	2049.91
185.974	2058.51
186.05	2050.52
186.126	2009.56
186.202	2002.81
186.278	1998.67
186.354	1989.73
186.43	1993.11
186.506	1990.63
186.582	1987.35
186.658	1991.92
186.734	1971.05
186.81	1976.8
186.886	1980.22
186.962	1990.25
187.038	1985.78
187.114	1980.07
187.19	1984.59
187.266	1972.33
187.341	1973.04
187.417	1963.96
187.493	1965.1
187.569	1968.57
187.645	1963.91
187.721	1952.59
187.797	1962.53
187.873	1963.01
187.949	1959.11
188.025	1953.02
188.101	1958.58
188.176	1965.62
188.252	1964.38
188.328	1974.22
188.404	1971.41
188.48	1966.71
188.556	1959.43
188.632	1962
188.707	1957.91
188.783	1956.2
188.859	1953.2
188.935	1943.88
189.011	1954.82
189.086	1950.21
189.162	1942.22
189.238	1940.56
189.314	1938.99
189.39	1933.8
189.465	1931.09
189.541	1946.64
189.617	1933.28
189.693	1930.29
189.768	1934
189.844	1955.45
189.92	1946.33
189.996	1954.27
190.071	1961.92
190.147	1962.16
190.223	1970.01
190.298	1970.1
190.374	1957.69
190.45	1969.53
190.526	1977.04
190.601	1967.29
190.677	1967.25
190.753	1995.32
190.828	1997.07
190.904	2011.77
190.98	2025.99
191.055	2035.74
191.131	2026.56
191.207	2045.25
191.282	2049.19
191.358	2039.97
191.433	2028.6
191.509	2040.1
191.585	2035.91
191.66	2038.63
191.736	2048.52
191.811	2038.05
191.887	2050.23
191.963	2072.63
192.038	2079.48
192.114	2078.63
192.189	2086.28
192.265	2083.76
192.34	2063.01
192.416	2061.97
192.491	2057.88
192.567	2058.3
192.642	2061.3
192.718	2062.06
192.793	2053.64
192.869	2051.89
192.944	2054.45
193.02	2059.78
193.095	2064.54
193.171	2071.58
193.246	2070.67
193.322	2066.25
193.397	2068.25
193.473	2054.26
193.548	2036.19
193.624	2038.56
193.699	2039.13
193.775	2050.79
193.85	2050.84
193.925	2057.02
194.001	2057.83
194.076	2050.36
194.152	2039.85
194.227	2031.34
194.302	2022.35
194.378	2024.92
194.453	2023.73
194.529	2035.72
194.604	2022.07
194.679	2014.12
194.755	1995.44
194.83	2007.81
194.905	2006.62
194.981	2013.14
195.056	2005.77
195.131	2012.04
195.207	2011.28
195.282	1999.97
195.357	1981.89
195.433	2000.77
195.508	1990.02
195.583	1997.87
195.659	2009.33
195.734	2018.89
195.809	2020.99
195.884	2027.93
195.96	2028.64
196.035	2044.95
196.11	2041.81
196.185	2056.08
196.261	2057.22
196.336	2087.76
196.411	2073.29
196.486	2077.43
196.561	2073.44
196.637	2085.75
196.712	2101.26
196.787	2100.5
196.862	2116.91
196.937	2128.42
197.013	2131.08
197.088	2139.45
197.163	2157.63
197.238	2176.38
197.313	2174.53
197.388	2185.66
197.464	2214.93
197.539	2225.87
197.614	2215.12
197.689	2226.06
197.764	2239.53
197.839	2263.27
197.914	2256.61
197.989	2280.36
198.065	2296.54
198.14	2347.16
198.215	2370.77
198.29	2386.39
198.365	2402.52
198.44	2412.8
198.515	2439.27
198.59	2452.13
198.665	2477.07
198.74	2482.74
198.815	2482.4
198.89	2505.11
198.965	2533.07
199.04	2529.35
199.115	2543.73
199.19	2588.01
199.265	2592.01
199.34	2599.54
199.415	2632.75
199.49	2655.41
199.565	2662.61
199.64	2683.9
199.715	2679.61
199.79	2682.13
199.865	2683.94
199.94	2682.56
200.015	2713.67
200.09	2720.54
200.165	2727.11
200.24	2736.74
200.315	2777.98
200.39	2793.89
200.464	2797.28
200.539	2798.95
200.614	2816.19
200.689	2837.4
200.764	2841.35
200.839	2857.17
200.914	2864.7
200.989	2852.44
201.063	2866.41
201.138	2851.36
201.213	2851.93
201.288	2832.25
201.363	2837.01
201.438	2837.78
201.512	2854.64
201.587	2838.38
201.662	2842.39
201.737	2856.97
201.812	2863.65
201.886	2831.12
201.961	2839.89
202.036	2828.51
202.111	2824.12
202.186	2794.65
202.26	2779.06
202.335	2761
202.41	2757.19
202.485	2740.51
202.559	2721.46
202.634	2692.59
202.709	2703.44
202.784	2682.63
202.858	2682.05
202.933	2667.62
203.008	2663.86
203.082	2644.81
203.157	2643.9
203.232	2602.38
203.306	2578.7
203.381	2547.92
203.456	2525.3
203.53	2500.85
203.605	2482.48
203.68	2460.57
203.754	2455.86
203.829	2443.01
203.904	2423.11
203.978	2407.77
204.053	2411.87
204.127	2399.59
204.202	2397.64
204.277	2378.74
204.351	2375.5
204.426	2366.93
204.5	2359.22
204.575	2323.15
204.65	2332.72
204.724	2322.33
204.799	2331.75
204.873	2331.32
204.948	2327.8
205.022	2319.29
205.097	2311.19
205.171	2325.89
205.246	2334.56
205.32	2335.51
205.395	2331.99
205.469	2325.57
205.544	2332.61
205.618	2315.19
205.693	2326
205.767	2312.43
205.842	2334.33
205.916	2327.29
205.991	2320.2
206.065	2325.24
206.14	2341.51
206.214	2336.94
206.289	2332.89
206.363	2343.17
206.438	2342.03
206.512	2353.36
206.586	2371.54
206.661	2383.11
206.735	2363.41
206.81	2365.51
206.884	2376.84
206.958	2366.27
207.033	2378.79
207.107	2385.5
207.181	2415.5
207.256	2413.5
207.33	2435.35
207.405	2445.4
207.479	2464.97
207.553	2471.96
207.628	2458.07
207.702	2468.78
207.776	2463.68
207.851	2465.59
207.925	2477.5
207.999	2474.16
208.073	2470.12
208.148	2471.59
208.222	2461.4
208.296	2489.15
208.371	2503.73
208.445	2515.92
208.519	2547.91
208.593	2563.82
208.668	2560.24
208.742	2563.96
208.816	2565.06
208.89	2579.3
208.965	2579.3
209.039	2586.78
209.113	2605.26
209.187	2628.63
209.261	2626.96
209.336	2649.45
209.41	2674.46
209.484	2682.51
209.558	2712.48
209.632	2731.96
209.707	2747.54
209.781	2769.65
209.855	2794.77
209.929	2820.71
210.003	2833.87
210.077	2839.16
210.151	2894.69
210.226	2941.62
210.3	2981.89
210.374	3019.2
210.448	3040.23
210.522	3068.85
210.596	3098.56
210.67	3129.95
210.744	3199.37
210.818	3256.06
210.892	3299.11
210.966	3321.91
211.041	3362.71
211.115	3387.56
211.189	3443.64
211.263	3497.53
211.337	3545.07
211.411	3597.21
211.485	3633.04
211.559	3694.25
211.633	3747.91
211.707	3767.74
211.781	3831.43
211.855	3856.09
211.929	3907.49
212.003	3954.49
212.077	4033.45
212.151	4117.04
212.225	4201.55
212.299	4262.95
212.373	4333.6
212.447	4418.5
212.52	4527.88
212.594	4620.98
212.668	4728.62
212.742	4814.32
212.816	4915.72
212.89	5013.88
212.964	5123.57
213.038	5242.57
213.112	5371.19
213.186	5501.92
213.26	5601.16
213.333	5681.05
213.407	5811.12
213.481	5949.21
213.555	6094.37
213.629	6215.91
213.703	6341.5
213.777	6483.64
213.85	6611.56
213.924	6791.51
213.998	6942.19
214.072	7094.87
214.146	7240.04
214.219	7396.3
214.293	7552.22
214.367	7706.03
214.441	7884.47
214.515	8037
214.588	8179.14
214.662	8312.89
214.736	8468.73
214.81	8650.46
214.883	8831.18
214.957	8992.39
215.031	9149.92
215.105	9297.15
215.178	9458.35
215.252	9628.39
215.326	9781.39
215.4	9937.9
215.473	10064.55
215.547	10216.06
215.621	10380.4
215.694	10560.16
215.768	10715.54
215.842	10877.29
215.915	11040.93
215.989	11185.8
216.063	11350.37
216.136	11521.94
216.21	11683.77
216.284	11860.89
216.357	12030.84
216.431	12200.35
216.504	12375.75
216.578	12564.36
216.652	12740.67
216.725	12907.6
216.799	13079.45
216.873	13236.4
216.946	13395.57
217.02	13549.25
217.093	13701.05
217.167	13834.43
217.24	13965.74
217.314	14107.13
217.387	14253.14
217.461	14398.24
217.535	14556.93
217.608	14687.41
217.682	14824.46
217.755	14976.78
217.829	15108.52
217.902	15245.46
217.976	15371.12
218.049	15488.2
218.123	15602.05
218.196	15745.31
218.27	15870.86
218.343	15980.18
218.417	16108.39
218.49	16240.55
218.563	16375.6
218.637	16500.53
218.71	16633.64
218.784	16761.75
218.857	16896.17
218.931	17015.02
219.004	17135.17
219.077	17246.11
219.151	17367.03
219.224	17480.76
219.298	17585.58
219.371	17695.51
219.444	17788.71
219.518	17894.45
219.591	18003.27
219.665	18131.79
219.738	18223.84
219.811	18307.3
219.885	18399.78
219.958	18502.67
220.031	18594.76
220.105	18683.77
220.178	18779.38
220.251	18865.45
220.325	18960.96
220.398	19037.48
220.471	19124.37
220.544	19206.05
220.618	19280.41
220.691	19355.73
220.764	19428.64
220.838	19503
220.911	19570.13
220.984	19659.28
221.057	19732
221.131	19802.07
221.204	19842.69
221.277	19917.49
221.35	20012.23
221.424	20077.72
221.497	20139.22
221.57	20194.97
221.643	20264.23
221.716	20324.18
221.79	20372.08
221.863	20419.45
221.936	20472.22
222.009	20515.98
222.082	20567.89
222.155	20612.56
222.229	20673.77
222.302	20716.66
222.375	20766.69
222.448	20811.46
222.521	20848.47
222.594	20886.35
222.667	20914.11
222.74	20958.74
222.814	20998.7
222.887	21032.39
222.96	21078.85
223.033	21114.95
223.106	21147.87
223.179	21174.23
223.252	21195.05
223.325	21227.44
223.398	21257.18
223.471	21286.29
223.544	21316.12
223.617	21334.63
223.69	21348.95
223.763	21355.02
223.837	21382.78
223.91	21407.27
223.983	21411.6
224.056	21415.22
224.129	21426.4
224.202	21459.7
224.275	21473.92
224.348	21474.69
224.42	21473.15
224.493	21461.15
224.566	21471.13
224.639	21489.4
224.712	21497.54
224.785	21499.04
224.858	21506.12
224.931	21503.81
225.004	21493.83
225.077	21492.34
225.15	21473.06
225.223	21490.46
225.296	21518.22
225.369	21512.29
225.442	21501.3
225.514	21506.12
225.587	21516.1
225.66	21536.44
225.733	21534.46
225.806	21529.5
225.879	21528.68
225.952	21515.14
226.025	21530.27
226.097	21527.14
226.17	21517.3
226.243	21495.86
226.316	21498.89
226.389	21492.43
226.461	21496.72
226.534	21504.63
226.607	21501.98
226.68	21514.22
226.753	21514.7
226.825	21491.52
226.898	21499.81
226.971	21498.26
227.044	21508.1
227.117	21508.39
227.189	21505.73
227.262	21515.18
227.335	21520.15
227.407	21512.15
227.48	21507.08
227.553	21501.45
227.626	21493.01
227.698	21489.44
227.771	21492.43
227.844	21476.96
227.916	21472.53
227.989	21448.23
228.062	21439.8
228.134	21452.38
228.207	21450.21
228.28	21426.93
228.352	21418.5
228.425	21403.17
228.498	21400.76
228.57	21379.65
228.643	21381.48
228.716	21366.44
228.788	21347.21
228.861	21325.52
228.934	21322.68
229.006	21309.37
229.079	21293.08
229.151	21274.48
229.224	21245.8
229.296	21238.28
229.369	21252.5
229.442	21256.89
229.514	21242.81
229.587	21238.86
229.659	21212.74
229.732	21212.79
229.804	21215.92
229.877	21218.96
229.949	21218.62
230.022	21232.5
230.094	21226.33
230.167	21215.68
230.239	21186.18
230.312	21166.32
230.384	21169.55
230.457	21163.29
230.529	21159.05
230.602	21152.49
230.674	21151.62
230.747	21150.42
230.819	21144.01
230.892	21097.79
230.964	21072.63
231.037	21062.65
231.109	21041.4
231.181	21035.66
231.254	21002.94
231.326	20985.73
231.399	20956.48
231.471	20925.05
231.544	20881
231.616	20858.5
231.688	20831.79
231.761	20814.64
231.833	20800.08
231.905	20758.88
231.978	20735.36
232.05	20713.57
232.122	20686.59
232.195	20647.93
232.267	20640.08
232.339	20613.47
232.412	20606.39
232.484	20594.68
232.556	20566.1
232.629	20571.4
232.701	20554.58
232.773	20536.03
232.846	20505.57
232.918	20492.99
232.99	20479.93
233.062	20463.64
233.135	20446.24
233.207	20415.35
233.279	20400.99
233.351	20377.43
233.424	20360.08
233.496	20330.24
233.568	20327.84
233.64	20296.75
233.713	20275.69
233.785	20252.95
233.857	20234.01
233.929	20198.73
234.001	20169.67
234.074	20160.18
234.146	20108.27
234.218	20080.32
234.29	20048.61
234.362	20019.17
234.434	19973.24
234.507	19934.35
234.579	19895.46
234.651	19864.47
234.723	19850.88
234.795	19829.29
234.867	19805.49
234.939	19789.06
235.012	19764.57
235.084	19733.78
235.156	19719.23
235.228	19686.79
235.3	19652.29
235.372	19626.65
235.444	19614.46
235.516	19565.74
235.588	19542.37
235.66	19517.65
235.732	19471.58
235.804	19501.26
235.876	19477.75
235.948	19471.14
236.02	19443.58
236.092	19408.83
236.164	19388.4
236.236	19354.43
236.308	19322.09
236.38	19285.47
236.452	19243.21
236.524	19217.62
236.596	19208.32
236.668	19181.09
236.74	19163.07
236.812	19143.89
236.884	19125.91
236.956	19087.5
237.028	19051.75
237.1	19004.57
237.172	18990.02
237.244	18977.2
237.316	18903.8
237.388	18866.31
237.46	18823.42
237.532	18808.29
237.604	18772.44
237.675	18753.02
237.747	18726.32
237.819	18679.14
237.891	18650.13
237.963	18615.1
238.035	18576.59
238.107	18511.49
238.178	18492.07
238.25	18462.58
238.322	18444.94
238.394	18391.11
238.466	18362.39
238.538	18352.51
238.609	18335.11
238.681	18282.83
238.753	18247.55
238.825	18215.46
238.897	18191.56
238.968	18175.85
239.04	18139.22
239.112	18139.32
239.184	18088.48
239.255	18048.86
239.327	18031.8
239.399	18011.76
239.471	17999.9
239.542	17977.49
239.614	17964.82
239.686	17913.49
239.758	17889.45
239.829	17854.27
239.901	17836
239.973	17811.57
240.044	17784.87
240.116	17750.32
240.188	17724.58
240.259	17687.72
240.331	17660.63
240.403	17630.85
240.474	17588.39
240.546	17549.74
240.618	17501.12
240.689	17475.53
240.761	17450.56
240.833	17432.34
240.904	17394.13
240.976	17354.18
241.048	17326.46
241.119	17293.69
241.191	17274.99
241.262	17252.39
241.334	17209.79
241.405	17174.56
241.477	17133.31
241.549	17097.31
241.62	17077.79
241.692	17054.65
241.763	17037.01
241.835	17003.42
241.906	16981.49
241.978	16931.03
242.049	16904.77
242.121	16876.14
242.192	16852.04
242.264	16806.21
242.335	16758.74
242.407	16737.87
242.478	16701.86
242.55	16673.96
242.621	16635.6
242.693	16593.57
242.764	16556.56
242.836	16523.97
242.907	16496.07
242.979	16474.33
243.05	16441.9
243.122	16406.04
243.193	16374.76
243.264	16320.82
243.336	16286.17
243.407	16255.52
243.479	16255.13
243.55	16235.37
243.622	16220.38
243.693	16189.53
243.764	16185.78
243.836	16148.85
243.907	16117.04
243.978	16087.93
244.05	16057.18
244.121	16011.83
244.192	15994.23
244.264	15950.42
244.335	15930.47
244.407	15894.8
244.478	15865.11
244.549	15840.67
244.62	15806.5
244.692	15769.19
244.763	15759.69
244.834	15730.53
244.906	15704.41
244.977	15680.26
245.048	15657.41
245.119	15618.37
245.191	15586.27
245.262	15536.14
245.333	15523.18
245.405	15492.66
245.476	15467.31
245.547	15439.74
245.618	15419.93
245.689	15389.85
245.761	15363.48
245.832	15330.08
245.903	15304.87
245.974	15284.58
246.045	15250.26
246.117	15246.59
246.188	15213.82
246.259	15177.18
246.33	15145.61
246.401	15102.08
246.473	15053.11
246.544	15022.45
246.615	15006.5
246.686	14964.99
246.757	14951.35
246.828	14912.6
246.899	14902.57
246.97	14864.1
247.042	14833.59
247.113	14822.79
247.184	14818.31
247.255	14788.33
247.326	14762.87
247.397	14735.3
247.468	14708.64
247.539	14684.54
247.61	14638.03
247.681	14615.32
247.752	14600.43
247.823	14564.51
247.894	14550.24
247.965	14515.49
248.037	14486.56
248.108	14444.87
248.179	14427.42
248.25	14397.43
248.321	14380.37
248.392	14341.18
248.463	14346.58
248.534	14327.54
248.605	14302.9
248.675	14272.73
248.746	14260.39
248.817	14235.56
248.888	14216.18
248.959	14176.17
249.03	14154.33
249.101	14126.28
249.172	14102.42
249.243	14050.98
249.314	14052.38
249.385	14027.7
249.456	14015.6
249.527	13987.88
249.598	13971.58
249.669	13943.91
249.739	13916.87
249.81	13901.4
249.881	13864.42
249.952	13829.76
250.023	13797.46
250.094	13760.2
250.165	13716.62
250.235	13687.7
250.306	13665.67
250.377	13630.91
250.448	13618.04
250.519	13579.04
250.59	13571.04
250.66	13551.51
250.731	13557.83
250.802	13528.71
250.873	13516.27
250.944	13493.91
251.014	13468.5
251.085	13466.96
251.156	13462.86
251.227	13461.08
251.297	13448.74
251.368	13438.37
251.439	13426.27
251.51	13412.39
251.58	13384.33
251.651	13366.59
251.722	13356.32
251.792	13318.24
251.863	13303.64
251.934	13293.22
252.005	13301.9
252.075	13287.1
252.146	13267.82
252.217	13252.73
252.287	13236.29
252.358	13207.85
252.429	13207.03
252.499	13189.48
252.57	13165.23
252.641	13143.98
252.711	13116.26
252.782	13078.27
252.852	13075.52
252.923	13055.28
252.994	13040.19
253.064	13033.53
253.135	13003.36
253.205	12973.61
253.276	12970.82
253.347	12958.04
253.417	12930.37
253.488	12906.17
253.558	12877.3
253.629	12859.32
253.699	12842.93
253.77	12835.07
253.841	12813.09
253.911	12785.42
253.982	12758.81
254.052	12747.58
254.123	12738.23
254.193	12714.8
254.264	12739.72
254.334	12712
254.405	12674.06
254.475	12641.96
254.546	12617.18
254.616	12610.19
254.687	12599.44
254.757	12595.78
254.827	12575.73
254.898	12559.15
254.968	12532.39
255.039	12506.89
255.109	12494.17
255.18	12461.82
255.25	12415.3
255.321	12406.97
255.391	12381.22
255.461	12386.24
255.532	12334.95
255.602	12301.06
255.673	12264.67
255.743	12234.78
255.813	12190.87
255.884	12192.56
255.954	12188.51
256.024	12192.46
256.095	12170.96
256.165	12143.44
256.235	12124.01
256.306	12104.3
256.376	12099.52
256.446	12099.72
256.517	12088.25
256.587	12083.33
256.657	12067.9
256.728	12061.2
256.798	12033.87
256.868	12008.86
256.938	11981.24
257.009	11980.52
257.079	11979.41
257.149	11995.17
257.219	11951.69
257.29	11945.95
257.36	11909.47
257.43	11895.06
257.5	11848.21
257.571	11833.89
257.641	11821.36
257.711	11792.39
257.781	11779.86
257.852	11769.93
257.922	11726.55
257.992	11706.31
258.062	11687.17
258.132	11680.04
258.202	11661.14
258.273	11651.55
258.343	11659.6
258.413	11634.1
258.483	11616.66
258.553	11585.18
258.623	11549.76
258.693	11530.53
258.764	11530.53
258.834	11529.03
258.904	11507.49
258.974	11480.69
259.044	11468.84
259.114	11459.2
259.184	11446.14
259.254	11427.24
259.324	11391.24
259.394	11384.06
259.464	11384.01
259.535	11356.78
259.605	11334.51
259.675	11303.91
259.745	11290.85
259.815	11263.09
259.885	11242.37
259.955	11256.39
260.025	11233.65
260.095	11222.95
260.165	11219.77
260.235	11209.89
260.305	11187.82
260.375	11163
260.445	11180.15
260.515	11169.89
260.585	11164.2
260.655	11148.06
260.725	11139.04
260.795	11124.63
260.865	11124.44
260.934	11097.79
261.004	11094.71
261.074	11077.17
261.144	11075.96
261.214	11067.29
261.284	11048.97
261.354	11048.68
261.424	11015.62
261.494	11012.1
261.564	10992.73
261.634	10983.14
261.703	10949.94
261.773	10931.73
261.843	10933.89
261.913	10914.23
261.983	10881.56
262.053	10866
262.123	10845.95
262.192	10819.83
262.262	10816.07
262.332	10786.73
262.402	10778.97
262.472	10762.68
262.541	10724.28
262.611	10721.92
262.681	10697.73
262.751	10687.13
262.821	10672.53
262.89	10650.17
262.96	10640.1
263.03	10647.43
263.1	10629.45
263.169	10619.86
263.239	10617.02
263.309	10613.21
263.379	10601.36
263.448	10588.83
263.518	10578.23
263.588	10565.56
263.657	10567.97
263.727	10560.31
263.797	10541.95
263.867	10525.09
263.936	10498.25
264.006	10498.45
264.076	10486.59
264.145	10471.85
264.215	10449.45
264.285	10439.57
264.354	10404.79
264.424	10382.86
264.494	10346.63
264.563	10332.85
264.633	10336.23
264.702	10319.8
264.772	10285.49
264.842	10268.58
264.911	10261.26
264.981	10232.98
265.05	10210.19
265.12	10187.55
265.19	10172.56
265.259	10172.66
265.329	10165.53
265.398	10154.07
265.468	10175.31
265.537	10150.89
265.607	10143.85
265.676	10143.61
265.746	10129.79
265.815	10129.88
265.885	10120.92
265.955	10105.41
266.024	10091.35
266.094	10054.44
266.163	10063.6
266.232	10067.45
266.302	10057.67
266.371	10049.1
266.441	10035.56
266.51	10040.28
266.58	10030.41
266.649	10002.13
266.719	9999.1
266.788	9989.03
266.858	9994.18
266.927	9952.95
266.996	9948.18
267.066	9936.52
267.135	9915.71
267.205	9907
267.274	9893.8
267.343	9890.57
267.413	9877.18
267.482	9873.62
267.552	9882.24
267.621	9852.52
267.69	9820.58
267.76	9810.03
267.829	9802.71
267.898	9798.38
267.968	9776.32
268.037	9769.19
268.106	9774.83
268.176	9749.54
268.245	9735.09
268.314	9714.52
268.384	9715.58
268.453	9703.16
268.522	9688.61
268.592	9689.86
268.661	9674.69
268.73	9670.55
268.799	9649.07
268.869	9661.16
268.938	9628.84
269.007	9609.72
269.076	9601.44
269.146	9603.85
269.215	9594.94
269.284	9597.2
269.353	9578.18
269.422	9566.67
269.492	9549.57
269.561	9510.09
269.63	9507.82
269.699	9494.34
269.768	9485.33
269.838	9477.58
269.907	9479.12
269.976	9459.43
270.045	9429.91
270.114	9419.94
270.183	9405.73
270.253	9400.1
270.322	9371.69
270.391	9369.23
270.46	9370.05
270.529	9363.84
270.598	9362.35
270.667	9349.59
270.736	9327.34
270.806	9320.07
270.875	9318.48
270.944	9305.38
271.013	9325.8
271.082	9314.34
271.151	9303.6
271.22	9275.29
271.289	9260.26
271.358	9239.32
271.427	9244.47
271.496	9233.69
271.565	9218.28
271.634	9208.17
271.703	9231.33
271.772	9226.23
271.841	9210.34
271.91	9181.5
271.979	9167.92
272.048	9135.28
272.117	9132.29
272.186	9113.9
272.255	9117.18
272.324	9114.29
272.393	9114.62
272.462	9095.03
272.531	9084.39
272.6	9074.81
272.669	9088.72
272.738	9072.93
272.807	9077.17
272.876	9045.83
272.945	9066.39
273.013	9069.47
273.082	9072.16
273.151	9022.43
273.22	9021.08
273.289	9013.52
273.358	9022.47
273.427	9013.23
273.496	9020.89
273.564	9017.66
273.633	9023.15
273.702	8998.31
273.771	8989.54
273.84	8977.75
273.909	8979.68
273.977	8980.16
274.046	8970.77
274.115	8964.46
274.184	8954.89
274.253	8934.47
274.322	8952.48
274.39	8925.76
274.459	8910.06
274.528	8886.53
274.597	8886.33
274.665	8881.13
274.734	8890.91
274.803	8883.97
274.872	8874.92
274.94	8852.83
275.009	8901.76
275.078	8886.12
275.147	8886.69
275.215	8880.53
275.284	8889.05
275.353	8876.1
275.421	8847.99
275.49	8862.92
275.559	8851.32
275.627	8843.62
275.696	8840.68
275.765	8838.51
275.833	8829.85
275.902	8834.57
275.971	8847.61
276.039	8861.96
276.108	8865.86
276.177	8866.67
276.245	8850.6
276.314	8851.08
276.383	8862.97
276.451	8804.46
276.52	8805.61
276.588	8810.62
276.657	8817.02
276.725	8805.52
276.794	8810.33
276.863	8824.81
276.931	8802.29
277	8812.97
277.068	8824.23
277.137	8840.55
277.205	8831.02
277.274	8846.09
277.342	8849.89
277.411	8826.84
277.48	8810.9
277.548	8798.15
277.617	8798.97
277.685	8793.91
277.754	8792.52
277.822	8778.03
277.89	8789.97
277.959	8785.98
278.027	8774.57
278.096	8760.85
278.164	8786.46
278.233	8773.03
278.301	8758.35
278.37	8759.75
278.438	8748.58
278.507	8748.63
278.575	8722.25
278.643	8717.82
278.712	8704.49
278.78	8695.73
278.849	8706.32
278.917	8717.15
278.985	8709.3
279.054	8703.05
279.122	8713.92
279.191	8709.45
279.259	8706.46
279.327	8683.79
279.396	8695.15
279.464	8685.77
279.532	8690.1
279.601	8686.53
279.669	8679.6
279.737	8696.5
279.806	8699.87
279.874	8702.03
279.942	8694.24
280.011	8689.91
280.079	8699
280.147	8708.63
280.215	8708.53
280.284	8703.09
280.352	8688.89
280.42	8702.32
280.488	8692.74
280.557	8688.32
280.625	8695.87
280.693	8695.87
280.761	8701.79
280.83	8685.48
280.898	8701.36
280.966	8688.65
281.034	8654.28
281.102	8646.54
281.171	8639.41
281.239	8647.88
281.307	8640.62
281.375	8635.56
281.443	8658.28
281.512	8649.91
281.58	8656.26
281.648	8641.68
281.716	8639.99
281.784	8640.04
281.852	8625.65
281.92	8626.08
281.989	8636.87
282.057	8619.97
282.125	8648.56
282.193	8639.95
282.261	8642.02
282.329	8634.22
282.397	8630.52
282.465	8631.82
282.533	8648.32
282.601	8635.62
282.67	8616.32
282.738	8613.43
282.806	8622.96
282.874	8613.81
282.942	8617.04
283.01	8607.07
283.078	8612.94
283.146	8611.21
283.214	8618
283.282	8621.13
283.35	8632.1
283.418	8619.97
283.486	8623.1
283.554	8599.13
283.622	8595.47
283.69	8592.87
283.758	8585.22
283.826	8587.67
283.894	8600.19
283.962	8614.15
284.03	8625.21
284.098	8624.35
284.165	8617.37
284.233	8617.08
284.301	8605
284.369	8596.29
284.437	8592.49
284.505	8588.49
284.573	8604.76
284.641	8591.82
284.709	8601.73
284.777	8584.74
284.845	8596.2
284.912	8599.47
284.98	8595.47
285.048	8588.26
285.116	8590.08
285.184	8604.47
285.252	8607.79
285.319	8589.41
285.387	8578.48
285.455	8569
285.523	8574.68
285.591	8570.64
285.659	8573.14
285.726	8584.89
285.794	8577.57
285.862	8573.34
285.93	8567.08
285.997	8558.32
286.065	8554.13
286.133	8544.51
286.201	8544.99
286.269	8523.53
286.336	8517.8
286.404	8519.1
286.472	8531.9
286.539	8512.7
286.607	8496.19
286.675	8492.97
286.743	8501.58
286.81	8495.71
286.878	8507.45
286.946	8496.53
287.013	8495.38
287.081	8488.16
287.149	8473.82
287.216	8485.7
287.284	8479.45
287.352	8486.95
287.419	8484.16
287.487	8500.81
287.555	8505.62
287.622	8498.21
287.69	8505.58
287.758	8513.76
287.825	8502.11
287.893	8491.38
287.96	8496.34
288.028	8508.03
288.096	8515.15
288.163	8509.14
288.231	8500.33
288.298	8496.77
288.366	8510.68
288.433	8509.43
288.501	8499.42
288.569	8503.89
288.636	8499.71
288.704	8509.96
288.771	8516.41
288.839	8501.68
288.906	8489.41
288.974	8493.12
289.041	8489.8
289.109	8479.5
289.176	8486
289.244	8495.23
289.311	8506.45
289.379	8515.88
289.446	8519.01
289.514	8516.84
289.581	8522.57
289.649	8519.73
289.716	8516.21
289.783	8510.1
289.851	8525.55
289.918	8530.94
289.986	8531.47
290.053	8539.07
290.121	8536.91
290.188	8534.69
290.255	8567.13
290.323	8563.33
290.39	8556.25
290.458	8566.69
290.525	8582.86
290.592	8574.68
290.66	8571.55
290.727	8563.47
290.794	8577.18
290.862	8571.36
290.929	8567.51
290.996	8566.26
291.064	8577.76
291.131	8590.61
291.198	8601.82
291.266	8599.8
291.333	8599.47
291.4	8613.81
291.468	8625.17
291.535	8621.32
291.602	8620.98
291.669	8607.41
291.737	8613.38
291.804	8615.83
291.871	8623.1
291.938	8625.74
292.006	8652.12
292.073	8669.21
292.14	8684.13
292.207	8678.06
292.275	8679.84
292.342	8693.41
292.409	8721.67
292.476	8745.64
292.543	8737.6
292.611	8737.17
292.678	8756.71
292.745	8780.83
292.812	8786.41
292.879	8782.56
292.946	8787.8
293.014	8796.61
293.081	8803.21
293.148	8814.03
293.215	8828.96
293.282	8829.1
293.349	8838.92
293.416	8815.91
293.484	8827.13
293.551	8836.95
293.618	8851.48
293.685	8873.72
293.752	8863.28
293.819	8857.36
293.886	8844.5
293.953	8854.85
294.02	8865.49
294.087	8865.83
294.154	8857.35
294.221	8869.92
294.288	8872.42
294.356	8883.73
294.423	8896.73
294.49	8896.3
294.557	8908.81
294.624	8897.5
294.691	8910.3
294.758	8906.74
294.825	8922.1
294.892	8911.6
294.959	8905.34
295.026	8908.33
295.093	8902.07
295.16	8904.33
295.226	8897.98
295.293	8916.61
295.36	8913.91
295.427	8920.94
295.494	8931.53
295.561	8939
295.628	8963.89
295.695	8976.79
295.762	8984.54
295.829	8989.6
295.896	9001.44
295.963	9012.13
296.03	9026.96
296.096	9035.96
296.163	9052.86
296.23	9065.52
296.297	9080.39
296.364	9083.23
296.431	9093.2
296.498	9084.63
296.564	9109.86
296.631	9109.18
296.698	9099.94
296.765	9124.44
296.832	9115.1
296.899	9099.26
296.965	9119.48
297.032	9092.28
297.099	9102.68
297.166	9107.97
297.233	9101.81
297.299	9095.31
297.366	9093.72
297.433	9089.92
297.5	9097.05
297.566	9092.18
297.633	9084.77
297.7	9089.25
297.767	9078.99
297.833	9079.04
297.9	9088.19
297.967	9071.92
298.033	9087.61
298.1	9112.5
298.167	9105.76
298.234	9108.12
298.3	9116.79
298.367	9107.3
298.434	9109.71
298.5	9097.96
298.567	9089.01
298.634	9089.92
298.7	9102.49
298.767	9104.51
298.834	9117.7
298.9	9111.49
298.967	9099.12
299.033	9110.77
299.1	9116.69
299.167	9138.74
299.233	9131.9
299.3	9137.92
299.366	9151.64
299.433	9166.76
299.5	9142.97
299.566	9141.34
299.633	9159.01
299.699	9168.2
299.766	9165.65
299.832	9174.17
299.899	9186.02
299.965	9205.18
300.032	9201.76
300.099	9211.49
300.165	9214.67
300.232	9210.33
300.298	9210.24
300.365	9229.54
300.431	9231.76
300.498	9225.11
300.564	9223.28
300.631	9232.24
300.697	9246.63
300.763	9252.99
300.83	9254.77
300.896	9262.38
300.963	9265.46
301.029	9259.06
301.096	9263
301.162	9274.94
301.229	9271.29
301.295	9258.57
301.361	9258.28
301.428	9258.19
301.494	9239.75
301.561	9236.38
301.627	9234.12
301.693	9233.83
301.76	9235.37
301.826	9225.59
301.892	9233.39
301.959	9243.07
302.025	9237.68
302.092	9226.56
302.158	9226.56
302.224	9219.67
302.291	9213.7
302.357	9211.77
302.423	9210.38
302.49	9205.03
302.556	9208.64
302.622	9203.93
302.688	9214.42
302.755	9218.85
302.821	9231.18
302.887	9239.99
302.954	9240.56
303.02	9247.31
303.086	9252.46
303.152	9245.62
303.219	9243.74
303.285	9252.36
303.351	9256.89
303.417	9252.75
303.483	9250.68
303.55	9242.44
303.616	9240.09
303.682	9235.75
303.748	9225.83
303.815	9235.56
303.881	9239.12
303.947	9225.4
304.013	9223.33
304.079	9210.72
304.145	9195.16
304.212	9186.4
304.278	9184.76
304.344	9179.04
304.41	9168.68
304.476	9155.73
304.542	9147.74
304.608	9147.45
304.674	9122.08
304.741	9116.3
304.807	9122.65
304.873	9125.74
304.939	9135.61
305.005	9117.7
305.071	9114.13
305.137	9113.89
305.203	9088.62
305.269	9088.42
305.335	9101.04
305.401	9097.33
305.467	9095.84
305.533	9102
305.599	9102.87
305.666	9107.88
305.732	9109.17
305.798	9121.26
305.864	9144.85
305.93	9149.43
305.996	9146.49
306.062	9149.09
306.128	9140.33
306.194	9126.89
306.259	9118.56
306.325	9106.82
306.391	9114.09
306.457	9124.97
306.523	9133.34
306.589	9160.93
306.655	9147.16
306.721	9127.37
306.787	9111.15
306.853	9124.73
306.919	9109.37
306.985	9104.46
307.051	9094.69
307.117	9085.83
307.183	9074.76
307.248	9042.45
307.314	9048.37
307.38	9048.56
307.446	9060.94
307.512	9047.46
307.578	9056.89
307.644	9051.98
307.709	9053.14
307.775	9043.41
307.841	9029.36
307.907	9020.16
307.973	8994.45
308.039	8993.06
308.104	8995.8
308.17	9000.47
308.236	8986.65
308.302	8990.79
308.368	8980.44
308.433	8972.11
308.499	8957.53
308.565	8945.35
308.631	8947.47
308.696	8918.78
308.762	8908.67
308.828	8898.07
308.894	8882.58
308.959	8854.23
309.025	8846.76
309.091	8842.43
309.156	8839.26
309.222	8844.55
309.288	8836.56
309.354	8809.99
309.419	8811.39
309.485	8792.67
309.551	8795.36
309.616	8774.33
309.682	8764.27
309.748	8757.62
309.813	8754.88
309.879	8750.89
309.945	8739.96
310.01	8736.06
310.076	8741.98
310.141	8735.58
310.207	8718.2
310.273	8718.49
310.338	8721.72
310.404	8707.95
310.469	8695.1
310.535	8683.84
310.601	8658.52
310.666	8659
310.732	8674.02
310.797	8659.62
310.863	8652.4
310.928	8644.94
310.994	8643.69
311.059	8641
311.125	8636.33
311.191	8644.61
311.256	8634.21
311.322	8636.72
311.387	8615.11
311.453	8921.98
311.518	8897.82
311.584	8888.78
311.649	8890.46
311.715	8880.69
311.78	8876.89
311.846	8860.14
311.911	8867.27
311.976	8869
312.042	8848.07
312.107	8831.9
312.173	8814.19
312.238	8805.77
312.304	8798.16
312.369	8791.67
312.434	8774.97
312.5	8763.08
312.565	8731.85
312.631	8733.97
312.696	8722.9
312.761	8726.99
312.827	8410.06
312.892	8442.16
312.958	8443.46
313.023	8444.61
313.088	8440.42
313.154	8427.19
313.219	8421.66
313.284	8408.91
313.35	8405.78
313.415	8399.43
313.48	8396.49
313.546	8405.59
313.611	8417.18
313.676	8405.49
313.741	8397.79
313.807	8399.77
313.872	8403.18
313.937	8407.22
314.003	8416.03
314.068	8417.86
314.133	8420.12
314.198	8406.5
314.264	8388.84
314.329	8378.73
314.394	8369.45
314.459	8363.43
314.525	8384.12
314.59	8383.06
314.655	8367.86
314.72	8366.37
314.785	8366.37
314.851	8354.29
314.916	8333.41
314.981	8313.49
315.046	8304.88
315.111	8293.43
315.176	8287.85
315.242	8287.08
315.307	8284.87
315.372	8255.32
315.437	8247.19
315.502	8236.32
315.567	8247.87
315.632	8224.24
315.698	8219.72
315.763	8218.86
315.828	8211.45
315.893	8204.08
315.958	8197.35
316.023	8187.97
316.088	8169.4
316.153	8145.64
316.218	8141.98
316.283	8125.25
316.348	8113.22
316.413	8107.02
316.479	8092.54
316.544	8056.57
316.609	8028.33
316.674	7993.84
316.739	7968.41
316.804	7935.37
316.869	7901.8
316.934	7863.56
316.999	7836.05
317.064	7792.24
317.129	7745.97
317.194	7714.48
317.259	7668.89
317.324	7619.13
317.389	7579.75
317.454	7549.7
317.518	7525.47
317.583	7498.64
317.648	7473.4
317.713	7437.68
317.778	7380.53
317.843	7350.39
317.908	7317.52
317.973	7279.84
318.038	7255.23
318.103	7224.04
318.168	7193.33
318.233	7164.93
318.297	7115.72
318.362	7085.93
318.427	7047.55
318.492	7021.6
318.557	6981.2
318.622	6954.1
318.687	6936.37
318.751	6899.96
318.816	6863.79
318.881	6828.82
318.946	6778.62
319.011	6742.98
319.075	6714.54
319.14	6686.07
319.205	6644.2
319.27	6615
319.335	6582.25
319.399	6538.41
319.464	6506.87
319.529	6456.9
319.594	6421.13
319.658	6396.69
319.723	6356.32
319.788	6329.73
319.853	6279.76
319.917	6250.34
319.982	6198.31
320.047	6164.28
320.112	6138.99
320.176	6097
320.241	6067.06
320.306	6042.4
320.37	6004.92
320.435	5962.56
320.5	5938.38
320.564	5903.22
320.629	5864.08
320.694	5830.46
320.758	5794.63
320.823	5754.69
320.888	5730.81
320.952	5686.12
321.017	5646.51
321.082	5608.35
321.146	5576.13
321.211	5546.75
321.275	5507.49
321.34	5469.87
321.405	5427.78
321.469	5385.8
321.534	5343.77
321.598	5293.5
321.663	5260.24
321.727	5226.74
321.792	5184.1
321.857	5142.8
321.921	5108.98
321.986	5071.53
322.05	5018.04
322.115	4982.45
322.179	4945.63
322.244	4896.03
322.308	4865.1
322.373	4822.77
322.437	4787.49
322.502	4760.67
322.566	4715.34
322.631	4682.74
322.695	4642.65
322.76	4596.76
322.824	4561.44
322.889	4521.74
322.953	4480.27
323.018	4416.26
323.082	4356.19
323.146	4309.04
323.211	4261.31
323.275	4225.29
323.34	4182.21
323.404	4151.38
323.468	4108.11
323.533	4068.34
323.597	4024.48
323.662	3977.11
323.726	3939.88
323.79	3893.76
323.855	3837.59
323.919	3793.21
323.983	3751.88
324.048	3694.4
324.112	3847.15
324.177	3729.06
324.241	3537.6
324.305	3350.91
324.37	3171.63
324.434	2994.64
324.498	2956.71
324.562	2910.1
324.627	2849.55
324.691	2798.94
324.755	2738.49
324.82	2671.72
324.884	2599.42
324.948	2536.13
325.012	2450.17
325.077	2343.03
