Data from 20250625_urea_1M_1_MAYP1162681_12-25-05-763.txt Node
Date: Thu Jun 26 12:25:05 BST 2025
User: adleo
Spectrometer: MAYP116268
Trigger mode: 0
Integration Time (sec): 1.000000E0
Scans to average: 1
Electric dark correction enabled: true
Nonlinearity correction enabled: true
Boxcar width: 10
XAxis mode: Wavelengths
Number of Pixels in Spectrum: 2068
>>>>>Begin Spectral Data<<<<<
179.565	1133.82
179.642	1185.87
179.718	1226.92
179.795	1264.31
179.871	1291.8
179.948	1307.24
180.024	1328.5
180.101	1348.23
180.177	1360.1
180.254	1379.32
180.33	1402.41
180.407	1448.59
180.483	1539.57
180.56	1623.86
180.636	1704.8
180.712	1689.68
180.789	1695.91
180.865	1709.59
180.942	1720.85
181.018	1731.92
181.095	1742.81
181.171	1751.26
181.248	1753.4
181.324	1767.47
181.4	1773.32
181.477	1788.81
181.553	1800.83
181.63	1819.85
181.706	1835.44
181.782	1847.65
181.859	1849.83
181.935	1854.3
182.011	1855.25
182.088	1870.37
182.164	1888.92
182.24	1898.47
182.317	1908.45
182.393	1905.74
182.469	1917.15
182.546	1928.32
182.622	1932.31
182.698	1931.41
182.775	1941.01
182.851	1953.95
182.927	1946.48
183.003	1943.63
183.08	1935.5
183.156	1946.1
183.232	1944.2
183.308	1933.46
183.385	1936.45
183.461	1954.38
183.537	1956.56
183.613	1965.5
183.69	1955.42
183.766	1943.82
183.842	1951.52
183.918	1958.79
183.995	1972.2
184.071	1977.1
184.147	1972.2
184.223	1960.51
184.299	1971.73
184.375	1960.51
184.452	1964.79
184.528	2018.3
184.604	2029.19
184.68	2039.27
184.756	2046.64
184.832	2048.21
184.908	2053.44
184.985	2056.39
185.061	2038.08
185.137	2043.55
185.213	2035.09
185.289	2036.61
185.365	2030.38
185.441	2028.53
185.517	2040.52
185.593	2037.62
185.669	2033.62
185.745	2042.42
185.822	2059.82
185.898	2052.44
185.974	2059.29
186.05	2052.53
186.126	2016.76
186.202	2006.88
186.278	2002.98
186.354	1992.85
186.43	2000.89
186.506	1999.7
186.582	1999.41
186.658	2006.49
186.734	1987.67
186.81	1987.62
186.886	1992.04
186.962	2003.59
187.038	2000.79
187.114	1993.7
187.19	1999.88
187.266	1992.32
187.341	1991.7
187.417	1983.48
187.493	1981.1
187.569	1986.57
187.645	1983.19
187.721	1970.83
187.797	1981.1
187.873	1984.9
187.949	1978.58
188.025	1972.3
188.101	1976.91
188.176	1978.48
188.252	1976.82
188.328	1987.99
188.404	1989.65
188.48	1983.56
188.556	1974.43
188.632	1975.15
188.707	1972.63
188.783	1973.77
188.859	1967.78
188.935	1959.41
189.011	1965.5
189.086	1961.41
189.162	1955.56
189.238	1953.28
189.314	1949.09
189.39	1942.77
189.465	1938.54
189.541	1955.56
189.617	1941.2
189.693	1934.55
189.768	1938.97
189.844	1959.57
189.92	1945.83
189.996	1954.34
190.071	1964.28
190.147	1967.13
190.223	1976.5
190.298	1972.22
190.374	1960.38
190.45	1974.45
190.526	1984.48
190.601	1981.58
190.677	1982.39
190.753	2009.42
190.828	2012.84
190.904	2027.63
190.98	2041.9
191.055	2049.56
191.131	2040.71
191.207	2059.45
191.282	2070.76
191.358	2062.44
191.433	2051.78
191.509	2066.52
191.585	2062.28
191.66	2063.9
191.736	2071.32
191.811	2061.52
191.887	2073.84
191.963	2093.15
192.038	2097.53
192.114	2096.2
192.189	2097.86
192.265	2094.34
192.34	2068.41
192.416	2066.65
192.491	2062.13
192.567	2065.18
192.642	2068.41
192.718	2068.79
192.793	2057.9
192.869	2052.24
192.944	2054.71
193.02	2059.99
193.095	2063.42
193.171	2070.08
193.246	2068.03
193.322	2065.7
193.397	2066.03
193.473	2056.57
193.548	2037.64
193.624	2044.06
193.699	2040.49
193.775	2057.86
193.85	2059.95
193.925	2069.32
194.001	2065.8
194.076	2059.38
194.152	2047.25
194.227	2039.78
194.302	2032.7
194.378	2034.98
194.453	2033.6
194.529	2045.35
194.604	2030.46
194.679	2026.52
194.755	2008.54
194.83	2024.67
194.905	2023.44
194.981	2030.67
195.056	2021.92
195.131	2031.9
195.207	2027.38
195.282	2019.78
195.357	2001.08
195.433	2015.2
195.508	2004.88
195.583	2016.68
195.659	2030.09
195.734	2036.56
195.809	2037.46
195.884	2045.21
195.96	2045.21
196.035	2058.67
196.11	2054.06
196.185	2068.51
196.261	2070.37
196.336	2101.52
196.411	2084.3
196.486	2089.43
196.561	2084.2
196.637	2094.38
196.712	2107.37
196.787	2112.98
196.862	2129.15
196.937	2137.81
197.013	2145.76
197.088	2155.89
197.163	2174.88
197.238	2189.16
197.313	2191.87
197.388	2203.86
197.464	2232.13
197.539	2243.74
197.614	2235.51
197.689	2249.4
197.764	2260.44
197.839	2278.43
197.914	2273.38
197.989	2296.03
198.065	2309.26
198.14	2356.93
198.215	2376.68
198.29	2387.2
198.365	2399.1
198.44	2409.48
198.515	2437.19
198.59	2446.28
198.665	2470.51
198.74	2477.61
198.815	2481.08
198.89	2500.6
198.965	2528.8
199.04	2523.66
199.115	2540.89
199.19	2583.27
199.265	2584.03
199.34	2595.27
199.415	2629.1
199.49	2647.48
199.565	2654.19
199.64	2676.96
199.715	2676.39
199.79	2686.87
199.865	2693.11
199.94	2690.68
200.015	2721.27
200.09	2725.23
200.165	2733.8
200.24	2742
200.315	2776.95
200.39	2795.72
200.464	2802.82
200.539	2806.54
200.614	2821.17
200.689	2843.95
200.764	2849.95
200.839	2865.67
200.914	2869.1
200.989	2861.19
201.063	2875.72
201.138	2861.68
201.213	2864.39
201.288	2844.76
201.363	2850.14
201.438	2851.34
201.512	2865.82
201.587	2845.13
201.662	2850.18
201.737	2862.81
201.812	2870.3
201.886	2838.01
201.961	2844.93
202.036	2834.69
202.111	2829.01
202.186	2803.2
202.26	2780.9
202.335	2762.79
202.41	2755.59
202.485	2741.49
202.559	2720.15
202.634	2692.66
202.709	2701.09
202.784	2679.46
202.858	2682.22
202.933	2663.88
203.008	2657.5
203.082	2638.54
203.157	2641.3
203.232	2599.45
203.306	2578.25
203.381	2547.85
203.456	2529.38
203.53	2504.21
203.605	2485.03
203.68	2463.69
203.754	2458.5
203.829	2450.02
203.904	2428.93
203.978	2420.74
204.053	2427.22
204.127	2415.51
204.202	2415.46
204.277	2400.18
204.351	2394.42
204.426	2387.56
204.5	2379.42
204.575	2344.92
204.65	2358.88
204.724	2347.92
204.799	2359.2
204.873	2355.58
204.948	2350.87
205.022	2341.64
205.097	2334.68
205.171	2349.72
205.246	2359.58
205.32	2361.15
205.395	2358.24
205.469	2350.35
205.544	2354.97
205.618	2333.59
205.693	2346.54
205.767	2334.45
205.842	2354.69
205.916	2349.4
205.991	2337.6
206.065	2343.12
206.14	2361.05
206.214	2354.24
206.289	2351.15
206.363	2357.33
206.438	2360.62
206.512	2370.09
206.586	2387.03
206.661	2396.23
206.735	2373.05
206.81	2368.96
206.884	2382.62
206.958	2370.06
207.033	2384
207.107	2390.43
207.181	2423.42
207.256	2415.66
207.33	2434.85
207.405	2446.9
207.479	2461.28
207.553	2470.37
207.628	2455.05
207.702	2465.62
207.776	2460.28
207.851	2461.28
207.925	2478.86
207.999	2476.43
208.073	2472.57
208.148	2475.76
208.222	2463.71
208.296	2493.51
208.371	2510.85
208.445	2517.71
208.519	2546.27
208.593	2562.41
208.668	2561.22
208.742	2562.22
208.816	2567.08
208.89	2580.61
208.965	2577.89
209.039	2588.47
209.113	2602.47
209.187	2626.6
209.261	2625.89
209.336	2645.65
209.41	2665.71
209.484	2665.95
209.558	2691.25
209.632	2712.01
209.707	2727.17
209.781	2750.32
209.855	2769.95
209.929	2792.18
210.003	2802.99
210.077	2803.9
210.151	2851.03
210.226	2891.03
210.3	2924.14
210.374	2950.49
210.448	2959.78
210.522	2976.23
210.596	2994.54
210.67	3015.8
210.744	3065.69
210.818	3102.82
210.892	3130.43
210.966	3139.2
211.041	3168.91
211.115	3175.97
211.189	3211.89
211.263	3242.33
211.337	3262.4
211.411	3293.04
211.485	3305.59
211.559	3336.98
211.633	3364.3
211.707	3355.71
211.781	3379.69
211.855	3371.14
211.929	3393.23
212.003	3406.49
212.077	3445.79
212.151	3491.39
212.225	3533.27
212.299	3556.44
212.373	3582.17
212.447	3618.72
212.52	3684.77
212.594	3728.2
212.668	3780.98
212.742	3807.83
212.816	3845.34
212.89	3889.19
212.964	3933.41
213.038	3981.5
213.112	4043.94
213.186	4106.69
213.26	4143
213.333	4157.82
213.407	4218.13
213.481	4278.22
213.555	4348.53
213.629	4399.63
213.703	4443.18
213.777	4502
213.85	4547.79
213.924	4651.12
213.998	4718.2
214.072	4784.35
214.146	4845.88
214.219	4921.94
214.293	4991.42
214.367	5072.37
214.441	5160.57
214.515	5224.34
214.588	5279.78
214.662	5325.92
214.736	5388.4
214.81	5474.68
214.883	5573.3
214.957	5648.54
215.031	5719.1
215.105	5780.83
215.178	5857.05
215.252	5935.76
215.326	6002.87
215.4	6076.11
215.473	6115.48
215.547	6185.03
215.621	6256.38
215.694	6345.01
215.768	6403.72
215.842	6482.6
215.915	6552.62
215.989	6613.71
216.063	6694.79
216.136	6787.38
216.21	6885.46
216.284	6990.88
216.357	7081.73
216.431	7162.51
216.504	7256.7
216.578	7367.24
216.652	7471.95
216.725	7558.54
216.799	7661.73
216.873	7752.07
216.946	7855.88
217.02	7944.74
217.093	8032.42
217.167	8103.71
217.24	8180.35
217.314	8272.12
217.387	8351.25
217.461	8438.82
217.535	8540.69
217.608	8620.18
217.682	8705.03
217.755	8794.89
217.829	8875.19
217.902	8967.99
217.976	9054.31
218.049	9130.66
218.123	9206.44
218.196	9294.12
218.27	9381.13
218.343	9449.08
218.417	9536.49
218.49	9616.67
218.563	9711.31
218.637	9799.06
218.71	9902.09
218.784	9997.18
218.857	10086.82
218.931	10183.39
219.004	10266.74
219.077	10349.99
219.151	10441.57
219.224	10523.91
219.298	10607.16
219.371	10698.52
219.444	10765.69
219.518	10851.08
219.591	10940.22
219.665	11049.81
219.738	11137.13
219.811	11201.07
219.885	11288.93
219.958	11374.71
220.031	11442.91
220.105	11523.87
220.178	11606.97
220.251	11674.54
220.325	11749.39
220.398	11831.52
220.471	11909.41
220.544	11995.11
220.618	12062.5
220.691	12142.27
220.764	12215.73
220.838	12290.78
220.911	12353.88
220.984	12441.41
221.057	12517.05
221.131	12593.11
221.204	12629.51
221.277	12713.29
221.35	12823.72
221.424	12888.7
221.497	12955.81
221.57	13032.84
221.643	13107.65
221.716	13180.35
221.79	13243.6
221.863	13303.66
221.936	13361.51
222.009	13425.19
222.082	13492.63
222.155	13558.58
222.229	13624.47
222.302	13690.95
222.375	13755.02
222.448	13826.89
222.521	13889.8
222.594	13948.52
222.667	14000.39
222.74	14074.38
222.814	14125.77
222.887	14166.26
222.96	14229.6
223.033	14301.62
223.106	14361.35
223.179	14416.88
223.252	14466.1
223.325	14522.35
223.398	14578.61
223.471	14638.96
223.544	14689.53
223.617	14737.35
223.69	14791.82
223.763	14833.32
223.837	14893.34
223.91	14944.48
223.983	14972.73
224.056	15002.61
224.129	15049.81
224.202	15099.84
224.275	15131.9
224.348	15158.12
224.42	15198.56
224.493	15226.66
224.566	15255.2
224.639	15299.83
224.712	15333.33
224.785	15370.79
224.858	15411.03
224.931	15448.44
225.004	15476.15
225.077	15518.28
225.15	15529.13
225.223	15557.95
225.296	15615.5
225.369	15638.45
225.442	15661.29
225.514	15699.23
225.587	15745.36
225.66	15786.08
225.733	15827.39
225.806	15872.07
225.879	15912.8
225.952	15925.43
226.025	15979.85
226.097	16026.5
226.17	16051.95
226.243	16066.17
226.316	16102.7
226.389	16134.37
226.461	16169.75
226.534	16208.31
226.607	16237.66
226.68	16297.42
226.753	16332.37
226.825	16350.2
226.898	16387.46
226.971	16412.13
227.044	16438.45
227.117	16470.98
227.189	16504.48
227.262	16541.4
227.335	16567.47
227.407	16590.12
227.48	16622.03
227.553	16642.66
227.626	16661.6
227.698	16688.93
227.771	16725.51
227.844	16738.86
227.916	16767.39
227.989	16783.63
228.062	16804.16
228.134	16848.12
228.207	16864.16
228.28	16879.49
228.352	16889.27
228.425	16912.79
228.498	16948.89
228.57	16967.69
228.643	17000.56
228.716	17020.89
228.788	17026.34
228.861	17047.5
228.934	17069.04
229.006	17106.97
229.079	17123.26
229.151	17134.29
229.224	17134.58
229.296	17155.64
229.369	17198.97
229.442	17233.09
229.514	17239.16
229.587	17273.86
229.659	17271.89
229.732	17293.43
229.804	17328.42
229.877	17374.44
229.949	17401.53
230.022	17438.92
230.094	17456.37
230.167	17464.03
230.239	17464.9
230.312	17486.63
230.384	17517.33
230.457	17544.13
230.529	17553.19
230.602	17572.42
230.674	17591.69
230.747	17637.86
230.819	17658.1
230.892	17636.51
230.964	17650.58
231.037	17675.07
231.109	17679.69
231.181	17706.2
231.254	17710.54
231.326	17717.72
231.399	17716.37
231.471	17716.42
231.544	17700.9
231.616	17725.81
231.688	17738.39
231.761	17741.48
231.833	17746.92
231.905	17731.93
231.978	17739.79
232.05	17749.57
232.122	17761.38
232.195	17757.91
232.267	17760.99
232.339	17762.54
232.412	17788.46
232.484	17784.17
232.556	17774.1
232.629	17800.99
232.701	17791.59
232.773	17791.74
232.846	17787.88
232.918	17795.98
232.99	17804.99
233.062	17815.93
233.135	17815.83
233.207	17804.22
233.279	17815.74
233.351	17810.44
233.424	17811.26
233.496	17803.45
233.568	17811.55
233.64	17789.76
233.713	17796.75
233.785	17785.52
233.857	17789.57
233.929	17764.12
234.001	17775.84
234.074	17799.3
234.146	17768.9
234.218	17772.41
234.29	17769.57
234.362	17753.81
234.434	17732.56
234.507	17706.44
234.579	17683.02
234.651	17675.16
234.723	17685.76
234.795	17685.76
234.867	17687.98
234.939	17696.8
235.012	17690.39
235.084	17689.33
235.156	17697.62
235.228	17682.78
235.3	17674.2
235.372	17662.34
235.444	17680.13
235.516	17644.22
235.588	17630.73
235.66	17626.49
235.732	17609.43
235.804	17644.56
235.876	17647.89
235.948	17655.89
236.02	17648.37
236.092	17641.57
236.164	17624.71
236.236	17598.01
236.308	17580.51
236.38	17568.22
236.452	17544.47
236.524	17527.6
236.596	17523.69
236.668	17514.92
236.74	17501.04
236.812	17495.26
236.884	17491.02
236.956	17468.66
237.028	17452.37
237.1	17427.16
237.172	17424.85
237.244	17425.91
237.316	17380.85
237.388	17363.12
237.46	17332.23
237.532	17333.43
237.604	17314.54
237.675	17322.49
237.747	17319.89
237.819	17293.48
237.891	17276.71
237.963	17251.84
238.035	17230.01
238.107	17175.21
238.178	17167.6
238.25	17146.78
238.322	17147.45
238.394	17114.34
238.466	17090.39
238.538	17074.77
238.609	17058.39
238.681	17020.99
238.753	16990.63
238.825	16969.28
238.897	16955.73
238.968	16959.73
239.04	16932.65
239.112	16943.73
239.184	16904.12
239.255	16883.68
239.327	16871.35
239.399	16854.04
239.471	16843.97
239.542	16834.62
239.614	16833.32
239.686	16786.18
239.758	16774.67
239.829	16738.42
239.901	16726.33
239.973	16704.59
240.044	16699.14
240.116	16681.89
240.188	16658.22
240.259	16639.67
240.331	16618.56
240.403	16596.1
240.474	16551.81
240.546	16519.37
240.618	16474.5
240.689	16455.51
240.761	16432.91
240.833	16421.63
240.904	16388.37
240.976	16358.35
241.048	16335.45
241.119	16318.97
241.191	16301.91
241.262	16302.53
241.334	16281.71
241.405	16254.05
241.477	16231.64
241.549	16198.57
241.62	16178.47
241.692	16166.76
241.763	16149.84
241.835	16128.11
241.906	16109.94
241.978	16076.97
242.049	16065.01
242.121	16052.87
242.192	16038.55
242.264	16003.37
242.335	15964.62
242.407	15955.17
242.478	15933.72
242.55	15916.13
242.621	15885.67
242.693	15857.52
242.764	15819.49
242.836	15797.61
242.907	15782.71
242.979	15770.28
243.05	15755.43
243.122	15740.15
243.193	15708.58
243.264	15664.77
243.336	15627.94
243.407	15608.85
243.479	15605.53
243.55	15587.64
243.622	15552.65
243.693	15518.33
243.764	15505.7
243.836	15471.91
243.907	15438.03
243.978	15410.46
244.05	15388.04
244.121	15342.78
244.192	15330.54
244.264	15289.28
244.335	15265.42
244.407	15221.55
244.478	15191.57
244.549	15155.47
244.62	15112.18
244.692	15087.21
244.763	15072.9
244.834	15049.47
244.906	15011.97
244.977	14991.53
245.048	14981.79
245.119	14955.52
245.191	14927.13
245.262	14878.44
245.333	14874.97
245.405	14851.45
245.476	14834.24
245.547	14806.91
245.618	14794.42
245.689	14772.73
245.761	14753.98
245.832	14714.31
245.903	14705.54
245.974	14685.87
246.045	14657.04
246.117	14646.92
246.188	14608.64
246.259	14573.36
246.33	14550.12
246.401	14526.84
246.473	14486.4
246.544	14451.59
246.615	14438
246.686	14406.04
246.757	14395.87
246.828	14349.16
246.899	14343.32
246.97	14300.28
247.042	14267.35
247.113	14248.84
247.184	14242.53
247.255	14212.78
247.326	14195.43
247.397	14168.82
247.468	14147.95
247.539	14126.16
247.61	14086.39
247.681	14071.83
247.752	14064.5
247.823	14025.41
247.894	14005.74
247.965	13964.76
248.037	13935.41
248.108	13891.87
248.179	13873.12
248.25	13850.56
248.321	13845.36
248.392	13801.78
248.463	13798.4
248.534	13773.77
248.605	13758.92
248.675	13719.34
248.746	13697.94
248.817	13675.81
248.888	13646.89
248.959	13602.78
249.03	13588.75
249.101	13562.19
249.172	13539.53
249.243	13495.09
249.314	13493.83
249.385	13468.57
249.456	13464.04
249.527	13432.8
249.598	13416.8
249.669	13393.42
249.739	13373.37
249.81	13353.55
249.881	13323.86
249.952	13304.19
250.023	13286.79
250.094	13251.74
250.165	13224.79
250.235	13198.47
250.306	13176.88
250.377	13143.85
250.448	13131.61
250.519	13090.88
250.59	13093.24
250.66	13062.34
250.731	13050.62
250.802	13023.92
250.873	13001.74
250.944	12971.81
251.014	12948.96
251.085	12956.04
251.156	12940.71
251.227	12936.09
251.297	12918.68
251.368	12909.33
251.439	12892.65
251.51	12875.39
251.58	12845.12
251.651	12823.19
251.722	12820.58
251.792	12791.47
251.863	12775.75
251.934	12765.68
252.005	12776.81
252.075	12753.96
252.146	12753.34
252.217	12744.81
252.287	12738.59
252.358	12720.46
252.429	12722.87
252.499	12698.34
252.57	12681.18
252.641	12667.82
252.711	12642.9
252.782	12611.28
252.852	12604.82
252.923	12583.46
252.994	12570.35
253.064	12559.02
253.135	12531.45
253.205	12500.89
253.276	12497.27
253.347	12493.51
253.417	12469.41
253.488	12437.55
253.558	12415.42
253.629	12386.21
253.699	12370.64
253.77	12355.46
253.841	12332.18
253.911	12314.05
253.982	12301.33
254.052	12276.16
254.123	12257.36
254.193	12238.85
254.264	12256.16
254.334	12223.24
254.405	12187.57
254.475	12164.67
254.546	12146.11
254.616	12134.01
254.687	12121.91
254.757	12110.44
254.827	12088.85
254.898	12069.28
254.968	12053.18
255.039	12022.23
255.109	12009.85
255.18	11981.41
255.25	11943.86
255.321	11928.97
255.391	11896.38
255.461	11894.26
255.532	11857.19
255.602	11837.87
255.673	11803.84
255.743	11781.47
255.813	11746.77
255.884	11747.15
255.954	11724.11
256.024	11725.46
256.095	11710.91
256.165	11681.17
256.235	11660.49
256.306	11634.32
256.376	11630.99
256.446	11625.84
256.517	11614.37
256.587	11615.62
256.657	11600.15
256.728	11577.98
256.798	11562.51
256.868	11545.35
256.938	11517.15
257.009	11510.5
257.079	11500.14
257.149	11503.51
257.219	11461.68
257.29	11451.85
257.36	11418.26
257.43	11418.59
257.5	11382.4
257.571	11366.83
257.641	11358.78
257.711	11325.33
257.781	11320.03
257.852	11304.71
257.922	11261.38
257.992	11250.68
258.062	11225.62
258.132	11220.9
258.202	11208.56
258.273	11200.9
258.343	11203.11
258.413	11186.58
258.483	11166.49
258.553	11138.58
258.623	11114.05
258.693	11101.33
258.764	11098.63
258.834	11095.45
258.904	11079.26
258.974	11053
259.044	11031.31
259.114	11017.05
259.184	11012.28
259.254	10987.41
259.324	10947.85
259.394	10940.14
259.464	10936.96
259.535	10916.43
259.605	10892.77
259.675	10871.03
259.745	10856.05
259.815	10828.05
259.885	10804.15
259.955	10816.15
260.025	10794.32
260.095	10779.82
260.165	10764.16
260.235	10768.59
260.305	10742.57
260.375	10711.73
260.445	10720.02
260.515	10716.69
260.585	10715.39
260.655	10699.83
260.725	10696.65
260.795	10696.65
260.865	10703.59
260.934	10673.33
261.004	10667.69
261.074	10654.39
261.144	10653.71
261.214	10648.27
261.284	10627.5
261.354	10626.49
261.424	10606.83
261.494	10609.05
261.564	10584.42
261.634	10581.92
261.703	10545.4
261.773	10536.53
261.843	10529.98
261.913	10513.5
261.983	10490.76
262.053	10477.7
262.123	10463.3
262.192	10435.02
262.262	10428.41
262.332	10393.05
262.402	10388.95
262.472	10370.45
262.541	10331
262.611	10329.46
262.681	10301.9
262.751	10295.2
262.821	10275.11
262.89	10240.76
262.96	10231.61
263.03	10247.6
263.1	10232.95
263.169	10220.86
263.239	10215.37
263.309	10219.71
263.379	10209.06
263.448	10192.35
263.518	10187.58
263.588	10173.22
263.657	10178.08
263.727	10173.8
263.797	10162.33
263.867	10146
263.936	10124.85
264.006	10131.36
264.076	10106.45
264.145	10090.51
264.215	10073.94
264.285	10066.28
264.354	10039.78
264.424	10022.97
264.494	9989.35
264.563	9971.33
264.633	9976.97
264.702	9969.84
264.772	9934
264.842	9919.98
264.911	9912.71
264.981	9879.9
265.05	9863.62
265.12	9847.29
265.19	9829.76
265.259	9827.4
265.329	9821.47
265.398	9807.65
265.468	9821.57
265.537	9808.95
265.607	9803.51
265.676	9798.98
265.746	9786.75
265.815	9784.53
265.885	9767.96
265.955	9741.23
266.024	9726.54
266.094	9688.06
266.163	9687.29
266.232	9689.46
266.302	9674.58
266.371	9665.09
266.441	9663.02
266.51	9659.12
266.58	9645.87
266.649	9628.82
266.719	9626.08
266.788	9611.58
266.858	9616.54
266.927	9581.43
266.996	9571.03
267.066	9565.1
267.135	9538.52
267.205	9535.3
267.274	9525.42
267.343	9518.59
267.413	9522.05
267.482	9524.17
267.552	9527.59
267.621	9494.31
267.69	9466.14
267.76	9453.24
267.829	9443.36
267.898	9424.87
267.968	9403.06
268.037	9398.2
268.106	9391.36
268.176	9369.11
268.245	9362.22
268.314	9344.36
268.384	9338.05
268.453	9323.65
268.522	9314.65
268.592	9319.65
268.661	9301.64
268.73	9301.4
268.799	9281.66
268.869	9277.81
268.938	9245.36
269.007	9231.54
269.076	9223.35
269.146	9224.03
269.215	9215.36
269.284	9219.5
269.353	9205.93
269.422	9196.39
269.492	9174.44
269.561	9138.67
269.63	9129.28
269.699	9113.58
269.768	9106.22
269.838	9102.32
269.907	9104.97
269.976	9078.82
270.045	9049.7
270.114	9046.62
270.183	9030.01
270.253	9028.9
270.322	9000.3
270.391	8996.4
270.46	9003.34
270.529	9005.79
270.598	9004.25
270.667	8991.06
270.736	8968.91
270.806	8965.3
270.875	8972
270.944	8963.76
271.013	8986.58
271.082	8980.18
271.151	8975.08
271.22	8950.29
271.289	8940.66
271.358	8924.53
271.427	8921.88
271.496	8917.12
271.565	8901.09
271.634	8891.13
271.703	8915.39
271.772	8919.39
271.841	8905.04
271.91	8874
271.979	8869.47
272.048	8848.24
272.117	8849.49
272.186	8835.05
272.255	8832.79
272.324	8827.21
272.393	8828.51
272.462	8813.2
272.531	8808.67
272.6	8798.85
272.669	8809.73
272.738	8790.91
272.807	8789.61
272.876	8771.76
272.945	8799.82
273.013	8805.74
273.082	8810.6
273.151	8765.59
273.22	8760.25
273.289	8751.1
273.358	8759.86
273.427	8738.93
273.496	8737.38
273.564	8733.63
273.633	8738.88
273.702	8722.32
273.771	8709.37
273.84	8698.88
273.909	8692.14
273.977	8685.45
274.046	8675.39
274.115	8670.72
274.184	8661.05
274.253	8654.65
274.322	8657.59
274.39	8625.14
274.459	8610.32
274.528	8581.2
274.597	8573.12
274.665	8573.31
274.734	8588.9
274.803	8583.71
274.872	8580.39
274.94	8560.61
275.009	8610.92
275.078	8595.57
275.147	8595.28
275.215	8588.21
275.284	8600.1
275.353	8594.22
275.421	8567.13
275.49	8582.05
275.559	8572.91
275.627	8565.64
275.696	8561.46
275.765	8566.46
275.833	8555.06
275.902	8556.36
275.971	8563.38
276.039	8582.06
276.108	8582.34
276.177	8575.27
276.245	8563.72
276.314	8554.77
276.383	8569.4
276.451	8513.88
276.52	8514.7
276.588	8520.48
276.657	8525.92
276.725	8511.24
276.794	8507.63
276.863	8524.18
276.931	8495.45
277	8496.99
277.068	8501.99
277.137	8514.7
277.205	8509.36
277.274	8523.12
277.342	8528.46
277.411	8511.81
277.48	8493.91
277.548	8478.46
277.617	8478.46
277.685	8472.35
277.754	8475.14
277.822	8464.8
277.89	8473.61
277.959	8470.48
278.027	8450.61
278.096	8437.85
278.164	8461.68
278.233	8458.12
278.301	8451.38
278.37	8462.93
278.438	8457.49
278.507	8472.84
278.575	8446.9
278.643	8444.59
278.712	8430.49
278.78	8421.01
278.849	8434.05
278.917	8448.39
278.985	8452.77
279.054	8452.14
279.122	8457.82
279.191	8464.27
279.259	8465.52
279.327	8444.49
279.396	8457.29
279.464	8459.79
279.532	8463.59
279.601	8458.68
279.669	8454.02
279.737	8461.86
279.806	8461.76
279.874	8466.91
279.942	8454.79
280.011	8450.07
280.079	8462.68
280.147	8478.51
280.215	8483.61
280.284	8479.33
280.352	8463.55
280.42	8463.64
280.488	8455.22
280.557	8452.48
280.625	8457.63
280.693	8457.1
280.761	8462.73
280.83	8446.22
280.898	8449.3
280.966	8436.07
281.034	8403.2
281.102	8388.39
281.171	8380.98
281.239	8394.11
281.307	8385.6
281.375	8379
281.443	8402.25
281.512	8392.77
281.58	8397.67
281.648	8378.28
281.716	8377.66
281.784	8380.02
281.852	8379.63
281.92	8380.21
281.989	8391.9
282.057	8372.08
282.125	8394.02
282.193	8393.06
282.261	8393.11
282.329	8390.7
282.397	8393.93
282.465	8395.8
282.533	8405.86
282.601	8398.11
282.67	8371.93
282.738	8360.82
282.806	8374.72
282.874	8362.36
282.942	8361.06
283.01	8354.7
283.078	8359.18
283.146	8361.01
283.214	8371.74
283.282	8368.42
283.35	8381.07
283.418	8370.25
283.486	8375.39
283.554	8353.79
283.622	8348.49
283.69	8348.16
283.758	8345.94
283.826	8352.49
283.894	8365.48
283.962	8390.12
284.03	8403.83
284.098	8407.82
284.165	8409.31
284.233	8407.2
284.301	8398.73
284.369	8393.58
284.437	8383.33
284.505	8376.4
284.573	8383.57
284.641	8369.95
284.709	8376.4
284.777	8358.98
284.845	8366.54
284.912	8370.39
284.98	8372.6
285.048	8368.7
285.116	8370.1
285.184	8382.22
285.252	8383.95
285.319	8366.01
285.387	8357.39
285.455	8341.61
285.523	8344.31
285.591	8340.27
285.659	8337.28
285.726	8355.18
285.794	8345.56
285.862	8339.4
285.93	8343.49
285.997	8338.44
286.065	8332.91
286.133	8329.83
286.201	8324.05
286.269	8312.94
286.336	8303.41
286.404	8296.82
286.472	8310
286.539	8292.88
286.607	8277.87
286.675	8276.81
286.743	8289.03
286.81	8276.71
286.878	8289.12
286.946	8284.21
287.013	8283.64
287.081	8281.71
287.149	8265.93
287.216	8280.17
287.284	8282.48
287.352	8277.52
287.419	8272.42
287.487	8284.74
287.555	8282.48
287.622	8281.62
287.69	8285.99
287.758	8296.05
287.825	8292.44
287.893	8272.57
287.96	8279.01
288.028	8285.41
288.096	8285.46
288.163	8284.45
288.231	8278.82
288.298	8275.21
288.366	8285.32
288.433	8282.1
288.501	8269.59
288.569	8273.63
288.636	8272.62
288.704	8281.09
288.771	8292.2
288.839	8288.25
288.906	8280.27
288.974	8288.16
289.041	8286.19
289.109	8276.08
289.176	8291.92
289.244	8294.42
289.311	8310.63
289.379	8327.57
289.446	8335.41
289.514	8334.59
289.581	8332.72
289.649	8334.21
289.716	8336.61
289.783	8328.43
289.851	8353.64
289.918	8358.17
289.986	8364.42
290.053	8363.31
290.121	8362.59
290.188	8362.55
290.255	8389.54
290.323	8388.96
290.39	8387.71
290.458	8394.69
290.525	8411.19
290.592	8396.13
290.66	8396.75
290.727	8393.96
290.794	8402.38
290.862	8398.53
290.929	8404.6
290.996	8407.58
291.064	8421.63
291.131	8434.96
291.198	8445.06
291.266	8435.34
291.333	8434.33
291.4	8436.26
291.468	8451.37
291.535	8448.43
291.602	8456.76
291.669	8453.44
291.737	8453.58
291.804	8454.83
291.871	8466.24
291.938	8473.84
292.006	8501.66
292.073	8518.41
292.14	8534.24
292.207	8525.38
292.275	8522.88
292.342	8523.8
292.409	8549.21
292.476	8568.46
292.543	8557.15
292.611	8558.07
292.678	8579.63
292.745	8608.06
292.812	8615.38
292.879	8604.12
292.946	8610.85
293.014	8621.2
293.081	8625.82
293.148	8641.89
293.215	8656.86
293.282	8659.51
293.349	8663.55
293.416	8645.12
293.484	8655.13
293.551	8662.45
293.618	8678.66
293.685	8704.41
293.752	8703.93
293.819	8698.25
293.886	8681.98
293.953	8689.06
294.02	8704.6
294.087	8705.9
294.154	8699.31
294.221	8714.18
294.288	8721.59
294.356	8739.11
294.423	8744.7
294.49	8732.13
294.557	8743.64
294.624	8725.16
294.691	8742.24
294.758	8740.46
294.825	8747.06
294.892	8739.16
294.959	8739.07
295.026	8743.3
295.093	8737.04
295.16	8737.38
295.226	8737.04
295.293	8757.5
295.36	8760.87
295.427	8768.19
295.494	8783.06
295.561	8787.68
295.628	8808.43
295.695	8825.52
295.762	8827.83
295.829	8835.92
295.896	8859.65
295.963	8863.6
296.03	8884.87
296.096	8886.27
296.163	8894.01
296.23	8909.18
296.297	8920.3
296.364	8914.91
296.431	8926.46
296.498	8925.88
296.564	8951.92
296.631	8956.16
296.698	8950.24
296.765	8970.93
296.832	8965.01
296.899	8947.88
296.965	8964.92
297.032	8946.52
297.099	8958.66
297.166	8966.36
297.233	8961.4
297.299	8950.67
297.366	8952.83
297.433	8950.04
297.5	8964.68
297.566	8971.18
297.633	8973.29
297.7	8973.34
297.767	8972.81
297.833	8968.43
297.9	8966.27
297.967	8946
298.033	8955.24
298.1	8979.61
298.167	8973.88
298.234	8976.91
298.3	8994.87
298.367	8993.66
298.434	9001.94
298.5	8993.32
298.567	8989.28
298.634	8986.49
298.7	8999.87
298.767	9005.07
298.834	9023.65
298.9	9014.7
298.967	9008.73
299.033	9010.17
299.1	9030.2
299.167	9041.66
299.233	9040.02
299.3	9055.71
299.366	9073.28
299.433	9088.16
299.5	9061.83
299.566	9063.8
299.633	9077.13
299.699	9079.06
299.766	9071.41
299.832	9066.3
299.899	9070.54
299.965	9084.98
300.032	9089.12
300.099	9096.63
300.165	9102.41
300.232	9087.01
300.298	9087.15
300.365	9101.88
300.431	9105.3
300.498	9089.94
300.564	9095.53
300.631	9104.48
300.697	9112.86
300.763	9112.14
300.83	9112.23
300.896	9123.54
300.963	9134.28
301.029	9134.28
301.096	9137.27
301.162	9149.59
301.229	9153.78
301.295	9144.1
301.361	9139.14
301.428	9137.41
301.494	9119.07
301.561	9116.52
301.627	9123.64
301.693	9122.97
301.76	9122.29
301.826	9115.07
301.892	9125.86
301.959	9137.08
302.025	9135.97
302.092	9125.33
302.158	9130.82
302.224	9126.96
302.291	9116.57
302.357	9111.03
302.423	9102.56
302.49	9094.47
302.556	9106.02
302.622	9100.73
302.688	9109.58
302.755	9121.57
302.821	9123.36
302.887	9136.02
302.954	9133.7
303.02	9136.4
303.086	9140.88
303.152	9133.75
303.219	9139
303.285	9146.7
303.351	9147.96
303.417	9143.67
303.483	9141.02
303.55	9131.64
303.616	9125.76
303.682	9132.21
303.748	9124.7
303.815	9142.95
303.881	9150.9
303.947	9137.12
304.013	9139.15
304.079	9128.6
304.145	9108.86
304.212	9114.35
304.278	9103.71
304.344	9100.63
304.41	9093.94
304.476	9080.22
304.542	9081.47
304.608	9074.54
304.674	9049.79
304.741	9042.47
304.807	9045.51
304.873	9050.37
304.939	9065.34
305.005	9048.2
305.071	9039.2
305.137	9040.74
305.203	9011.23
305.269	9007.09
305.335	9013.97
305.401	9011.66
305.467	9009.16
305.533	9012.72
305.599	9012.14
305.666	9018.98
305.732	9016.57
305.798	9023.31
305.864	9047.77
305.93	9049.69
305.996	9052.15
306.062	9057.44
306.128	9050.85
306.194	9034.87
306.259	9032.51
306.325	9025.72
306.391	9037.85
306.457	9039.78
306.523	9043.39
306.589	9071.02
306.655	9064.91
306.721	9047.14
306.787	9031.06
306.853	9048.2
306.919	9032.08
306.985	9022.93
307.051	9019.51
307.117	9014.6
307.183	9007.62
307.248	8981.14
307.314	8982.83
307.38	8980.76
307.446	8978.11
307.512	8968.14
307.578	8972.96
307.644	8961.98
307.709	8962.94
307.775	8958.08
307.841	8957.41
307.907	8948.02
307.973	8925.1
308.039	8920.82
308.104	8921.01
308.17	8923.18
308.236	8902.62
308.302	8907.82
308.368	8899.49
308.433	8896.03
308.499	8886.79
308.565	8874.94
308.631	8881.11
308.696	8851.69
308.762	8834.75
308.828	8834.61
308.894	8812.61
308.959	8790.23
309.025	8784.26
309.091	8775.84
309.156	8759.14
309.222	8763.81
309.288	8751.44
309.354	8731.27
309.419	8729.2
309.485	8720.1
309.551	8723.38
309.616	8712.21
309.682	8704.36
309.748	8697.39
309.813	8687.13
309.879	8677.75
309.945	8670.05
310.01	8660.09
310.076	8669.57
310.141	8674.76
310.207	8665.28
310.273	8670.24
310.338	8675.1
310.404	8659.51
310.469	8647.09
310.535	8645.45
310.601	8624.23
310.666	8632.26
310.732	8641.5
310.797	8629.04
310.863	8615.8
310.928	8606.71
310.994	8609.07
311.059	8610.08
311.125	8607.04
311.191	8618.74
311.256	8609.89
311.322	8609.45
311.387	8586.5
311.453	8787.17
311.518	8758.11
311.584	8749.01
311.649	8751.32
311.715	8741.22
311.78	8742.81
311.846	8725.1
311.911	8723.89
311.976	8719.37
312.042	8698.39
312.107	8678.27
312.173	8666.2
312.238	8665.96
312.304	8660.66
312.369	8651.13
312.434	8631.4
312.5	8624.23
312.565	8588.34
312.631	8588.53
312.696	8578.81
312.761	8580.68
312.827	8365.14
312.892	8396.76
312.958	8397.33
313.023	8395.46
313.088	8387.95
313.154	8375.06
313.219	8374.86
313.284	8366.54
313.35	8359.85
313.415	8352.83
313.48	8348.55
313.546	8351.24
313.611	8355.04
313.676	8343.3
313.741	8331.99
313.807	8338.25
313.872	8340.32
313.937	8345.85
314.003	8356.68
314.068	8355.38
314.133	8361.25
314.198	8343.64
314.264	8325.3
314.329	8309.38
314.394	8297.83
314.459	8299.99
314.525	8318.85
314.59	8307.93
314.655	8299.18
314.72	8311.49
314.785	8313.56
314.851	8310.34
314.916	8293.79
314.981	8269.88
315.046	8259.1
315.111	8245.73
315.176	8236.01
315.242	8232.45
315.307	8238.32
315.372	8214.89
315.437	8207.86
315.502	8197.52
315.567	8214.26
315.632	8195.79
315.698	8192.81
315.763	8186.89
315.828	8175.15
315.893	8166.68
315.958	8163.27
316.023	8149.8
316.088	8127.14
316.153	8102.56
316.218	8096.83
316.283	8077.74
316.348	8065.86
316.413	8061.24
316.479	8056.53
316.544	8022.63
316.609	7998.38
316.674	7960.77
316.739	7930.86
316.804	7897.87
316.869	7862.52
316.934	7828.76
316.999	7803.51
317.064	7762.88
317.129	7728.11
317.194	7696.71
317.259	7648.86
317.324	7600.79
317.389	7559.01
317.454	7521.51
317.518	7491.08
317.583	7462.38
317.648	7440.84
317.713	7409.98
317.778	7360.56
317.843	7331.53
317.908	7297.46
317.973	7260.35
318.038	7231.03
318.103	7191.87
318.168	7165.44
318.233	7139.54
318.297	7086.2
318.362	7050.55
318.427	7009.71
318.492	6985.25
318.557	6939.62
318.622	6916.08
318.687	6901
318.751	6870.4
318.816	6839.94
318.881	6808.29
318.946	6761.55
319.011	6723.08
319.075	6688.59
319.14	6655.22
319.205	6611.56
319.27	6583.24
319.335	6540.98
319.399	6504.3
319.464	6486.2
319.529	6435.03
319.594	6398.44
319.658	6375.54
319.723	6338.68
319.788	6317.7
319.853	6264.56
319.917	6243.4
319.982	6193.44
320.047	6152.55
320.112	6127.5
320.176	6078.17
320.241	6049.43
320.306	6016.04
320.37	5978.81
320.435	5948.39
320.5	5925.21
320.564	5890.05
320.629	5850.54
320.694	5820.85
320.758	5785.07
320.823	5742.48
320.888	5718.99
320.952	5675.83
321.017	5638.67
321.082	5597.44
321.146	5566.61
321.211	5534.78
321.275	5494.76
321.34	5455.08
321.405	5417.41
321.469	5372.83
321.534	5337.81
321.598	5285.2
321.663	5258.6
321.727	5228.03
321.792	5180.5
321.857	5134.5
321.921	5093.97
321.986	5054.03
322.05	5001.55
322.115	4966.3
322.179	4922.73
322.244	4868.44
322.308	4832.48
322.373	4789.25
322.437	4755.26
322.502	4726.62
322.566	4687.27
322.631	4653.43
322.695	4617.5
322.76	4580.6
322.824	4548.92
322.889	4513.61
322.953	4475.59
323.018	4416.31
323.082	4353.61
323.146	4306.56
323.211	4256.35
323.275	4219.43
323.34	4180.04
323.404	4149.64
323.468	4107.18
323.533	4066.93
323.597	4029.33
323.662	3984.88
323.726	3952.76
323.79	3907.75
323.855	3848.23
323.919	3801.84
323.983	3757.7
324.048	3695.73
324.112	3852.55
324.177	3730.03
324.241	3534.41
324.305	3347.81
324.37	3162.7
324.434	2987.48
324.498	2949.82
324.562	2907.68
324.627	2852.6
324.691	2802.84
324.755	2742.92
324.82	2673.87
324.884	2607.56
324.948	2543.08
325.012	2460.01
325.077	2345.87
