Data from 20250625_urea_1M_1_MAYP1162681_08-05-06-051.txt Node
Date: Thu Jun 26 08:05:06 BST 2025
User: adleo
Spectrometer: MAYP116268
Trigger mode: 0
Integration Time (sec): 1.000000E0
Scans to average: 1
Electric dark correction enabled: true
Nonlinearity correction enabled: true
Boxcar width: 10
XAxis mode: Wavelengths
Number of Pixels in Spectrum: 2068
>>>>>Begin Spectral Data<<<<<
179.565	1107.42
179.642	1159.26
179.718	1197.9
179.795	1235.16
179.871	1267.05
179.948	1284.23
180.024	1304.85
180.101	1326.5
180.177	1338.26
180.254	1358.82
180.33	1380.84
180.407	1428.97
180.483	1516.29
180.56	1599.15
180.636	1677.33
180.712	1667.12
180.789	1673.63
180.865	1685.03
180.942	1697.19
181.018	1708.78
181.095	1720
181.171	1726.7
181.248	1728.26
181.324	1744.95
181.4	1752.6
181.477	1762.15
181.553	1774.79
181.63	1792.18
181.706	1807.06
181.782	1816.9
181.859	1818.7
181.935	1822.08
182.011	1818.46
182.088	1835.72
182.164	1856.02
182.24	1869.57
182.317	1878.31
182.393	1877.36
182.469	1892
182.546	1904.03
182.622	1908.07
182.698	1906.26
182.775	1916.2
182.851	1929.46
182.927	1922.38
183.003	1918.05
183.08	1911.02
183.156	1918.91
183.232	1918.1
183.308	1908.26
183.385	1914.11
183.461	1929.65
183.537	1931.13
183.613	1942.16
183.69	1931.08
183.766	1919.19
183.842	1926.18
183.918	1932.12
183.995	1942.96
184.071	1944.43
184.147	1938.35
184.223	1927.32
184.299	1940.11
184.375	1930.65
184.452	1937.55
184.528	1985.25
184.604	1994.75
184.68	2007.21
184.756	2015.2
184.832	2020.19
184.908	2023.61
184.985	2026.61
185.061	2009.83
185.137	2018.72
185.213	2008.83
185.289	2010.59
185.365	2004.93
185.441	2001.74
185.517	2014.4
185.593	2013.35
185.669	2011.73
185.745	2020.96
185.822	2037.41
185.898	2029.56
185.974	2036.74
186.05	2026.75
186.126	1992.84
186.202	1986.05
186.278	1980.86
186.354	1969.92
186.43	1972.07
186.506	1969.64
186.582	1964.17
186.658	1970.4
186.734	1950.81
186.81	1953.05
186.886	1957.42
186.962	1966.93
187.038	1962.94
187.114	1956.18
187.19	1959.65
187.266	1949.29
187.341	1950.29
187.417	1941.63
187.493	1939.78
187.569	1942.92
187.645	1938.26
187.721	1927.84
187.797	1935.88
187.873	1942.39
187.949	1939.68
188.025	1935.4
188.101	1939.16
188.176	1945.05
188.252	1941.77
188.328	1950.42
188.404	1950.57
188.48	1942.91
188.556	1935.02
188.632	1937.02
188.707	1937.06
188.783	1936.68
188.859	1932.79
188.935	1919.76
189.011	1929.27
189.086	1924.42
189.162	1918.86
189.238	1918.09
189.314	1915.48
189.39	1908.02
189.465	1902.36
189.541	1915.77
189.617	1900.27
189.693	1895.9
189.768	1903.17
189.844	1927.24
189.92	1918.97
189.996	1927.96
190.071	1941.6
190.147	1944.64
190.223	1954.54
190.298	1946.02
190.374	1933.71
190.45	1945.97
190.526	1956.58
190.601	1952.49
190.677	1955.01
190.753	1979.7
190.828	1980.08
190.904	1994.25
190.98	2008.28
191.055	2014.56
191.131	2004.85
191.207	2026.44
191.282	2033.19
191.358	2021.87
191.433	2007.98
191.509	2020.67
191.585	2017.72
191.66	2020.01
191.736	2026.52
191.811	2014.82
191.887	2030.75
191.963	2053.63
192.038	2056.81
192.114	2056.48
192.189	2058.48
192.265	2054.15
192.34	2034.22
192.416	2039.16
192.491	2034.02
192.567	2041.26
192.642	2046.06
192.718	2047.77
192.793	2036.55
192.869	2036.41
192.944	2037.17
193.02	2043.16
193.095	2045.11
193.171	2049.06
193.246	2048.1
193.322	2044.16
193.397	2043.49
193.473	2030.7
193.548	2014.24
193.624	2019.09
193.699	2017.71
193.775	2029.94
193.85	2032.6
193.925	2039.02
194.001	2032.22
194.076	2023.9
194.152	2010.67
194.227	2005.2
194.302	1997.12
194.378	2001.97
194.453	1996.08
194.529	2009.82
194.604	1996.6
194.679	1992.27
194.755	1975.02
194.83	1985.82
194.905	1982.63
194.981	1991.76
195.056	1983.87
195.131	1991.48
195.207	1992.15
195.282	1985.44
195.357	1970.13
195.433	1982.39
195.508	1972.12
195.583	1980.2
195.659	1995.85
195.734	2002.75
195.809	2002.03
195.884	2011.26
195.96	2007.31
196.035	2024.19
196.11	2019.15
196.185	2031.27
196.261	2033.94
196.336	2064.18
196.411	2050.2
196.486	2056.66
196.561	2050.24
196.637	2063.13
196.712	2075.17
196.787	2077.83
196.862	2091.53
196.937	2101.89
197.013	2109.03
197.088	2115.97
197.163	2138
197.238	2155.67
197.313	2152.57
197.388	2163.28
197.464	2190.4
197.539	2203.39
197.614	2194.07
197.689	2208.53
197.764	2224.66
197.839	2243.03
197.914	2237.37
197.989	2259.92
198.065	2273.86
198.14	2322.66
198.215	2344.41
198.29	2353.46
198.365	2366.17
198.44	2376.26
198.515	2400.2
198.59	2411.44
198.665	2439.09
198.74	2447
198.815	2447.86
198.89	2474.08
198.965	2501.18
199.04	2499.13
199.115	2516.89
199.19	2558.17
199.265	2557.17
199.34	2561.83
199.415	2597.57
199.49	2616.14
199.565	2623.09
199.64	2643.52
199.715	2644.28
199.79	2651.86
199.865	2662.15
199.94	2659.86
200.015	2689.45
200.09	2698.4
200.165	2705.45
200.24	2714.17
200.315	2753.75
200.39	2766.76
200.464	2771.28
200.539	2774.43
200.614	2790.25
200.689	2812.6
200.764	2819.61
200.839	2835.89
200.914	2841.61
200.989	2829.74
201.063	2843.22
201.138	2828.41
201.213	2832.51
201.288	2810.4
201.363	2815.12
201.438	2814.69
201.512	2828.26
201.587	2811.44
201.662	2814.21
201.737	2829.84
201.812	2839.18
201.886	2806.46
201.961	2817.91
202.036	2803.9
202.111	2800.04
202.186	2771.71
202.26	2752.45
202.335	2732.86
202.41	2727.77
202.485	2715.62
202.559	2694.76
202.634	2669.7
202.709	2679.03
202.784	2662.64
202.858	2663.79
202.933	2644.5
203.008	2640.64
203.082	2627.11
203.157	2625.68
203.232	2586.26
203.306	2564.63
203.381	2528.37
203.456	2504.47
203.53	2479.11
203.605	2465.55
203.68	2443.07
203.754	2436.74
203.829	2421.17
203.904	2401.41
203.978	2392.37
204.053	2396.56
204.127	2385.42
204.202	2383.09
204.277	2367.76
204.351	2358.34
204.426	2351.19
204.5	2344.1
204.575	2306.37
204.65	2309.22
204.724	2303.22
204.799	2311.41
204.873	2307.36
204.948	2306.41
205.022	2295.47
205.097	2290.51
205.171	2301.08
205.246	2308.6
205.32	2309.88
205.395	2309.6
205.469	2301.75
205.544	2306.8
205.618	2288.66
205.693	2302.18
205.767	2290.76
205.842	2308.28
205.916	2301.24
205.991	2293.38
206.065	2296.9
206.14	2312.45
206.214	2309.55
206.289	2301.69
206.363	2309.74
206.438	2311.36
206.512	2319.64
206.586	2338.82
206.661	2344.91
206.735	2323.88
206.81	2326.22
206.884	2340.02
206.958	2329.88
207.033	2347.53
207.107	2352.49
207.181	2382.2
207.256	2375.44
207.33	2394.43
207.405	2407.81
207.479	2426.71
207.553	2431.85
207.628	2421.48
207.702	2433.95
207.776	2430.19
207.851	2436.33
207.925	2452.09
207.999	2450.38
208.073	2446.9
208.148	2448.33
208.222	2436.09
208.296	2467.03
208.371	2482.08
208.445	2493.04
208.519	2522.98
208.593	2533.41
208.668	2532.03
208.742	2535.22
208.816	2536.74
208.89	2552.56
208.965	2550.56
209.039	2560.09
209.113	2576.42
209.187	2597.36
209.261	2596.98
209.336	2619.03
209.41	2637.23
209.484	2636.71
209.558	2660.53
209.632	2678.58
209.707	2696.96
209.781	2725.45
209.855	2741.8
209.929	2760.63
210.003	2769.73
210.077	2771.54
210.151	2824.63
210.226	2863.53
210.3	2896.07
210.374	2927.94
210.448	2939.76
210.522	2961.17
210.596	2981.39
210.67	3003.22
210.744	3063.66
210.818	3106.98
210.892	3138.51
210.966	3149.86
211.041	3185.58
211.115	3196.74
211.189	3241.58
211.263	3276.59
211.337	3301.45
211.411	3341.34
211.485	3364.31
211.559	3403.96
211.633	3438.15
211.707	3437.29
211.781	3476.85
211.855	3477.85
211.929	3506.63
212.003	3530.1
212.077	3576.77
212.151	3627.45
212.225	3676.49
212.299	3704.65
212.373	3742.19
212.447	3788.74
212.52	3868.01
212.594	3922.59
212.668	3988.91
212.742	4028.01
212.816	4082.66
212.89	4142.17
212.964	4201.58
213.038	4272.48
213.112	4353.25
213.186	4436.52
213.26	4490.46
213.333	4519.89
213.407	4603.41
213.481	4685.79
213.555	4777.99
213.629	4854.77
213.703	4925.07
213.777	5011.1
213.85	5080.03
213.924	5200.6
213.998	5289.31
214.072	5380.56
214.146	5462.67
214.219	5564.6
214.293	5663.11
214.367	5768.87
214.441	5876.45
214.515	5970.67
214.588	6045.61
214.662	6113.22
214.736	6198.63
214.81	6315.79
214.883	6435.69
214.957	6532.26
215.031	6632.3
215.105	6719.24
215.178	6815.55
215.252	6924.97
215.326	7018.07
215.4	7116.83
215.473	7190.38
215.547	7287.32
215.621	7382.67
215.694	7504.2
215.768	7590.36
215.842	7691.09
215.915	7786.75
215.989	7876.69
216.063	7979.72
216.136	8098.67
216.21	8216.32
216.284	8344.11
216.357	8456.85
216.431	8568.44
216.504	8690.38
216.578	8824.04
216.652	8941.17
216.725	9052.66
216.799	9169.18
216.873	9276.39
216.946	9397.86
217.02	9496.18
217.093	9607.66
217.167	9702.82
217.24	9798.29
217.314	9912.48
217.387	10017.09
217.461	10121.04
217.535	10246
217.608	10341.91
217.682	10457.49
217.755	10575.24
217.829	10669.49
217.902	10777.23
217.976	10883.87
218.049	10977.35
218.123	11063.66
218.196	11181.29
218.27	11279.17
218.343	11365
218.417	11477.97
218.49	11569.44
218.563	11692.53
218.637	11799.05
218.71	11913.43
218.784	12011.08
218.857	12106.8
218.931	12203.11
219.004	12296.09
219.077	12392.4
219.151	12492.8
219.224	12570.07
219.298	12659.98
219.371	12764
219.444	12835.49
219.518	12924.67
219.591	13019.73
219.665	13139.09
219.738	13220.94
219.811	13298.12
219.885	13400.8
219.958	13491.13
220.031	13571.2
220.105	13655.08
220.178	13731.78
220.251	13809.34
220.325	13894.09
220.398	13973.63
220.471	14056.88
220.544	14145.68
220.618	14218.71
220.691	14307.41
220.764	14388.63
220.838	14461.61
220.911	14519.99
220.984	14619.39
221.057	14690.83
221.131	14762.46
221.204	14800.59
221.277	14883.31
221.35	14979.71
221.424	15041.22
221.497	15106.92
221.57	15181.06
221.643	15244.68
221.716	15313.13
221.79	15375.17
221.863	15442.94
221.936	15510.23
222.009	15569.32
222.082	15629.53
222.155	15677.82
222.229	15750.41
222.302	15809.51
222.375	15868.74
222.448	15933.96
222.521	15984.37
222.594	16041.49
222.667	16087.38
222.74	16144.78
222.814	16193.32
222.887	16237.27
222.96	16296.7
223.033	16357.04
223.106	16407.55
223.179	16466.98
223.252	16514.36
223.325	16561.59
223.398	16605.01
223.471	16655.14
223.544	16700.1
223.617	16747.72
223.69	16804.64
223.763	16829.85
223.837	16875.78
223.91	16923.59
223.983	16953.37
224.056	16984.55
224.129	17030.1
224.202	17078.29
224.275	17107.21
224.348	17135.64
224.42	17165.28
224.493	17187.4
224.566	17212.8
224.639	17250.54
224.712	17273.19
224.785	17302.1
224.858	17331.02
224.931	17356.03
225.004	17376.61
225.077	17412.76
225.15	17415.55
225.223	17438.06
225.296	17496.8
225.369	17510.49
225.442	17526.59
225.514	17561.24
225.587	17592.66
225.66	17618.83
225.733	17644.27
225.806	17672.22
225.879	17702.15
225.952	17719.45
226.025	17748.94
226.097	17788.61
226.17	17810.68
226.243	17814.58
226.316	17842
226.389	17860.65
226.461	17890.63
226.534	17915.54
226.607	17932.26
226.68	17984.6
226.753	18004.26
226.825	17998.96
226.898	18043.35
226.971	18063.01
227.044	18090.14
227.117	18108.21
227.189	18124.02
227.262	18148.69
227.335	18173.89
227.407	18183.82
227.48	18206.76
227.553	18234.04
227.626	18242.18
227.698	18255.58
227.771	18273.74
227.844	18278.08
227.916	18298.61
227.989	18301.02
228.062	18318.85
228.134	18355.52
228.207	18361.93
228.28	18372.68
228.352	18379.33
228.425	18378.03
228.498	18398.7
228.57	18391.57
228.643	18411.57
228.716	18428.19
228.788	18437.93
228.861	18447.04
228.934	18471.42
229.006	18476.77
229.079	18478.12
229.151	18476.67
229.224	18482.55
229.296	18502.7
229.369	18537.25
229.442	18559.75
229.514	18565.73
229.587	18580.14
229.659	18570.69
229.732	18576.33
229.804	18601.05
229.877	18632.13
229.949	18652.86
230.022	18679.84
230.094	18695.12
230.167	18702.73
230.239	18706.11
230.312	18711.94
230.384	18743.5
230.457	18748.61
230.529	18761.62
230.602	18769.14
230.674	18784.56
230.747	18801.14
230.819	18815.5
230.892	18795.26
230.964	18798.29
231.037	18814.15
231.109	18821.23
231.181	18836.46
231.254	18836.36
231.326	18829.57
231.399	18825.71
231.471	18820.03
231.544	18798.15
231.616	18800.56
231.688	18805.14
231.761	18787.64
231.833	18781.81
231.905	18744.8
231.978	18744.03
232.05	18728.08
232.122	18722.11
232.195	18704.23
232.267	18712.42
232.339	18704.85
232.412	18713.91
232.484	18699.7
232.556	18686.64
232.629	18705.24
232.701	18712.18
232.773	18708.95
232.846	18698.35
232.918	18692.61
232.99	18691.79
233.062	18697.14
233.135	18697.96
233.207	18675.46
233.279	18678.25
233.351	18684.13
233.424	18688.32
233.496	18662.4
233.568	18681.29
233.64	18658.98
233.713	18655.02
233.785	18639.89
233.857	18634.16
233.929	18608.04
234.001	18615.46
234.074	18626.54
234.146	18589.49
234.218	18569.68
234.29	18552.19
234.362	18540.24
234.434	18504.82
234.507	18481.97
234.579	18452.1
234.651	18428.87
234.723	18424.77
234.795	18424.05
234.867	18414.8
234.939	18416.39
235.012	18412.39
235.084	18402.46
235.156	18409.5
235.228	18385.74
235.3	18377.5
235.372	18355.72
235.444	18359.43
235.516	18319.91
235.588	18305.26
235.66	18294.9
235.732	18264.01
235.804	18309.79
235.876	18295.09
235.948	18302.22
236.02	18286.03
236.092	18270.52
236.164	18249.17
236.236	18224.64
236.308	18195.92
236.38	18166.18
236.452	18132.79
236.524	18115.82
236.596	18112.35
236.668	18092.6
236.74	18082.96
236.812	18048.45
236.884	18044.84
236.956	18020.98
237.028	17998.53
237.1	17963.06
237.172	17964.94
237.244	17964.94
237.316	17903.4
237.388	17874.48
237.46	17841.81
237.532	17835.98
237.604	17810.05
237.675	17811.45
237.747	17799.45
237.819	17772.7
237.891	17754.24
237.963	17722.97
238.035	17699.06
238.107	17640.13
238.178	17634.87
238.25	17608.51
238.322	17618.01
238.394	17577.14
238.466	17554.63
238.538	17543.11
238.609	17525.38
238.681	17474.44
238.753	17438.44
238.825	17411.41
238.897	17396.47
238.968	17380.61
239.04	17348.85
239.112	17353.57
239.184	17319.94
239.255	17292.61
239.327	17273.57
239.399	17244.27
239.471	17232.85
239.542	17221.04
239.614	17210.15
239.686	17160.17
239.758	17148.8
239.829	17102
239.901	17092.17
239.973	17068.75
240.044	17043.74
240.116	17015.45
240.188	16990.96
240.259	16971.16
240.331	16945.76
240.403	16924.79
240.474	16893.95
240.546	16860.21
240.618	16802.81
240.689	16778.76
240.761	16757.51
240.833	16748.88
240.904	16726.33
240.976	16692.78
241.048	16666.42
241.119	16651.38
241.191	16627.24
241.262	16616.58
241.334	16592.82
241.405	16561.5
241.477	16528.29
241.549	16498.26
241.62	16478.31
241.692	16455.9
241.763	16437.78
241.835	16407.12
241.906	16378.44
241.978	16340.22
242.049	16329.04
242.121	16314.82
242.192	16295.16
242.264	16250.96
242.335	16207.82
242.407	16182.95
242.478	16155.05
242.55	16122.95
242.621	16086.7
242.693	16058.36
242.764	16020
242.836	15995.95
242.907	15974.69
242.979	15951.51
243.05	15930.15
243.122	15903.84
243.193	15877.13
243.264	15834.82
243.336	15807.39
243.407	15788.88
243.479	15777.02
243.55	15744.1
243.622	15719.47
243.693	15697.01
243.764	15691.13
243.836	15651.65
243.907	15620.61
243.978	15593.57
244.05	15572.03
244.121	15531.2
244.192	15511.53
244.264	15474.32
244.335	15442.08
244.407	15392.09
244.478	15365.48
244.549	15333.04
244.62	15291.93
244.692	15254.33
244.763	15230.28
244.834	15206.8
244.906	15176.43
244.977	15154.6
245.048	15144.91
245.119	15111.36
245.191	15069.28
245.262	15024.84
245.333	15016.02
245.405	14990.81
245.476	14976.92
245.547	14957.98
245.618	14944.63
245.689	14917.97
245.761	14890.5
245.832	14860.99
245.903	14848.9
245.974	14828.6
246.045	14808.98
246.117	14805.08
246.188	14774.23
246.259	14740.15
246.33	14706.79
246.401	14680.57
246.473	14646.29
246.544	14610.24
246.615	14597.7
246.686	14571.33
246.757	14553.84
246.828	14519.9
246.899	14510.74
246.97	14470.87
247.042	14432.84
247.113	14413.51
247.184	14414.14
247.255	14381.5
247.326	14357.45
247.397	14334.36
247.468	14311.8
247.539	14275.93
247.61	14238.04
247.681	14225.51
247.752	14218.33
247.823	14187.57
247.894	14162.21
247.965	14125.58
248.037	14098
248.108	14061.08
248.179	14037.55
248.25	14010.8
248.321	13991.57
248.392	13954.4
248.463	13947.02
248.534	13922.39
248.605	13899.78
248.675	13866.42
248.746	13844.05
248.817	13829.59
248.888	13806.31
248.959	13761.77
249.03	13748.99
249.101	13721.9
249.172	13693.65
249.243	13649.78
249.314	13641.3
249.385	13620.81
249.456	13601.82
249.527	13578.92
249.598	13561.9
249.669	13530.66
249.739	13516.3
249.81	13499.38
249.881	13469.3
249.952	13446.83
250.023	13423.45
250.094	13384.89
250.165	13350.47
250.235	13337.64
250.306	13318.27
250.377	13292.67
250.448	13282.45
250.519	13242.53
250.59	13235.59
250.66	13209.37
250.731	13201.51
250.802	13181.94
250.873	13163.72
250.944	13146.51
251.014	13118.5
251.085	13123.9
251.156	13109
251.227	13097.62
251.297	13091.41
251.368	13074.15
251.439	13064.94
251.51	13054.87
251.58	13033.37
251.651	13009.02
251.722	12994.32
251.792	12955.27
251.863	12929
251.934	12923.5
252.005	12934.35
252.075	12910.87
252.146	12898.2
252.217	12880.65
252.287	12869.22
252.358	12850.42
252.429	12854.81
252.499	12832.64
252.57	12809.59
252.641	12802.27
252.711	12784.91
252.782	12742.88
252.852	12749.19
252.923	12720.37
252.994	12704.51
253.064	12691.44
253.135	12660.59
253.205	12636.68
253.276	12632.54
253.347	12628.39
253.417	12597.49
253.488	12564.13
253.558	12544.27
253.629	12526.1
253.699	12517.09
253.77	12495.73
253.841	12462.37
253.911	12435.96
253.982	12419.95
254.052	12406.94
254.123	12390.98
254.193	12359.65
254.264	12379.17
254.334	12339.89
254.405	12312.7
254.475	12273.75
254.546	12253.46
254.616	12244.98
254.687	12229.89
254.757	12216.63
254.827	12193.45
254.898	12177.4
254.968	12166.94
255.039	12137.44
255.109	12123.36
255.18	12087.26
255.25	12043.54
255.321	12033.37
255.391	11994.04
255.461	11996.35
255.532	11950.94
255.602	11923.86
255.673	11893.88
255.743	11860.37
255.813	11822.97
255.884	11820.13
255.954	11820.8
256.024	11818.63
256.095	11798.49
256.165	11770.19
256.235	11751.15
256.306	11728.55
256.376	11720.55
256.446	11711.53
256.517	11700.79
256.587	11696.45
256.657	11685.7
256.728	11673.94
256.798	11661.7
256.868	11651.91
256.938	11614.51
257.009	11614.41
257.079	11603.47
257.149	11617.74
257.219	11584.68
257.29	11577.74
257.36	11544.05
257.43	11536.53
257.5	11498.07
257.571	11484.77
257.641	11476.43
257.711	11454.35
257.781	11441.77
257.852	11429.39
257.922	11385.24
257.992	11368.85
258.062	11348.95
258.132	11337.86
258.202	11324.9
258.273	11310.44
258.343	11313.38
258.413	11293.19
258.483	11274.06
258.553	11249.28
258.623	11218.29
258.693	11201.33
258.764	11199.88
258.834	11194.05
258.904	11172.32
258.974	11151.02
259.044	11134.3
259.114	11121.48
259.184	11109.86
259.254	11094.59
259.324	11057.14
259.394	11054.97
259.464	11055.79
259.535	11039.89
259.605	11017.82
259.675	10992.18
259.745	10977.19
259.815	10945.24
259.885	10926.26
259.955	10928.62
260.025	10900.77
260.095	10881.73
260.165	10879.81
260.235	10879.66
260.305	10854.56
260.375	10829.31
260.445	10834.46
260.515	10831.33
260.585	10825.35
260.655	10797.16
260.725	10789.21
260.795	10783.24
260.865	10785.94
260.934	10756.4
261.004	10736.35
261.074	10724.55
261.144	10729.22
261.214	10726.47
261.284	10712.89
261.354	10712.74
261.424	10688.69
261.494	10693.51
261.564	10674.53
261.634	10663.35
261.703	10627.35
261.773	10617.77
261.843	10614.97
261.913	10599.46
261.983	10565.68
262.053	10560.04
262.123	10550.79
262.192	10518.51
262.262	10510.9
262.332	10484.54
262.402	10478.28
262.472	10470.09
262.541	10434.63
262.611	10429.33
262.681	10403.07
262.751	10392.38
262.821	10363.91
262.89	10333.21
262.96	10326.32
263.03	10340.54
263.1	10330.08
263.169	10322.33
263.239	10319.82
263.309	10313.36
263.379	10300.02
263.448	10291.15
263.518	10279.16
263.588	10268.27
263.657	10278.43
263.727	10275.01
263.797	10257.53
263.867	10248.95
263.936	10218.46
264.006	10224.72
264.076	10206.07
264.145	10187.72
264.215	10163.44
264.285	10165.03
264.354	10140.66
264.424	10116.91
264.494	10079.77
264.563	10050.91
264.633	10051.73
264.702	10036.7
264.772	10006.11
264.842	9990.69
264.911	9985.78
264.981	9955.43
265.05	9939.87
265.12	9920.84
265.19	9903.26
265.259	9898.3
265.329	9879.99
265.398	9872.38
265.468	9879.95
265.537	9867.04
265.607	9864.05
265.676	9866.8
265.746	9854.32
265.815	9841.32
265.885	9833.27
265.955	9814.4
266.024	9802.26
266.094	9768.64
266.163	9766.95
266.232	9769.79
266.302	9756.69
266.371	9748.7
266.441	9734.83
266.51	9732.66
266.58	9711.23
266.649	9692.15
266.719	9691.38
266.788	9686.13
266.858	9688.11
266.927	9657.14
266.996	9644.81
267.066	9632.91
267.135	9607.87
267.205	9606.86
267.274	9613.31
267.343	9608.11
267.413	9596.84
267.482	9602.82
267.552	9603.34
267.621	9572.62
267.69	9540.55
267.76	9531.01
267.829	9515.26
267.898	9504.86
267.968	9487.43
268.037	9483.67
268.106	9487
268.176	9460.41
268.245	9446.16
268.314	9430.99
268.384	9428.1
268.453	9413.75
268.522	9403.39
268.592	9404.36
268.661	9381.34
268.73	9375.27
268.799	9356.97
268.869	9367.95
268.938	9334.87
269.007	9317.2
269.076	9313.83
269.146	9317.92
269.215	9313.83
269.284	9318.4
269.353	9302.51
269.422	9283.93
269.492	9269.82
269.561	9227.02
269.63	9224.66
269.699	9208.77
269.768	9198.51
269.838	9186.33
269.907	9186.24
269.976	9162.02
270.045	9133.23
270.114	9126.63
270.183	9109.4
270.253	9100.15
270.322	9072.42
270.391	9070.01
270.46	9074.88
270.529	9067.27
270.598	9063.27
270.667	9048.3
270.736	9027.45
270.806	9023.17
270.875	9028.99
270.944	9022.01
271.013	9040.98
271.082	9031.74
271.151	9027.93
271.22	8995.97
271.289	8988.32
271.358	8974.64
271.427	8976.95
271.496	8971.85
271.565	8959.67
271.634	8945.04
271.703	8969.74
271.772	8963.48
271.841	8950.34
271.91	8921.22
271.979	8917.9
272.048	8894.5
272.117	8895.22
272.186	8881.74
272.255	8883.86
272.324	8881.94
272.393	8874.33
272.462	8861.81
272.531	8854.93
272.6	8847.56
272.669	8861.28
272.738	8846.55
272.807	8841.93
272.876	8820.99
272.945	8838.56
273.013	8841.21
273.082	8848.24
273.151	8809.96
273.22	8812.27
273.289	8803.52
273.358	8822.53
273.427	8808.71
273.496	8807.85
273.564	8801.01
273.633	8802.26
273.702	8777.91
273.771	8765.49
273.84	8760.92
273.909	8759.62
273.977	8757.36
274.046	8742.96
274.115	8752.4
274.184	8740.32
274.253	8731.08
274.322	8734.98
274.39	8711.2
274.459	8698.83
274.528	8675.01
274.597	8664.66
274.665	8661.48
274.734	8675.1
274.803	8660.76
274.872	8654.79
274.94	8645.02
275.009	8696.74
275.078	8685.91
275.147	8687.4
275.215	8681.1
275.284	8690
275.353	8679.31
275.421	8654
275.49	8669.98
275.559	8646.97
275.627	8638.89
275.696	8631.67
275.765	8632.92
275.833	8624.84
275.902	8619.59
275.971	8629.8
276.039	8640.05
276.108	8640.33
276.177	8626.52
276.245	8615.6
276.314	8610.21
276.383	8609.29
276.451	8548.29
276.52	8547.9
276.588	8559.65
276.657	8563.4
276.725	8550.84
276.794	8548.62
276.863	8559.21
276.931	8540.39
277	8555.02
277.068	8565.46
277.137	8582.89
277.205	8579.18
277.274	8587.65
277.342	8602.28
277.411	8581.88
277.48	8572.11
277.548	8558.2
277.617	8563.16
277.685	8557.96
277.754	8562.58
277.822	8558.88
277.89	8571.39
277.959	8566.15
278.027	8547.71
278.096	8538.14
278.164	8561.63
278.233	8554.65
278.301	8541.56
278.37	8538.96
278.438	8518.03
278.507	8524.67
278.575	8498.25
278.643	8498.2
278.712	8486.17
278.78	8475.34
278.849	8486.36
278.917	8496.75
278.985	8492.13
279.054	8490.5
279.122	8494.4
279.191	8489.68
279.259	8485.45
279.327	8467.2
279.396	8482.84
279.464	8482.27
279.532	8486.5
279.601	8486.74
279.669	8482.89
279.737	8495.07
279.806	8501.32
279.874	8516.77
279.942	8509.26
280.011	8506.43
280.079	8508.21
280.147	8524.13
280.215	8524.28
280.284	8518.55
280.352	8506.57
280.42	8517.54
280.488	8509.5
280.557	8504.93
280.625	8507.39
280.693	8503.68
280.761	8510.47
280.83	8493.24
280.898	8500.07
280.966	8484.19
281.034	8445.16
281.102	8434.43
281.171	8425.1
281.239	8424.66
281.307	8418.07
281.375	8410.52
281.443	8438.19
281.512	8433.86
281.58	8441.12
281.648	8425.87
281.716	8425.68
281.784	8426.16
281.852	8420.58
281.92	8423.13
281.989	8432.61
282.057	8419.86
282.125	8448.92
282.193	8441.08
282.261	8440.36
282.329	8438.29
282.397	8436.84
282.465	8442.18
282.533	8455.03
282.601	8447.09
282.67	8429.34
282.738	8414.47
282.806	8419.76
282.874	8406.14
282.942	8410.52
283.01	8400.03
283.078	8404.74
283.146	8403.54
283.214	8410.47
283.282	8408.74
283.35	8416.92
283.418	8413.31
283.486	8417.64
283.554	8393.1
283.622	8391.94
283.69	8391.7
283.758	8385.01
283.826	8394.83
283.894	8405.7
283.962	8425.63
284.03	8444.97
284.098	8447.57
284.165	8448.05
284.233	8450.98
284.301	8442.61
284.369	8435.73
284.437	8429.57
284.505	8425.53
284.573	8439.68
284.641	8430.58
284.709	8444.68
284.777	8427.5
284.845	8436.26
284.912	8440.21
284.98	8440.83
285.048	8434.63
285.116	8440.59
285.184	8454.45
285.252	8452.24
285.319	8438.48
285.387	8426.64
285.455	8409.36
285.523	8416.91
285.591	8415.28
285.659	8412.63
285.726	8419.18
285.794	8405.32
285.862	8397.09
285.93	8396.42
285.997	8391.03
286.065	8384.15
286.133	8368.94
286.201	8363.31
286.269	8345.41
286.336	8336.61
286.404	8333.58
286.472	8341.47
286.539	8319.53
286.607	8300.76
286.675	8302.35
286.743	8306.73
286.81	8303.84
286.878	8314.76
286.946	8303.84
287.013	8299.32
287.081	8298.6
287.149	8288.11
287.216	8310.39
287.284	8314.19
287.352	8313.27
287.419	8302.83
287.487	8312.94
287.555	8311.25
287.622	8309.71
287.69	8318.33
287.758	8326.31
287.825	8322.08
287.893	8311.73
287.96	8318.42
288.028	8334.54
288.096	8333.48
288.163	8333.72
288.231	8319.43
288.298	8317.75
288.366	8324.68
288.433	8327.61
288.501	8320.87
288.569	8321.16
288.636	8310.62
288.704	8322.27
288.771	8328.62
288.839	8325.88
288.906	8318.85
288.974	8331.6
289.041	8335.6
289.109	8323.66
289.176	8331.94
289.244	8338.44
289.311	8347.72
289.379	8355.32
289.446	8352.77
289.514	8356.34
289.581	8360.43
289.649	8363.79
289.716	8367.31
289.783	8361.34
289.851	8376.59
289.918	8382.56
289.986	8391.51
290.053	8396.8
290.121	8390.06
290.188	8386.36
290.255	8409.84
290.323	8405.75
290.39	8402.67
290.458	8405.22
290.525	8419.22
290.592	8417.54
290.66	8414.7
290.727	8409.36
290.794	8421.24
290.862	8418.16
290.929	8420.04
290.996	8417.92
291.064	8427.84
291.131	8439.39
291.198	8457.82
291.266	8455.46
291.333	8447.33
291.4	8448.53
291.468	8461.86
291.535	8460.08
291.602	8465.85
291.669	8463.21
291.737	8467.54
291.804	8467.44
291.871	8484.43
291.938	8488.09
292.006	8511.57
292.073	8519.8
292.14	8526.97
292.207	8524.85
292.275	8524.66
292.342	8532.02
292.409	8552.82
292.476	8574.43
292.543	8565.96
292.611	8565.91
292.678	8582.99
292.745	8614.51
292.812	8622.89
292.879	8617.54
292.946	8625.1
293.014	8639.01
293.081	8642.42
293.148	8663.98
293.215	8674.96
293.282	8669.81
293.349	8677.65
293.416	8657.77
293.484	8678.37
293.551	8689.68
293.618	8700.94
293.685	8725.44
293.752	8713.36
293.819	8712.88
293.886	8697.29
293.953	8700.85
294.02	8713.7
294.087	8722.17
294.154	8711.58
294.221	8726.94
294.288	8727.08
294.356	8740.61
294.423	8742.1
294.49	8737.38
294.557	8737.33
294.624	8730.07
294.691	8746.67
294.758	8748.88
294.825	8759.52
294.892	8747.39
294.959	8750.66
295.026	8760.2
295.093	8752.2
295.16	8758.27
295.226	8755.91
295.293	8779.54
295.36	8780.94
295.427	8789.51
295.494	8790.33
295.561	8801.59
295.628	8827.45
295.695	8844
295.762	8848
295.829	8863.5
295.896	8878.71
295.963	8890.31
296.03	8904.8
296.096	8908.12
296.163	8916.5
296.23	8929.11
296.297	8942.3
296.364	8936.18
296.431	8935.61
296.498	8938.78
296.564	8960.44
296.631	8967.71
296.698	8950.91
296.765	8972.04
296.832	8955.1
296.899	8947.88
296.965	8960.83
297.032	8935.21
297.099	8945.8
297.166	8951.39
297.233	8943.25
297.299	8936.42
297.366	8935.5
297.433	8934.59
297.5	8946.82
297.566	8947.78
297.633	8948.31
297.7	8946.82
297.767	8947.78
297.833	8958.56
297.9	8956.35
297.967	8944.99
298.033	8949.61
298.1	8980.09
298.167	8971.37
298.234	8985.19
298.3	8997.9
298.367	8986.82
298.434	8993.8
298.5	8989.95
298.567	8988.46
298.634	8984.9
298.7	8997.8
298.767	9002.61
298.834	9014.79
298.9	9007.33
298.967	8996.11
299.033	8998.19
299.1	9012.39
299.167	9029.28
299.233	9024.13
299.3	9037.9
299.366	9050.66
299.433	9070.01
299.5	9044.83
299.566	9046.32
299.633	9057.16
299.699	9063.94
299.766	9068.33
299.832	9070.93
299.899	9080.31
299.965	9088.88
300.032	9089.37
300.099	9097.94
300.165	9098.27
300.232	9089.7
300.298	9096.39
300.365	9114.45
300.431	9118.59
300.498	9114.25
300.564	9115.31
300.631	9122.1
300.697	9133.03
300.763	9131.88
300.83	9128.84
300.896	9143.09
300.963	9156.28
301.029	9161.24
301.096	9163.36
301.162	9167.69
301.229	9160.91
301.295	9149.83
301.361	9148.82
301.428	9145.84
301.494	9129.76
301.561	9131.73
301.627	9137.46
301.693	9132.69
301.76	9131.35
301.826	9122.87
301.892	9129.81
301.959	9139.48
302.025	9136.11
302.092	9130.62
302.158	9136.26
302.224	9129.32
302.291	9117.19
302.357	9110.02
302.423	9101.11
302.49	9093.94
302.556	9106.36
302.622	9110.16
302.688	9111.61
302.755	9126.05
302.821	9139.19
302.887	9146.41
302.954	9145.21
303.02	9146.65
303.086	9153.92
303.152	9149.45
303.219	9145.07
303.285	9149.83
303.351	9149.98
303.417	9151.47
303.483	9142.13
303.55	9133.17
303.616	9135.25
303.682	9130.58
303.748	9123.69
303.815	9134.48
303.881	9139.34
303.947	9125.04
304.013	9123.36
304.079	9123.36
304.145	9102.65
304.212	9100
304.278	9088.84
304.344	9082.43
304.41	9069.92
304.476	9055.57
304.542	9051.86
304.608	9056.72
304.674	9042.18
304.741	9036.02
304.807	9026.39
304.873	9028.51
304.939	9043.63
305.005	9024.13
305.071	9027.98
305.137	9028.65
305.203	9010.12
305.269	9003.04
305.335	9013.73
305.401	9010.31
305.467	9001.79
305.533	9007.86
305.599	9011.9
305.666	9022.06
305.732	9022.68
305.798	9037.13
305.864	9059.37
305.93	9062.74
305.996	9061.1
306.062	9058.17
306.128	9051.81
306.194	9044.88
306.259	9038.72
306.325	9028.61
306.391	9033.85
306.457	9038.52
306.523	9043.67
306.589	9061.54
306.655	9056.34
306.721	9037.27
306.787	9022.3
306.853	9033.95
306.919	9016.09
306.985	9012
307.051	9005.12
307.117	8993.8
307.183	8983.93
307.248	8952.5
307.314	8957.55
307.38	8958.13
307.446	8962.17
307.512	8952.98
307.578	8958.95
307.644	8956.78
307.709	8958.85
307.775	8951.2
307.841	8943.83
307.907	8930.69
307.973	8907.25
308.039	8906.23
308.104	8909.99
308.17	8912.01
308.236	8892.95
308.302	8893.86
308.368	8878.51
308.433	8875.91
308.499	8869.84
308.565	8855.6
308.631	8855.69
308.696	8824.84
308.762	8810.69
308.828	8801.54
308.894	8785.08
308.959	8759.19
309.025	8751.1
309.091	8746.14
309.156	8746.72
309.222	8747.3
309.288	8740.99
309.354	8715.73
309.419	8712.98
309.485	8699.6
309.551	8699.46
309.616	8690.74
309.682	8687.18
309.748	8681.89
309.813	8673.85
309.879	8666.82
309.945	8657.68
310.01	8653.2
310.076	8659.32
310.141	8655.75
310.207	8644.78
310.273	8646.03
310.338	8655.7
310.404	8635.59
310.469	8616.77
310.535	8597.71
310.601	8573.17
310.666	8575.29
310.732	8590.35
310.797	8575.19
310.863	8566.28
310.928	8555.36
310.994	8559.11
311.059	8558.77
311.125	8555.55
311.191	8563.97
311.256	8551.66
311.322	8555.41
311.387	8538.13
311.453	8821.13
311.518	8793.71
311.584	8788.7
311.649	8794.33
311.715	8782.83
311.78	8786.83
311.846	8779.22
311.911	8786.68
311.976	8791.49
312.042	8777.25
312.107	8761.75
312.173	8752.27
312.238	8742.84
312.304	8742.89
312.369	8728.12
312.434	8711.18
312.5	8701.03
312.565	8667.2
312.631	8673.26
312.696	8662.19
312.761	8666.57
312.827	8377.07
312.892	8409.51
312.958	8405.9
313.023	8397.81
313.088	8392.23
313.154	8381.5
313.219	8368.27
313.284	8356.05
313.35	8350.23
313.415	8341.13
313.48	8329.63
313.546	8334.98
313.611	8341.09
313.676	8327.9
313.741	8314.34
313.807	8321.12
313.872	8324.87
313.937	8333.1
314.003	8338.15
314.068	8335.41
314.133	8334.83
314.198	8321.94
314.264	8300.23
314.329	8288.06
314.394	8282
314.459	8277.81
314.525	8291.38
314.59	8289.41
314.655	8276.32
314.72	8282.87
314.785	8281.9
314.851	8280.36
314.916	8261.07
314.981	8244.14
315.046	8235.33
315.111	8226.48
315.176	8213.01
315.242	8208.82
315.307	8205.55
315.372	8188.52
315.437	8180.87
315.502	8174.14
315.567	8178.75
315.632	8169.52
315.698	8172.07
315.763	8171.2
315.828	8165.09
315.893	8157.92
315.958	8147.44
316.023	8144.94
316.088	8122.56
316.153	8101.11
316.218	8098.71
316.283	8076.49
316.348	8064.51
316.413	8060.09
316.479	8053.69
316.544	8021.04
316.609	7993.38
316.674	7959.91
316.739	7928.46
316.804	7904.51
316.869	7872.19
316.934	7838.71
316.999	7807.94
317.064	7759.18
317.129	7710.9
317.194	7675.51
317.259	7626.46
317.324	7581.08
317.389	7537.43
317.454	7501.22
317.518	7469.79
317.583	7446.85
317.648	7425.27
317.713	7395.75
317.778	7341
317.843	7310.81
317.908	7275.69
317.973	7243.82
318.038	7220.99
318.103	7184.76
318.168	7153.09
318.233	7122.91
318.297	7079.95
318.362	7044.05
318.427	7010.33
318.492	6991.16
318.557	6949.66
318.622	6933.7
318.687	6917.18
318.751	6882.36
318.816	6854.21
318.881	6825.15
318.946	6768.56
319.011	6732.2
319.075	6691.91
319.14	6662.09
319.205	6618.29
319.27	6588.24
319.335	6544.5
319.399	6507.04
319.464	6487.98
319.529	6432.49
319.594	6395.23
319.658	6365.95
319.723	6329.66
319.788	6306.29
319.853	6257.66
319.917	6227.43
319.982	6173.96
320.047	6141.32
320.112	6119.87
320.176	6070.64
320.241	6038.54
320.306	6015.17
320.37	5978.56
320.435	5943.73
320.5	5920.27
320.564	5884.3
320.629	5848.96
320.694	5823.06
320.758	5777.55
320.823	5731.26
320.888	5714.29
320.952	5671.04
321.017	5629.76
321.082	5588.68
321.146	5551.81
321.211	5515.66
321.275	5479.76
321.34	5437.88
321.405	5392.49
321.469	5347.73
321.534	5310.64
321.598	5261.24
321.663	5228.74
321.727	5193.14
321.792	5151.32
321.857	5107.14
321.921	5075.19
321.986	5031.71
322.05	4973.72
322.115	4943.45
322.179	4904.38
322.244	4848.6
322.308	4814.66
322.373	4775.12
322.437	4739.27
322.502	4715.18
322.566	4674.4
322.631	4636.92
322.695	4602.38
322.76	4559.94
322.824	4526.78
322.889	4489.13
322.953	4448.67
323.018	4386.19
323.082	4329.23
323.146	4283.37
323.211	4235.12
323.275	4190.98
323.34	4150.01
323.404	4120.38
323.468	4077.54
323.533	4034.47
323.597	3994.34
323.662	3948.51
323.726	3917.73
323.79	3878.35
323.855	3818.03
323.919	3774.03
323.983	3735.05
324.048	3675.13
324.112	3835.66
324.177	3712.99
324.241	3520.96
324.305	3334.65
324.37	3152.55
324.434	2976.56
324.498	2937.31
324.562	2893.29
324.627	2839.48
324.691	2793.43
324.755	2735.68
324.82	2667.89
324.884	2602.3
324.948	2540.5
325.012	2457.63
325.077	2343
