Data from 20250625_urea_1M_1_MAYP1162681_01-05-06-082.txt Node
Date: Thu Jun 26 01:05:06 BST 2025
User: adleo
Spectrometer: MAYP116268
Trigger mode: 0
Integration Time (sec): 1.000000E0
Scans to average: 1
Electric dark correction enabled: true
Nonlinearity correction enabled: true
Boxcar width: 10
XAxis mode: Wavelengths
Number of Pixels in Spectrum: 2068
>>>>>Begin Spectral Data<<<<<
179.565	1119.18
179.642	1169.23
179.718	1208.06
179.795	1246.61
179.871	1276.96
179.948	1293.29
180.024	1314.04
180.101	1336.14
180.177	1348.46
180.254	1369.82
180.33	1390.15
180.407	1435.62
180.483	1524.27
180.56	1609.12
180.636	1687.93
180.712	1678.04
180.789	1684.41
180.865	1692.86
180.942	1702.41
181.018	1712.63
181.095	1725.84
181.171	1731.35
181.248	1733.21
181.324	1749.08
181.4	1756.35
181.477	1767.85
181.553	1780.02
181.63	1798.22
181.706	1812.24
181.782	1821.55
181.859	1822.55
181.935	1830.82
182.011	1832.39
182.088	1845.75
182.164	1860.58
182.24	1872.61
182.317	1880.35
182.393	1880.88
182.469	1895.66
182.546	1906.54
182.622	1910.63
182.698	1908.92
182.775	1920.85
182.851	1934.07
182.927	1925.99
183.003	1919.47
183.08	1912.06
183.156	1920.66
183.232	1919.28
183.308	1908.82
183.385	1914.34
183.461	1929.17
183.537	1929.98
183.613	1941.63
183.69	1935.59
183.766	1927.84
183.842	1933.74
183.918	1940.06
183.995	1950.19
184.071	1955.23
184.147	1951.71
184.223	1942.3
184.299	1951.14
184.375	1941.59
184.452	1948.72
184.528	2004.23
184.604	2014.98
184.68	2027
184.756	2036.47
184.832	2038.8
184.908	2044.55
184.985	2044.98
185.061	2030.48
185.137	2034.14
185.213	2023.87
185.289	2025.67
185.365	2019.45
185.441	2019.4
185.517	2031.15
185.593	2030.01
185.669	2024.73
185.745	2032.38
185.822	2046.93
185.898	2039.89
185.974	2047.12
186.05	2039.41
186.126	1999.74
186.202	1992.84
186.278	1990.08
186.354	1978.77
186.43	1984.24
186.506	1983.47
186.582	1983
186.658	1990.32
186.734	1974.54
186.81	1977.67
186.886	1980.15
186.962	1990.04
187.038	1986.9
187.114	1979.95
187.19	1983.71
187.266	1978.34
187.341	1980.76
187.417	1975.48
187.493	1974.87
187.569	1980.29
187.645	1974.11
187.721	1964.07
187.797	1971.58
187.873	1977.96
187.949	1971.11
188.025	1968.16
188.101	1968.16
188.176	1972.11
188.252	1966.12
188.328	1973.67
188.404	1968.78
188.48	1964.78
188.556	1959.13
188.632	1957.37
188.707	1955.32
188.783	1953.42
188.859	1947.38
188.935	1936.54
189.011	1944.67
189.086	1939.21
189.162	1932.93
189.238	1932.36
189.314	1928.55
189.39	1923.18
189.465	1914.24
189.541	1929.98
189.617	1914.62
189.693	1909.11
189.768	1916.77
189.844	1935.65
189.92	1924
189.996	1935.41
190.071	1945.11
190.147	1943.02
190.223	1952.96
190.298	1946.35
190.374	1935.65
190.45	1946.16
190.526	1953.48
190.601	1947.06
190.677	1948.96
190.753	1975.33
190.828	1976.66
190.904	1990.49
190.98	2004.81
191.055	2015.65
191.131	2009.76
191.207	2027.11
191.282	2038.57
191.358	2027.06
191.433	2022.21
191.509	2038.75
191.585	2032.71
191.66	2033.23
191.736	2044.69
191.811	2037.08
191.887	2053.49
191.963	2074.99
192.038	2078.79
192.114	2077.89
192.189	2081.79
192.265	2077.98
192.34	2054
192.416	2053.19
192.491	2048.01
192.567	2050.86
192.642	2050.67
192.718	2050.34
192.793	2040.83
192.869	2037.12
192.944	2041.54
193.02	2044.44
193.095	2047.91
193.171	2054.52
193.246	2056.9
193.322	2052.76
193.397	2052.34
193.473	2040.82
193.548	2025.79
193.624	2032.45
193.699	2033.83
193.775	2049.1
193.85	2052.57
193.925	2059.8
194.001	2060.33
194.076	2054.9
194.152	2041.68
194.227	2036.78
194.302	2029.22
194.378	2031.93
194.453	2028.46
194.529	2038.45
194.604	2025.18
194.679	2020.43
194.755	2002.41
194.83	2013.11
194.905	2012.31
194.981	2021.06
195.056	2013.16
195.131	2019.2
195.207	2017.87
195.282	2007.03
195.357	1990.81
195.433	2005.07
195.508	1994.28
195.583	2004.17
195.659	2018.2
195.734	2028.38
195.809	2028.24
195.884	2032.61
195.96	2032.85
196.035	2048.68
196.11	2046.07
196.185	2057.81
196.261	2057.24
196.336	2088.97
196.411	2073.65
196.486	2075.64
196.561	2068.79
196.637	2077.97
196.712	2091.1
196.787	2091.53
196.862	2106.51
196.937	2114.41
197.013	2119.45
197.088	2129.44
197.163	2148.24
197.238	2163.42
197.313	2160.81
197.388	2174.56
197.464	2206.2
197.539	2220.19
197.614	2212.38
197.689	2221.95
197.764	2236.46
197.839	2257.49
197.914	2249.5
197.989	2272.96
198.065	2288.28
198.14	2334.27
198.215	2357.21
198.29	2370.69
198.365	2384.35
198.44	2393.82
198.515	2418.43
198.59	2432.43
198.665	2456.99
198.74	2462.18
198.815	2462.8
198.89	2485.12
198.965	2510.61
199.04	2506.08
199.115	2517.84
199.19	2560.27
199.265	2562.41
199.34	2571.17
199.415	2604.91
199.49	2625.71
199.565	2632.24
199.64	2655.24
199.715	2652.81
199.79	2662.34
199.865	2666.77
199.94	2667.1
200.015	2699.26
200.09	2708.27
200.165	2714.93
200.24	2723.99
200.315	2762.85
200.39	2777.29
200.464	2783.24
200.539	2783.38
200.614	2799.63
200.689	2820.74
200.764	2828.79
200.839	2847.04
200.914	2851.37
200.989	2840.93
201.063	2858.37
201.138	2842.94
201.213	2841.32
201.288	2825.17
201.363	2829.89
201.438	2830.27
201.512	2845.37
201.587	2826.69
201.662	2829.5
201.737	2840.03
201.812	2844.04
201.886	2812.65
201.961	2821.14
202.036	2809.76
202.111	2808.57
202.186	2779.04
202.26	2764.17
202.335	2739.96
202.41	2735.53
202.485	2722.81
202.559	2701.8
202.634	2673.07
202.709	2678.98
202.784	2662.07
202.858	2661.73
202.933	2644.3
203.008	2636.01
203.082	2617.91
203.157	2620.34
203.232	2577.44
203.306	2556.81
203.381	2529.94
203.456	2507.37
203.53	2486.02
203.605	2466.46
203.68	2443.6
203.754	2439.41
203.829	2427.98
203.904	2408.23
203.978	2394.66
204.053	2396.94
204.127	2384.76
204.202	2382.38
204.277	2370
204.351	2365.05
204.426	2357.1
204.5	2348.39
204.575	2318.03
204.65	2327.51
204.724	2318.98
204.799	2328.16
204.873	2327.78
204.948	2324.88
205.022	2315.27
205.097	2306.69
205.171	2322.21
205.246	2331.87
205.32	2331.11
205.395	2328.59
205.469	2321.88
205.544	2327.36
205.618	2311.32
205.693	2325.98
205.767	2314.75
205.842	2334.5
205.916	2327.32
205.991	2319.75
206.065	2325.7
206.14	2339.68
206.214	2332.3
206.289	2324.78
206.363	2334.06
206.438	2335.39
206.512	2343.87
206.586	2361.28
206.661	2371.57
206.735	2351.92
206.81	2352.21
206.884	2367.58
206.958	2357.01
207.033	2370.33
207.107	2377.76
207.181	2410.91
207.256	2401.96
207.33	2420.9
207.405	2431.43
207.479	2449.71
207.553	2454.52
207.628	2437.34
207.702	2448.86
207.776	2444.29
207.851	2448.14
207.925	2466.77
207.999	2461.48
208.073	2457.43
208.148	2460.58
208.222	2449.81
208.296	2480.18
208.371	2497.48
208.445	2507.86
208.519	2534.76
208.593	2549.76
208.668	2548.8
208.742	2551.23
208.816	2558.14
208.89	2572.52
208.965	2573.43
209.039	2583.2
209.113	2602.39
209.187	2626.8
209.261	2626.14
209.336	2650.81
209.41	2671.24
209.484	2674.48
209.558	2704.5
209.632	2721.65
209.707	2738.66
209.781	2764.43
209.855	2785.02
209.929	2805.58
210.003	2819.2
210.077	2826.92
210.151	2883.5
210.226	2925.13
210.3	2960.87
210.374	2995.95
210.448	3017.79
210.522	3042.4
210.596	3069.58
210.67	3099.34
210.744	3168.33
210.818	3224.12
210.892	3265.15
210.966	3288.09
211.041	3329.7
211.115	3354.22
211.189	3411.63
211.263	3463.22
211.337	3508.38
211.411	3564.49
211.485	3602.03
211.559	3660.61
211.633	3711.16
211.707	3730.47
211.781	3789.75
211.855	3814.5
211.929	3865.65
212.003	3910.84
212.077	3985.8
212.151	4068.19
212.225	4144.97
212.299	4205.46
212.373	4269.16
212.447	4350.75
212.52	4462.61
212.594	4556.47
212.668	4660.89
212.742	4742.56
212.816	4834.5
212.89	4929.35
212.964	5030.45
213.038	5140.85
213.112	5263.45
213.186	5392.01
213.26	5491.91
213.333	5573.51
213.407	5702.07
213.481	5832.76
213.555	5968.06
213.629	6090.48
213.703	6207.74
213.777	6353.49
213.85	6480.06
213.924	6654.48
213.998	6800.03
214.072	6944.86
214.146	7077.86
214.219	7225.92
214.293	7375.18
214.367	7535.64
214.441	7707.47
214.515	7858.72
214.588	8001.99
214.662	8129.22
214.736	8271.5
214.81	8437.29
214.883	8612.83
214.957	8765.55
215.031	8924.55
215.105	9077.58
215.178	9238.14
215.252	9403.86
215.326	9545.09
215.4	9693.16
215.473	9822.3
215.547	9974.41
215.621	10130.45
215.694	10304.07
215.768	10452.79
215.842	10609.65
215.915	10768.9
215.989	10910.86
216.063	11065.21
216.136	11230.5
216.21	11398.34
216.284	11572.75
216.357	11742.73
216.431	11902.84
216.504	12071.38
216.578	12254.88
216.652	12421.12
216.725	12577.53
216.799	12742.72
216.873	12896.06
216.946	13066.31
217.02	13210.29
217.093	13361.08
217.167	13492.97
217.24	13626.93
217.314	13774.01
217.387	13911.83
217.461	14043.96
217.535	14200.91
217.608	14336.75
217.682	14468.69
217.755	14614.84
217.829	14746.25
217.902	14884.74
217.976	15016.23
218.049	15146.29
218.123	15257.15
218.196	15393.8
218.27	15514.79
218.343	15617.89
218.417	15745.57
218.49	15859.18
218.563	15997.22
218.637	16119.07
218.71	16253.25
218.784	16377.75
218.857	16500.5
218.931	16626.88
219.004	16742.55
219.077	16862.12
219.151	16974.9
219.224	17087.43
219.298	17196.11
219.371	17308.59
219.444	17400.35
219.518	17503.58
219.591	17600.74
219.665	17729.7
219.738	17825.8
219.811	17912.88
219.885	18026.95
219.958	18125.21
220.031	18216.3
220.105	18308.34
220.178	18395.04
220.251	18475.61
220.325	18568.57
220.398	18656.56
220.471	18738.54
220.544	18823.01
220.618	18886.96
220.691	18962.96
220.764	19043.53
220.838	19120.44
220.911	19185.88
220.984	19267.81
221.057	19344.43
221.131	19418.93
221.204	19447.99
221.277	19533.05
221.35	19626.25
221.424	19674.58
221.497	19737.33
221.57	19795.68
221.643	19868.65
221.716	19929.32
221.79	19981.12
221.863	20026.18
221.936	20073.94
222.009	20120.59
222.082	20169.36
222.155	20218.95
222.229	20282.66
222.302	20325.31
222.375	20369.26
222.448	20419.43
222.521	20463.19
222.594	20503.09
222.667	20534.56
222.74	20587.72
222.814	20621.16
222.887	20650.66
222.96	20703.96
223.033	20739.53
223.106	20777.5
223.179	20811
223.252	20833.32
223.325	20870.67
223.398	20896.4
223.471	20918.48
223.544	20954.19
223.617	20985.08
223.69	21006.05
223.763	21018.38
223.837	21041.18
223.91	21063.45
223.983	21067.83
224.056	21075.3
224.129	21098.82
224.202	21129.52
224.275	21143.89
224.348	21140.56
224.42	21151.16
224.493	21142.83
224.566	21159.21
224.639	21182.69
224.712	21171.31
224.785	21183.94
224.858	21185.72
224.931	21201.87
225.004	21211.02
225.077	21218.16
225.15	21195.6
225.223	21201.24
225.296	21226.98
225.369	21222.11
225.442	21215.12
225.514	21229
225.587	21248.96
225.66	21250.93
225.733	21258.5
225.806	21268.57
225.879	21273.97
225.952	21257.1
226.025	21279.76
226.097	21285.68
226.17	21275.52
226.243	21260.57
226.316	21265.88
226.389	21268.82
226.461	21272.62
226.534	21280.82
226.607	21275.52
226.68	21300.77
226.753	21299.08
226.825	21282.07
226.898	21297.64
226.971	21297.2
227.044	21296.05
227.117	21287.95
227.189	21289.39
227.262	21285.97
227.335	21275.71
227.407	21270.36
227.48	21277.2
227.553	21263.95
227.626	21253.15
227.698	21250.16
227.771	21258.79
227.844	21238.93
227.916	21230.45
227.989	21201.92
228.062	21191.02
228.134	21205.77
228.207	21198.59
228.28	21182.78
228.352	21170.4
228.425	21161.09
228.498	21171.5
228.57	21159.84
228.643	21155.55
228.716	21131.21
228.788	21113.81
228.861	21091.79
228.934	21090.2
229.006	21085.47
229.079	21076.85
229.151	21061.66
229.224	21028.22
229.296	21016.46
229.369	21042.53
229.442	21053.23
229.514	21040.65
229.587	21031.98
229.659	20989.28
229.732	20978.72
229.804	20988.21
229.877	20995.59
229.949	20995.11
230.022	20995.16
230.094	20979.01
230.167	20975.3
230.239	20955.01
230.312	20947.83
230.384	20963.4
230.457	20953.8
230.529	20941.03
230.602	20935.73
230.674	20930
230.747	20940.31
230.819	20938.67
230.892	20886.04
230.964	20868.06
231.037	20865.99
231.109	20851.48
231.181	20847.63
231.254	20833.85
231.326	20813.12
231.399	20787.1
231.471	20765.65
231.544	20720.73
231.616	20718.13
231.688	20686.18
231.761	20669.07
231.833	20639.48
231.905	20604.05
231.978	20584.58
232.05	20554.37
232.122	20521.74
232.195	20493.02
232.267	20483.91
232.339	20455.81
232.412	20449.98
232.484	20416
232.556	20390.85
232.629	20393.93
232.701	20390.8
232.773	20370.94
232.846	20341.45
232.918	20319.86
232.99	20288.73
233.062	20278.08
233.135	20248.68
233.207	20230.17
233.279	20224.58
233.351	20225.98
233.424	20199.14
233.496	20172.97
233.568	20183.23
233.64	20156.3
233.713	20140.97
233.785	20106.56
233.857	20103.04
233.929	20072.78
234.001	20076.54
234.074	20064.06
234.146	20011.72
234.218	19984.98
234.29	19947.72
234.362	19915.2
234.434	19879.44
234.507	19847.49
234.579	19803.97
234.651	19781.32
234.723	19762.29
234.795	19736.31
234.867	19696.22
234.939	19683.78
235.012	19654.34
235.084	19617.33
235.156	19602.44
235.228	19566.25
235.3	19536.95
235.372	19503.21
235.444	19492.9
235.516	19433.87
235.588	19406.59
235.66	19388.96
235.732	19347.61
235.804	19378.93
235.876	19373.34
235.948	19359.46
236.02	19328.38
236.092	19298.46
236.164	19270.31
236.236	19234.65
236.308	19199.28
236.38	19170.75
236.452	19130.95
236.524	19105.94
236.596	19098.66
236.668	19074.57
236.74	19048.11
236.812	19034.38
236.884	19008.55
236.956	18974.33
237.028	18945.61
237.1	18914.19
237.172	18902.77
237.244	18891.44
237.316	18825.62
237.388	18782.2
237.46	18746.39
237.532	18741.86
237.604	18712.52
237.675	18696.13
237.747	18679.99
237.819	18646.83
237.891	18618.21
237.963	18586.02
238.035	18546.26
238.107	18476.43
238.178	18460.48
238.25	18434.75
238.322	18418.36
238.394	18376.34
238.466	18339.14
238.538	18312.83
238.609	18287.72
238.681	18233.89
238.753	18196.59
238.825	18171.44
238.897	18145.94
238.968	18131.77
239.04	18089.13
239.112	18084.36
239.184	18046.77
239.255	18005.52
239.327	17975.4
239.399	17944.07
239.471	17920.84
239.542	17905.42
239.614	17892.46
239.686	17843.69
239.758	17816.89
239.829	17774.58
239.901	17759.74
239.973	17735.26
240.044	17714.49
240.116	17681.67
240.188	17652.61
240.259	17621.28
240.331	17582.97
240.403	17560.13
240.474	17519.89
240.546	17482.25
240.618	17432.03
240.689	17392.75
240.761	17377.53
240.833	17371.65
240.904	17341.48
240.976	17309.38
241.048	17275.5
241.119	17250.15
241.191	17213.04
241.262	17200.8
241.334	17168.66
241.405	17128.51
241.477	17092.75
241.549	17055.54
241.62	17024.03
241.692	16999.4
241.763	16984.7
241.835	16949.76
241.906	16915.06
241.978	16870.19
242.049	16852.16
242.121	16835.58
242.192	16825.7
242.264	16776.3
242.335	16723.53
242.407	16699.87
242.478	16676.39
242.55	16662.27
242.621	16625.31
242.693	16598.32
242.764	16564.53
242.836	16529.54
242.907	16497.68
242.979	16479.13
243.05	16451.17
243.122	16430.83
243.193	16403.8
243.264	16353.67
243.336	16322.29
243.407	16304.12
243.479	16294.44
243.55	16272.6
243.622	16249.08
243.693	16215.49
243.764	16195.68
243.836	16159.39
243.907	16126.71
243.978	16090.17
244.05	16054.51
244.121	16006.79
244.192	15984.81
244.264	15935.65
244.335	15917.14
244.407	15882.72
244.478	15854.91
244.549	15824.16
244.62	15785.75
244.692	15752.97
244.763	15731.81
244.834	15698.36
244.906	15659.99
244.977	15632.71
245.048	15616.08
245.119	15579.98
245.191	15539.4
245.262	15497.51
245.333	15489.75
245.405	15460.59
245.476	15441.4
245.547	15416.34
245.618	15405.4
245.689	15387.08
245.761	15364.57
245.832	15331.31
245.903	15308.51
245.974	15273.66
246.045	15249.12
246.117	15235.82
246.188	15198.9
246.259	15162.5
246.33	15139.08
246.401	15107.94
246.473	15062.82
246.544	15023.05
246.615	15005.22
246.686	14972.1
246.757	14958.65
246.828	14918.93
246.899	14910.4
246.97	14863.11
247.042	14828.55
247.113	14811.92
247.184	14796.3
247.255	14767.57
247.326	14735.33
247.397	14704.33
247.468	14678.2
247.539	14650.44
247.61	14605.9
247.681	14587.92
247.752	14573.31
247.823	14537.16
247.894	14517.2
247.965	14483.07
248.037	14447.78
248.108	14411.44
248.179	14388.93
248.25	14361.74
248.321	14344.87
248.392	14311.17
248.463	14308.71
248.534	14279.98
248.605	14254.58
248.675	14216.79
248.746	14194.18
248.817	14181.84
248.888	14163.42
248.959	14127.75
249.03	14111.41
249.101	14086.97
249.172	14057.66
249.243	14009.84
249.314	14003.42
249.385	13982.74
249.456	13963.12
249.527	13941.91
249.598	13921.67
249.669	13900.41
249.739	13880.74
249.81	13866.57
249.881	13824.53
249.952	13794.5
250.023	13770.93
250.094	13735.3
250.165	13711.29
250.235	13686.37
250.306	13659.38
250.377	13624.86
250.448	13611.7
250.519	13572.12
250.59	13570.15
250.66	13543.34
250.731	13537.75
250.802	13509.98
250.873	13486.7
250.944	13472.38
251.014	13438.11
251.085	13438.25
251.156	13419.98
251.227	13408.6
251.297	13386.91
251.368	13378.86
251.439	13373.17
251.51	13364.25
251.58	13328.2
251.651	13302.45
251.722	13298.21
251.792	13258.73
251.863	13245.67
251.934	13237.33
252.005	13244.37
252.075	13225.95
252.146	13221.42
252.217	13210.72
252.287	13199.53
252.358	13174.27
252.429	13166.99
252.499	13142.31
252.57	13122.07
252.641	13110.93
252.711	13087.74
252.782	13054.63
252.852	13056.17
252.923	13026.81
252.994	13005.07
253.064	13008.3
253.135	12982.46
253.205	12954.65
253.276	12958.5
253.347	12952.33
253.417	12917.82
253.488	12889.28
253.558	12861.13
253.629	12837.22
253.699	12821.65
253.77	12811.18
253.841	12792
253.911	12777.2
253.982	12775.85
254.052	12761.29
254.123	12744.61
254.193	12724.03
254.264	12736.85
254.334	12707.06
254.405	12684.26
254.475	12651.82
254.546	12622.12
254.616	12613.06
254.687	12590.5
254.757	12572.86
254.827	12555.46
254.898	12539.84
254.968	12521.33
255.039	12495.64
255.109	12484.26
255.18	12453.41
255.25	12405.69
255.321	12392.05
255.391	12360.71
255.461	12356.23
255.532	12316.75
255.602	12292.26
255.673	12255.29
255.743	12235.38
255.813	12183.71
255.884	12174.07
255.954	12168.14
256.024	12171.47
256.095	12154.11
256.165	12129.19
256.235	12120.61
256.306	12089.33
256.376	12089.33
256.446	12078.92
256.517	12063.49
256.587	12052.12
256.657	12039.1
256.728	12030.48
256.798	12015.1
256.868	11993.17
256.938	11964.54
257.009	11949.16
257.079	11940.2
257.149	11952.63
257.219	11915.61
257.29	11906.84
257.36	11871.03
257.43	11860.28
257.5	11822.25
257.571	11801.57
257.641	11790.92
257.711	11756.22
257.781	11747.78
257.852	11728.98
257.922	11687.58
257.992	11677.22
258.062	11665.6
258.132	11655.86
258.202	11636.39
258.273	11625.07
258.343	11630.37
258.413	11604.29
258.483	11589.4
258.553	11554.51
258.623	11517.78
258.693	11497.73
258.764	11500.81
258.834	11501.3
258.904	11486.45
258.974	11457.29
259.044	11434.55
259.114	11420.62
259.184	11409.24
259.254	11387.31
259.324	11354.01
259.394	11349.19
259.464	11344.37
259.535	11315.02
259.605	11293.14
259.675	11269.33
259.745	11254.34
259.815	11222.92
259.885	11207.55
259.955	11212.42
260.025	11201.67
260.095	11190.87
260.165	11186.2
260.235	11187.26
260.305	11159.98
260.375	11133.77
260.445	11142.73
260.515	11140.61
260.585	11138.44
260.655	11114.1
260.725	11109.62
260.795	11101.14
260.865	11101.43
260.934	11072.27
261.004	11061.67
261.074	11043.98
261.144	11043.31
261.214	11034.25
261.284	11020.85
261.354	11011.75
261.424	10992.8
261.494	10984.61
261.564	10969.34
261.634	10955.22
261.703	10917.92
261.773	10905.87
261.843	10894.79
261.913	10878.93
261.983	10849.78
262.053	10835.9
262.123	10824.92
262.192	10797.74
262.262	10796.1
262.332	10769.36
262.402	10760.54
262.472	10751.33
262.541	10725.56
262.611	10719.1
262.681	10692.55
262.751	10678
262.821	10662.63
262.89	10623.55
262.96	10610.92
263.03	10615.69
263.1	10610.54
263.169	10594.98
263.239	10589.77
263.309	10594.54
263.379	10586.06
263.448	10573.82
263.518	10568.62
263.588	10549.73
263.657	10547.32
263.727	10539.04
263.797	10523.57
263.867	10505.5
263.936	10474.04
264.006	10471.58
264.076	10451.54
264.145	10432.41
264.215	10412.95
264.285	10403.32
264.354	10376.58
264.424	10361.5
264.494	10333.51
264.563	10309.41
264.633	10311
264.702	10298.38
264.772	10265.04
264.842	10248.71
264.911	10241.58
264.981	10206.36
265.05	10196.1
265.12	10177.07
265.19	10157.94
265.259	10148.11
265.329	10146.57
265.398	10136.17
265.468	10148.55
265.537	10130.29
265.607	10128.27
265.676	10133.28
265.746	10127.69
265.815	10125.81
265.885	10111.22
265.955	10080.05
266.024	10052.26
266.094	10020.66
266.163	10024.99
266.232	10024.75
266.302	10005.19
266.371	9999.17
266.441	9990.26
266.51	9987.8
266.58	9973.79
266.649	9953.17
266.719	9950.91
266.788	9942.77
266.858	9948.26
266.927	9912.9
266.996	9901.43
267.066	9891.27
267.135	9859.77
267.205	9847.58
267.274	9837.9
267.343	9839.54
267.413	9837.52
267.482	9848.98
267.552	9850.62
267.621	9813.34
267.69	9785.01
267.76	9774.66
267.829	9759.54
267.898	9752.17
267.968	9724.14
268.037	9724.57
268.106	9727.17
268.176	9702.41
268.245	9677.37
268.314	9660.7
268.384	9657.81
268.453	9653.82
268.522	9644.9
268.592	9645.63
268.661	9623.57
268.73	9620.2
268.799	9597.56
268.869	9603.15
268.938	9573.29
269.007	9557.69
269.076	9553.83
269.146	9551.47
269.215	9550.27
269.284	9557.98
269.353	9537.56
269.422	9531.39
269.492	9513.34
269.561	9474.14
269.63	9471.34
269.699	9461.71
269.768	9449.58
269.838	9433.4
269.907	9424.53
269.976	9400.17
270.045	9371.42
270.114	9376.91
270.183	9366.37
270.253	9358.76
270.322	9323.8
270.391	9314.8
270.46	9315.33
270.529	9307.72
270.598	9303.87
270.667	9289.47
270.736	9262.4
270.806	9249.98
270.875	9250.42
270.944	9232.7
271.013	9255.18
271.082	9244.98
271.151	9240.98
271.22	9210.55
271.289	9201.69
271.358	9190.62
271.427	9184.89
271.496	9177.04
271.565	9152.78
271.634	9141.65
271.703	9166.55
271.772	9171.51
271.841	9156.35
271.91	9131.7
271.979	9128.81
272.048	9107.24
272.117	9104.64
272.186	9092.89
272.255	9101.89
272.324	9091.73
272.393	9089.86
272.462	9073.1
272.531	9062.94
272.6	9052.3
272.669	9066.36
272.738	9054.18
272.807	9045.7
272.876	9030.2
272.945	9058.56
273.013	9061.69
273.082	9062.65
273.151	9017.25
273.22	9008.58
273.289	9004.73
273.358	9015.08
273.427	9008.97
273.496	9013.06
273.564	9006.99
273.633	9002.32
273.702	8976.09
273.771	8972.67
273.84	8962.42
273.909	8957.41
273.977	8962.13
274.046	8948.51
274.115	8949.28
274.184	8932
274.253	8927.09
274.322	8931.13
274.39	8895.65
274.459	8880.63
274.528	8851.99
274.597	8848.96
274.665	8852.81
274.734	8862
274.803	8852.57
274.872	8839.86
274.94	8823.06
275.009	8870.54
275.078	8857.16
275.147	8862.84
275.215	8855.43
275.284	8863.37
275.353	8854.9
275.421	8824.86
275.49	8836.61
275.559	8824.91
275.627	8824.33
275.696	8819.71
275.765	8823.52
275.833	8815.29
275.902	8814.32
275.971	8828.76
276.039	8836.7
276.108	8834.2
276.177	8826.45
276.245	8815.81
276.314	8809.7
276.383	8813.36
276.451	8759.62
276.52	8763.32
276.588	8769.77
276.657	8772.08
276.725	8765.63
276.794	8764.09
276.863	8781.42
276.931	8765.1
277	8765.54
277.068	8771.94
277.137	8784.69
277.205	8775.16
277.274	8795.95
277.342	8809.53
277.411	8790.23
277.48	8777.47
277.548	8770.78
277.617	8776.27
277.685	8771.17
277.754	8774.2
277.822	8763.28
277.89	8771.12
277.959	8763.76
278.027	8749.71
278.096	8740.66
278.164	8765.21
278.233	8760.15
278.301	8742.64
278.37	8743.07
278.438	8737.44
278.507	8741.62
278.575	8716.16
278.643	8714.19
278.712	8692.34
278.78	8676.94
278.849	8684.78
278.917	8692.77
278.985	8683.67
279.054	8682.33
279.122	8692.63
279.191	8691.76
279.259	8693.44
279.327	8669.86
279.396	8687.23
279.464	8679.1
279.532	8688.63
279.601	8680.49
279.669	8667.31
279.737	8687.81
279.806	8690.12
279.874	8698.45
279.942	8694.64
280.011	8691.37
280.079	8696.23
280.147	8715.29
280.215	8718.81
280.284	8718.71
280.352	8708.31
280.42	8716.83
280.488	8705.71
280.557	8693.49
280.625	8698.16
280.693	8692.53
280.761	8698.26
280.83	8682.08
280.898	8699.79
280.966	8675.49
281.034	8643.96
281.102	8635.78
281.171	8620.19
281.239	8625.87
281.307	8617.4
281.375	8601.47
281.443	8626.5
281.512	8620.62
281.58	8625.15
281.648	8610.42
281.716	8615.28
281.784	8614.51
281.852	8604.74
281.92	8603.11
281.989	8617.35
282.057	8593.92
282.125	8622.27
282.193	8621.26
282.261	8615.96
282.329	8599.31
282.397	8604.22
282.465	8610.86
282.533	8625.2
282.601	8620.48
282.67	8598.78
282.738	8585.21
282.806	8601.04
282.874	8585.83
282.942	8586.07
283.01	8576.49
283.078	8581.01
283.146	8571.53
283.214	8580
283.282	8586.79
283.35	8600.27
283.418	8590.49
283.486	8600.17
283.554	8573.65
283.622	8568.69
283.69	8571.72
283.758	8571.34
283.826	8577.54
283.894	8585.39
283.962	8599.49
284.03	8613.83
284.098	8618.12
284.165	8616.19
284.233	8611.38
284.301	8606.52
284.369	8595.35
284.437	8582.79
284.505	8576.34
284.573	8589.05
284.641	8576.05
284.709	8580.72
284.777	8563.93
284.845	8569.65
284.912	8567.54
284.98	8570.62
285.048	8564.55
285.116	8570.86
285.184	8584.33
285.252	8581.3
285.319	8567.49
285.387	8554.4
285.455	8534.04
285.523	8535.15
285.591	8529.23
285.659	8532.16
285.726	8536.16
285.794	8524.85
285.862	8529.28
285.93	8532.74
285.997	8524.47
286.065	8520.18
286.133	8503.29
286.201	8501.13
286.269	8486.88
286.336	8482.41
286.404	8480.38
286.472	8490.11
286.539	8467.39
286.607	8449.15
286.675	8453.49
286.743	8454.98
286.81	8450.79
286.878	8462.44
286.946	8454.98
287.013	8458.73
287.081	8456.04
287.149	8447.23
287.216	8467.78
287.284	8458.25
287.352	8452.04
287.419	8450.4
287.487	8466.53
287.555	8474.56
287.622	8468.26
287.69	8473.31
287.758	8486.98
287.825	8475.53
287.893	8462.25
287.96	8470.47
288.028	8479.09
288.096	8475.43
288.163	8473.6
288.231	8462.39
288.298	8459.74
288.366	8473.12
288.433	8465.85
288.501	8454.69
288.569	8461.67
288.636	8457.1
288.704	8469.22
288.771	8481.25
288.839	8470.04
288.906	8459.12
288.974	8463.98
289.041	8461.81
289.109	8449.98
289.176	8451.56
289.244	8463.16
289.311	8477.07
289.379	8482.75
289.446	8485.78
289.514	8487.32
289.581	8490.64
289.649	8498.82
289.716	8501.99
289.783	8493.86
289.851	8514.02
289.918	8514.98
289.986	8524.27
290.053	8528.46
290.121	8529.23
290.188	8526.15
290.255	8553.72
290.323	8546.22
290.39	8537.99
290.458	8547.71
290.525	8564.84
290.592	8558.44
290.66	8551.51
290.727	8542.03
290.794	8557.77
290.862	8558.68
290.929	8559.84
290.996	8559.5
291.064	8564.74
291.131	8568.11
291.198	8580.91
291.266	8580.29
291.333	8583.46
291.4	8584.14
291.468	8597.18
291.535	8589.29
291.602	8597.66
291.669	8585.44
291.737	8590.49
291.804	8598.67
291.871	8609.12
291.938	8612.34
292.006	8638.14
292.073	8655.42
292.14	8669.71
292.207	8655.03
292.275	8654.89
292.342	8664.13
292.409	8688.29
292.476	8710.82
292.543	8706.1
292.611	8705.04
292.678	8714.91
292.745	8736.52
292.812	8743.4
292.879	8737.91
292.946	8741.33
293.014	8744.55
293.081	8757.79
293.148	8775.26
293.215	8784.07
293.282	8778.54
293.349	8784.99
293.416	8769.53
293.484	8780.41
293.551	8787.87
293.618	8807.7
293.685	8826.62
293.752	8821.28
293.819	8812.56
293.886	8805.97
293.953	8810.06
294.02	8823.73
294.087	8834.27
294.154	8829.79
294.221	8844.57
294.288	8846.31
294.356	8865.56
294.423	8873.36
294.49	8864.5
294.557	8868.54
294.624	8860.27
294.691	8878.56
294.758	8878.99
294.825	8888.33
294.892	8883.13
294.959	8883.85
295.026	8888.09
295.093	8883.08
295.16	8881.73
295.226	8886.45
295.293	8903.88
295.36	8907.44
295.427	8913.7
295.494	8921.59
295.561	8931.27
295.628	8947.06
295.695	8962.23
295.762	8961.02
295.829	8972.58
295.896	8987.6
295.963	9001.08
296.03	9016
296.096	9024.38
296.163	9035.74
296.23	9050.61
296.297	9055.04
296.364	9055.24
296.431	9066.6
296.498	9063.28
296.564	9086.19
296.631	9088.02
296.698	9067.41
296.765	9093.41
296.832	9087.25
296.899	9073.58
296.965	9087.68
297.032	9065.2
297.099	9079.78
297.166	9091.34
297.233	9077.81
297.299	9072.23
297.366	9072.27
297.433	9066.74
297.5	9071.41
297.566	9073.24
297.633	9064.09
297.7	9068.04
297.767	9065.78
297.833	9061.06
297.9	9064.28
297.967	9049.84
298.033	9060.24
298.1	9092.98
298.167	9082.77
298.234	9084.79
298.3	9093.8
298.367	9086.62
298.434	9096.44
298.5	9083.4
298.567	9071.12
298.634	9078.05
298.7	9095.05
298.767	9094.71
298.834	9108.91
298.9	9098.75
298.967	9084.98
299.033	9088.55
299.1	9106.51
299.167	9120.27
299.233	9115.46
299.3	9128.65
299.366	9145.36
299.433	9159.03
299.5	9133.13
299.566	9134.23
299.633	9153.83
299.699	9159.03
299.766	9157.25
299.832	9159.08
299.899	9167.46
299.965	9180.12
300.032	9175.93
300.099	9177.04
300.165	9176.12
300.232	9171.79
300.298	9173.86
300.365	9186.57
300.431	9194.32
300.498	9182
300.564	9182.38
300.631	9196.97
300.697	9202.6
300.763	9197.79
300.83	9201.16
300.896	9212.18
300.963	9224.03
301.029	9220.61
301.096	9228.36
301.162	9231.44
301.229	9227.4
301.295	9214.11
301.361	9217.77
301.428	9222.05
301.494	9207.66
301.561	9215.7
301.627	9215.7
301.693	9216.13
301.76	9225.71
301.826	9213.29
301.892	9223.21
301.959	9230.34
302.025	9226.73
302.092	9217.34
302.158	9224.37
302.224	9218.49
302.291	9209.73
302.357	9199.23
302.423	9191.53
302.49	9183.63
302.556	9195.72
302.622	9191.53
302.688	9201.59
302.755	9208.57
302.821	9214.83
302.887	9224.41
302.954	9213.58
303.02	9219.4
303.086	9224.75
303.152	9221.33
303.219	9224.36
303.285	9226.63
303.351	9233.32
303.417	9233.37
303.483	9231.59
303.55	9218.01
303.616	9215.02
303.682	9214.49
303.748	9203.57
303.815	9216.62
303.881	9220.47
303.947	9204.92
304.013	9197.93
304.079	9192.49
304.145	9174.34
304.212	9170.88
304.278	9155.47
304.344	9155.42
304.41	9142.23
304.476	9135.01
304.542	9126.2
304.608	9124.37
304.674	9107.71
304.741	9098.32
304.807	9094.8
304.873	9101.64
304.939	9118.16
305.005	9100.73
305.071	9097.74
305.137	9103.61
305.203	9075.35
305.269	9070.92
305.335	9085.46
305.401	9093.45
305.467	9089.22
305.533	9092.2
305.599	9095.04
305.666	9100.15
305.732	9095.76
305.798	9109.49
305.864	9132.74
305.93	9132.84
305.996	9134.04
306.062	9132.45
306.128	9128.12
306.194	9115.7
306.259	9110.02
306.325	9098.08
306.391	9102.99
306.457	9104.87
306.523	9103.13
306.589	9131.25
306.655	9122.44
306.721	9103.47
306.787	9084.89
306.853	9096.2
306.919	9085.61
306.985	9079.59
307.051	9076.42
307.117	9067.32
307.183	9057.26
307.248	9025.67
307.314	9025.82
307.38	9022.45
307.446	9029.33
307.512	9012.77
307.578	9018.74
307.644	9013.59
307.709	9011.81
307.775	9006.17
307.841	9000.69
307.907	9006.51
307.973	8979.89
308.039	8984.27
308.104	8985.9
308.17	8992.5
308.236	8974.83
308.302	8978.34
308.368	8963.47
308.433	8963.9
308.499	8954.71
308.565	8943.88
308.631	8944.02
308.696	8922.7
308.762	8912.49
308.828	8904.98
308.894	8887.42
308.959	8858.3
309.025	8846.79
309.091	8838.56
309.156	8831.87
309.222	8838.8
309.288	8818.29
309.354	8798.75
309.419	8787.63
309.485	8772.28
309.551	8769.87
309.616	8761.3
309.682	8750.38
309.748	8740.9
309.813	8732.57
309.879	8730.16
309.945	8718.52
310.01	8715.48
310.076	8717.74
310.141	8707.73
310.207	8688.58
310.273	8697.09
310.338	8705.13
310.404	8686.8
310.469	8677.36
310.535	8663.36
310.601	8628.56
310.666	8634.38
310.732	8637.8
310.797	8628.7
310.863	8622.93
310.928	8613.35
310.994	8607.48
311.059	8605.75
311.125	8605.12
311.191	8608.39
311.256	8592.27
311.322	8594.05
311.387	8570.04
311.453	8881.05
311.518	8859.4
311.584	8862.62
311.649	8861.57
311.715	8853
311.78	8853.24
311.846	8844.1
311.911	8851.99
311.976	8860.99
312.042	8842.41
312.107	8830.81
312.173	8818.45
312.238	8810.7
312.304	8800.59
312.369	8790.82
312.434	8775.52
312.5	8767.49
312.565	8741.6
312.631	8749.63
312.696	8734.33
312.761	8733.46
312.827	8411.38
312.892	8441.41
312.958	8430.68
313.023	8422.16
313.088	8421.97
313.154	8413.88
313.219	8407.05
313.284	8396.66
313.35	8392.61
313.415	8380.63
313.48	8374.23
313.546	8377.7
313.611	8377.89
313.676	8374.72
313.741	8366.1
313.807	8375.15
313.872	8379.38
313.937	8383.91
314.003	8392.91
314.068	8398.05
314.133	8408.16
314.198	8396.08
314.264	8374.52
314.329	8369.9
314.394	8370.05
314.459	8357.73
314.525	8364.66
314.59	8354.84
314.655	8337.24
314.72	8342.29
314.785	8346.62
314.851	8336.61
314.916	8319.19
314.981	8307.74
315.046	8301.78
315.111	8293.55
315.176	8275.65
315.242	8272.72
315.307	8269.45
315.372	8246.25
315.437	8236.78
315.502	8225.42
315.567	8229.27
315.632	8216.9
315.698	8216.18
315.763	8210.22
315.828	8203.72
315.893	8207.62
315.958	8203
316.023	8195.02
316.088	8176.01
316.153	8155.42
316.218	8150.76
316.283	8133.35
316.348	8117.76
316.413	8106.94
316.479	8093.91
316.544	8065.48
316.609	8039.03
316.674	8006.18
316.739	7974.2
316.804	7942.74
316.869	7907.88
316.934	7876.85
316.999	7847.57
317.064	7800.54
317.129	7754.22
317.194	7721.81
317.259	7669.15
317.324	7623.43
317.389	7585.07
317.454	7546.46
317.518	7515.11
317.583	7491.84
317.648	7470.35
317.713	7440.74
317.778	7384.69
317.843	7359.88
317.908	7325.95
317.973	7285
318.038	7256.64
318.103	7226.13
318.168	7200.27
318.233	7175.76
318.297	7127.81
318.362	7093.64
318.427	7052.86
318.492	7030.42
318.557	6987.66
318.622	6965.13
318.687	6946.83
318.751	6911.52
318.816	6876.98
318.881	6843.65
318.946	6793.07
319.011	6747.77
319.075	6708.86
319.14	6681.54
319.205	6630.2
319.27	6602.88
319.335	6565.48
319.399	6526.58
319.464	6493.6
319.529	6440.84
319.594	6400.26
319.658	6379.67
319.723	6340.98
319.788	6317.27
319.853	6268.55
319.917	6240.52
319.982	6191.76
320.047	6155.61
320.112	6133.4
320.176	6086.76
320.241	6057.82
320.306	6029.22
320.37	5990.8
320.435	5956.83
320.5	5931.79
320.564	5901.47
320.629	5857.4
320.694	5827.56
320.758	5795.24
320.823	5757.93
320.888	5735.58
320.952	5690.27
321.017	5647.3
321.082	5614.56
321.146	5585.16
321.211	5552.76
321.275	5514.65
321.34	5470.8
321.405	5427.62
321.469	5383.37
321.534	5345.19
321.598	5295.02
321.663	5266.83
321.727	5243.16
321.792	5199.42
321.857	5153.76
321.921	5114.76
321.986	5079.18
322.05	5025.97
322.115	4986.7
322.179	4946.28
322.244	4891.03
322.308	4861.01
322.373	4820.7
322.437	4777.23
322.502	4749.26
322.566	4710.58
322.631	4678.22
322.695	4643.1
322.76	4604.53
322.824	4569.69
322.889	4530.42
322.953	4487.62
323.018	4424.84
323.082	4357.41
323.146	4311.36
323.211	4266.31
323.275	4227.19
323.34	4181.63
323.404	4147.98
323.468	4105.18
323.533	4064.31
323.597	4023.75
323.662	3975.05
323.726	3939.63
323.79	3900.49
323.855	3840.68
323.919	3796.58
323.983	3749.95
324.048	3690.79
324.112	3816.9
324.177	3697.66
324.241	3507.68
324.305	3322.18
324.37	3139.22
324.434	2966.58
324.498	2925.1
324.562	2877.41
324.627	2820.91
324.691	2771.75
324.755	2712.75
324.82	2642.07
324.884	2571.53
324.948	2507.8
325.012	2421.01
325.077	2305.85
