Data from 20250625_urea_1M_1_MAYP1162681_13-55-05-392.txt Node
Date: Thu Jun 26 13:55:05 BST 2025
User: adleo
Spectrometer: MAYP116268
Trigger mode: 0
Integration Time (sec): 1.000000E0
Scans to average: 1
Electric dark correction enabled: true
Nonlinearity correction enabled: true
Boxcar width: 10
XAxis mode: Wavelengths
Number of Pixels in Spectrum: 2068
>>>>>Begin Spectral Data<<<<<
179.565	1140.26
179.642	1192.35
179.718	1231.27
179.795	1269.06
179.871	1300.34
179.948	1317.86
180.024	1336.61
180.101	1357.54
180.177	1368.34
180.254	1390.63
180.33	1410.51
180.407	1460.16
180.483	1549.91
180.56	1633.28
180.636	1714.51
180.712	1701.2
180.789	1710.14
180.865	1721.35
180.942	1730.9
181.018	1740.07
181.095	1754.23
181.171	1757.09
181.248	1758.99
181.324	1774.96
181.4	1780.57
181.477	1790.74
181.553	1802.05
181.63	1822.15
181.706	1836.36
181.782	1849.24
181.859	1849.34
181.935	1856.23
182.011	1855.51
182.088	1872.87
182.164	1894.88
182.24	1904.63
182.317	1915.99
182.393	1914.32
182.469	1927.63
182.546	1938.33
182.622	1941.89
182.698	1939.28
182.775	1952.16
182.851	1964.95
182.927	1961.01
183.003	1957.58
183.08	1952.45
183.156	1962.48
183.232	1961.62
183.308	1951.69
183.385	1954.4
183.461	1969.99
183.537	1970.56
183.613	1980.17
183.69	1972.13
183.766	1961.43
183.842	1970.7
183.918	1977.41
183.995	1985.63
184.071	1986.82
184.147	1982.83
184.223	1973.46
184.299	1983.45
184.375	1973.61
184.452	1978.7
184.528	2027.5
184.604	2036.34
184.68	2047.19
184.756	2052.7
184.832	2056.56
184.908	2061.83
184.985	2064.11
185.061	2048.52
185.137	2056.51
185.213	2045.9
185.289	2045.76
185.365	2038.34
185.441	2036.44
185.517	2048.62
185.593	2050.76
185.669	2047.95
185.745	2055.42
185.822	2070.3
185.898	2062.02
185.974	2068.58
186.05	2060.4
186.126	2023.63
186.202	2018.07
186.278	2013.6
186.354	2006.56
186.43	2011.94
186.506	2010.18
186.582	2009.51
186.658	2015.46
186.734	1997.58
186.81	1997.86
186.886	2000.15
186.962	2011.75
187.038	2006.9
187.114	1997.9
187.19	2002.66
187.266	1995.43
187.341	1997
187.417	1988.54
187.493	1988.35
187.569	1994.15
187.645	1991.06
187.721	1980.93
187.797	1989.92
187.873	1994.86
187.949	1989.06
188.025	1982.74
188.101	1985.64
188.176	1992.25
188.252	1987.44
188.328	1995.71
188.404	1994.05
188.48	1989.82
188.556	1981.74
188.632	1983.26
188.707	1982.64
188.783	1977.31
188.859	1972.51
188.935	1963.1
189.011	1971.37
189.086	1967.47
189.162	1958.81
189.238	1956.77
189.314	1953.06
189.39	1946.59
189.465	1941.13
189.541	1955.01
189.617	1940.84
189.693	1935.19
189.768	1936.71
189.844	1959.44
189.92	1949.22
189.996	1962.11
190.071	1972.67
190.147	1973.76
190.223	1980.8
190.298	1973.52
190.374	1963.16
190.45	1973.47
190.526	1985.46
190.601	1982.56
190.677	1983.13
190.753	2009.49
190.828	2011.58
190.904	2024.23
190.98	2036.12
191.055	2042.78
191.131	2034.26
191.207	2052.48
191.282	2061.41
191.358	2051.57
191.433	2040.39
191.509	2054.36
191.585	2048.8
191.66	2049.42
191.736	2058.55
191.811	2050.99
191.887	2067.49
191.963	2089.75
192.038	2096.93
192.114	2095.7
192.189	2099.6
192.265	2098.36
192.34	2075.71
192.416	2076.47
192.491	2073.24
192.567	2077.61
192.642	2082.8
192.718	2085.46
192.793	2074.43
192.869	2072.24
192.944	2076.99
193.02	2082.8
193.095	2085.22
193.171	2092.83
193.246	2093.36
193.322	2086.13
193.397	2086.79
193.473	2076.09
193.548	2062.1
193.624	2066.05
193.699	2063.72
193.775	2079.28
193.85	2078.95
193.925	2088.6
194.001	2087.65
194.076	2080.09
194.152	2067.82
194.227	2060.59
194.302	2048.7
194.378	2052.84
194.453	2050.89
194.529	2057.93
194.604	2045.37
194.679	2040.43
194.755	2020.93
194.83	2032.07
194.905	2033.54
194.981	2042.29
195.056	2031.31
195.131	2035.4
195.207	2032.88
195.282	2021.18
195.357	2002.48
195.433	2016.42
195.508	2003.86
195.583	2009.23
195.659	2026.69
195.734	2036.97
195.809	2035.59
195.884	2045.38
195.96	2046.28
196.035	2060.41
196.11	2059.74
196.185	2071.63
196.261	2071.92
196.336	2102.79
196.411	2087.85
196.486	2091.46
196.561	2084.18
196.637	2093.79
196.712	2107.49
196.787	2113.06
196.862	2131.27
196.937	2141.21
197.013	2145.78
197.088	2156.01
197.163	2176.23
197.238	2187.9
197.313	2184.99
197.388	2198.65
197.464	2226.87
197.539	2237.67
197.614	2231.2
197.689	2244.43
197.764	2259.23
197.839	2280.45
197.914	2275.64
197.989	2298.77
198.065	2314.09
198.14	2365.43
198.215	2392.56
198.29	2406.99
198.365	2416.37
198.44	2423.41
198.515	2450.5
198.59	2466.64
198.665	2491.78
198.74	2500.54
198.815	2504.78
198.89	2530.11
198.965	2558.59
199.04	2553.83
199.115	2567.83
199.19	2608.92
199.265	2609.59
199.34	2620.83
199.415	2655.57
199.49	2674.61
199.565	2681.81
199.64	2703.91
199.715	2699.19
199.79	2705.29
199.865	2709.1
199.94	2711
200.015	2745.93
200.09	2750.5
200.165	2752.98
200.24	2760.61
200.315	2798.47
200.39	2812.24
200.464	2816.72
200.539	2816.82
200.614	2834.25
200.689	2855.89
200.764	2863.37
200.839	2881.47
200.914	2884.38
200.989	2873.08
201.063	2888.47
201.138	2874.19
201.213	2874.9
201.288	2857.08
201.363	2862.7
201.438	2863.23
201.512	2877.66
201.587	2858.12
201.662	2861.64
201.737	2880.85
201.812	2888.77
201.886	2858.67
201.961	2867.25
202.036	2856.96
202.111	2855.15
202.186	2825.67
202.26	2812.75
202.335	2789.16
202.41	2785.25
202.485	2768.34
202.559	2751
202.634	2723.7
202.709	2730.46
202.784	2709.31
202.858	2709.64
202.933	2691.49
203.008	2686.82
203.082	2666.29
203.157	2668.82
203.232	2628.2
203.306	2602.66
203.381	2571.5
203.456	2549.55
203.53	2526.67
203.605	2508.63
203.68	2485.57
203.754	2478.43
203.829	2462.1
203.904	2447.62
203.978	2433.81
204.053	2437.62
204.127	2425.24
204.202	2424.39
204.277	2409.3
204.351	2401.97
204.426	2393.73
204.5	2385.3
204.575	2351.28
204.65	2359.7
204.724	2348.13
204.799	2354.88
204.873	2352.41
204.948	2352.31
205.022	2340.56
205.097	2329.65
205.171	2339.84
205.246	2346.84
205.32	2350.07
205.395	2348.93
205.469	2336.42
205.544	2342.42
205.618	2326.8
205.693	2338.61
205.767	2325.14
205.842	2347.52
205.916	2342.05
205.991	2331.67
206.065	2338.81
206.14	2354.6
206.214	2351.17
206.289	2343.98
206.363	2357.36
206.438	2358.93
206.512	2363.26
206.586	2380.54
206.661	2393.59
206.735	2371.27
206.81	2374.13
206.884	2390.6
206.958	2378.08
207.033	2393.79
207.107	2399.84
207.181	2432.22
207.256	2425.41
207.33	2446.54
207.405	2455.69
207.479	2475.73
207.553	2484.35
207.628	2467.79
207.702	2475.88
207.776	2474.12
207.851	2480.64
207.925	2494.17
207.999	2492.55
208.073	2489.79
208.148	2492.79
208.222	2481.17
208.296	2515.24
208.371	2527.58
208.445	2534.63
208.519	2562.67
208.593	2575.96
208.668	2572.29
208.742	2573.29
208.816	2574.2
208.89	2586.82
208.965	2587.59
209.039	2595.68
209.113	2612.12
209.187	2633.68
209.261	2632.82
209.336	2651.92
209.41	2672.41
209.484	2673.65
209.558	2695.23
209.632	2712.81
209.707	2723.81
209.781	2746.82
209.855	2762.74
209.929	2783.01
210.003	2790.68
210.077	2795.16
210.151	2843.47
210.226	2882.47
210.3	2909.57
210.374	2936.77
210.448	2946.31
210.522	2962.09
210.596	2978.25
210.67	2991.65
210.744	3045.44
210.818	3084.33
210.892	3111.76
210.966	3115.72
211.041	3142.66
211.115	3150.72
211.189	3186.73
211.263	3221.07
211.337	3240.15
211.411	3272.02
211.485	3287.58
211.559	3320.69
211.633	3342.91
211.707	3331.69
211.781	3361.49
211.855	3356.29
211.929	3374.89
212.003	3380.71
212.077	3415.13
212.151	3457.68
212.225	3497.77
212.299	3515.36
212.373	3536.74
212.447	3563.39
212.52	3623.23
212.594	3661.68
212.668	3713.06
212.742	3737.37
212.816	3771.29
212.89	3810.27
212.964	3850.85
213.038	3897.7
213.112	3955.88
213.186	4014.32
213.26	4047.66
213.333	4052.1
213.407	4100.55
213.481	4159.09
213.555	4224.6
213.629	4268.75
213.703	4310.8
213.777	4367.59
213.85	4407.34
213.924	4500.76
213.998	4567.63
214.072	4625.61
214.146	4678.69
214.219	4743.76
214.293	4811.59
214.367	4882.6
214.441	4964.21
214.515	5026.44
214.588	5075.49
214.662	5111.66
214.736	5170.43
214.81	5248.05
214.883	5333.54
214.957	5402.14
215.031	5463.7
215.105	5524.84
215.178	5589.7
215.252	5660.99
215.326	5719.49
215.4	5784.12
215.473	5818.71
215.547	5875.37
215.621	5946.97
215.694	6033.59
215.768	6093.87
215.842	6157.4
215.915	6225.61
215.989	6275.54
216.063	6348.76
216.136	6431.2
216.21	6516.31
216.284	6607.17
216.357	6700.19
216.431	6772.85
216.504	6869.45
216.578	6980.29
216.652	7071.45
216.725	7159.19
216.799	7252.63
216.873	7338.02
216.946	7427.12
217.02	7509.34
217.093	7597.12
217.167	7660.64
217.24	7730.13
217.314	7811.24
217.387	7892.45
217.461	7971.66
217.535	8071.12
217.608	8135.19
217.682	8216.45
217.755	8310.31
217.829	8382.97
217.902	8453.8
217.976	8543.68
218.049	8616.06
218.123	8679.74
218.196	8766.03
218.27	8841.94
218.343	8905.06
218.417	8990.84
218.49	9072.05
218.563	9168.67
218.637	9251.64
218.71	9358.15
218.784	9445.22
218.857	9532.81
218.931	9616.88
219.004	9697.93
219.077	9788.3
219.151	9882.55
219.224	9959.66
219.298	10035.77
219.371	10131.44
219.444	10203.12
219.518	10278.75
219.591	10357.56
219.665	10460
219.738	10536.31
219.811	10599.76
219.885	10682.63
219.958	10762.04
220.031	10845.69
220.105	10920.67
220.178	10996.76
220.251	11054.16
220.325	11135.56
220.398	11208.95
220.471	11288.03
220.544	11364.71
220.618	11419.41
220.691	11489.2
220.764	11566.5
220.838	11643.33
220.911	11695.77
220.984	11788.45
221.057	11874.54
221.131	11951.13
221.204	11991.62
221.277	12080.16
221.35	12190.69
221.424	12259.04
221.497	12326.52
221.57	12388.9
221.643	12466.65
221.716	12539.68
221.79	12602.78
221.863	12660.62
221.936	12727.43
222.009	12790.68
222.082	12862.75
222.155	12929.03
222.229	13012.71
222.302	13078.47
222.375	13134.34
222.448	13212.29
222.521	13268.73
222.594	13311.01
222.667	13357.96
222.74	13431.48
222.814	13486.68
222.887	13536.18
222.96	13609.22
223.033	13676.08
223.106	13735.85
223.179	13787.92
223.252	13839.93
223.325	13905.73
223.398	13960.06
223.471	14017.04
223.544	14073.88
223.617	14128.16
223.69	14184.32
223.763	14218.49
223.837	14270.32
223.91	14329.22
223.983	14353.66
224.056	14393.53
224.129	14449.59
224.202	14505.12
224.275	14536.7
224.348	14563.55
224.42	14594.11
224.493	14613.44
224.566	14648.63
224.639	14698.76
224.712	14740.46
224.785	14772.9
224.858	14808.04
224.931	14852.2
225.004	14877.45
225.077	14919.01
225.15	14925.95
225.223	14958.1
225.296	15021.2
225.369	15039.8
225.442	15069.93
225.514	15119.34
225.587	15154.43
225.66	15200.8
225.733	15240.95
225.806	15287.71
225.879	15332.25
225.952	15367.1
226.025	15420.89
226.097	15470.01
226.17	15496.42
226.243	15512.28
226.316	15557.68
226.389	15600.05
226.461	15633.31
226.534	15673.32
226.607	15699.97
226.68	15754.73
226.753	15791.94
226.825	15796.81
226.898	15854.84
226.971	15881.98
227.044	15910.42
227.117	15953.89
227.189	15988.16
227.262	16043.15
227.335	16073.81
227.407	16096.99
227.48	16131.74
227.553	16162.83
227.626	16177.82
227.698	16211.27
227.771	16249.15
227.844	16265.93
227.916	16278.51
227.989	16293.45
228.062	16322.95
228.134	16371.24
228.207	16402.04
228.28	16422.38
228.352	16449.32
228.425	16468.5
228.498	16503.11
228.57	16525.23
228.643	16550.82
228.716	16562.2
228.788	16565.95
228.861	16582.68
228.934	16627.98
229.006	16635.79
229.079	16655.12
229.151	16671.46
229.224	16668.18
229.296	16690.83
229.369	16736.86
229.442	16782.06
229.514	16801.29
229.587	16828.96
229.659	16831.42
229.732	16850.45
229.804	16880.77
229.877	16927.85
229.949	16959.42
230.022	16992.63
230.094	17018.07
230.167	17047.42
230.239	17060.92
230.312	17074.03
230.384	17118.56
230.457	17134.56
230.529	17161.59
230.602	17179.67
230.674	17208.29
230.747	17249.89
230.819	17277.79
230.892	17264.78
230.964	17276.01
231.037	17291.19
231.109	17305.79
231.181	17328.49
231.254	17333.12
231.326	17340.2
231.399	17344.73
231.471	17344.73
231.544	17339.91
231.616	17362.32
231.688	17374.47
231.761	17387.14
231.833	17404.68
231.905	17386.95
231.978	17400.06
232.05	17407
232.122	17412.15
232.195	17415.24
232.267	17438.71
232.339	17438.9
232.412	17463.53
232.484	17460.97
232.556	17470.03
232.629	17495
232.701	17505.21
232.773	17512.73
232.846	17522.03
232.918	17521.94
232.99	17525.36
233.062	17538.08
233.135	17542.61
233.207	17532.2
233.279	17539.09
233.351	17544.01
233.424	17553.7
233.496	17546.9
233.568	17570.61
233.64	17562.61
233.713	17569.45
233.785	17562.56
233.857	17565.84
233.929	17551.72
234.001	17578.13
234.074	17587.53
234.146	17558.71
234.218	17558.22
234.29	17559.48
234.362	17549.31
234.434	17542.32
234.507	17528.35
234.579	17509.26
234.651	17496.88
234.723	17492.25
234.795	17486.03
234.867	17472.63
234.939	17482.37
235.012	17472.44
235.084	17462.71
235.156	17465.36
235.228	17443.48
235.3	17430.51
235.372	17431.09
235.444	17434.32
235.516	17394.95
235.588	17384.78
235.66	17385.02
235.732	17364.88
235.804	17405.65
235.876	17401.98
235.948	17402.37
236.02	17403.33
236.092	17396.15
236.164	17387
236.236	17379.53
236.308	17365.89
236.38	17359.24
236.452	17331.72
236.524	17326.27
236.596	17324.1
236.668	17321.55
236.74	17314.27
236.812	17310.03
236.884	17300.92
236.956	17296.97
237.028	17286.95
237.1	17270.95
237.172	17277.31
237.244	17274.99
237.316	17228.2
237.388	17214.61
237.46	17192.73
237.532	17193.07
237.604	17170.32
237.675	17170.8
237.747	17163.33
237.819	17144.39
237.891	17128.15
237.963	17110.65
238.035	17083.95
238.107	17047.23
238.178	17033.45
238.25	17014.22
238.322	17014.89
238.394	16983.9
238.466	16955.9
238.538	16948.63
238.609	16940.38
238.681	16907.85
238.753	16886.31
238.825	16878.98
238.897	16870.98
238.968	16862.55
239.04	16828.86
239.112	16835.75
239.184	16807.22
239.255	16787.7
239.327	16778.16
239.399	16767.22
239.471	16756.86
239.542	16751.32
239.614	16737.39
239.686	16699.55
239.758	16691.75
239.829	16664.85
239.901	16653.77
239.973	16630.3
240.044	16610.49
240.116	16584.99
240.188	16555.88
240.259	16536.17
240.331	16501.56
240.403	16483.78
240.474	16455.63
240.546	16429.56
240.618	16392.64
240.689	16369.26
240.761	16351.48
240.833	16342.75
240.904	16322.22
240.976	16297.26
241.048	16268.92
241.119	16256.58
241.191	16241.83
241.262	16235.18
241.334	16205.87
241.405	16172.28
241.477	16147.79
241.549	16118.15
241.62	16097.76
241.692	16080.12
241.763	16069.95
241.835	16039.54
241.906	16011.1
241.978	15973.46
242.049	15958.28
242.121	15939.58
242.192	15919.57
242.264	15880.77
242.335	15846.94
242.407	15822.31
242.478	15793.48
242.55	15777.34
242.621	15744.08
242.693	15724.36
242.764	15692.7
242.836	15666.09
242.907	15655.34
242.979	15641.03
243.05	15618.71
243.122	15596.92
243.193	15575.14
243.264	15518.74
243.336	15497.48
243.407	15480.61
243.479	15473.72
243.55	15455.12
243.622	15436.51
243.693	15414.48
243.764	15402.62
243.836	15364.69
243.907	15337.89
243.978	15313.26
244.05	15287.52
244.121	15249.92
244.192	15222.3
244.264	15189.71
244.335	15167.25
244.407	15123.34
244.478	15096.06
244.549	15076.34
244.62	15036.91
244.692	15010.64
244.763	14999.89
244.834	14967.21
244.906	14934.53
244.977	14913.17
245.048	14899.48
245.119	14867.38
245.191	14834.02
245.262	14790.25
245.333	14787.99
245.405	14763.16
245.476	14737.52
245.547	14717.76
245.618	14700.69
245.689	14679.48
245.761	14655.76
245.832	14621.64
245.903	14607.95
245.974	14592.13
246.045	14562.34
246.117	14563.31
246.188	14527.01
246.259	14503.2
246.33	14479.05
246.401	14449.5
246.473	14409.39
246.544	14382.01
246.615	14369.33
246.686	14337.61
246.757	14331.78
246.828	14287.82
246.899	14278.8
246.97	14248.19
247.042	14203.5
247.113	14186.68
247.184	14185.38
247.255	14157.18
247.326	14139.68
247.397	14115.14
247.468	14087.71
247.539	14069.3
247.61	14029.19
247.681	14021.53
247.752	14013.33
247.823	13983.97
247.894	13969.7
247.965	13937.94
248.037	13902.55
248.108	13865.1
248.179	13848.8
248.25	13815.73
248.321	13803.97
248.392	13767.67
248.463	13771.05
248.534	13756.87
248.605	13743.95
248.675	13713.15
248.746	13696.57
248.817	13677.96
248.888	13655.74
248.959	13622.09
249.03	13594.22
249.101	13570.07
249.172	13531.89
249.243	13480.07
249.314	13477.42
249.385	13455.82
249.456	13442.42
249.527	13420.58
249.598	13399.57
249.669	13372.43
249.739	13359.12
249.81	13344.61
249.881	13307.4
249.952	13273.7
250.023	13246.17
250.094	13205.87
250.165	13170.25
250.235	13143.98
250.306	13119.92
250.377	13094.27
250.448	13079.96
250.519	13043.22
250.59	13037.92
250.66	13012.9
250.731	13009.34
250.802	12979.35
250.873	12960.5
250.944	12942.43
251.014	12910.71
251.085	12909.45
251.156	12892.63
251.227	12881.59
251.297	12877.3
251.368	12868.33
251.439	12856.71
251.51	12855.61
251.58	12824.08
251.651	12806.15
251.722	12793.66
251.792	12756.98
251.863	12731.57
251.934	12713.21
252.005	12729.74
252.075	12703.95
252.146	12703.95
252.217	12695.56
252.287	12686.45
252.358	12664.62
252.429	12661.24
252.499	12641.09
252.57	12628.61
252.641	12622.29
252.711	12593.95
252.782	12550.08
252.852	12552.93
252.923	12531.62
252.994	12513.35
253.064	12510.99
253.135	12475.03
253.205	12452.42
253.276	12451.07
253.347	12450.2
253.417	12426.63
253.488	12390.38
253.558	12364.59
253.629	12339.86
253.699	12323.33
253.77	12312.97
253.841	12284.58
253.911	12265.15
253.982	12248.47
254.052	12236.71
254.123	12221.96
254.193	12208.32
254.264	12221.43
254.334	12188.46
254.405	12165.42
254.475	12129.31
254.546	12108.68
254.616	12112.01
254.687	12098.8
254.757	12081.55
254.827	12062.6
254.898	12052
254.968	12037.63
255.039	12019.75
255.109	12009.63
255.18	11978.2
255.25	11935.45
255.321	11924.8
255.391	11887.44
255.461	11896.7
255.532	11847.48
255.602	11817.89
255.673	11784.77
255.743	11759.56
255.813	11719.03
255.884	11709.15
255.954	11706.11
256.024	11704.96
256.095	11689.97
256.165	11656.23
256.235	11648.32
256.306	11626.05
256.376	11622.73
256.446	11609.23
256.517	11594.1
256.587	11591.79
256.657	11578.24
256.728	11559.64
256.798	11545.04
256.868	11529.28
256.938	11503.06
257.009	11500.07
257.079	11494.86
257.149	11497.47
257.219	11463.92
257.29	11453.08
257.36	11416.45
257.43	11401.99
257.5	11365.07
257.571	11336.59
257.641	11328.78
257.711	11292.59
257.781	11286.85
257.852	11265.02
257.922	11226.42
257.992	11212.01
258.062	11184.01
258.132	11177.55
258.202	11165.36
258.273	11144.68
258.343	11145.36
258.413	11113.16
258.483	11089.4
258.553	11056.01
258.623	11030.76
258.693	11012.73
258.764	11011.62
258.834	11012.15
258.904	10993.55
258.974	10970.28
259.044	10952.45
259.114	10942.42
259.184	10932.98
259.254	10903.92
259.324	10871.63
259.394	10870.57
259.464	10868.94
259.535	10853.23
259.605	10831.97
259.675	10802.63
259.745	10793.67
259.815	10767.31
259.885	10751.84
259.955	10766.3
260.025	10749.77
260.095	10735.22
260.165	10732.18
260.235	10731.99
260.305	10708.43
260.375	10683.47
260.445	10686.02
260.515	10684.87
260.585	10684.96
260.655	10671.66
260.725	10664.34
260.795	10658.99
260.865	10662.99
260.934	10632.25
261.004	10626.56
261.074	10612.4
261.144	10622.08
261.214	10618.47
261.284	10609.17
261.354	10597.85
261.424	10572.21
261.494	10571.87
261.564	10557.13
261.634	10546.29
261.703	10506.63
261.773	10497.38
261.843	10489.92
261.913	10478.02
261.983	10445.69
262.053	10435.38
262.123	10416.39
262.192	10387.34
262.262	10381.32
262.332	10347.98
262.402	10343.07
262.472	10319.12
262.541	10286.22
262.611	10284.82
262.681	10262.22
262.751	10251.14
262.821	10244.4
262.89	10220.12
262.96	10211.35
263.03	10215.97
263.1	10205.47
263.169	10201.42
263.239	10193.52
263.309	10200.46
263.379	10194.15
263.448	10188.47
263.518	10175.79
263.588	10163.17
263.657	10171.46
263.727	10162.3
263.797	10150.55
263.867	10134.41
263.936	10116.78
264.006	10117.31
264.076	10097.03
264.145	10078.15
264.215	10054.55
264.285	10048.67
264.354	10016.35
264.424	9990.72
264.494	9959.46
264.563	9937.73
264.633	9939.56
264.702	9934.12
264.772	9900.54
264.842	9881.9
264.911	9876.56
264.981	9844.09
265.05	9836.24
265.12	9814.9
265.19	9806.71
265.259	9804.73
265.329	9796.98
265.398	9783.69
265.468	9794.77
265.537	9777.33
265.607	9770.63
265.676	9773.33
265.746	9762.4
265.815	9767.79
265.885	9760.47
265.955	9735.48
266.024	9721.56
266.094	9691.65
266.163	9689.19
266.232	9689.63
266.302	9672.05
266.371	9659.48
266.441	9650.13
266.51	9642.19
266.58	9626.63
266.649	9604.62
266.719	9599.13
266.788	9592.68
266.858	9596.19
266.927	9552.03
266.996	9532.77
267.066	9520.1
267.135	9494.87
267.205	9486.49
267.274	9473.05
267.343	9474.45
267.413	9473.63
267.482	9466.7
267.552	9463.62
267.621	9434.96
267.69	9410.11
267.76	9401.88
267.829	9391.33
267.898	9384.01
267.968	9363.45
268.037	9364.32
268.106	9364.85
268.176	9342.7
268.245	9331.67
268.314	9311.78
268.384	9322.08
268.453	9325.07
268.522	9322.57
268.592	9322.85
268.661	9309.28
268.73	9302.39
268.799	9279.37
268.869	9284.48
268.938	9261.42
269.007	9243.5
269.076	9236.38
269.146	9230.84
269.215	9225.06
269.284	9228.82
269.353	9205.71
269.422	9195.41
269.492	9177.02
269.561	9137.49
269.63	9131.9
269.699	9113.42
269.768	9110.48
269.838	9097.09
269.907	9086.6
269.976	9061.37
270.045	9028.3
270.114	9021.37
270.183	9008.03
270.253	9005.77
270.322	8979.92
270.391	8974.38
270.46	8980.93
270.529	8974.09
270.598	8973.8
270.667	8958.35
270.736	8934.28
270.806	8935.58
270.875	8936.49
270.944	8921.28
271.013	8940.68
271.082	8933.31
271.151	8938.18
271.22	8907.56
271.289	8899.38
271.358	8890.57
271.427	8885.04
271.496	8878.01
271.565	8865.25
271.634	8858.61
271.703	8875.37
271.772	8872.62
271.841	8858.18
271.91	8834.88
271.979	8827.47
272.048	8808.89
272.117	8814.67
272.186	8803.4
272.255	8800.28
272.324	8795.61
272.393	8791.23
272.462	8771.2
272.531	8759.6
272.6	8737.89
272.669	8744.39
272.738	8730.53
272.807	8718.45
272.876	8704.63
272.945	8735.49
273.013	8729.42
273.082	8731.35
273.151	8689.66
273.22	8687.06
273.289	8685.71
273.358	8694.28
273.427	8686.29
273.496	8682.1
273.564	8669.2
273.633	8674.11
273.702	8657.03
273.771	8650.87
273.84	8650.48
273.909	8653.08
273.977	8650.77
274.046	8644.56
274.115	8651.78
274.184	8638.74
274.253	8637.78
274.322	8643.26
274.39	8613.66
274.459	8602.35
274.528	8576.66
274.597	8570.02
274.665	8564.1
274.734	8561.45
274.803	8553.6
274.872	8540.85
274.94	8524.83
275.009	8582.94
275.078	8567.74
275.147	8567.3
275.215	8558.4
275.284	8559.03
275.353	8549.98
275.421	8530.15
275.49	8542.95
275.559	8531.45
275.627	8523.27
275.696	8516.01
275.765	8514.66
275.833	8502.25
275.902	8505.23
275.971	8520.82
276.039	8540.93
276.108	8544.21
276.177	8547
276.245	8535.4
276.314	8528.66
276.383	8536.22
276.451	8474.06
276.52	8475.79
276.588	8488.83
276.657	8495.57
276.725	8494.32
276.794	8496.15
276.863	8509.43
276.931	8491.72
277	8497.59
277.068	8509.52
277.137	8525.07
277.205	8524.59
277.274	8544.46
277.342	8552.4
277.411	8527.81
277.48	8514.29
277.548	8503.94
277.617	8505.19
277.685	8494.8
277.754	8502.02
277.822	8495.04
277.89	8504.28
277.959	8497.16
278.027	8475.89
278.096	8466.07
278.164	8487.2
278.233	8477.1
278.301	8464.97
278.37	8460.93
278.438	8442.98
278.507	8447.7
278.575	8426.19
278.643	8421.86
278.712	8404.68
278.78	8390.58
278.849	8403.09
278.917	8408.19
278.985	8401.64
279.054	8403.76
279.122	8417.14
279.191	8412.9
279.259	8410.93
279.327	8388.07
279.396	8402.56
279.464	8399.48
279.532	8407.27
279.601	8398.8
279.669	8395.1
279.737	8404.29
279.806	8411.84
279.874	8424.88
279.942	8423.2
280.011	8414.25
280.079	8421.13
280.147	8433.49
280.215	8434.07
280.284	8434.26
280.352	8424.69
280.42	8432.53
280.488	8420.79
280.557	8416.07
280.625	8422.38
280.693	8423
280.761	8430.22
280.83	8414.34
280.898	8426.8
280.966	8408.23
281.034	8382
281.102	8369.35
281.171	8362.9
281.239	8370.22
281.307	8363.87
281.375	8350.11
281.443	8377.97
281.512	8375.75
281.58	8381.72
281.648	8369.5
281.716	8366.28
281.784	8360.84
281.852	8355.16
281.92	8356.03
281.989	8363.39
282.057	8343.28
282.125	8367.24
282.193	8361.57
282.261	8363.44
282.329	8357.09
282.397	8359.4
282.465	8363.06
282.533	8377.34
282.601	8372.87
282.67	8354.34
282.738	8347.18
282.806	8359.44
282.874	8343.9
282.942	8343.66
283.01	8335.86
283.078	8345.15
283.146	8345.24
283.214	8357.08
283.282	8362.47
283.35	8373.11
283.418	8371.23
283.486	8380.66
283.554	8353.13
283.622	8354.77
283.69	8354.96
283.758	8351.59
283.826	8355.06
283.894	8361.46
283.962	8380.32
284.03	8394.18
284.098	8397.5
284.165	8393.41
284.233	8391.58
284.301	8387.2
284.369	8377.87
284.437	8370.89
284.505	8359.34
284.573	8368.97
284.641	8358.05
284.709	8361.85
284.777	8342.36
284.845	8343.18
284.912	8355.01
284.98	8364.49
285.048	8364.83
285.116	8363.87
285.184	8374.65
285.252	8378.69
285.319	8365.36
285.387	8358.43
285.455	8336.83
285.523	8338.17
285.591	8335.86
285.659	8335.77
285.726	8344.14
285.794	8332.16
285.862	8331.73
285.93	8336.06
285.997	8329.42
286.065	8320.18
286.133	8310.32
286.201	8312.77
286.269	8301.27
286.336	8284.81
286.404	8278.61
286.472	8283.71
286.539	8266.87
286.607	8248.68
286.675	8246.52
286.743	8253.35
286.81	8241.18
286.878	8258.21
286.946	8253.54
287.013	8250.7
287.081	8247.67
287.149	8234.3
287.216	8252.39
287.284	8248.06
287.352	8247.82
287.419	8240.21
287.487	8261.77
287.555	8269.52
287.622	8264.9
287.69	8266.73
287.758	8281.3
287.825	8276.01
287.893	8269.95
287.96	8278.27
288.028	8289.87
288.096	8292.7
288.163	8294.58
288.231	8286.69
288.298	8286.21
288.366	8301.8
288.433	8299.2
288.501	8294.68
288.569	8298.1
288.636	8291.07
288.704	8303.63
288.771	8313.3
288.839	8312.05
288.906	8305.65
288.974	8314.6
289.041	8309.89
289.109	8301.27
289.176	8306.37
289.244	8315.32
289.311	8324.37
289.379	8330.53
289.446	8332.5
289.514	8328.7
289.581	8328.55
289.649	8331.1
289.716	8327.26
289.783	8316.52
289.851	8339.14
289.918	8341.11
289.986	8349.87
290.053	8354.77
290.121	8354.2
290.188	8354.58
290.255	8381.29
290.323	8371.38
290.39	8365.07
290.458	8379.26
290.525	8394.8
290.592	8390.33
290.66	8385.52
290.727	8375.41
290.794	8382.87
290.862	8380.75
290.929	8390.57
290.996	8392.49
291.064	8407.36
291.131	8417.47
291.198	8432.05
291.266	8423.48
291.333	8425.7
291.4	8430.12
291.468	8446.39
291.535	8442.78
291.602	8448.6
291.669	8439.7
291.737	8445.47
291.804	8444.99
291.871	8458.99
291.938	8470.69
292.006	8487.82
292.073	8502.4
292.14	8516.74
292.207	8513.23
292.275	8518.14
292.342	8521.89
292.409	8544.46
292.476	8559.86
292.543	8554.91
292.611	8551.25
292.678	8569.63
292.745	8589.41
292.812	8599.33
292.879	8596.1
292.946	8601.39
293.014	8610.92
293.081	8615.35
293.148	8634.26
293.215	8645.43
293.282	8633.97
293.349	8640.18
293.416	8628.73
293.484	8644.52
293.551	8651.4
293.618	8673.78
293.685	8698.85
293.752	8691.78
293.819	8685.33
293.886	8675.46
293.953	8685.28
294.02	8697.31
294.087	8703.95
294.154	8691.97
294.221	8706.56
294.288	8707.71
294.356	8721.57
294.423	8724.7
294.49	8722.53
294.557	8730.96
294.624	8723.88
294.691	8744.96
294.758	8746.12
294.825	8749.58
294.892	8742.03
294.959	8743.32
295.026	8745.01
295.093	8738.17
295.16	8737.89
295.226	8742.65
295.293	8761.04
295.36	8761.62
295.427	8773.22
295.494	8783.09
295.561	8799.06
295.628	8819.09
295.695	8838.49
295.762	8841.96
295.829	8854.86
295.896	8874.74
295.963	8880.03
296.03	8890.38
296.096	8897.7
296.163	8908.43
296.23	8927.35
296.297	8932.6
296.364	8929.18
296.431	8937.75
296.498	8933.95
296.564	8953.73
296.631	8958.49
296.698	8945.16
296.765	8961.38
296.832	8947.32
296.899	8934.95
296.965	8958.59
297.032	8935
297.099	8941.74
297.166	8944.24
297.233	8941.79
297.299	8922.77
297.366	8920.08
297.433	8925.85
297.5	8931.78
297.566	8934.38
297.633	8927.73
297.7	8929.56
297.767	8927.11
297.833	8925.76
297.9	8925.66
297.967	8912.76
298.033	8918.73
298.1	8951.13
298.167	8944.68
298.234	8950.22
298.3	8959.99
298.367	8948.63
298.434	8960.13
298.5	8951.13
298.567	8949.93
298.634	8948.96
298.7	8971.73
298.767	8975.44
298.834	8984.97
298.9	8981.94
298.967	8969.18
299.033	8982.28
299.1	8999.08
299.167	9014
299.233	9012.89
299.3	9024.59
299.366	9046.35
299.433	9061.42
299.5	9032.19
299.566	9036.43
299.633	9053.42
299.699	9061.03
299.766	9052.94
299.832	9054.44
299.899	9064.26
299.965	9070.56
300.032	9060.26
300.099	9066.47
300.165	9072.64
300.232	9062.43
300.298	9059.49
300.365	9073.41
300.431	9076.1
300.498	9067.44
300.564	9078.6
300.631	9088.43
300.697	9104.07
300.763	9100.8
300.83	9102.15
300.896	9112.79
300.963	9125.06
301.029	9124.82
301.096	9132
301.162	9143.7
301.229	9136.62
301.295	9127.28
301.361	9133.54
301.428	9144.08
301.494	9127.57
301.561	9127.23
301.627	9135.89
301.693	9143.02
301.76	9146.2
301.826	9137.29
301.892	9147.55
301.959	9148.56
302.025	9145.28
302.092	9130.55
302.158	9137.82
302.224	9133.97
302.291	9129.73
302.357	9125.45
302.423	9117.69
302.49	9103.64
302.556	9114.9
302.622	9113.12
302.688	9121.84
302.755	9131.08
302.821	9130.94
302.887	9140.66
302.954	9140.52
303.02	9145.38
303.086	9144.41
303.152	9142.39
303.219	9135.41
303.285	9139.07
303.351	9146.29
303.417	9148.17
303.483	9138.11
303.55	9130.02
303.616	9126.46
303.682	9123.67
303.748	9113.32
303.815	9126.56
303.881	9129.83
303.947	9116.49
304.013	9119.58
304.079	9113.12
304.145	9094.2
304.212	9096.13
304.278	9088.19
304.344	9083.47
304.41	9072.2
304.476	9060.41
304.542	9050.01
304.608	9055.54
304.674	9033.35
304.741	9023.24
304.807	9015.1
304.873	9027.14
304.939	9036.96
305.005	9020.93
305.071	9021.07
305.137	9022.71
305.203	8997.62
305.269	8998.54
305.335	9003.5
305.401	8996.71
305.467	8985.01
305.533	8991.32
305.599	8991.03
305.666	8996.33
305.732	8997.05
305.798	9004.94
305.864	9030.07
305.93	9034.31
305.996	9033.2
306.062	9039.85
306.128	9038.35
306.194	9029.93
306.259	9027.91
306.325	9017.75
306.391	9021.6
306.457	9032.14
306.523	9037.83
306.589	9066.09
306.655	9058
306.721	9043.07
306.787	9032.39
306.853	9059.06
306.919	9040.43
306.985	9031.53
307.051	9021.56
307.117	9013.67
307.183	9001.92
307.248	8974.81
307.314	8976.26
307.38	8976.26
307.446	8980.98
307.512	8962.54
307.578	8975.44
307.644	8967.21
307.709	8966.25
307.775	8963.31
307.841	8954.4
307.907	8941.69
307.973	8914.35
308.039	8912.28
308.104	8915.07
308.17	8914.16
308.236	8891.57
308.302	8894.41
308.368	8883.2
308.433	8881.32
308.499	8876.03
308.565	8870.78
308.631	8870.93
308.696	8850.66
308.762	8833.43
308.828	8823.32
308.894	8806.62
308.959	8782.74
309.025	8776.15
309.091	8773.12
309.156	8763.68
309.222	8764.6
309.288	8752.9
309.354	8729.9
309.419	8728.21
309.485	8711.56
309.551	8713.82
309.616	8695.48
309.682	8696.3
309.748	8692.6
309.813	8690.09
309.879	8681.29
309.945	8665.12
310.01	8661.07
310.076	8661.12
310.141	8659.29
310.207	8649.38
310.273	8659.63
310.338	8660.25
310.404	8637.2
310.469	8625.84
310.535	8613.96
310.601	8584.69
310.666	8586.43
310.732	8598.7
310.797	8589.46
310.863	8584.21
310.928	8577.14
310.994	8578.58
311.059	8574.54
311.125	8573.67
311.191	8580.02
311.256	8567.22
311.322	8575.89
311.387	8551.39
311.453	8911.37
311.518	8885.3
311.584	8876.01
311.649	8876.73
311.715	8868.5
311.78	8875.91
311.846	8861.95
311.911	8865.37
311.976	8868.45
312.042	8858.54
312.107	8845.45
312.173	8832.98
312.238	8825.67
312.304	8818.02
312.369	8807.96
312.434	8788.09
312.5	8777.12
312.565	8745.69
312.631	8748.58
312.696	8730.87
312.761	8735.06
312.827	8360.01
312.892	8398.42
312.958	8396.92
313.023	8392.69
313.088	8389.32
313.154	8367.77
313.219	8358.15
313.284	8351.26
313.35	8348.62
313.415	8338.08
313.48	8327.74
313.546	8328.22
313.611	8332.69
313.676	8322.73
313.741	8317.92
313.807	8328.6
313.872	8329.47
313.937	8332.84
314.003	8338.95
314.068	8343.18
314.133	8344.67
314.198	8331.73
314.264	8313.3
314.329	8306.9
314.394	8301.08
314.459	8293.52
314.525	8313.92
314.59	8313.78
314.655	8301.6
314.72	8305.26
314.785	8312.86
314.851	8309.01
314.916	8294.2
314.981	8273.37
315.046	8262.97
315.111	8252.39
315.176	8240.94
315.242	8238.68
315.307	8237.09
315.372	8215.68
315.437	8207.41
315.502	8196.72
315.567	8210.72
315.632	8188.69
315.698	8183.4
315.763	8176.81
315.828	8171.61
315.893	8167.09
315.958	8162.28
316.023	8150.68
316.088	8130.72
316.153	8104.84
316.218	8097.91
316.283	8080.55
316.348	8065.45
316.413	8066.94
316.479	8053.28
316.544	8017.26
316.609	7995.23
316.674	7961.81
316.739	7932.14
316.804	7900.4
316.869	7868.95
316.934	7836.33
316.999	7812.82
317.064	7768.2
317.129	7730.11
317.194	7696.21
317.259	7653.45
317.324	7599.85
317.389	7557.12
317.454	7522.11
317.518	7489.86
317.583	7470
317.648	7448.41
317.713	7425.72
317.778	7367.08
317.843	7336.36
317.908	7306.28
317.973	7269.12
318.038	7245.09
318.103	7210.3
318.168	7185.31
318.233	7158.21
318.297	7112.27
318.362	7075.55
318.427	7041.93
318.492	7018.67
318.557	6976.25
318.622	6948.72
318.687	6934.35
318.751	6905.2
318.816	6877.43
318.881	6846.26
318.946	6791.93
319.011	6746.49
319.075	6704.37
319.14	6671.77
319.205	6629.46
319.27	6598.73
319.335	6555.47
319.399	6514.89
319.464	6491.61
319.529	6440.48
319.594	6404.23
319.658	6377.44
319.723	6335.45
319.788	6308.33
319.853	6255.14
319.917	6224.57
319.982	6177
320.047	6139.14
320.112	6115.33
320.176	6066.1
320.241	6038.07
320.306	6010.48
320.37	5976.52
320.435	5946.39
320.5	5923.75
320.564	5890.17
320.629	5851.04
320.694	5823.51
320.758	5785.53
320.823	5743.99
320.888	5719.83
320.952	5670.54
321.017	5626.86
321.082	5590.81
321.146	5554.32
321.211	5520.96
321.275	5483.29
321.34	5443.46
321.405	5403.35
321.469	5355.18
321.534	5317.71
321.598	5269.4
321.663	5239.68
321.727	5209.4
321.792	5165.8
321.857	5124.12
321.921	5086.42
321.986	5046.48
322.05	4989.3
322.115	4959.08
322.179	4918
322.244	4863.47
322.308	4838
322.373	4799.46
322.437	4762.84
322.502	4738.61
322.566	4697.16
322.631	4666.14
322.695	4629.92
322.76	4588.24
322.824	4555.99
322.889	4517.05
322.953	4474.52
323.018	4412.52
323.082	4353.64
323.146	4307.64
323.211	4257.9
323.275	4214.58
323.34	4172.46
323.404	4143.12
323.468	4096.64
323.533	4058.06
323.597	4017.89
323.662	3970.66
323.726	3935.24
323.79	3893.34
323.855	3836.5
323.919	3791.68
323.983	3745.67
324.048	3681.84
324.112	3836.04
324.177	3718.67
324.241	3525.25
324.305	3335.93
324.37	3153.3
324.434	2975.93
324.498	2935.35
324.562	2891.5
324.627	2840.49
324.691	2791.75
324.755	2734.84
324.82	2667.47
324.884	2595.63
324.948	2533.02
325.012	2446.95
325.077	2337.02
