Data from 24HourExp_27052025_FLMS018081_01-58-20-593.txt Node
Date: Wed May 28 01:58:20 BST 2025
User: adleo
Spectrometer: FLMS01808
Trigger mode: 0
Integration Time (sec): 4.000000E-1
Scans to average: 10
Electric dark correction enabled: true
Nonlinearity correction enabled: true
Boxcar width: 10
XAxis mode: Wavelengths
Number of Pixels in Spectrum: 2048
>>>>>Begin Spectral Data<<<<<
178.471	-124.65
178.857	-117.54
179.244	-112.9
179.631	-103.42
180.017	-95.64
180.404	-87.76
180.79	-76.54
181.176	-67.36
181.563	-58.6
181.949	-47.82
182.335	-38.8
182.722	-22.43
183.108	-3.17
183.494	24.02
183.88	78.66
184.266	131.79
184.653	187.01
185.039	241.89
185.425	297.29
185.811	350.11
186.197	403.14
186.582	454.19
186.968	506.27
187.354	558.14
187.74	608.31
188.126	659.37
188.511	709.93
188.897	757.83
189.283	804.61
189.668	849.76
190.054	893.99
190.439	941.34
190.825	984.77
191.21	1023.07
191.596	1056.6
191.981	1064.44
192.366	1069.72
192.752	1071.21
193.137	1075.26
193.522	1077.66
193.908	1079.5
194.293	1083.58
194.678	1086.25
195.063	1088.68
195.448	1093.98
195.833	1093.37
196.218	1091.07
196.603	1089.04
196.988	1087.14
197.373	1087.75
197.757	1087.8
198.142	1087.89
198.527	1084.67
198.912	1084.09
199.296	1086.52
199.681	1082.54
200.066	1080.14
200.45	1078.79
200.835	1080.44
201.219	1079.71
201.604	1079.55
201.988	1080.04
202.372	1079.86
202.757	1078.94
203.141	1080.85
203.525	1078.38
203.91	1078.84
204.294	1080.94
204.678	1081.94
205.062	1081.55
205.446	1081.49
205.83	1084.38
206.214	1083.44
206.598	1085.02
206.982	1085.19
207.366	1086.93
207.75	1089.46
208.134	1092.37
208.517	1094.98
208.901	1095.02
209.285	1096.41
209.669	1096.41
210.052	1096.53
210.436	1094.85
210.819	1096.52
211.203	1095.18
211.586	1096.42
211.97	1097.67
212.353	1099.16
212.737	1101.18
213.12	1104.06
213.503	1105.52
213.886	1106.59
214.27	1109.36
214.653	1109.98
215.036	1113.1
215.419	1111.61
215.802	1114.08
216.185	1115.96
216.568	1118.02
216.951	1119.19
217.334	1121.24
217.717	1125.66
218.1	1127.48
218.482	1133.32
218.865	1138.27
219.248	1142.21
219.631	1146.83
220.013	1152.41
220.396	1158.48
220.778	1163.74
221.161	1168.8
221.544	1176.55
221.926	1183.96
222.308	1190.79
222.691	1198.26
223.073	1205.98
223.455	1215.21
223.838	1225.08
224.22	1234.05
224.602	1245.07
224.984	1257.35
225.366	1270.08
225.749	1284.07
226.131	1299.45
226.513	1312.78
226.895	1326.34
227.276	1340.04
227.658	1354.64
228.04	1370.07
228.422	1386.25
228.804	1402.56
229.186	1421.28
229.567	1438.9
229.949	1456.49
230.331	1473.23
230.712	1491.54
231.094	1510.36
231.475	1531.6
231.857	1550.42
232.238	1569.05
232.62	1587.96
233.001	1607.6
233.382	1627.03
233.763	1642.49
234.145	1661.21
234.526	1682.25
234.907	1700.85
235.288	1720.2
235.669	1741.09
236.05	1762.33
236.431	1781.73
236.812	1803.35
237.193	1823.2
237.574	1844.44
237.955	1865.25
238.336	1888.29
238.717	1909.5
239.097	1932.18
239.478	1951.02
239.859	1972.49
240.239	1996.96
240.62	2020.75
241.001	2043.6
241.381	2068.61
241.762	2093.46
242.142	2118.73
242.522	2140.57
242.903	2165.75
243.283	2193.52
243.663	2218.45
244.044	2246.4
244.424	2275.59
244.804	2303.39
245.184	2333.09
245.564	2361.09
245.944	2390.85
246.324	2421.87
246.704	2453.61
247.084	2482.69
247.464	2515.55
247.844	2548.26
248.224	2579.49
248.604	2609.86
248.983	2640.85
249.363	2673.55
249.743	2707.09
250.122	2738.44
250.502	2769.93
250.882	2804.66
251.261	2836.1
251.641	2869.3
252.02	2902.25
252.399	2936.82
252.779	2973.89
253.158	3012.08
253.537	3049.75
253.917	3096.25
254.296	3134.75
254.675	3175.94
255.054	3217.95
255.433	3261.42
255.812	3301.61
256.191	3343.5
256.57	3387.31
256.949	3433.9
257.328	3477.72
257.707	3523.19
258.086	3568.61
258.465	3618.57
258.843	3668.38
259.222	3720.37
259.601	3777.18
259.979	3830.43
260.358	3882.95
260.736	3937.21
261.115	3989.72
261.493	4045.95
261.872	4096.34
262.25	4155.06
262.629	4212.8
263.007	4271.98
263.385	4332.22
263.763	4396.01
264.142	4460.43
264.52	4526.25
264.898	4593.86
265.276	4661.03
265.654	4731.86
266.032	4805.63
266.41	4876.45
266.788	4952.22
267.166	5029.48
267.544	5102.29
267.921	5181.5
268.299	5261.71
268.677	5342.6
269.055	5428.7
269.432	5515.57
269.81	5598.25
270.188	5688.08
270.565	5777.52
270.943	5870.52
271.32	5962.8
271.697	6060.01
272.075	6158.91
272.452	6254.3
272.829	6351.07
273.207	6452.98
273.584	6558.14
273.961	6663.79
274.338	6779.07
274.715	6892.71
275.092	7012.96
275.469	7133.16
275.846	7254.24
276.223	7377.06
276.6	7499.7
276.977	7625.22
277.354	7753.37
277.731	7881.84
278.108	8012.78
278.484	8146.13
278.861	8278.38
279.238	8420.07
279.614	8557.52
279.991	8697.62
280.367	8840.02
280.744	8993.06
281.12	9142.2
281.497	9290.67
281.873	9444.32
282.249	9595.74
282.625	9743.66
283.002	9892.12
283.378	10042.9
283.754	10194.1
284.13	10350.15
284.506	10509.48
284.882	10666.43
285.258	10821.16
285.634	10981.09
286.01	11140.01
286.386	11303.08
286.762	11471.55
287.138	11631.13
287.513	11793.48
287.889	11960.43
288.265	12121.97
288.641	12281.36
289.016	12445.48
289.392	12612.12
289.767	12774.56
290.143	12937.49
290.518	13101.12
290.894	13265.43
291.269	13428.2
291.644	13588.86
292.02	13744.46
292.395	13899.96
292.77	14054.66
293.145	14213.78
293.52	14372.35
293.895	14523.32
294.27	14678.71
294.646	14828.44
295.02	14977.17
295.395	15130.66
295.77	15284.86
296.145	15447.29
296.52	15604.72
296.895	15757.52
297.269	15910.78
297.644	16064.68
298.019	16216.13
298.393	16372.04
298.768	16520.17
299.143	16675.33
299.517	16825.74
299.891	16989.43
300.266	17150.02
300.64	17314.84
301.015	17480.24
301.389	17649.15
301.763	17825.24
302.137	17994.46
302.512	18167.75
302.886	18352.43
303.26	18538.6
303.634	18719.83
304.008	18895.44
304.382	19077.53
304.756	19264.27
305.13	19447.2
305.504	19630.97
305.877	19828.99
306.251	20037.38
306.625	20242.07
306.999	20454.54
307.372	20667.8
307.746	20883.92
308.119	21101.91
308.493	21311.48
308.866	21521.15
309.24	21738.86
309.613	21951.23
309.987	22162.44
310.36	22365.49
310.733	22577.68
311.107	22796.37
311.48	23015.3
311.853	23252.04
312.226	23475.63
312.599	23706.29
312.972	23936.07
313.345	24171.56
313.718	24401.6
314.091	24618.06
314.464	24847.82
314.837	25070.8
315.21	25290.72
315.582	25506.63
315.955	25718.99
316.328	25944.5
316.7	26160.66
317.073	26380.73
317.446	26602.89
317.818	26835.13
318.191	27069.32
318.563	27293.55
318.936	27499.8
319.308	27704.03
319.68	27906.26
320.053	28111.14
320.425	28303.44
320.797	28486.53
321.169	28646.9
321.541	28790.03
321.913	28927.14
322.285	29046.15
322.657	29169.46
323.029	29316.02
323.401	29460.98
323.773	29625.22
324.145	29794.92
324.517	29987.04
324.889	30161.69
325.26	30365.71
325.632	30582.86
326.004	30822.16
326.375	31082.5
326.747	31364.9
327.118	31670.84
327.49	31957.74
327.861	32271.91
328.233	32579.2
328.604	32890.46
328.975	33208.63
329.346	33524.27
329.718	33834.83
330.089	34145.86
330.46	34438.28
330.831	34715.01
331.202	34975.61
331.573	35222.3
331.944	35461.1
332.315	35685.69
332.686	35914.8
333.057	36117.76
333.428	36296.76
333.799	36465.34
334.169	36616.47
334.54	36755.41
334.911	36872.08
335.281	37003.97
335.652	37123.85
336.022	37264.06
336.393	37409.2
336.763	37580.42
337.134	37767.11
337.504	37969.69
337.874	38174.32
338.245	38387.74
338.615	38605.16
338.985	38834.17
339.355	39060
339.726	39280.75
340.096	39504.23
340.466	39755.9
340.836	39999.01
341.206	40249.99
341.576	40504.41
341.945	40752.26
342.315	40981.78
342.685	41231.13
343.055	41483.65
343.425	41724.87
343.794	41955.54
344.164	42193.49
344.533	42422.52
344.903	42656.34
345.273	42892.73
345.642	43123.78
346.011	43356.05
346.381	43595.88
346.75	43832.29
347.12	44076.82
347.489	44324.12
347.858	44574.75
348.227	44785.22
348.596	45007.74
348.965	45243.11
349.334	45466.05
349.704	45701.91
350.072	45948.47
350.441	46180.75
350.81	46418.47
351.179	46645.57
351.548	46875.64
351.917	47100.98
352.285	47294.51
352.654	47497.86
353.023	47698.94
353.391	47899.83
353.76	48119.39
354.129	48301.88
354.497	48524.83
354.865	48740.09
355.234	48975.19
355.602	49192.45
355.971	49438.79
356.339	49654.47
356.707	49870.86
357.075	50097.45
357.443	50321.51
357.811	50543.11
358.18	50755.76
358.548	50969.66
358.916	51180.98
359.284	51406.7
359.651	51618.78
360.019	51838.31
360.387	52038.94
360.755	52246.43
361.123	52472.81
361.49	52694.03
361.858	52914.47
362.226	53110.6
362.593	53318.49
362.961	53495.39
363.328	53698.74
363.696	53870.21
364.063	54084.84
364.43	54285.25
364.798	54488.24
365.165	54665.99
365.532	54842.48
365.899	55025.13
366.267	55191.13
366.634	55344.48
367.001	55505.51
367.368	55645.05
367.735	55834.89
368.102	56011.99
368.469	56205.59
368.835	56389.1
369.202	56548.17
369.569	56744.42
369.936	56936.75
370.303	57119.56
370.669	57320.85
371.036	57487.54
371.402	57682.98
371.769	57863.85
372.135	58020.83
372.502	58148.1
372.868	58289.86
373.235	58434.86
373.601	58580.38
373.967	58755.76
374.333	58940.42
374.7	59127.29
375.066	59332.68
375.432	59515.63
375.798	59692.82
376.164	59854.5
376.53	59994.41
376.896	60163.05
377.262	60333.82
377.628	60465.07
377.993	60613.26
378.359	60759.07
378.725	60909.77
379.091	61059.68
379.456	61195.99
379.822	61331.59
380.187	61489.36
380.553	61681.09
380.918	61884.01
381.284	62049.93
381.649	62210.59
382.015	62353.16
382.38	62468.07
382.745	62638.65
383.11	62791.87
383.476	62941.88
383.841	63070.8
384.206	63235.49
384.571	63355.3
384.936	63492.37
385.301	63662.02
385.666	63799.14
386.031	63957.83
386.396	64123.02
386.76	64283.79
387.125	64476.33
387.49	64670.62
387.855	64861.43
388.219	65030.99
388.584	65197.25
388.948	65397.91
389.313	65569.86
389.677	65774.76
390.042	66017.25
390.406	66174.47
390.771	66364.2
391.135	66548.15
391.499	66786.18
391.863	67024.5
392.227	67268.39
392.592	67466.34
392.956	67674.39
393.32	67877.73
393.684	68092.66
394.048	68269.82
394.412	68438.37
394.775	68577.66
395.139	68733.67
395.503	68897.57
395.867	69047.17
396.231	69191.24
396.594	69294.42
396.958	69438.23
397.321	69596.48
397.685	69721.07
398.048	69858.32
398.412	69991.85
398.775	70126.87
399.139	70250.51
399.502	70353.67
399.865	70495.66
400.228	70688.01
400.592	70823
400.955	71024.07
401.318	71159.92
401.681	71320.94
402.044	71471.27
402.407	71639.65
402.77	71805.8
403.133	71996.65
403.496	72144.6
403.859	72302.39
404.221	72541.26
404.584	72776.86
404.947	73022.46
405.309	73230.89
405.672	73468.22
406.034	73695.55
406.397	73946.88
406.759	74171.71
407.122	74357.82
407.484	74540.5
407.847	74729.95
408.209	74973.04
408.571	75194.56
408.933	75451.82
409.296	75714.16
409.658	75968.72
410.02	76235.83
410.382	76524.15
410.744	76770.6
411.106	77048.21
411.468	77312.46
411.83	77535.79
412.191	77721.21
412.553	77878.28
412.915	78068.48
413.277	78253.53
413.638	78420.64
414	78572.04
414.361	78721.88
414.723	78918.19
415.084	79095.82
415.446	79226.59
415.807	79334.87
416.169	79412.05
416.53	79469.37
416.891	79535.63
417.252	79613.67
417.614	79662.1
417.975	79685.2
418.336	79708.34
418.697	79736.64
419.058	79761.86
419.419	79781.87
419.78	79800.29
420.141	79813.87
420.501	79824.52
420.862	79834.83
421.223	79844.55
421.584	79867.68
421.944	79878.18
422.305	79885.56
422.666	79890.57
423.026	79893.41
423.387	79900.53
423.747	79905.39
424.107	79911.85
424.468	79917.64
424.828	79921.51
425.188	79923.69
425.549	79926.61
425.909	79931.96
426.269	79931.11
426.629	79936.69
426.989	79939.57
427.349	79943.63
427.709	79945.92
428.069	79948.28
428.429	79952.38
428.789	79956.92
429.149	79961.61
429.508	79962.72
429.868	79964.6
430.228	79967.93
430.587	79972.32
430.947	79975.87
431.306	79980.19
431.666	79982.18
432.025	79982.92
432.385	79985.06
432.744	79987.17
433.103	79989.31
433.463	79990.27
433.822	79995.52
434.181	79996.03
434.54	79998.55
434.899	79998.88
435.258	80001.73
435.618	80004.2
435.976	80005.9
436.335	80007.34
436.694	80005.38
437.053	80008.53
437.412	80010.63
437.771	80011
438.129	80011.63
438.488	80012.04
438.847	80013.03
439.205	80015.14
439.564	80015.62
439.922	80015.25
440.281	80016.69
440.639	80017.54
440.997	80019.24
441.356	80021.09
441.714	80021.13
442.072	80019.28
442.431	80020.91
442.789	80021.17
443.147	80020.24
443.505	80020.21
443.863	80021.28
444.221	80021.5
444.579	80019.72
444.937	80020.06
445.294	80020.06
445.652	80021.5
446.01	80021.65
446.368	80022.53
446.725	80022.2
447.083	80024.86
447.441	80025.38
447.798	80024.97
448.156	80025.34
448.513	80025.79
448.87	80023.57
449.228	80024.72
449.585	80026.49
449.942	80025.31
450.3	80025.53
450.657	80026.12
451.014	80027.64
451.371	80024.86
451.728	80026.34
452.085	80027.05
452.442	80027.53
452.799	80027.16
453.156	80026.19
453.513	80026.75
453.869	80025.97
454.226	80027.9
454.583	80025.6
454.939	80027.45
455.296	80027.53
455.653	80027.38
456.009	80025.6
456.366	80027.01
456.722	80026.75
457.078	80025.75
457.435	80026.79
457.791	80028.78
458.147	80028.67
458.503	80028.01
458.86	80030.34
459.216	80030.59
459.572	80032.81
459.928	80033.55
460.284	80035.48
460.64	80034.74
460.996	80034.48
461.351	80034.63
461.707	80033.55
462.063	80034.81
462.419	80034.7
462.774	80034.81
463.13	80035.92
463.486	80035.99
463.841	80035.92
464.197	80036.95
464.552	80037.21
464.908	80036.73
465.263	80035.84
465.618	80036.4
465.974	80036.1
466.329	80036.03
466.684	80036.29
467.039	80033.85
467.394	80034.51
467.749	80033.22
468.104	80034.51
468.459	80034.37
468.814	80034.11
469.169	80034.25
469.524	80034.66
469.879	80034.92
470.233	80035.4
470.588	80035.92
470.943	80035.84
471.297	80037.14
471.652	80038.14
472.006	80039.77
472.361	80041.36
472.715	80041.54
473.07	80042.35
473.424	80042.72
473.778	80044.83
474.133	80045.65
474.487	80047.94
474.841	80046.31
475.195	80049.05
475.549	80049.64
475.903	80052.41
476.257	80055.37
476.611	80056.63
476.965	80056.82
477.319	80057.44
477.673	80058.41
478.026	80058.81
478.38	80062.99
478.734	80064.07
479.087	80064.73
479.441	80064.55
479.795	80064.69
480.148	80065.8
480.502	80066.03
480.855	80067.36
481.208	80067.25
481.562	80066.36
481.915	80067.62
482.268	80068.95
482.621	80070.17
482.974	80071.65
483.328	80071.21
483.681	80071.32
484.034	80072.43
484.387	80074.57
484.739	80074.42
485.092	80075.28
485.445	80076.16
485.798	80075.05
486.151	80075.2
486.503	80074.65
486.856	80074.61
487.209	80074.31
487.561	80073.24
487.914	80073.98
488.266	80074.17
488.618	80073.57
488.971	80076.42
489.323	80075.68
489.675	80076.79
490.028	80074.54
490.38	80073.54
490.732	80073.91
491.084	80074.13
491.436	80073.46
491.788	80074.65
492.14	80075.54
492.492	80076.02
492.844	80077.68
493.196	80077.16
493.548	80076.42
493.899	80077.72
494.251	80078.57
494.603	80077.05
494.954	80079.64
495.306	80080.01
495.657	80079.98
496.009	80080.16
496.36	80077.76
496.712	80077.57
497.063	80076.72
497.414	80077.68
497.765	80078.05
498.117	80078.61
498.468	80077.05
498.819	80077.24
499.17	80074.98
499.521	80074.54
499.872	80073.72
500.223	80071.46
500.574	80071.65
500.924	80072.76
501.275	80071.02
501.626	80069.54
501.977	80071.8
502.327	80071.17
502.678	80070.54
503.029	80072.2
503.379	80071.83
503.73	80073.72
504.08	80072.13
504.43	80071.98
504.781	80070.95
505.131	80070.54
505.481	80069.39
505.831	80069.32
506.182	80067.77
506.532	80066.17
506.882	80065.29
507.232	80065.29
507.582	80065.47
507.932	80067.47
508.281	80067.06
508.631	80068.1
508.981	80069.58
509.331	80069.1
509.681	80068.47
510.03	80068.54
510.38	80067.77
510.729	80067.1
511.079	80064.33
511.428	80064.84
511.778	80066.03
512.127	80066.32
512.476	80066.58
512.826	80066.66
513.175	80067.14
513.524	80069.43
513.873	80071.61
514.222	80071.47
514.571	80070.36
514.92	80069.54
515.269	80068.95
515.618	80067.69
515.967	80068.1
516.316	80068.51
516.665	80068.58
517.014	80067.99
517.362	80067.8
517.711	80066.4
518.059	80067.28
518.408	80068.65
518.757	80070.61
519.105	80071.02
519.453	80071.76
519.802	80073.35
520.15	80074.13
520.498	80073.91
520.847	80071.28
521.195	80069.1
521.543	80070.1
521.891	80069.47
522.239	80071.84
522.587	80071.06
522.935	80071.28
523.283	80070.84
523.631	80069.76
523.979	80069.21
524.326	80069.21
524.674	80069.02
525.022	80069.84
525.369	80070.87
525.717	80071.91
526.064	80072.13
526.412	80071.5
526.759	80071.32
527.107	80070.91
527.454	80070.02
527.801	80070.02
528.149	80070.47
528.496	80071.8
528.843	80072.02
529.19	80073.24
529.537	80073.09
529.884	80073.35
530.231	80073.8
530.578	80075.02
530.925	80077.16
531.272	80077.76
531.619	80077.72
531.966	80079.64
532.312	80078.68
532.659	80078.42
533.006	80077.31
533.352	80075.43
533.699	80073.95
534.045	80073.83
534.392	80072.46
534.738	80073.46
535.084	80074.02
535.431	80075.31
535.777	80076.09
536.123	80076.09
536.469	80076.39
536.815	80074.5
537.161	80074.57
537.507	80075.35
537.853	80072.43
538.199	80070.69
538.545	80071.02
538.891	80072.65
539.237	80070.58
539.582	80071.39
539.928	80070.8
540.274	80071.24
540.619	80074.35
540.965	80074.98
541.31	80074.35
541.656	80073.94
542.001	80071.95
542.347	80072.58
542.692	80071.98
543.037	80070.43
543.382	80070.5
543.728	80070.76
544.073	80071.24
544.418	80071.02
544.763	80071.24
545.108	80072.61
545.453	80071.95
545.798	80072.13
546.142	80071.39
546.487	80072.46
546.832	80074.2
547.177	80075.05
547.521	80074.02
547.866	80070.84
548.211	80070.32
548.555	80071.17
548.9	80072.02
549.244	80074.57
549.588	80073.13
549.933	80074.46
550.277	80074.35
550.621	80073.32
550.965	80072.61
551.31	80072.43
551.654	80070.39
551.998	80070.98
552.342	80070.43
552.686	80072.43
553.03	80071.69
553.373	80070.32
553.717	80068.21
554.061	80066.1
554.405	80065.21
554.748	80065.84
555.092	80066.91
555.436	80068.21
555.779	80067.88
556.123	80067.54
556.466	80066.4
556.81	80066.73
557.153	80066.36
557.496	80066.54
557.839	80067.14
558.183	80067.4
558.526	80066.69
558.869	80067.88
559.212	80065.69
559.555	80065.8
559.898	80064.03
560.241	80066.14
560.584	80067.25
560.927	80070.06
561.269	80071.21
561.612	80072.21
561.955	80072.46
562.297	80072.39
562.64	80070.98
562.983	80071.17
563.325	80070.8
563.668	80071.54
564.01	80071.61
564.352	80069.99
564.695	80070.61
565.037	80070.84
565.379	80069.91
565.721	80069.65
566.063	80068.03
566.406	80069.13
566.748	80070.17
567.09	80070.54
567.431	80068.17
567.773	80066.91
568.115	80064.44
568.457	80063.7
568.799	80062.14
569.14	80061.81
569.482	80061.48
569.824	80062.25
570.165	80062.44
570.507	80062.88
570.848	80063.4
571.19	80062.73
571.531	80063.21
571.872	80063.21
572.214	80062.66
572.555	80063.25
572.896	80064.47
573.237	80067.58
573.578	80066.62
573.919	80064.29
574.26	80064.84
574.601	80064.4
574.942	80064.25
575.283	80062.85
575.624	80061.55
575.964	80061.33
576.305	80061.7
576.646	80061.85
576.986	80061.07
577.327	80060.88
577.667	80060.74
578.008	80058.26
578.348	80058.81
578.689	80058.85
579.029	80058.52
579.369	80059.77
579.71	80060.85
580.05	80060.29
580.39	80059.29
580.73	80059.03
581.07	80059.77
581.41	80058
581.75	80058.55
582.09	80058.85
582.43	80060.44
582.769	80060.85
583.109	80059.63
583.449	80058.52
583.789	80058.66
584.128	80058.11
584.468	80058
584.807	80057
585.147	80055.59
585.486	80054.41
585.825	80054.04
586.165	80052.89
586.504	80050.75
586.843	80049.9
587.182	80049.9
587.522	80049.75
587.861	80049.34
588.2	80048.9
588.539	80049.08
588.878	80048.75
589.216	80048.53
589.555	80049.86
589.894	80049.53
590.233	80051.3
590.572	80050.67
590.91	80048.86
591.249	80049.94
591.587	80050.68
591.926	80051.45
592.264	80053.78
592.603	80053.82
592.941	80054.08
593.279	80054.93
593.618	80055.93
593.956	80056.74
594.294	80055.74
594.632	80054.08
594.97	80054.08
595.308	80055.41
595.646	80054.3
595.984	80054.34
596.322	80054.71
596.66	80053
596.998	80053.04
597.335	80052.38
597.673	80052.6
598.011	80053.15
598.348	80052.63
598.686	80052.67
599.023	80051.75
599.361	80049.82
599.698	80050.79
600.035	80049.79
600.373	80048.09
600.71	80048.09
601.047	80045.2
601.384	80046.57
601.722	80047.24
602.059	80047.9
602.396	80046.57
602.733	80047.64
603.069	80047.75
603.406	80047.42
603.743	80047.72
604.08	80048.31
604.417	80049.64
604.753	80051.49
605.09	80053.41
605.426	80053.64
605.763	80050.9
606.099	80051.38
606.436	80051.9
606.772	80050.27
607.109	80050.38
607.445	80051.93
607.781	80052.6
608.117	80053.71
608.453	80051.45
608.79	80049.2
609.126	80049.05
609.462	80048.16
609.798	80049.01
610.133	80047.13
610.469	80047.98
610.805	80046.31
611.141	80045.98
611.477	80045.43
611.812	80042.8
612.148	80040.36
612.483	80039.4
612.819	80039.99
613.154	80039.4
613.49	80037.58
613.825	80039.43
614.16	80040.1
614.496	80039.06
614.831	80038.84
615.166	80037.58
615.501	80037.92
615.836	80039.14
616.171	80039.1
616.506	80040.14
616.841	80038.55
617.176	80040.62
617.511	80039.54
617.846	80040.39
618.18	80039.43
618.515	80038.1
618.85	80037.44
619.184	80037.95
619.519	80037.62
619.853	80036.7
620.188	80035.7
620.522	80037.25
620.856	80036.7
621.191	80035.81
621.525	80037.07
621.859	80035.1
622.193	80035.47
622.527	80034.14
622.861	80034.4
623.195	80031.85
623.529	80032.18
623.863	80033.33
624.197	80030.67
624.531	80030.19
624.865	80029.71
625.198	80028.52
625.532	80027.49
625.866	80026.93
626.199	80025.12
626.533	80024.83
626.866	80025.01
627.2	80024.97
627.533	80025.09
627.866	80024.16
628.2	80022.61
628.533	80021.39
628.866	80021.24
629.199	80019.98
629.532	80021.09
629.865	80021.02
630.198	80022.87
630.531	80020.32
630.864	80018.8
631.197	80019.91
631.529	80018.84
631.862	80020.09
632.195	80020.61
632.527	80019.43
632.86	80021.24
633.193	80022.57
633.525	80022.53
633.857	80023.13
634.19	80024.6
634.522	80023.5
634.854	80022.87
635.187	80024.42
635.519	80024.24
635.851	80022.53
636.183	80024.94
636.515	80025.23
636.847	80024.83
637.179	80024.31
637.511	80025.71
637.843	80025.46
638.174	80025.57
638.506	80026.82
638.838	80023.72
639.17	80023.9
639.501	80025.16
639.833	80023.2
640.164	80023.09
640.496	80023.46
640.827	80023.13
641.158	80022.2
641.49	80023.9
641.821	80023.94
642.152	80022.42
642.483	80023.9
642.814	80025.2
643.145	80023.75
643.476	80024.01
643.807	80024.05
644.138	80023.05
644.469	80023.01
644.8	80023.09
645.131	80023.9
645.461	80021.72
645.792	80023.72
646.122	80023.83
646.453	80024.2
646.784	80026.05
647.114	80024.38
647.444	80024.46
647.775	80024.46
648.105	80024.53
648.435	80021.72
648.765	80021.43
649.096	80021.28
649.426	80018.62
649.756	80017.43
650.086	80017.43
650.416	80016.32
650.746	80016.58
651.075	80016.73
651.405	80015.1
651.735	80013.11
652.065	80011.81
652.394	80013.48
652.724	80012.44
653.054	80011.78
653.383	80012.33
653.712	80011.56
654.042	80012.22
654.371	80010.74
654.701	80011.41
655.03	80010.37
655.359	80011.96
655.688	80012.7
656.017	80011.67
656.346	80011.59
656.675	80012.78
657.004	80012.26
657.333	80011.74
657.662	80011.22
657.991	80011.93
658.32	80013.55
658.648	80014.96
658.977	80014.18
659.306	80014.22
659.634	80013.37
659.963	80015.07
660.291	80013.26
660.619	80013.18
660.948	80014.77
661.276	80013.89
661.604	80012.37
661.933	80013
662.261	80012.11
662.589	80010.96
662.917	80012.29
663.245	80013.18
663.573	80011.74
663.901	80012.33
664.229	80012.63
664.556	80011.37
664.884	80009.67
665.212	80008.38
665.539	80008.6
665.867	80008.82
666.195	80006.97
666.522	80008.78
666.85	80007.64
667.177	80007.01
667.504	80006.94
667.832	80004.31
668.159	80005.38
668.486	80005.57
668.813	80003.68
669.14	80003.02
669.467	80003.24
669.794	80001.24
670.121	80000.47
670.448	80000.91
670.775	79998.84
671.102	79997.96
671.429	79998.25
671.755	79999.84
672.082	79999.91
672.409	79997.36
672.735	79996.92
673.062	79996.63
673.388	79994.81
673.714	79994.19
674.041	79993.56
674.367	79993.08
674.693	79993.48
675.019	79992.74
675.346	79991.78
675.672	79991.89
675.998	79992.78
676.324	79992.6
676.65	79994.33
676.976	79995.04
677.301	79993.59
677.627	79992.63
677.953	79993
678.279	79992.23
678.604	79991.56
678.93	79991.23
679.255	79992.12
679.581	79991.04
679.906	79990.79
680.232	79990.27
680.557	79989.01
680.882	79989.94
681.208	79988.05
681.533	79987.46
681.858	79987.24
682.183	79988.38
682.508	79988.27
682.833	79988.27
683.158	79988.64
683.483	79988.38
683.808	79987.57
684.132	79988.57
684.457	79989.53
684.782	79988.9
685.106	79988.64
685.431	79987.53
685.755	79986.5
686.08	79986.46
686.404	79987.09
686.729	79988.53
687.053	79989.34
687.377	79988.61
687.701	79987.61
688.026	79986.65
688.35	79986.39
688.674	79986.54
688.998	79984.21
689.322	79982.88
689.646	79981.73
689.97	79979.52
690.293	79977.63
690.617	79976.3
690.941	79976.01
691.264	79975.31
691.588	79974.24
691.912	79973.02
692.235	79973.31
692.559	79973.24
692.882	79971.58
693.205	79969.66
693.529	79967.55
693.852	79964.63
694.175	79962.9
694.498	79963.16
694.821	79962.56
695.144	79959.09
695.467	79955.81
695.79	79953.7
696.113	79951.6
696.436	79947.5
696.759	79941.78
697.082	79936.65
697.404	79933.89
697.727	79925.66
698.049	79918.72
698.372	79908.4
698.694	79897.68
699.017	79882.9
699.339	79866.88
699.662	79851.23
699.984	79824.85
700.306	79796.48
700.628	79756.29
700.95	79701.84
701.272	79628.63
701.594	79546.83
701.916	79465.33
702.238	79372.74
702.56	79235.71
702.882	79093.03
703.204	78960.17
703.525	78804.98
703.847	78603.23
704.169	78418.25
704.49	78217.93
704.812	78008.8
705.133	77796.01
705.455	77581.28
705.776	77340.49
706.097	77112.02
706.419	76873.43
706.74	76617.54
707.061	76340.88
707.382	76051.21
707.703	75761.91
708.024	75485.83
708.345	75194.35
708.666	74888.76
708.987	74566.56
709.307	74294.25
709.628	73990.54
709.949	73665.96
710.27	73348.75
710.59	73089.1
710.911	72791.05
711.231	72474.67
711.552	72188.56
711.872	71853.59
712.192	71568.01
712.512	71304.9
712.833	71030.89
713.153	70749.73
713.473	70515.15
713.793	70280.26
714.113	70057.28
714.433	69840.26
714.753	69627.63
715.073	69431.94
715.393	69228.91
715.712	69064.03
716.032	68834.91
716.352	68656.29
716.671	68495.53
716.991	68323.5
717.31	68122.9
717.63	67957.99
717.949	67785.66
718.268	67579.76
718.588	67407.16
718.907	67175.58
719.226	66915.53
719.545	66669.19
719.864	66393.06
720.183	66111.1
720.502	65827.91
720.821	65551.76
721.14	65263.03
721.459	64951.15
721.778	64673.22
722.096	64346.9
722.415	64049.82
722.734	63794.87
723.052	63520.3
723.371	63226.47
723.689	62948.01
724.008	62668.91
724.326	62368.38
724.644	62097.97
724.963	61826.83
725.281	61600.8
725.599	61376.94
725.917	61191.45
726.235	60987.23
726.553	60829.98
726.871	60642.62
727.189	60446.27
727.507	60250.88
727.824	60094.6
728.142	59954.84
728.46	59752.33
728.777	59657.67
729.095	59510.01
729.413	59364.35
729.73	59205.6
730.047	59075.9
730.365	58955.57
730.682	58836.02
730.999	58749.36
731.317	58678.33
731.634	58595.09
731.951	58475.18
732.268	58346.97
732.585	58193.09
732.902	58039.03
733.219	57880.18
733.536	57703.43
733.852	57575.17
734.169	57440.29
734.486	57292.95
734.802	57136.73
735.119	57024.74
735.435	56841.57
735.752	56686.94
736.068	56508.35
736.385	56340.31
736.701	56142.82
737.017	55911.84
737.333	55674.45
737.65	55362.2
737.966	54986.75
738.282	54596.51
738.598	54186.06
738.914	53727.15
739.23	53242.79
739.545	52718.52
739.861	52161.23
740.177	51612.96
740.493	51012.44
740.808	50433.28
741.124	49823.49
741.439	49237
741.755	48659.36
742.07	48139.3
742.386	47585.32
742.701	47082.53
743.016	46595.07
743.331	46122.46
743.647	45705.56
743.962	45310.32
744.277	44962.44
744.592	44690.7
744.907	44470.01
745.222	44300.8
745.537	44210.78
745.851	44177.36
746.166	44193.21
746.481	44246.03
746.795	44363.7
747.11	44522.57
747.424	44697.09
747.739	44862.09
748.053	45038.85
748.368	45193.15
748.682	45307.76
748.996	45433.32
749.311	45535.32
749.625	45631.05
749.939	45729.18
750.253	45791.06
750.567	45865.2
750.881	45932.42
751.195	45989.12
751.509	46059.39
751.822	46112.24
752.136	46160.6
752.45	46216.03
752.763	46277.15
753.077	46337.09
753.39	46361.18
753.704	46391.17
754.017	46405.18
754.331	46443.12
754.644	46448.62
754.957	46458.39
755.27	46460.7
755.584	46469.1
755.897	46474.71
756.21	46472.59
756.523	46450.02
756.836	46429.87
757.149	46348.1
757.461	46277.66
757.774	46192.48
758.087	46064.73
758.4	45927.05
758.712	45772.61
759.025	45615
759.337	45459.86
759.65	45299.68
759.962	45148.83
760.275	44983.36
760.587	44839.83
760.899	44699.48
761.211	44608.8
761.523	44540.26
761.836	44546.03
762.148	44551.74
762.46	44588.3
762.772	44649.98
763.083	44782.1
763.395	44922.7
763.707	45140.94
764.019	45367.02
764.33	45596.63
764.642	45853.19
764.954	46121.03
765.265	46397.64
765.577	46654.05
765.888	46906.79
766.199	47151.06
766.511	47369.25
766.822	47589.55
767.133	47765.08
767.444	47930.31
767.755	48022.18
768.066	48082.21
768.377	48065.3
768.688	48007.98
768.999	47908.45
769.31	47780.64
769.621	47587.99
769.931	47365.97
770.242	47113.4
770.553	46813.56
770.863	46483.21
771.174	46132.42
771.484	45744.77
771.794	45344.15
772.105	44937.7
772.415	44505.3
772.725	44058.18
773.035	43618.55
773.345	43165.61
773.656	42703.18
773.966	42235.3
774.276	41808.88
774.585	41378.17
774.895	40943.75
775.205	40559.87
775.515	40170.93
775.824	39778.05
776.134	39391.39
776.444	39027.68
776.753	38664.03
777.063	38327.08
777.372	37999.29
777.681	37670.32
777.991	37366.76
778.3	37060.91
778.609	36759.48
778.918	36471.41
779.228	36208.83
779.537	35945.35
779.846	35687.92
780.154	35446.72
780.463	35215.59
780.772	34965.18
781.081	34732.97
781.39	34531.34
781.698	34309.36
782.007	34103.43
782.316	33892.61
782.624	33683.57
782.932	33481.67
783.241	33282.34
783.549	33088.03
783.858	32920.7
784.166	32760.19
784.474	32580.38
784.782	32419.45
785.09	32269.39
785.398	32126.18
785.706	31979.91
786.014	31840.3
786.322	31697.97
786.63	31558.52
786.937	31428.07
787.245	31302.15
787.553	31173.12
787.86	31058.29
788.168	30940.3
788.475	30838.09
788.783	30746.82
789.09	30648.22
789.398	30551.11
789.705	30449.66
790.012	30346.42
790.319	30239.02
790.626	30123.14
790.933	30037.63
791.24	29950.05
791.547	29853.89
791.854	29760.38
792.161	29669.91
792.468	29569.35
792.774	29468.96
793.081	29381.04
793.388	29292.38
793.694	29197.81
794.001	29106.76
794.307	28988.11
794.614	28885.15
794.92	28752.67
795.226	28624.68
795.533	28518.41
795.839	28416.15
796.145	28300.62
796.451	28185.26
796.757	28079.24
797.063	27975.1
797.369	27860.58
797.675	27754.4
797.98	27650.64
798.286	27527.95
798.592	27421.26
798.898	27306.49
799.203	27195.23
799.509	27078.19
799.814	26955.09
800.12	26850.15
800.425	26738.64
800.73	26624.01
801.035	26505.78
801.341	26400.9
801.646	26302.66
801.951	26195.23
802.256	26089.38
802.561	25995.91
802.866	25905.29
803.171	25812.88
803.476	25726.78
803.78	25635.88
804.085	25536.57
804.39	25428.09
804.694	25327.7
804.999	25222.7
805.303	25130.55
805.608	25046.79
805.912	24963.07
806.216	24893.35
806.521	24828.34
806.825	24751.4
807.129	24686.17
807.433	24612.78
807.737	24542.79
808.041	24480.77
808.345	24428.34
808.649	24370.14
808.953	24322.96
809.257	24260.97
809.561	24200.52
809.864	24145.16
810.168	24112.13
810.471	24076.85
810.775	24051.02
811.078	24033.3
811.382	24006.57
811.685	24003.54
811.988	23988.8
812.292	23976.63
812.595	23969.4
812.898	23960.75
813.201	23971.45
813.504	23992.58
813.807	24024.06
814.11	24057.63
814.413	24086.93
814.716	24113.48
815.018	24166.72
815.321	24225.85
815.624	24315.84
815.926	24420.84
816.229	24545.22
816.531	24684.01
816.834	24848.21
817.136	25041.53
817.438	25259.2
817.74	25537.09
818.043	25847.21
818.345	26227.51
818.647	26689.27
818.949	27240.92
819.251	27874.87
819.553	28630.99
819.855	29492.64
820.156	30457.91
820.458	31540.9
820.76	32698.8
821.062	33912.31
821.363	35176.85
821.665	36512.29
821.966	37945.01
822.268	39394.5
822.569	40849.02
822.87	42332
823.171	43822.65
823.473	45358.62
823.774	46934.3
824.075	48455.98
824.376	49956.73
824.677	51428.97
824.978	52808.32
825.279	54098.25
825.58	55277.38
825.88	56311.78
826.181	57203.09
826.482	57995.67
826.782	58624.84
827.083	59141.17
827.383	59525.34
827.684	59735.49
827.984	59824.95
828.284	59733.77
828.585	59511.05
828.885	59214.38
829.185	58755.81
829.485	58204.42
829.785	57533.55
830.085	56700.93
830.385	55832.48
830.685	54895.02
830.985	53841.38
831.285	52768.29
831.584	51641.21
831.884	50485.14
832.183	49308.74
832.483	48100.6
832.782	46818.56
833.082	45534
833.381	44249.56
833.681	43004.58
833.98	41846.9
834.279	40701.89
834.578	39587.69
834.877	38551.51
835.176	37533
835.475	36597.89
835.774	35704.36
836.073	34829.06
836.372	34008.81
836.671	33196.45
836.969	32391.58
837.268	31652.92
837.567	30937.1
837.865	30254.33
838.164	29577.13
838.462	28925.56
838.761	28309.81
839.059	27728.76
839.357	27180.1
839.655	26650.92
839.953	26114.44
840.252	25579.1
840.55	25053.63
840.848	24554.58
841.146	24058.83
841.443	23560.11
841.741	23056.09
842.039	22549.09
842.337	22047.18
842.634	21582.21
842.932	21134.91
843.229	20707.54
843.527	20287.63
843.824	19844.07
844.122	19394.95
844.419	18974.49
844.716	18547.31
845.013	18135.47
845.311	17746.17
845.608	17371.23
845.905	17001.64
846.202	16645.6
846.499	16277.57
846.796	15916.19
847.092	15546.85
847.389	15181.88
847.686	14842.13
847.982	14523.35
848.279	14207.89
848.576	13916.32
848.872	13621.93
849.168	13333.21
849.465	13052.38
849.761	12766.07
850.057	12495.64
850.354	12232.34
850.65	11977.4
850.946	11741.49
851.242	11519.49
851.538	11300.45
851.834	11081.51
852.13	10867.77
852.425	10671.17
852.721	10494.31
853.017	10324.39
853.312	10171.44
853.608	10024.98
853.903	9883.94
854.199	9742
854.494	9615.1
854.79	9483.98
855.085	9350.75
855.38	9221.79
855.675	9089.86
855.971	8967.99
856.266	8866.73
856.561	8770.15
856.856	8681.04
857.151	8594.39
857.445	8496.25
857.74	8401.57
858.035	8310.27
858.33	8214.56
858.624	8127.6
858.919	8048.37
859.213	7961.62
859.508	7875.45
859.802	7784.71
860.096	7701.39
860.391	7635.58
860.685	7574.05
860.979	7514.06
861.273	7465.36
861.567	7408.1
861.861	7347.68
862.155	7294.65
862.449	7225.78
862.743	7161.64
863.037	7103.15
863.33	7042.81
863.624	6988.45
863.918	6939.39
864.211	6897.13
864.505	6865.59
864.798	6825.03
865.092	6776.83
865.385	6734.9
865.678	6683.47
865.971	6655.47
866.264	6625.14
866.558	6595.5
866.851	6560.92
867.144	6530.63
867.437	6493.48
867.729	6461.76
868.022	6439.53
868.315	6418.27
868.608	6404.19
868.9	6397.02
869.193	6380.06
869.485	6353.81
869.778	6332.52
870.07	6305
870.363	6284.34
870.655	6267.14
870.947	6259.66
871.239	6252.68
871.532	6252.15
871.824	6254.07
872.116	6248.63
872.408	6242.72
872.699	6227.84
872.991	6222.1
873.283	6216.61
873.575	6219.36
873.867	6227.82
874.158	6234.1
874.45	6234.33
874.741	6233.55
875.033	6230.14
875.324	6242.23
875.615	6265.39
875.907	6287.33
876.198	6304.2
876.489	6315.39
876.78	6318.98
877.071	6317.23
877.362	6320.99
877.653	6322.97
877.944	6338.56
878.235	6347.02
878.526	6357.45
878.816	6376.85
