Data from 24HourExp_27052025_FLMS018081_09-18-19-392.txt Node
Date: Wed May 28 09:18:19 BST 2025
User: adleo
Spectrometer: FLMS01808
Trigger mode: 0
Integration Time (sec): 4.000000E-1
Scans to average: 10
Electric dark correction enabled: true
Nonlinearity correction enabled: true
Boxcar width: 10
XAxis mode: Wavelengths
Number of Pixels in Spectrum: 2048
>>>>>Begin Spectral Data<<<<<
178.471	-123.04
178.857	-116.31
179.244	-111.49
179.631	-104.06
180.017	-95.85
180.404	-87.16
180.79	-76.29
181.176	-66.87
181.563	-58.47
181.949	-47.32
182.335	-37.64
182.722	-22.22
183.108	-3.9
183.494	22.2
183.88	75.73
184.266	130.21
184.653	187.09
185.039	239.43
185.425	295
185.811	348.85
186.197	400.06
186.582	452.93
186.968	504.61
187.354	557.43
187.74	607.47
188.126	658.47
188.511	708.24
188.897	755.44
189.283	803.01
189.668	848.61
190.054	891.73
190.439	938.46
190.825	981.99
191.21	1023.43
191.596	1057.82
191.981	1066.43
192.366	1070.05
192.752	1071.73
193.137	1078.02
193.522	1078.3
193.908	1080.82
194.293	1085.94
194.678	1087.48
195.063	1090.41
195.448	1093.16
195.833	1093.92
196.218	1093.1
196.603	1092.98
196.988	1092.17
197.373	1092.75
197.757	1093.85
198.142	1095.27
198.527	1091.18
198.912	1090.56
199.296	1089.28
199.681	1086.15
200.066	1083.44
200.45	1081.43
200.835	1080.89
201.219	1078.61
201.604	1078.11
201.988	1076.93
202.372	1077.58
202.757	1076.47
203.141	1077.46
203.525	1077.7
203.91	1079.63
204.294	1081.01
204.678	1080.26
205.062	1079.99
205.446	1078.55
205.83	1079.93
206.214	1078.34
206.598	1078.99
206.982	1080.11
207.366	1081.25
207.75	1082.81
208.134	1085.29
208.517	1088.93
208.901	1089.41
209.285	1091.06
209.669	1093.5
210.052	1093.97
210.436	1092.97
210.819	1095.19
211.203	1093.96
211.586	1093.44
211.97	1093.38
212.353	1093.39
212.737	1096.64
213.12	1100.88
213.503	1101.54
213.886	1102.76
214.27	1105.98
214.653	1109.79
215.036	1112.66
215.419	1112.67
215.802	1115.08
216.185	1115.92
216.568	1119.28
216.951	1122.84
217.334	1125.52
217.717	1128.16
218.1	1131.69
218.482	1135.78
218.865	1139.77
219.248	1144.98
219.631	1149.39
220.013	1154.96
220.396	1161.42
220.778	1167.29
221.161	1172.3
221.544	1179.61
221.926	1187.23
222.308	1193.79
222.691	1200.55
223.073	1207.85
223.455	1217.89
223.838	1227.71
224.22	1237.38
224.602	1245.98
224.984	1257
225.366	1268.85
225.749	1282.54
226.131	1295.87
226.513	1308.72
226.895	1323.84
227.276	1337.17
227.658	1352.33
228.04	1368.67
228.422	1386.33
228.804	1400.88
229.186	1415.91
229.567	1434.63
229.949	1451.72
230.331	1470.28
230.712	1489.49
231.094	1506.81
231.475	1525.88
231.857	1543.86
232.238	1562.54
232.62	1582.32
233.001	1602.21
233.382	1622.62
233.763	1640
234.145	1659.75
234.526	1679.9
234.907	1697.69
235.288	1716.84
235.669	1736.01
236.05	1753.91
236.431	1769.24
236.812	1790.08
237.193	1810.63
237.574	1829.41
237.955	1848.82
238.336	1867.74
238.717	1887.78
239.097	1911.16
239.478	1930.1
239.859	1952.03
240.239	1975.95
240.62	1999.34
241.001	2020.57
241.381	2042.69
241.762	2065.77
242.142	2088.24
242.522	2110.97
242.903	2135.42
243.283	2162.17
243.663	2188.68
244.044	2215.19
244.424	2245.66
244.804	2270.8
245.184	2300.27
245.564	2327.69
245.944	2356.05
246.324	2386.94
246.704	2415.99
247.084	2443.97
247.464	2476.51
247.844	2507.65
248.224	2538.41
248.604	2565.93
248.983	2595.75
249.363	2627.09
249.743	2657.99
250.122	2687.95
250.502	2717.45
250.882	2747.57
251.261	2777.07
251.641	2807.86
252.02	2841.42
252.399	2871.43
252.779	2907.94
253.158	2941.5
253.537	2979.34
253.917	3023.48
254.296	3061.39
254.675	3098.98
255.054	3139.5
255.433	3180.02
255.812	3217.34
256.191	3254.92
256.57	3296.81
256.949	3340.49
257.328	3385.2
257.707	3428.67
258.086	3475.79
258.465	3524.63
258.843	3576.27
259.222	3625.53
259.601	3678.55
259.979	3730.04
260.358	3783.61
260.736	3836.91
261.115	3891.58
261.493	3945.59
261.872	3994.32
262.25	4050.24
262.629	4108.29
263.007	4165.42
263.385	4225.45
263.763	4287.02
264.142	4350.1
264.52	4413.82
264.898	4478.38
265.276	4540.81
265.654	4610.09
266.032	4679.13
266.41	4747.12
266.788	4815.02
267.166	4889.18
267.544	4962.49
267.921	5039.22
268.299	5119.28
268.677	5197.29
269.055	5281.77
269.432	5365.47
269.81	5451.38
270.188	5536.84
270.565	5625.11
270.943	5714.76
271.32	5801.68
271.697	5895.01
272.075	5992.42
272.452	6090.16
272.829	6184.25
273.207	6284.61
273.584	6386.98
273.961	6490.47
274.338	6601.59
274.715	6719.63
275.092	6837.93
275.469	6957.44
275.846	7076.7
276.223	7196.38
276.6	7319.35
276.977	7442.14
277.354	7566.25
277.731	7693.63
278.108	7824.58
278.484	7954.84
278.861	8088
279.238	8229.85
279.614	8368.64
279.991	8513.18
280.367	8658.48
280.744	8808.95
281.12	8959.58
281.497	9109.52
281.873	9264.13
282.249	9414.19
282.625	9561.46
283.002	9711.03
283.378	9861.62
283.754	10013.51
284.13	10165.08
284.506	10324.94
284.882	10482.24
285.258	10638.68
285.634	10798.21
286.01	10961.45
286.386	11120.88
286.762	11286.98
287.138	11450.31
287.513	11615.53
287.889	11777.97
288.265	11940.05
288.641	12099.84
289.016	12259.64
289.392	12425.69
289.767	12586.03
290.143	12755.17
290.518	12915.39
290.894	13077.65
291.269	13235.91
291.644	13394.93
292.02	13549.59
292.395	13702.53
292.77	13858.23
293.145	14015.32
293.52	14168.12
293.895	14317.73
294.27	14471.44
294.646	14621.1
295.02	14768.33
295.395	14921.42
295.77	15074.66
296.145	15229.61
296.52	15384.07
296.895	15541.28
297.269	15688.73
297.644	15847.23
298.019	15999.7
298.393	16153.54
298.768	16306.85
299.143	16463.07
299.517	16620.66
299.891	16779.24
300.266	16939.64
300.64	17093.86
301.015	17257.32
301.389	17430.32
301.763	17601.54
302.137	17778.22
302.512	17963.2
302.886	18139.25
303.26	18321.2
303.634	18497.62
304.008	18670.88
304.382	18855.37
304.756	19040.93
305.13	19230.3
305.504	19407.19
305.877	19598.51
306.251	19804.08
306.625	20005.79
306.999	20213.18
307.372	20421.39
307.746	20643.89
308.119	20853.91
308.493	21071.56
308.866	21283.46
309.24	21495.26
309.613	21702.6
309.987	21906.96
310.36	22103.34
310.733	22309.57
311.107	22527.38
311.48	22746.74
311.853	22981.76
312.226	23204.7
312.599	23432.14
312.972	23658.93
313.345	23892.38
313.718	24119.27
314.091	24336.18
314.464	24563.64
314.837	24791.49
315.21	25005.71
315.582	25223.95
315.955	25430.99
316.328	25647.92
316.7	25863.82
317.073	26086.27
317.446	26310.91
317.818	26540.44
318.191	26766.74
318.563	27001.06
318.936	27207.56
319.308	27410.85
319.68	27611.62
320.053	27812.17
320.425	27995.34
320.797	28173.34
321.169	28333.39
321.541	28473.85
321.913	28611.59
322.285	28730.4
322.657	28847.71
323.029	28997.19
323.401	29136.94
323.773	29313.29
324.145	29483.81
324.517	29676.52
324.889	29844.25
325.26	30040.67
325.632	30254.34
326.004	30487.31
326.375	30734.46
326.747	31008.86
327.118	31308.74
327.49	31596.9
327.861	31905.25
328.233	32211.24
328.604	32520.96
328.975	32835.47
329.346	33149.05
329.718	33452.61
330.089	33760.76
330.46	34064.11
330.831	34335.24
331.202	34589.03
331.573	34828.77
331.944	35056.81
332.315	35279.64
332.686	35500.34
333.057	35706.84
333.428	35885.82
333.799	36057.05
334.169	36212.76
334.54	36350.8
334.911	36470.56
335.281	36598.13
335.652	36716.55
336.022	36858.83
336.393	37008.05
336.763	37178.27
337.134	37367.43
337.504	37572.13
337.874	37771.82
338.245	37974.78
338.615	38184.56
338.985	38410.9
339.355	38638.2
339.726	38868.48
340.096	39087.46
340.466	39338.61
340.836	39580.74
341.206	39824.94
341.576	40071.8
341.945	40315.01
342.315	40550.68
342.685	40795.82
343.055	41044.93
343.425	41287.93
343.794	41514.64
344.164	41742.01
344.533	41968.95
344.903	42196.66
345.273	42424.54
345.642	42650.75
346.011	42879.02
346.381	43119.34
346.75	43356.23
347.12	43594.17
347.489	43836.38
347.858	44080.2
348.227	44291.67
348.596	44506.71
348.965	44745.96
349.334	44967.6
349.704	45200.58
350.072	45441
350.441	45675.3
350.81	45914.85
351.179	46143.67
351.548	46374.26
351.917	46599.24
352.285	46801.94
352.654	47007.54
353.023	47217.41
353.391	47420.54
353.76	47633.27
354.129	47817.99
354.497	48048.81
354.865	48267.68
355.234	48499.81
355.602	48717.37
355.971	48965.89
356.339	49185.19
356.707	49403.84
357.075	49627.72
357.443	49854.57
357.811	50067.1
358.18	50273.88
358.548	50482.44
358.916	50695.71
359.284	50915.97
359.651	51128.59
360.019	51343.61
360.387	51546.48
360.755	51745.34
361.123	51974.18
361.49	52196.32
361.858	52415.68
362.226	52607.25
362.593	52805.23
362.961	52987.43
363.328	53189.62
363.696	53356.08
364.063	53575.92
364.43	53778.74
364.798	53992.8
365.165	54169.25
365.532	54356.06
365.899	54547.77
366.267	54711.15
366.634	54857.23
367.001	55020.66
367.368	55162.05
367.735	55339.22
368.102	55512.14
368.469	55704.23
368.835	55881.32
369.202	56044.89
369.569	56234.73
369.936	56423.77
370.303	56610.54
370.669	56808.62
371.036	56972.32
371.402	57176.84
371.769	57351.82
372.135	57501.99
372.502	57622.38
372.868	57766.27
373.235	57911.96
373.601	58046.72
373.967	58215.85
374.333	58406.24
374.7	58596.34
375.066	58797.11
375.432	58976.51
375.798	59156.82
376.164	59321.83
376.53	59462.79
376.896	59629.21
377.262	59801.95
377.628	59934.27
377.993	60085.25
378.359	60227.05
378.725	60385.71
379.091	60528.4
379.456	60658.81
379.822	60786.28
380.187	60939.69
380.553	61128.23
380.918	61322.1
381.284	61490.76
381.649	61667.73
382.015	61805.78
382.38	61921.25
382.745	62091.14
383.11	62242.86
383.476	62380.66
383.841	62509.33
384.206	62673.57
384.571	62790.5
384.936	62923.1
385.301	63096.38
385.666	63226.4
386.031	63376.83
386.396	63531.72
386.76	63682.78
387.125	63881.91
387.49	64091.71
387.855	64284.7
388.219	64449.17
388.584	64614.09
388.948	64818.33
389.313	64979.04
389.677	65178.87
390.042	65407.14
390.406	65557.45
390.771	65743.55
391.135	65939.09
391.499	66165.48
391.863	66388.87
392.227	66627.56
392.592	66817.74
392.956	67004.8
393.32	67197.86
393.684	67410.18
394.048	67585.41
394.412	67770.12
394.775	67908.6
395.139	68041.77
395.503	68198.37
395.867	68347.21
396.231	68496.99
396.594	68597.91
396.958	68739.29
397.321	68896.88
397.685	69019.82
398.048	69157.61
398.412	69293.13
398.775	69414.73
399.139	69546.47
399.502	69661.73
399.865	69810.86
400.228	70012.85
400.592	70157.74
400.955	70364.58
401.318	70501.36
401.681	70661.9
402.044	70796.62
402.407	70958.93
402.77	71116.96
403.133	71300.96
403.496	71442.93
403.859	71595.32
404.221	71825.94
404.584	72053.72
404.947	72296.69
405.309	72504.92
405.672	72740.82
406.034	72963.06
406.397	73215.8
406.759	73430.76
407.122	73606.42
407.484	73775.09
407.847	73953.82
408.209	74197.18
408.571	74421.24
408.933	74685.32
409.296	74942.22
409.658	75183.64
410.02	75448.84
410.382	75762.13
410.744	76022.2
411.106	76310.94
411.468	76579.1
411.83	76817.11
412.191	77020.49
412.553	77197.32
412.915	77412.58
413.277	77623.09
413.638	77826.75
414	77998.22
414.361	78178.57
414.723	78411.99
415.084	78626.59
415.446	78799.75
415.807	78938.44
416.169	79046.72
416.53	79135.86
416.891	79240.04
417.252	79367.33
417.614	79449.1
417.975	79496.56
418.336	79550
418.697	79609.1
419.058	79662.02
419.419	79700.23
419.78	79742.75
420.141	79774.7
420.501	79803.13
420.862	79825.56
421.223	79843.19
421.584	79880.68
421.944	79902.25
422.305	79914.08
422.666	79922.23
423.026	79926.74
423.387	79936.99
423.747	79945.48
424.107	79955.4
424.468	79965.33
424.828	79973.42
425.188	79978
425.549	79984.43
425.909	79989.71
426.269	79987.13
426.629	79992.26
426.989	79996.25
427.349	79999.28
427.709	80003.13
428.069	80005.2
428.429	80010.56
428.789	80017.8
429.149	80022.42
429.508	80026.82
429.868	80030.15
430.228	80035.18
430.587	80039.06
430.947	80044.54
431.306	80050.41
431.666	80054.15
432.025	80057.67
432.385	80058.74
432.744	80060.7
433.103	80064.29
433.463	80068.03
433.822	80077.93
434.181	80080.22
434.54	80083.29
434.899	80085.33
435.258	80087.77
435.618	80088.99
435.976	80091.06
436.335	80091.77
436.694	80093.99
437.053	80095.8
437.412	80097.28
437.771	80098.24
438.129	80099.98
438.488	80100.43
438.847	80100.65
439.205	80101.72
439.564	80101.43
439.922	80102.13
440.281	80104.43
440.639	80105.98
440.997	80105.98
441.356	80106.35
441.714	80108.09
442.072	80108.57
442.431	80109.17
442.789	80109.05
443.147	80110.68
443.505	80111.5
443.863	80111.09
444.221	80109.79
444.579	80109.46
444.937	80110.09
445.294	80111.02
445.652	80113.02
446.01	80113.09
446.368	80113.53
446.725	80112.79
447.083	80113.53
447.441	80113.83
447.798	80114.09
448.156	80112.35
448.513	80111.98
448.87	80112.24
449.228	80112.09
449.585	80112.05
449.942	80113.13
450.3	80112.76
450.657	80111.94
451.014	80112.05
451.371	80112.94
451.728	80114.94
452.085	80115.2
452.442	80115.83
452.799	80116.79
453.156	80113.9
453.513	80113.5
453.869	80113.39
454.226	80115.5
454.583	80115.79
454.939	80115.72
455.296	80115.42
455.653	80116.57
456.009	80117.2
456.366	80115.87
456.722	80117.27
457.078	80117.16
457.435	80115.72
457.791	80116.02
458.147	80116.9
458.503	80117.9
458.86	80118.05
459.216	80118.2
459.572	80118.42
459.928	80119.24
460.284	80119.64
460.64	80120.61
460.996	80121.68
461.351	80122.5
461.707	80122.38
462.063	80123.01
462.419	80125.13
462.774	80125.38
463.13	80125.2
463.486	80125.01
463.841	80126.68
464.197	80125.87
464.552	80127.75
464.908	80129.83
465.263	80132.61
465.618	80134.68
465.974	80133.98
466.329	80133.31
466.684	80134.2
467.039	80135.09
467.394	80135.2
467.749	80135.5
468.104	80136.72
468.459	80136.87
468.814	80138.09
469.169	80139.38
469.524	80140.09
469.879	80140.24
470.233	80141.68
470.588	80143.16
470.943	80143.76
471.297	80144.87
471.652	80146.94
472.006	80147.79
472.361	80149.5
472.715	80149.02
473.07	80150.09
473.424	80151.24
473.778	80152.24
474.133	80152.8
474.487	80153.31
474.841	80153.72
475.195	80154.13
475.549	80155.91
475.903	80155.57
476.257	80154.8
476.611	80154.98
476.965	80155.28
477.319	80154.94
477.673	80154.61
478.026	80155.72
478.38	80155.24
478.734	80155.17
479.087	80153.35
479.441	80152.61
479.795	80151.83
480.148	80151.76
480.502	80149.94
480.855	80150.24
481.208	80151.54
481.562	80151.54
481.915	80152.42
482.268	80154.17
482.621	80154.91
482.974	80154.24
483.328	80156.17
483.681	80156.17
484.034	80155.35
484.387	80155.61
484.739	80155.57
485.092	80154.83
485.445	80155.43
485.798	80158.17
486.151	80158.91
486.503	80161.02
486.856	80160.98
487.209	80161.32
487.561	80162.47
487.914	80163.69
488.266	80164.02
488.618	80161.76
488.971	80162.24
489.323	80162.95
489.675	80162.58
490.028	80163.47
490.38	80163.84
490.732	80163.1
491.084	80163.88
491.436	80163.58
491.788	80165.21
492.14	80165.84
492.492	80167.8
492.844	80167.8
493.196	80165.84
493.548	80166.32
493.899	80166.25
494.251	80167.1
494.603	80166.91
494.954	80165.25
495.306	80164.58
495.657	80164.21
496.009	80164.88
496.36	80164.28
496.712	80163.32
497.063	80161.76
497.414	80160.98
497.765	80161.99
498.117	80161.13
498.468	80160.76
498.819	80159.47
499.17	80158.21
499.521	80158.95
499.872	80157.69
500.223	80156.17
500.574	80156.91
500.924	80157.58
501.275	80156.91
501.626	80157.13
501.977	80156.98
502.327	80157.8
502.678	80159.54
503.029	80160.99
503.379	80164.14
503.73	80164.77
504.08	80163.95
504.43	80165.36
504.781	80166.03
505.131	80165.02
505.481	80164.91
505.831	80164.21
506.182	80165.95
506.532	80165.51
506.882	80165.02
507.232	80164.28
507.582	80165.36
507.932	80165.62
508.281	80163.99
508.631	80163.76
508.981	80163.06
509.331	80163.88
509.681	80164.54
510.03	80163.21
510.38	80162.87
510.729	80161.87
511.079	80161.39
511.428	80162.58
511.778	80162.24
512.127	80160.65
512.476	80161.28
512.826	80162.35
513.175	80164.84
513.524	80164.5
513.873	80165.54
514.222	80166.62
514.571	80168.25
514.92	80168.65
515.269	80169.51
515.618	80170.62
515.967	80170.03
516.316	80170.58
516.665	80171.1
517.014	80169.91
517.362	80170.06
517.711	80168.84
518.059	80168.8
518.408	80168.4
518.757	80167.84
519.105	80167.73
519.453	80168.54
519.802	80166.91
520.15	80165.84
520.498	80165.47
520.847	80165.1
521.195	80166.28
521.543	80164.47
521.891	80165.36
522.239	80165.17
522.587	80163.88
522.935	80164.62
523.283	80165.43
523.631	80165.54
523.979	80165.1
524.326	80165.54
524.674	80165.25
525.022	80165.8
525.369	80165.62
525.717	80168.17
526.064	80168.58
526.412	80169.69
526.759	80169.4
527.107	80170.55
527.454	80172.07
527.801	80172.73
528.149	80173.55
528.496	80172.81
528.843	80174.33
529.19	80174.36
529.537	80172.66
529.884	80173.58
530.231	80173.44
530.578	80174.77
530.925	80175.4
531.272	80175.7
531.619	80175.62
531.966	80175.85
532.312	80175.96
532.659	80174.96
533.006	80172.92
533.352	80173.47
533.699	80172.88
534.045	80173.51
534.392	80173.25
534.738	80173.32
535.084	80172.77
535.431	80173.36
535.777	80171.99
536.123	80172.47
536.469	80172.95
536.815	80174.18
537.161	80173.95
537.507	80172.25
537.853	80170.06
538.199	80169.1
538.545	80168.43
538.891	80166.51
539.237	80166.21
539.582	80166.4
539.928	80166.58
540.274	80167.88
540.619	80169.84
540.965	80169.4
541.31	80170.55
541.656	80169.58
542.001	80169.66
542.347	80168.92
542.692	80167.81
543.037	80169.1
543.382	80167.51
543.728	80166.77
544.073	80166.29
544.418	80165.32
544.763	80165.28
545.108	80166.06
545.453	80165.54
545.798	80166.29
546.142	80169.62
546.487	80171.07
546.832	80170.99
547.177	80171.03
547.521	80168.47
547.866	80165.62
548.211	80165.02
548.555	80164.17
548.9	80164.39
549.244	80163.02
549.588	80164.06
549.933	80165.36
550.277	80164.62
550.621	80165.1
550.965	80162.84
551.31	80163.5
551.654	80163.21
551.998	80164.28
552.342	80164.76
552.686	80166.32
553.03	80165.73
553.373	80165.32
553.717	80162.76
554.061	80162.06
554.405	80162.73
554.748	80163.28
555.092	80164.62
555.436	80166.21
555.779	80165.36
556.123	80165.95
556.466	80166.58
556.81	80166.17
557.153	80165.76
557.496	80166.39
557.839	80166.73
558.183	80168.32
558.526	80168.02
558.869	80169.8
559.212	80169.54
559.555	80170.58
559.898	80169.88
560.241	80171.21
560.584	80170.36
560.927	80172.06
561.269	80172.84
561.612	80173.25
561.955	80173.44
562.297	80173.06
562.64	80169.84
562.983	80169.95
563.325	80171.21
563.668	80171.21
564.01	80169.8
564.352	80168.03
564.695	80166.14
565.037	80165.17
565.379	80164.95
565.721	80163.39
566.063	80162.39
566.406	80161.84
566.748	80161.39
567.09	80160.95
567.431	80159.35
567.773	80158.95
568.115	80157.5
568.457	80156.95
568.799	80156.46
569.14	80156.09
569.482	80155.24
569.824	80158.61
570.165	80156.17
570.507	80154.17
570.848	80154.39
571.19	80154.28
571.531	80154.69
571.872	80156.39
572.214	80157.54
572.555	80156.65
572.896	80157.24
573.237	80156.09
573.578	80155.24
573.919	80155.2
574.26	80154.17
574.601	80153.98
574.942	80153.17
575.283	80152.54
575.624	80151.68
575.964	80150.13
576.305	80151.54
576.646	80152.09
576.986	80150.39
577.327	80153.06
577.667	80154.17
578.008	80155.61
578.348	80156.84
578.689	80157.76
579.029	80157.21
579.369	80155.35
579.71	80155.43
580.05	80156.87
580.39	80157.91
580.73	80158.87
581.07	80158.47
581.41	80160.06
581.75	80158.91
582.09	80158.61
582.43	80160.13
582.769	80161.06
583.109	80161.06
583.449	80160.32
583.789	80158.87
584.128	80159.61
584.468	80158.21
584.807	80156.95
585.147	80154.91
585.486	80153.68
585.825	80152.61
586.165	80151.98
586.504	80152.05
586.843	80152.98
587.182	80151.02
587.522	80149.46
587.861	80147.91
588.2	80146.57
588.539	80143.46
588.878	80144.83
589.216	80144.87
589.555	80143.79
589.894	80142.61
590.233	80143.79
590.572	80142.9
590.91	80143.53
591.249	80141.83
591.587	80141.46
591.926	80140.64
592.264	80141.5
592.603	80142.13
592.941	80141.5
593.279	80140.05
593.618	80138.13
593.956	80136.9
594.294	80137.94
594.632	80137.2
594.97	80137.27
595.308	80136.64
595.646	80137.05
595.984	80136.09
596.322	80138.13
596.66	80138.39
596.998	80138.57
597.335	80136.9
597.673	80136.2
598.011	80135.87
598.348	80136.27
598.686	80136.64
599.023	80136.27
599.361	80133.42
599.698	80131.53
600.035	80132.16
600.373	80133.53
600.71	80135.31
601.047	80134.46
601.384	80132.09
601.722	80132.72
602.059	80133.98
602.396	80134.38
602.733	80135.98
603.069	80136.01
603.406	80134.98
603.743	80134.53
604.08	80134.75
604.417	80134.87
604.753	80135.83
605.09	80135.09
605.426	80135.83
605.763	80136.5
606.099	80137.2
606.436	80138.87
606.772	80138.72
607.109	80138.24
607.445	80137.16
607.781	80137.24
608.117	80138.61
608.453	80140.01
608.79	80140.27
609.126	80138.24
609.462	80137.9
609.798	80136.01
610.133	80136.16
610.469	80134.94
610.805	80135.64
611.141	80133.83
611.477	80134.46
611.812	80133.83
612.148	80134.2
612.483	80132.35
612.819	80131.2
613.154	80130.24
613.49	80128.72
613.825	80129.94
614.16	80130.24
614.496	80131.12
614.831	80131.42
615.166	80129.64
615.501	80128.83
615.836	80129.83
616.171	80130.98
616.506	80131.42
616.841	80133.01
617.176	80131.16
617.511	80131.72
617.846	80130.98
618.18	80131.49
618.515	80129.46
618.85	80127.09
619.184	80125.68
619.519	80124.53
619.853	80123.02
620.188	80123.76
620.522	80124.05
620.856	80125.05
621.191	80124.46
621.525	80122.98
621.859	80122.42
622.193	80124.16
622.527	80125.57
622.861	80124.16
623.195	80123.09
623.529	80122.39
623.863	80121.2
624.197	80122.16
624.531	80121.76
624.865	80121.35
625.198	80121.02
625.532	80121.31
625.866	80122.5
626.199	80122.13
626.533	80123.24
626.866	80125.09
627.2	80126.09
627.533	80127.27
627.866	80125.24
628.2	80125.75
628.533	80125.16
628.866	80125.38
629.199	80123.9
629.532	80121.79
629.865	80121.79
630.198	80122.42
630.531	80120.5
630.864	80121.05
631.197	80119.5
631.529	80117.68
631.862	80116.94
632.195	80117.87
632.527	80118.87
632.86	80119.79
633.193	80120.87
633.525	80121.57
633.857	80119.72
634.19	80118.83
634.522	80117.24
634.854	80117.39
635.187	80117.79
635.519	80118.2
635.851	80118.13
636.183	80118.09
636.515	80118.02
636.847	80118.5
637.179	80117.31
637.511	80119.5
637.843	80118.35
638.174	80119.72
638.506	80120.64
638.838	80120.68
639.17	80121.38
639.501	80120.98
639.833	80119.79
640.164	80118.79
640.496	80119.16
640.827	80120.87
641.158	80118.68
641.49	80119.39
641.821	80119.09
642.152	80118.13
642.483	80118.09
642.814	80117.87
643.145	80115.65
643.476	80115.5
643.807	80114.79
644.138	80115.94
644.469	80114.87
644.8	80116.46
645.131	80116.16
645.461	80116.2
645.792	80115.9
646.122	80113.98
646.453	80112.94
646.784	80112.72
647.114	80111.8
647.444	80109.43
647.775	80108.2
648.105	80109.68
648.435	80109.68
648.765	80108.76
649.096	80107.94
649.426	80108.5
649.756	80105.61
650.086	80106.28
650.416	80107.83
650.746	80108.76
651.075	80107.98
651.405	80108.02
651.735	80106.28
652.065	80105.61
652.394	80105.87
652.724	80105.43
653.054	80105.83
653.383	80104.8
653.712	80105.2
654.042	80106.69
654.371	80106.94
654.701	80106.87
655.03	80106.24
655.359	80105.83
655.688	80104.58
656.017	80104.28
656.346	80103.09
656.675	80105.65
657.004	80107.76
657.333	80105.91
657.662	80104.91
657.991	80102.58
658.32	80101.95
658.648	80101.32
658.977	80102.8
659.306	80102.17
659.634	80102.32
659.963	80103.32
660.291	80103.95
660.619	80103.32
660.948	80102.98
661.276	80102.87
661.604	80102.91
661.933	80101.84
662.261	80101.28
662.589	80102.39
662.917	80102.69
663.245	80103.02
663.573	80100.98
663.901	80099.02
664.229	80098.47
664.556	80096.91
664.884	80097.28
665.212	80096.84
665.539	80096.58
665.867	80094.58
666.195	80094.39
666.522	80094.02
666.85	80092.58
667.177	80091.66
667.504	80093.51
667.832	80092.58
668.159	80092.8
668.486	80093.69
668.813	80093.47
669.14	80093.1
669.467	80092.95
669.794	80092.17
670.121	80092.8
670.448	80094.36
670.775	80094.69
671.102	80095.99
671.429	80098.73
671.755	80098.47
672.082	80099.54
672.409	80099.28
672.735	80100.13
673.062	80100.36
673.388	80102.17
673.714	80102.5
674.041	80104.17
674.367	80102.69
674.693	80102.24
675.019	80102.61
675.346	80100.28
675.672	80100.5
675.998	80100.98
676.324	80100.54
676.65	80101.8
676.976	80100.58
677.301	80098.84
677.627	80097.8
677.953	80095.88
678.279	80093.43
678.604	80093.95
678.93	80092.25
679.255	80092.47
679.581	80090.73
679.906	80090.36
680.232	80088.25
680.557	80087.66
680.882	80087.95
681.208	80088.14
681.533	80088.84
681.858	80087.62
682.183	80086.84
682.508	80086.51
682.833	80083.92
683.158	80083.96
683.483	80082.44
683.808	80081.11
684.132	80082.81
684.457	80083.37
684.782	80083.07
685.106	80082.66
685.431	80083.07
685.755	80083.81
686.08	80084.11
686.404	80083.37
686.729	80083.26
687.053	80081.55
687.377	80080.26
687.701	80078.96
688.026	80077.63
688.35	80076.22
688.674	80075.89
688.998	80074.15
689.322	80073.64
689.646	80073.93
689.97	80073.6
690.293	80073.15
690.617	80073.6
690.941	80069.68
691.264	80066.9
691.588	80065.94
691.912	80065.35
692.235	80062.5
692.559	80060.21
692.882	80057.62
693.205	80056.32
693.529	80053.84
693.852	80053.29
694.175	80050.7
694.498	80046.15
694.821	80042.31
695.144	80039.13
695.467	80033.47
695.79	80031.1
696.113	80025.6
696.436	80020.13
696.759	80012.26
697.082	80004.87
697.404	79996.45
697.727	79988.99
698.049	79979.43
698.372	79963.97
698.694	79944.29
699.017	79925.79
699.339	79900.46
699.662	79871.25
699.984	79824.26
700.306	79765.65
700.628	79678.58
700.95	79566.65
701.272	79439.03
701.594	79299.3
701.916	79163.02
702.238	79012.74
702.56	78811.6
702.882	78618.68
703.204	78439.78
703.525	78232.42
703.847	77982.17
704.169	77745.16
704.49	77500.21
704.812	77249.12
705.133	76999.29
705.455	76746.77
705.776	76473.52
706.097	76208.97
706.419	75938.46
706.74	75667.21
707.061	75379.29
707.382	75086.52
707.703	74803.19
708.024	74548.59
708.345	74276.51
708.666	73986.1
708.987	73685.92
709.307	73440.28
709.628	73149.78
709.949	72835.89
710.27	72527.73
710.59	72281.23
710.911	71990.93
711.231	71690.89
711.552	71427.68
711.872	71095.03
712.192	70810.37
712.512	70548.74
712.833	70282.73
713.153	70006.68
713.473	69765.54
713.793	69543.49
714.113	69335.82
714.433	69133.01
714.753	68917.24
715.073	68729.49
715.393	68523.48
715.712	68354.44
716.032	68138.85
716.352	67965.72
716.671	67807.68
716.991	67645.92
717.31	67449.53
717.63	67297.78
717.949	67120.91
718.268	66902.51
718.588	66735.57
718.907	66510.91
719.226	66254.52
719.545	66007.7
719.864	65735.36
720.183	65461.43
720.502	65178.61
720.821	64899.76
721.14	64617.56
721.459	64314.75
721.778	64038.11
722.096	63722.15
722.415	63428.98
722.734	63171.62
723.052	62888.86
723.371	62595.61
723.689	62326.9
724.008	62045.87
724.326	61745.35
724.644	61481.82
724.963	61212.1
725.281	60986.98
725.599	60767.53
725.917	60578.18
726.235	60380.7
726.553	60220.76
726.871	60029.68
727.189	59833.22
727.507	59643.55
727.824	59492.56
728.142	59354.16
728.46	59153.3
728.777	59057.91
729.095	58923.11
729.413	58768.88
729.73	58623.85
730.047	58490.67
730.365	58371.68
730.682	58259.2
730.999	58172.76
731.317	58101.57
731.634	58021.79
731.951	57905.91
732.268	57779.55
732.585	57634.89
732.902	57480.56
733.219	57327.01
733.536	57157.52
733.852	57035.84
734.169	56903.09
734.486	56751.98
734.802	56594.96
735.119	56480.56
735.435	56304.57
735.752	56144.88
736.068	55978.8
736.385	55816.7
736.701	55619.82
737.017	55386.37
737.333	55149.32
737.65	54844.82
737.966	54466.05
738.282	54078.34
738.598	53659.88
738.914	53209.79
739.23	52721.62
739.545	52203.44
739.861	51652.16
740.177	51109.61
740.493	50512.67
740.808	49934.29
741.124	49325.68
741.439	48744.49
741.755	48177.26
742.07	47651.09
742.386	47094.84
742.701	46588.64
743.016	46087.15
743.331	45626.93
743.647	45205.39
743.962	44812.92
744.277	44474.41
744.592	44205.55
744.907	43980.45
745.222	43820.84
745.537	43726.46
745.851	43696.39
746.166	43711.71
746.481	43767.43
746.795	43877.69
747.11	44028.45
747.424	44201.42
747.739	44365.49
748.053	44540.28
748.368	44686.11
748.682	44796.82
748.996	44923.71
749.311	45025.43
749.625	45125.95
749.939	45225.26
750.253	45280.73
750.567	45347.17
750.881	45406.1
751.195	45467.25
751.509	45536.09
751.822	45581.13
752.136	45621.04
752.45	45674.81
752.763	45738.41
753.077	45799.26
753.39	45831.95
753.704	45857.03
754.017	45875.51
754.331	45915.07
754.644	45922.94
754.957	45937.38
755.27	45950.53
755.584	45968.74
755.897	45974.47
756.21	45967.35
756.523	45942.05
756.836	45922.39
757.149	45837.85
757.461	45766.62
757.774	45681.79
758.087	45560.6
758.4	45421.59
758.712	45277.13
759.025	45117.75
759.337	44957.79
759.65	44796.12
759.962	44643.26
760.275	44480.31
760.587	44332.8
760.899	44197.48
761.211	44106.73
761.523	44035.08
761.836	44028.08
762.148	44035.5
762.46	44065.09
762.772	44126.92
763.083	44255.64
763.395	44405.38
763.707	44631.72
764.019	44854.69
764.33	45082.54
764.642	45340.98
764.954	45619.71
765.265	45894.65
765.577	46163.05
765.888	46411.22
766.199	46651.38
766.511	46864.84
766.822	47088.83
767.133	47270.8
767.444	47430.63
767.755	47522.09
768.066	47580.93
768.377	47575.28
768.688	47505.11
768.999	47417.31
769.31	47300.02
769.621	47112.26
769.931	46890.49
770.242	46636.75
770.553	46337.26
770.863	46003.96
771.174	45646.19
771.484	45258.67
771.794	44854.17
772.105	44446.26
772.415	44020.24
772.725	43581.53
773.035	43145.76
773.345	42688.41
773.656	42220.75
773.966	41754.07
774.276	41318.5
774.585	40880.01
774.895	40451.12
775.205	40070.48
775.515	39680.38
775.824	39289.99
776.134	38906.51
776.444	38546.18
776.753	38177.29
777.063	37841.28
777.372	37521.65
777.681	37198.18
777.991	36894.29
778.3	36596.85
778.609	36297.84
778.918	36015.37
779.228	35751.1
779.537	35490.77
779.846	35229.7
780.154	34982.69
780.463	34752.82
780.772	34508.7
781.081	34284.45
781.39	34085.13
781.698	33868.32
782.007	33659.46
782.316	33450.73
782.624	33238.86
782.932	33035.59
783.241	32845.65
783.549	32652.11
783.858	32482.69
784.166	32313.84
784.474	32142.52
784.782	31980.23
785.09	31822.23
785.398	31675.7
785.706	31535.08
786.014	31398.49
786.322	31265.51
786.63	31133.95
786.937	31003.62
787.245	30886
787.553	30763.73
787.86	30652.1
788.168	30527.72
788.475	30426.02
788.783	30335.94
789.09	30242.26
789.398	30144.25
789.705	30050.46
790.012	29951.9
790.319	29847.13
790.626	29751.09
790.933	29663.93
791.24	29578.54
791.547	29492.82
791.854	29399.76
792.161	29301.78
792.468	29200.35
792.774	29104.78
793.081	29024.41
793.388	28940.63
793.694	28840.42
794.001	28750.85
794.307	28627.36
794.614	28527.74
794.92	28401.54
795.226	28277.5
795.533	28164.83
795.839	28069.2
796.145	27953.32
796.451	27841.94
796.757	27730.94
797.063	27621.07
797.369	27507.51
797.675	27404.53
797.98	27301.32
798.286	27182.7
798.592	27073.53
798.898	26961.09
799.203	26845.29
799.509	26725.28
799.814	26602.43
800.12	26497.49
800.425	26389
800.73	26281.59
801.035	26173.32
801.341	26072.77
801.646	25970.83
801.951	25872.14
802.256	25769.43
802.561	25665.66
802.866	25580.68
803.171	25493.9
803.476	25402.79
803.78	25309.99
804.085	25206.85
804.39	25092.95
804.694	24993.78
804.999	24895.77
805.303	24805.1
805.608	24727.03
805.912	24648.39
806.216	24579.39
806.521	24516.03
806.825	24436.44
807.129	24367.2
807.433	24290.56
807.737	24226.89
808.041	24164.99
808.345	24106.29
808.649	24043.34
808.953	24002.6
809.257	23938.45
809.561	23880.06
809.864	23830.96
810.168	23792.43
810.471	23764.26
810.775	23743.41
811.078	23728.85
811.382	23707.18
811.685	23699.3
811.988	23690.37
812.292	23677.37
812.595	23674.17
812.898	23671.53
813.201	23685.58
813.504	23703.7
813.807	23734.8
814.11	23755.39
814.413	23780.3
814.716	23807.5
815.018	23857.93
815.321	23919.65
815.624	24008.34
815.926	24112.08
816.229	24239.12
816.531	24387.68
816.834	24550.55
817.136	24740.22
817.438	24950.93
817.74	25214.8
818.043	25528.63
818.345	25899.7
818.647	26354.04
818.949	26898.51
819.251	27525.95
819.553	28276.19
819.855	29136.81
820.156	30101.01
820.458	31183.85
820.76	32340.38
821.062	33551.37
821.363	34811.54
821.665	36138.46
821.966	37561.68
822.268	39006.18
822.569	40454.09
822.87	41926.99
823.171	43408.25
823.473	44936.53
823.774	46510.52
824.075	48040.94
824.376	49536.31
824.677	51006.45
824.978	52382.61
825.279	53669.19
825.58	54841.58
825.88	55873.36
826.181	56764.33
826.482	57549.18
826.782	58174.49
827.083	58690.27
827.383	59079.9
827.684	59300.2
827.984	59386.59
828.284	59299.17
828.585	59071.31
828.885	58767.09
829.185	58305.52
829.485	57753.41
829.785	57079.67
830.085	56245.18
830.385	55368.71
830.685	54428.09
830.985	53375.45
831.285	52306.02
831.584	51187.83
831.884	50042.3
832.183	48869.91
832.483	47661.21
832.782	46388.55
833.082	45113.28
833.381	43831.06
833.681	42585.71
833.98	41423.06
834.279	40290.83
834.578	39186.93
834.877	38157.43
835.176	37147.21
835.475	36218.44
835.774	35332.77
836.073	34470.57
836.372	33657.33
836.671	32848.72
836.969	32052.42
837.268	31320.62
837.567	30610.09
837.865	29924.7
838.164	29247.77
838.462	28598.46
838.761	27994.35
839.059	27417.88
839.357	26871.66
839.655	26348.82
839.953	25817.9
840.252	25290.84
840.55	24768.27
840.848	24263.49
841.146	23775.63
841.443	23283.91
841.741	22790.59
842.039	22288.83
842.337	21785.96
842.634	21329.63
842.932	20897.68
843.229	20477.77
843.527	20060.76
843.824	19624.56
844.122	19184.49
844.419	18775.16
844.716	18351.71
845.013	17937.27
845.311	17553.03
845.608	17182.37
845.905	16819.4
846.202	16465.9
846.499	16100.24
846.796	15737.69
847.092	15371.72
847.389	15008.14
847.686	14675.15
847.982	14358.71
848.279	14048.14
848.576	13768.94
848.872	13473.43
849.168	13182.39
849.465	12904.63
849.761	12619.44
850.057	12347.82
850.354	12083.14
850.65	11831.76
850.946	11604.73
851.242	11384.93
851.538	11166.81
851.834	10948.53
852.13	10733.89
852.425	10537.04
852.721	10364.13
853.017	10199.84
853.312	10050.64
853.608	9908.19
853.903	9767.02
854.199	9619.75
854.494	9494.58
854.79	9360.99
855.085	9229.48
855.38	9103.33
855.675	8972.71
855.971	8856.3
856.266	8756.94
856.561	8663.38
856.856	8570.09
857.151	8477.55
857.445	8382.98
857.74	8288.88
858.035	8201.06
858.33	8112.29
858.624	8030.56
858.919	7953.86
859.213	7870.95
859.508	7791.17
859.802	7703.78
860.096	7622.6
860.391	7566.63
860.685	7502.04
860.979	7443.04
861.273	7396.19
861.567	7338.91
861.861	7276.41
862.155	7220.9
862.449	7154.28
862.743	7091.05
863.037	7034.83
863.33	6980.44
863.624	6925.85
863.918	6878.78
864.211	6835.66
864.505	6801.81
864.798	6762.52
865.092	6711.63
865.385	6664.68
865.678	6614.47
865.971	6579.37
866.264	6548.8
866.558	6517.08
866.851	6487.94
867.144	6460.6
867.437	6427.95
867.729	6397.52
868.022	6377.72
868.315	6359.71
868.608	6345.25
868.9	6340.05
869.193	6320.29
869.485	6292.45
869.778	6268.2
870.07	6240.9
870.363	6222
870.655	6206.57
870.947	6197.28
871.239	6191.45
871.532	6192.76
871.824	6197.81
872.116	6196.41
872.408	6191.53
872.699	6178.88
872.991	6171
873.283	6163.07
873.575	6161.71
873.867	6169.43
874.158	6174
874.45	6174.22
874.741	6174.57
875.033	6171.3
875.324	6186.39
875.615	6210.68
875.907	6235.87
876.198	6253.68
876.489	6263.63
876.78	6265.71
877.071	6264.82
877.362	6268.87
877.653	6272.63
877.944	6280.17
878.235	6289.58
878.526	6298.53
878.816	6314.57
