Data from 24HourExp_27052025_FLMS018081_07-38-19-889.txt Node
Date: Wed May 28 07:38:19 BST 2025
User: adleo
Spectrometer: FLMS01808
Trigger mode: 0
Integration Time (sec): 4.000000E-1
Scans to average: 10
Electric dark correction enabled: true
Nonlinearity correction enabled: true
Boxcar width: 10
XAxis mode: Wavelengths
Number of Pixels in Spectrum: 2048
>>>>>Begin Spectral Data<<<<<
178.471	-127.75
178.857	-120.97
179.244	-113.54
179.631	-105.38
180.017	-97.2
180.404	-88.69
180.79	-78.38
181.176	-69.65
181.563	-60.53
181.949	-49.18
182.335	-40.22
182.722	-23.39
183.108	-4.71
183.494	21.64
183.88	75.44
184.266	128.43
184.653	183.48
185.039	238.58
185.425	294.28
185.811	347.37
186.197	400.23
186.582	450.69
186.968	503.2
187.354	554.1
187.74	603.76
188.126	653.69
188.511	703.61
188.897	751.93
189.283	799.13
189.668	843.43
190.054	885.33
190.439	932.14
190.825	974.81
191.21	1016.38
191.596	1049.98
191.981	1057.78
192.366	1063.14
192.752	1065.56
193.137	1069.01
193.522	1070.68
193.908	1071.69
194.293	1075.03
194.678	1077.25
195.063	1079.07
195.448	1081.79
195.833	1083.12
196.218	1083.7
196.603	1083.71
196.988	1081.87
197.373	1083.28
197.757	1084.3
198.142	1085.98
198.527	1082.75
198.912	1081.74
199.296	1080.73
199.681	1080.82
200.066	1079.13
200.45	1077.07
200.835	1077.76
201.219	1077.22
201.604	1076.27
201.988	1077.85
202.372	1077.75
202.757	1078.45
203.141	1078.16
203.525	1078.67
203.91	1080.84
204.294	1080.76
204.678	1081.17
205.062	1081.91
205.446	1080.09
205.83	1081.76
206.214	1080.77
206.598	1082.03
206.982	1083.55
207.366	1084.49
207.75	1083.91
208.134	1085.36
208.517	1088.08
208.901	1088.52
209.285	1090.04
209.669	1092.27
210.052	1091.31
210.436	1091.76
210.819	1091.94
211.203	1093.15
211.586	1093.26
211.97	1091.62
212.353	1092.02
212.737	1093.71
213.12	1097.08
213.503	1099.44
213.886	1100.39
214.27	1103.32
214.653	1104.96
215.036	1108.35
215.419	1110.36
215.802	1112.4
216.185	1115.72
216.568	1117.71
216.951	1121.12
217.334	1123.51
217.717	1126.52
218.1	1128.83
218.482	1132.36
218.865	1136.72
219.248	1140.97
219.631	1146.21
220.013	1151.35
220.396	1158.56
220.778	1162.18
221.161	1166.59
221.544	1172.43
221.926	1180.59
222.308	1188.67
222.691	1196.47
223.073	1204.46
223.455	1211.43
223.838	1219.95
224.22	1228.38
224.602	1238.37
224.984	1247.81
225.366	1258.66
225.749	1273.14
226.131	1288.07
226.513	1300.72
226.895	1314.6
227.276	1328.91
227.658	1343.89
228.04	1358.8
228.422	1374.12
228.804	1391.23
229.186	1409.02
229.567	1427.25
229.949	1441.87
230.331	1458.21
230.712	1476.86
231.094	1492.66
231.475	1512.27
231.857	1532.66
232.238	1553.33
232.62	1572.37
233.001	1590.62
233.382	1611.43
233.763	1627.96
234.145	1647.73
234.526	1668.32
234.907	1687.34
235.288	1705.26
235.669	1723.07
236.05	1743.73
236.431	1762.35
236.812	1782.62
237.193	1802.38
237.574	1822.58
237.955	1847.26
238.336	1869.08
238.717	1889.6
239.097	1913.57
239.478	1934.68
239.859	1958.14
240.239	1980.8
240.62	2003.95
241.001	2028.79
241.381	2052.94
241.762	2077.07
242.142	2098.29
242.522	2121.53
242.903	2147.97
243.283	2174.76
243.663	2199.48
244.044	2227.24
244.424	2254.58
244.804	2282.04
245.184	2310.45
245.564	2337.75
245.944	2367.73
246.324	2397.87
246.704	2428.17
247.084	2455.22
247.464	2487.08
247.844	2516.75
248.224	2546.83
248.604	2578.99
248.983	2611.13
249.363	2639.99
249.743	2669.73
250.122	2701.03
250.502	2731.39
250.882	2761.55
251.261	2794.64
251.641	2830.14
252.02	2862.18
252.399	2898.91
252.779	2933.16
253.158	2966.23
253.537	3006.1
253.917	3046.59
254.296	3082.89
254.675	3123.15
255.054	3163.03
255.433	3203.92
255.812	3240.77
256.191	3282.45
256.57	3323.76
256.949	3367.41
257.328	3412.82
257.707	3458.99
258.086	3505.49
258.465	3552.31
258.843	3601.7
259.222	3650.26
259.601	3701.31
259.979	3753.99
260.358	3805.42
260.736	3858.53
261.115	3917.2
261.493	3969.5
261.872	4018.42
262.25	4076.83
262.629	4131.29
263.007	4191.53
263.385	4252.31
263.763	4318.52
264.142	4378.76
264.52	4441.74
264.898	4502.72
265.276	4567.7
265.654	4635.08
266.032	4707.74
266.41	4777.5
266.788	4850.01
267.166	4925.85
267.544	4999.23
267.921	5078.21
268.299	5156.55
268.677	5237.24
269.055	5317.3
269.432	5402.88
269.81	5490.42
270.188	5575.74
270.565	5665.61
270.943	5756.57
271.32	5847.65
271.697	5941.51
272.075	6039.1
272.452	6135.39
272.829	6233.65
273.207	6334.17
273.584	6438.35
273.961	6542.03
274.338	6655.73
274.715	6771.2
275.092	6886.47
275.469	7007.12
275.846	7124.51
276.223	7246.98
276.6	7368.48
276.977	7495.44
277.354	7619.72
277.731	7746.86
278.108	7877.82
278.484	8008.98
278.861	8137.53
279.238	8274.72
279.614	8411.29
279.991	8547.93
280.367	8692.98
280.744	8843.29
281.12	8994.4
281.497	9142
281.873	9291.64
282.249	9442.38
282.625	9588.64
283.002	9736.18
283.378	9886.32
283.754	10040.92
284.13	10195.94
284.506	10355.19
284.882	10509.6
285.258	10670.51
285.634	10826.76
286.01	10987.96
286.386	11146.56
286.762	11313.51
287.138	11473.71
287.513	11640.36
287.889	11808.91
288.265	11973.55
288.641	12131.61
289.016	12291.43
289.392	12456.84
289.767	12622.2
290.143	12786.42
290.518	12949.49
290.894	13120.38
291.269	13282.73
291.644	13442.03
292.02	13596.8
292.395	13749.91
292.77	13907.33
293.145	14061.76
293.52	14219.85
293.895	14370.65
294.27	14529.23
294.646	14684.52
295.02	14839.5
295.395	14987.66
295.77	15144.95
296.145	15297.79
296.52	15454.92
296.895	15610.57
297.269	15763.55
297.644	15917.36
298.019	16070.9
298.393	16225.51
298.768	16374.73
299.143	16528.31
299.517	16683.93
299.891	16842.47
300.266	17003.56
300.64	17162.3
301.015	17324.65
301.389	17496.49
301.763	17675.93
302.137	17848.99
302.512	18032.82
302.886	18211.66
303.26	18404.77
303.634	18586.13
304.008	18760.98
304.382	18949.22
304.756	19135.04
305.13	19325.2
305.504	19510.48
305.877	19700.31
306.251	19906.46
306.625	20103.86
306.999	20313.26
307.372	20528.48
307.746	20747.74
308.119	20963.47
308.493	21176.68
308.866	21386.02
309.24	21594.37
309.613	21800.03
309.987	22012.58
310.36	22201.42
310.733	22406.61
311.107	22615.98
311.48	22831.98
311.853	23070
312.226	23293.04
312.599	23523
312.972	23748.85
313.345	23980.39
313.718	24211.53
314.091	24433.26
314.464	24671.58
314.837	24897.66
315.21	25106.15
315.582	25326.15
315.955	25540.27
316.328	25764.62
316.7	25989
317.073	26217.04
317.446	26437.51
317.818	26663.46
318.191	26901.18
318.563	27126.67
318.936	27335.95
319.308	27543.07
319.68	27737.79
320.053	27933.14
320.425	28121.38
320.797	28305.45
321.169	28463.9
321.541	28609.97
321.913	28743.22
322.285	28857.76
322.657	28982.25
323.029	29130.05
323.401	29269.77
323.773	29433.89
324.145	29600.94
324.517	29786.95
324.889	29959.84
325.26	30163.03
325.632	30375.51
326.004	30609.8
326.375	30867.44
326.747	31142.65
327.118	31442.51
327.49	31736.96
327.861	32046.17
328.233	32356.42
328.604	32660.88
328.975	32977.91
329.346	33290.11
329.718	33597.54
330.089	33907.68
330.46	34203.49
330.831	34476.86
331.202	34735.83
331.573	34986.54
331.944	35216.08
332.315	35442.02
332.686	35660.43
333.057	35859.63
333.428	36040.3
333.799	36207.28
334.169	36360.76
334.54	36506.85
334.911	36621.65
335.281	36754.75
335.652	36878.19
336.022	37010.62
336.393	37156.73
336.763	37326.37
337.134	37508.46
337.504	37707.22
337.874	37912.89
338.245	38117.66
338.615	38337.18
338.985	38572.36
339.355	38790.9
339.726	39014.62
340.096	39236.52
340.466	39487.84
340.836	39731.65
341.206	39976.04
341.576	40223.8
341.945	40472.29
342.315	40700.6
342.685	40948.04
343.055	41191.97
343.425	41439.56
343.794	41673.35
344.164	41907.85
344.533	42142.43
344.903	42375.19
345.273	42611.72
345.642	42834.36
346.011	43062.73
346.381	43292.55
346.75	43517.81
347.12	43767.13
347.489	44017.48
347.858	44262.13
348.227	44473.2
348.596	44696.16
348.965	44931.23
349.334	45165.24
349.704	45398.36
350.072	45642.71
350.441	45880.42
350.81	46117.65
351.179	46339.32
351.548	46573.69
351.917	46795.54
352.285	46986.36
352.654	47195.51
353.023	47400.54
353.391	47594.06
353.76	47810.61
354.129	48005.78
354.497	48236.32
354.865	48449.62
355.234	48680.14
355.602	48895.67
355.971	49145.92
356.339	49364.31
356.707	49586.45
357.075	49799.7
357.443	50021.89
357.811	50232.97
358.18	50433.14
358.548	50650.88
358.916	50868.73
359.284	51086.66
359.651	51303.93
360.019	51527.8
360.387	51727.22
360.755	51931.71
361.123	52167.68
361.49	52397.36
361.858	52610.29
362.226	52807.38
362.593	53011.71
362.961	53190.16
363.328	53392.83
363.696	53555.45
364.063	53772.22
364.43	53977.52
364.798	54191.9
365.165	54368.25
365.532	54556.62
365.899	54749.98
366.267	54910.69
366.634	55060.38
367.001	55224.01
367.368	55363.67
367.735	55536.44
368.102	55709.64
368.469	55896.29
368.835	56074.38
369.202	56230.02
369.569	56423.87
369.936	56613.34
370.303	56793.12
370.669	56998.37
371.036	57169
371.402	57374.67
371.769	57554.7
372.135	57703.28
372.502	57828.09
372.868	57973.16
373.235	58119.89
373.601	58260.21
373.967	58431.63
374.333	58615.69
374.7	58796.65
375.066	59000.01
375.432	59189.9
375.798	59377.54
376.164	59541.02
376.53	59688.8
376.896	59857.8
377.262	60022.6
377.628	60152.06
377.993	60303.11
378.359	60442.62
378.725	60593.73
379.091	60736.53
379.456	60859.57
379.822	60988.91
380.187	61136.15
380.553	61323.72
380.918	61512.68
381.284	61686.35
381.649	61862.96
382.015	62001.45
382.38	62117.47
382.745	62284.36
383.11	62433.58
383.476	62571.05
383.841	62702.98
384.206	62862.2
384.571	62985.49
384.936	63122.91
385.301	63287.89
385.666	63419.31
386.031	63573.98
386.396	63742.31
386.76	63904.45
387.125	64094.35
387.49	64298.98
387.855	64497.78
388.219	64664.21
388.584	64842.71
388.948	65036.93
389.313	65195.83
389.677	65402.76
390.042	65641.01
390.406	65796.14
390.771	65987.92
391.135	66180.23
391.499	66415.03
391.863	66637.89
392.227	66876.09
392.592	67074.23
392.956	67275.83
393.32	67481.46
393.684	67693.6
394.048	67859.89
394.412	68038.93
394.775	68196.48
395.139	68349.27
395.503	68507.01
395.867	68657.65
396.231	68794.5
396.594	68902.21
396.958	69040.92
397.321	69198.38
397.685	69316.1
398.048	69456.44
398.412	69592.05
398.775	69716.34
399.139	69834.37
399.502	69951.26
399.865	70092.51
400.228	70286.77
400.592	70413.49
400.955	70604.79
401.318	70739.56
401.681	70906.26
402.044	71039
402.407	71192.97
402.77	71343.44
403.133	71531.72
403.496	71675.82
403.859	71825.55
404.221	72053.31
404.584	72294.56
404.947	72545.84
405.309	72763.47
405.672	73002.22
406.034	73223.07
406.397	73481.73
406.759	73715.21
407.122	73897.28
407.484	74067.84
407.847	74254.78
408.209	74513.86
408.571	74742.44
408.933	75009.26
409.296	75263.44
409.658	75514.65
410.02	75786.36
410.382	76093.12
410.744	76347.85
411.106	76638.56
411.468	76918.18
411.83	77154.8
412.191	77348.47
412.553	77509.91
412.915	77713.86
413.277	77910.72
413.638	78100.29
414	78261.73
414.361	78425.47
414.723	78643.22
415.084	78849.24
415.446	79004.74
415.807	79127.6
416.169	79225.75
416.53	79300.29
416.891	79388.71
417.252	79495.91
417.614	79563.23
417.975	79600.68
418.336	79640.64
418.697	79681.03
419.058	79716.62
419.419	79745.85
419.78	79776.48
420.141	79798.1
420.501	79818.23
420.862	79833.83
421.223	79844.99
421.584	79873.1
421.944	79887.97
422.305	79896.49
422.666	79901.33
423.026	79903.95
423.387	79913.71
423.747	79920.13
424.107	79929.35
424.468	79938.83
424.828	79944.37
425.188	79948.58
425.549	79953.75
425.909	79958.37
426.269	79957.89
426.629	79960.4
426.989	79964.65
427.349	79967.57
427.709	79971.15
428.069	79972.74
428.429	79977.58
428.789	79983.56
429.149	79987.07
429.508	79990.84
429.868	79995.5
430.228	80001.56
430.587	80006.14
430.947	80011.28
431.306	80015.12
431.666	80018.86
432.025	80021.63
432.385	80023.48
432.744	80024.44
433.103	80025.55
433.463	80028.47
433.822	80037.22
434.181	80042.36
434.54	80043.84
434.899	80046.21
435.258	80048.06
435.618	80051.79
435.976	80054.9
436.335	80055.93
436.694	80057.75
437.053	80057.23
437.412	80056.23
437.771	80054.75
438.129	80056.86
438.488	80056.19
438.847	80057.41
439.205	80057.64
439.564	80057.52
439.922	80058.04
440.281	80059.15
440.639	80059.85
440.997	80061.3
441.356	80061.48
441.714	80061.15
442.072	80062.3
442.431	80062.41
442.789	80064.07
443.147	80063.44
443.505	80063.78
443.863	80062.96
444.221	80062.3
444.579	80065.26
444.937	80067.55
445.294	80069.44
445.652	80069.4
446.01	80070.62
446.368	80069.92
446.725	80070.84
447.083	80071.62
447.441	80072.54
447.798	80072.51
448.156	80074.06
448.513	80073.03
448.87	80073.14
449.228	80073.99
449.585	80073.69
449.942	80074.88
450.3	80075.1
450.657	80075.62
451.014	80076.58
451.371	80077.17
451.728	80079.72
452.085	80079.83
452.442	80078.91
452.799	80079.06
453.156	80079.24
453.513	80078.83
453.869	80080.94
454.226	80080.87
454.583	80081.09
454.939	80081.02
455.296	80081.54
455.653	80081.61
456.009	80082.91
456.366	80083.98
456.722	80084.05
457.078	80084.53
457.435	80083.2
457.791	80082.35
458.147	80081.35
458.503	80081.28
458.86	80083.65
459.216	80081.65
459.572	80080.35
459.928	80079.8
460.284	80080.57
460.64	80080.17
460.996	80079.95
461.351	80078.17
461.707	80078.06
462.063	80078.32
462.419	80079.02
462.774	80081.06
463.13	80080.24
463.486	80079.43
463.841	80077.47
464.197	80077.36
464.552	80077.21
464.908	80078.17
465.263	80077.84
465.618	80078.61
465.974	80079.21
466.329	80078.61
466.684	80080.87
467.039	80082.24
467.394	80082.65
467.749	80083.35
468.104	80085.9
468.459	80088.27
468.814	80090.46
469.169	80092.2
469.524	80092.71
469.879	80092.16
470.233	80091.09
470.588	80092.64
470.943	80093.71
471.297	80095.01
471.652	80096.12
472.006	80098.6
472.361	80097.93
472.715	80100.86
473.07	80101.75
473.424	80102.37
473.778	80103.41
474.133	80103.15
474.487	80103.3
474.841	80106
475.195	80105.97
475.549	80105.52
475.903	80105.15
476.257	80105.78
476.611	80104.82
476.965	80106.89
477.319	80107.41
477.673	80107.93
478.026	80108.67
478.38	80108.59
478.734	80108.89
479.087	80108.59
479.441	80108.67
479.795	80109.93
480.148	80110.33
480.502	80111.93
480.855	80111
481.208	80110.89
481.562	80112.26
481.915	80112.67
482.268	80113.37
482.621	80113.11
482.974	80112.37
483.328	80113.7
483.681	80112.93
484.034	80114.33
484.387	80113
484.739	80113.74
485.092	80114.22
485.445	80114.52
485.798	80116.74
486.151	80117.55
486.503	80120.15
486.856	80120
487.209	80121.63
487.561	80122.81
487.914	80122.7
488.266	80123.18
488.618	80122.33
488.971	80121.96
489.323	80121.96
489.675	80119.81
490.028	80121.07
490.38	80121.3
490.732	80120.59
491.084	80119.74
491.436	80119.81
491.788	80119.81
492.14	80120.63
492.492	80119.56
492.844	80120.78
493.196	80119.74
493.548	80119.89
493.899	80117.93
494.251	80118.15
494.603	80116.74
494.954	80114.81
495.306	80113.48
495.657	80112.63
496.009	80114.81
496.36	80115.67
496.712	80116.74
497.063	80117.74
497.414	80116.67
497.765	80116.96
498.117	80117.04
498.468	80119
498.819	80119.26
499.17	80121.48
499.521	80121.44
499.872	80122
500.223	80121.07
500.574	80121.11
500.924	80122.74
501.275	80123.74
501.626	80122.48
501.977	80121.96
502.327	80121.89
502.678	80123.18
503.029	80125.26
503.379	80124.33
503.73	80123.85
504.08	80123.07
504.43	80121.67
504.781	80122.63
505.131	80122.63
505.481	80121.48
505.831	80119.89
506.182	80119.74
506.532	80116.89
506.882	80117.18
507.232	80118.89
507.582	80118.74
507.932	80118.33
508.281	80117.67
508.631	80117.55
508.981	80117.85
509.331	80119.29
509.681	80120.11
510.03	80118.89
510.38	80118.63
510.729	80118.7
511.079	80118.52
511.428	80119.78
511.778	80121.89
512.127	80122.59
512.476	80122.18
512.826	80122.44
513.175	80123.22
513.524	80123.7
513.873	80123.85
514.222	80123.48
514.571	80122.92
514.92	80123.07
515.269	80123.7
515.618	80123.37
515.967	80123.37
516.316	80123.78
516.665	80123.89
517.014	80122.52
517.362	80123.15
517.711	80122.29
518.059	80122.59
518.408	80120.89
518.757	80120.59
519.105	80119.89
519.453	80118.59
519.802	80119.7
520.15	80120.11
520.498	80120.7
520.847	80118.78
521.195	80120.4
521.543	80120.66
521.891	80120.63
522.239	80120.85
522.587	80120.7
522.935	80122.07
523.283	80119.55
523.631	80120.15
523.979	80119.92
524.326	80121.48
524.674	80121.44
525.022	80121
525.369	80121.37
525.717	80122.96
526.064	80121.81
526.412	80121.48
526.759	80123.29
527.107	80122.59
527.454	80122.67
527.801	80121.78
528.149	80122.26
528.496	80120.85
528.843	80120.52
529.19	80119.44
529.537	80118.3
529.884	80118.74
530.231	80119
530.578	80121.59
530.925	80121.29
531.272	80122.18
531.619	80120.96
531.966	80120.44
532.312	80121.29
532.659	80120.7
533.006	80119.15
533.352	80120.11
533.699	80120.52
534.045	80119.89
534.392	80120.48
534.738	80122.11
535.084	80124.15
535.431	80124.33
535.777	80123.67
536.123	80123.44
536.469	80123.55
536.815	80124.81
537.161	80124.33
537.507	80122.44
537.853	80121.48
538.199	80119.96
538.545	80120.18
538.891	80120.22
539.237	80122.78
539.582	80124.11
539.928	80124.67
540.274	80124.92
540.619	80123.22
540.965	80122.96
541.31	80123.07
541.656	80122.3
542.001	80122.52
542.347	80121
542.692	80121.67
543.037	80122.07
543.382	80121.85
543.728	80123.81
544.073	80123.74
544.418	80123.89
544.763	80125.93
545.108	80126.74
545.453	80128.67
545.798	80127.18
546.142	80128.48
546.487	80127.26
546.832	80126.89
547.177	80125.63
547.521	80126.07
547.866	80129.11
548.211	80129.7
548.555	80127.92
548.9	80129.11
549.244	80127.44
549.588	80127.04
549.933	80128.22
550.277	80128.85
550.621	80130
550.965	80129.74
551.31	80128.89
551.654	80127.74
551.998	80126.18
552.342	80126.41
552.686	80125.81
553.03	80125.74
553.373	80124.74
553.717	80124.03
554.061	80121.63
554.405	80120.89
554.748	80120.63
555.092	80118.44
555.436	80116.81
555.779	80117.33
556.123	80117.63
556.466	80119.7
556.81	80120.18
557.153	80119.26
557.496	80118.89
557.839	80118.07
558.183	80117.63
558.526	80117.89
558.869	80118.18
559.212	80118.04
559.555	80117.85
559.898	80118.78
560.241	80118.67
560.584	80119.55
560.927	80119.07
561.269	80120.89
561.612	80121.52
561.955	80122.44
562.297	80122.07
562.64	80123.33
562.983	80124.59
563.325	80123.74
563.668	80122.22
564.01	80122
564.352	80119.96
564.695	80119.18
565.037	80117.85
565.379	80116.33
565.721	80116.52
566.063	80116.48
566.406	80115.3
566.748	80115.3
567.09	80113.89
567.431	80114.52
567.773	80113.74
568.115	80113.7
568.457	80113.56
568.799	80114.59
569.14	80112.63
569.482	80113.52
569.824	80114.37
570.165	80112.11
570.507	80110.52
570.848	80110.41
571.19	80110.37
571.531	80111.78
571.872	80113.11
572.214	80114.22
572.555	80114.89
572.896	80113.33
573.237	80112.3
573.578	80111.37
573.919	80110.45
574.26	80109.82
574.601	80109.78
574.942	80109.82
575.283	80110.45
575.624	80107.74
575.964	80106.74
576.305	80107.3
576.646	80106.71
576.986	80103.6
577.327	80104.08
577.667	80105.11
578.008	80105.67
578.348	80105.6
578.689	80105.74
579.029	80104.37
579.369	80103.3
579.71	80102.82
580.05	80102.97
580.39	80103.04
580.73	80104.23
581.07	80103.97
581.41	80104.15
581.75	80103.08
582.09	80102.93
582.43	80101.52
582.769	80104.48
583.109	80104.78
583.449	80105.08
583.789	80104.93
584.128	80105.56
584.468	80104.48
584.807	80104.19
585.147	80103.45
585.486	80103.93
585.825	80102.41
586.165	80100.71
586.504	80101.08
586.843	80101.04
587.182	80101.08
587.522	80100.6
587.861	80099.9
588.2	80099.93
588.539	80100.64
588.878	80099.93
589.216	80097.3
589.555	80097.12
589.894	80094.93
590.233	80095.19
590.572	80095.05
590.91	80093.94
591.249	80095.93
591.587	80095.08
591.926	80095.12
592.264	80093.86
592.603	80094.12
592.941	80094.42
593.279	80097.19
593.618	80097.56
593.956	80097.16
594.294	80097.82
594.632	80099.64
594.97	80100.64
595.308	80100.41
595.646	80099.75
595.984	80100.71
596.322	80102.34
596.66	80102.26
596.998	80103.08
597.335	80102.86
597.673	80101.23
598.011	80100.82
598.348	80100.78
598.686	80102.89
599.023	80103.15
599.361	80102.6
599.698	80101.34
600.035	80100.01
600.373	80100.04
600.71	80100.6
601.047	80101.15
601.384	80099.49
601.722	80097.16
602.059	80097.05
602.396	80097.49
602.733	80097.27
603.069	80096.86
603.406	80096.16
603.743	80097.12
604.08	80096.45
604.417	80097.56
604.753	80098.82
605.09	80099.78
605.426	80098.49
605.763	80098.01
606.099	80097.16
606.436	80096.42
606.772	80096.56
607.109	80098.6
607.445	80096.79
607.781	80097.16
608.117	80096.38
608.453	80096.93
608.79	80098.27
609.126	80097.9
609.462	80096.86
609.798	80096.9
610.133	80097.53
610.469	80098.71
610.805	80096.97
611.141	80097.12
611.477	80094.71
611.812	80094.53
612.148	80093.49
612.483	80092.45
612.819	80092.27
613.154	80093.42
613.49	80094.49
613.825	80094.38
614.16	80093.01
614.496	80094.71
614.831	80092.38
615.166	80091.49
615.501	80091.34
615.836	80090.68
616.171	80089.86
616.506	80089.23
616.841	80087.86
617.176	80086.64
617.511	80085.64
617.846	80085.72
618.18	80084.98
618.515	80084.2
618.85	80083.79
619.184	80085.05
619.519	80085.5
619.853	80086.57
620.188	80085.46
620.522	80085.5
620.856	80084.87
621.191	80084.87
621.525	80083.24
621.859	80083.42
622.193	80082.76
622.527	80083.02
622.861	80082.65
623.195	80082.02
623.529	80081.28
623.863	80082.28
624.197	80081.43
624.531	80080.57
624.865	80079.91
625.198	80080.17
625.532	80080.35
625.866	80078.35
626.199	80076.54
626.533	80076.25
626.866	80073.32
627.2	80071.92
627.533	80070.88
627.866	80070.1
628.2	80071.29
628.533	80071.29
628.866	80071.1
629.199	80072.29
629.532	80072.29
629.865	80072.4
630.198	80071.77
630.531	80073.43
630.864	80073.25
631.197	80073.28
631.529	80072.32
631.862	80071.92
632.195	80070.62
632.527	80070.99
632.86	80072.69
633.193	80073.28
633.525	80071.88
633.857	80074.28
634.19	80072.92
634.522	80073.17
634.854	80072.73
635.187	80070.07
635.519	80070.95
635.851	80071.47
636.183	80069.92
636.515	80069.99
636.847	80070.51
637.179	80071.92
637.511	80071.66
637.843	80072.21
638.174	80072.58
638.506	80074.43
638.838	80075.88
639.17	80077.06
639.501	80076.69
639.833	80076.1
640.164	80076.06
640.496	80076.62
640.827	80075.65
641.158	80078.58
641.49	80078.32
641.821	80078.43
642.152	80078.83
642.483	80077.39
642.814	80077.87
643.145	80077.8
643.476	80078.61
643.807	80078.61
644.138	80076.1
644.469	80074.77
644.8	80073.99
645.131	80073.58
645.461	80073.29
645.792	80072.8
646.122	80071.47
646.453	80071.47
646.784	80070.95
647.114	80071.81
647.444	80070.66
647.775	80070.4
648.105	80068.85
648.435	80067.37
648.765	80067.29
649.096	80067.55
649.426	80068.51
649.756	80066.88
650.086	80067.48
650.416	80064.85
650.746	80063.33
651.075	80064.26
651.405	80063.96
651.735	80062.48
652.065	80062.07
652.394	80061.08
652.724	80060.48
653.054	80061.22
653.383	80061.04
653.712	80060.82
654.042	80059.37
654.371	80059.19
654.701	80059.67
655.03	80058.82
655.359	80060.04
655.688	80060.08
656.017	80060.78
656.346	80059.93
656.675	80062.15
657.004	80062.52
657.333	80062.63
657.662	80063.48
657.991	80064.04
658.32	80065.33
658.648	80066.92
658.977	80066.96
659.306	80067.4
659.634	80066.18
659.963	80065.59
660.291	80066.44
660.619	80065.85
660.948	80065.78
661.276	80068.25
661.604	80066.33
661.933	80066.14
662.261	80066.29
662.589	80065.26
662.917	80063.85
663.245	80063.93
663.573	80061.85
663.901	80061.52
664.229	80060.3
664.556	80059.12
664.884	80057.67
665.212	80055.05
665.539	80053.2
665.867	80054.01
666.195	80053.64
666.522	80054.49
666.85	80054.34
667.177	80052.46
667.504	80052.57
667.832	80052.01
668.159	80050.68
668.486	80051.12
668.813	80051.35
669.14	80050.13
669.467	80050.68
669.794	80050.68
670.121	80049.98
670.448	80049.02
670.775	80047.61
671.102	80048.91
671.429	80048.57
671.755	80049.9
672.082	80050.79
672.409	80050.27
672.735	80049.09
673.062	80048.39
673.388	80047.76
673.714	80046.69
674.041	80044.54
674.367	80044.87
674.693	80044.13
675.019	80043.36
675.346	80041.99
675.672	80042.62
675.998	80041.4
676.324	80039.96
676.65	80039.99
676.976	80040.36
677.301	80039.4
677.627	80039.51
677.953	80038.4
678.279	80038.26
678.604	80038.07
678.93	80038.81
679.255	80039.59
679.581	80038.59
679.906	80036.07
680.232	80035.82
680.557	80036.07
680.882	80037.37
681.208	80035.26
681.533	80036.07
681.858	80036.04
682.183	80036.07
682.508	80034.37
682.833	80036.33
683.158	80036.63
683.483	80035.52
683.808	80035.52
684.132	80035.7
684.457	80035.74
684.782	80034.71
685.106	80033.45
685.431	80032.27
685.755	80031.38
686.08	80028.86
686.404	80027.94
686.729	80029.94
687.053	80029.64
687.377	80028.75
687.701	80027.64
688.026	80028.49
688.35	80026.35
688.674	80026.53
688.998	80025.87
689.322	80025.35
689.646	80023.72
689.97	80022.54
690.293	80021.84
690.617	80020.29
690.941	80021.28
691.264	80017.55
691.588	80017.51
691.912	80017.81
692.235	80014.74
692.559	80012.49
692.882	80013.52
693.205	80013.08
693.529	80010.09
693.852	80007.43
694.175	80004.54
694.498	80004.58
694.821	80001.03
695.144	79999.37
695.467	79993.98
695.79	79992.17
696.113	79988.14
696.436	79981.49
696.759	79977.62
697.082	79972.37
697.404	79964.07
697.727	79955.35
698.049	79948.67
698.372	79936.95
698.694	79920.54
699.017	79904.96
699.339	79884.93
699.662	79860.94
699.984	79824.73
700.306	79784.73
700.628	79719.41
700.95	79632.5
701.272	79528.12
701.594	79413.11
701.916	79299.6
702.238	79166.92
702.56	78981.32
702.882	78800.75
703.204	78634.81
703.525	78446
703.847	78214.8
704.169	78005.21
704.49	77779.36
704.812	77538.16
705.133	77285.09
705.455	77041.51
705.776	76779.35
706.097	76528.51
706.419	76265.23
706.74	75999.83
707.061	75714.06
707.382	75419.3
707.703	75126.45
708.024	74852.87
708.345	74570.28
708.666	74267.58
708.987	73967.47
709.307	73719.78
709.628	73423.45
709.949	73104.68
710.27	72800.03
710.59	72548.59
710.911	72244.59
711.231	71940.2
711.552	71660.36
711.872	71343.77
712.192	71062.87
712.512	70796.78
712.833	70528.18
713.153	70249.93
713.473	70012.55
713.793	69781.01
714.113	69569.29
714.433	69362.87
714.753	69158.12
715.073	68967.01
715.393	68767.97
715.712	68602.47
716.032	68379.09
716.352	68207.26
716.671	68057.29
716.991	67877.18
717.31	67672.97
717.63	67513.34
717.949	67333.56
718.268	67133.11
718.588	66963.97
718.907	66737.17
719.226	66481.68
719.545	66231.99
719.864	65958.36
720.183	65681.11
720.502	65401.93
720.821	65117.42
721.14	64839.67
721.459	64526.34
721.778	64250.51
722.096	63929.71
722.415	63628.84
722.734	63371.61
723.052	63094.53
723.371	62794.17
723.689	62525.28
724.008	62249.78
724.326	61953.58
724.644	61687.98
724.963	61413.12
725.281	61189.63
725.599	60957.6
725.917	60771.6
726.235	60572.41
726.553	60419.17
726.871	60227.27
727.189	60026.19
727.507	59839.53
727.824	59677.43
728.142	59541.55
728.46	59343.47
728.777	59242.9
729.095	59106.81
729.413	58959.38
729.73	58816.68
730.047	58686.62
730.365	58573.03
730.682	58461.19
730.999	58378.88
731.317	58307.16
731.634	58233.67
731.951	58108.28
732.268	57993.48
732.585	57845.4
732.902	57685.61
733.219	57534.87
733.536	57357.94
733.852	57232.58
734.169	57097.42
734.486	56952.7
734.802	56791.73
735.119	56672.79
735.435	56494.9
735.752	56333.66
736.068	56160.35
736.385	55993
736.701	55803.99
737.017	55567.29
737.333	55314.41
737.65	55000.64
737.966	54623.3
738.282	54233.74
738.598	53827.58
738.914	53370.1
739.23	52886.55
739.545	52365.34
739.861	51810.98
740.177	51261.75
740.493	50664.23
740.808	50091.01
741.124	49479.27
741.439	48897.83
741.755	48332.33
742.07	47817.03
742.386	47257.34
742.701	46758.64
743.016	46263.07
743.331	45785.74
743.647	45359.13
743.962	44984.01
744.277	44646.8
744.592	44367.22
744.907	44149.36
745.222	43978.06
745.537	43881.88
745.851	43845.97
746.166	43868.44
746.481	43915.46
746.795	44037.09
747.11	44189.65
747.424	44360.25
747.739	44521
748.053	44702.12
748.368	44847.44
748.682	44956.16
748.996	45085.91
749.311	45191.31
749.625	45288
749.939	45392.77
750.253	45457.76
750.567	45523.13
750.881	45583.69
751.195	45655.48
751.509	45714.44
751.822	45767.38
752.136	45813.68
752.45	45868.94
752.763	45932.97
753.077	45996.09
753.39	46030.14
753.704	46058.83
754.017	46077.35
754.331	46117.13
754.644	46123.25
754.957	46134.9
755.27	46144.68
755.584	46157.41
755.897	46152.97
756.21	46151.41
756.523	46130.31
756.836	46110.04
757.149	46026.6
757.461	45958.9
757.774	45873.75
758.087	45756.99
758.4	45624.59
758.712	45483.66
759.025	45318.42
759.337	45163.54
759.65	44999.4
759.962	44839.9
760.275	44677.66
760.587	44527.3
760.899	44391.44
761.211	44304.43
761.523	44225.02
761.836	44220.68
762.148	44229.13
762.46	44262.3
762.772	44321.72
763.083	44449.71
763.395	44591.72
763.707	44817.24
764.019	45036.49
764.33	45262.91
764.642	45519.99
764.954	45783.93
765.265	46060.12
765.577	46334.79
765.888	46573.82
766.199	46817.65
766.511	47031.35
766.822	47257.17
767.133	47440.44
767.444	47607.09
767.755	47695.55
768.066	47766.28
768.377	47761.99
768.688	47693.61
768.999	47604.65
769.31	47480.22
769.621	47290.76
769.931	47071.65
770.242	46813.49
770.553	46518.1
770.863	46186.06
771.174	45832.83
771.484	45448.66
771.794	45041.6
772.105	44628.16
772.415	44205.24
772.725	43758.13
773.035	43323.6
773.345	42865.39
773.656	42399.43
773.966	41936.6
774.276	41500.68
774.585	41064.79
774.895	40629.82
775.205	40249.95
775.515	39860.27
775.824	39468.05
776.134	39082.68
776.444	38726.56
776.753	38362.05
777.063	38025.12
777.372	37698.02
777.681	37367.43
777.991	37065.16
778.3	36762.77
778.609	36466.27
778.918	36180.08
779.228	35917.91
779.537	35658.11
779.846	35401.29
780.154	35157.76
780.463	34919.2
780.772	34674.41
781.081	34453.04
781.39	34252
781.698	34032.94
782.007	33822.97
782.316	33617.52
782.624	33407.17
782.932	33199.76
783.241	33002.46
783.549	32805.42
783.858	32640.29
784.166	32478.23
784.474	32311.9
784.782	32154.99
785.09	31999.18
785.398	31855.58
785.706	31714.51
786.014	31572.59
786.322	31427.62
786.63	31289.97
786.937	31161.49
787.245	31039
787.553	30908.78
787.86	30793.67
788.168	30677.38
788.475	30575.53
788.783	30481.81
789.09	30387.54
789.398	30292.64
789.705	30200.42
790.012	30103.92
790.319	30000.3
790.626	29896.45
790.933	29795.56
791.24	29705.25
791.547	29616.19
791.854	29523.11
792.161	29432.62
792.468	29332.78
792.774	29245.36
793.081	29154.98
793.388	29079.09
793.694	28987.53
794.001	28895.63
794.307	28778.02
794.614	28674.97
794.92	28543.24
795.226	28418.82
795.533	28306.15
795.839	28206.65
796.145	28087.44
796.451	27970.88
796.757	27857.24
797.063	27743.49
797.369	27635.05
797.675	27526.51
797.98	27419.19
798.286	27295.13
798.592	27188.46
798.898	27076.55
799.203	26962.75
799.509	26851.57
799.814	26720.91
800.12	26619.68
800.425	26511.09
800.73	26396.49
801.035	26280.12
801.341	26183.55
801.646	26081.65
801.951	25982.13
802.256	25881.33
802.561	25785.76
802.866	25697.91
803.171	25613.72
803.476	25528.21
803.78	25438.97
804.085	25346.09
804.39	25237.01
804.694	25148.9
804.999	25040.29
805.303	24947.53
805.608	24864.01
805.912	24779.4
806.216	24710.18
806.521	24634.51
806.825	24556.39
807.129	24492.59
807.433	24424.14
807.737	24352.91
808.041	24292.85
808.345	24236.09
808.649	24172.45
808.953	24123.19
809.257	24064.47
809.561	24005.71
809.864	23951.56
810.168	23912.2
810.471	23872.63
810.775	23841.62
811.078	23814.31
811.382	23788.13
811.685	23782.97
811.988	23773.37
812.292	23762.81
812.595	23760.83
812.898	23757.88
813.201	23770.84
813.504	23785.39
813.807	23813.58
814.11	23842.53
814.413	23867.86
814.716	23894.35
815.018	23941.57
815.321	23998.78
815.624	24084.27
815.926	24186.37
816.229	24309.39
816.531	24450.86
816.834	24613.38
817.136	24813.66
817.438	25032.42
817.74	25309.93
818.043	25622.86
818.345	25998.07
818.647	26452.06
818.949	26994.49
819.251	27628.45
819.553	28372.94
819.855	29246.89
820.156	30216.82
820.458	31300.79
820.76	32455.8
821.062	33667.55
821.363	34939.49
821.665	36277.09
821.966	37698.75
822.268	39143.97
822.569	40599.14
822.87	42081.39
823.171	43572.02
823.473	45100.47
823.774	46674.23
824.075	48195.2
824.376	49688.76
824.677	51161.23
824.978	52543.01
825.279	53829.65
825.58	55000.33
825.88	56037.12
826.181	56923.33
826.482	57703.42
826.782	58322.85
827.083	58834.63
827.383	59215.34
827.684	59425.5
827.984	59504.32
828.284	59418.08
828.585	59189.24
828.885	58887.5
829.185	58422.9
829.485	57874.66
829.785	57202.48
830.085	56368.56
830.385	55494.57
830.685	54560.98
830.985	53502.21
831.285	52429.32
831.584	51317.13
831.884	50168.59
832.183	48997.89
832.483	47782.99
832.782	46511.66
833.082	45230.4
833.381	43956.52
833.681	42721.57
833.98	41556.13
834.279	40422.21
834.578	39320.92
834.877	38286.02
835.176	37274.76
835.475	36349.84
835.774	35458.95
836.073	34593.16
836.372	33780.2
836.671	32974.91
836.969	32171.8
837.268	31434.18
837.567	30721.62
837.865	30031.12
838.164	29352.73
838.462	28702.41
838.761	28094.77
839.059	27514.63
839.357	26977.1
839.655	26446.6
839.953	25910.23
840.252	25386.32
840.55	24862.18
840.848	24358.36
841.146	23873.23
841.443	23379.13
841.741	22874.77
842.039	22365.74
842.337	21863.51
842.634	21401.17
842.932	20959.26
843.229	20539.36
843.527	20128.24
843.824	19690.11
844.122	19243.94
844.419	18831.86
844.716	18406.1
845.013	17994.65
845.311	17606.72
845.608	17229.83
845.905	16863.37
846.202	16510.58
846.499	16145.28
846.796	15788.86
847.092	15422.35
847.389	15058.62
847.686	14719.44
847.982	14405
848.279	14096.32
848.576	13808.96
848.872	13512.73
849.168	13226.54
849.465	12945.84
849.761	12656.61
850.057	12386.26
850.354	12124.85
850.65	11874
850.946	11645.02
851.242	11422.52
851.538	11202.83
851.834	10989.58
852.13	10776.09
852.425	10582.84
852.721	10403.38
853.017	10237.13
853.312	10084.29
853.608	9939.91
853.903	9799.05
854.199	9655.01
854.494	9528.87
854.79	9396.58
855.085	9266.68
855.38	9139.59
855.675	9008.53
855.971	8887.82
856.266	8789.06
856.561	8696.26
856.856	8600.77
857.151	8510.68
857.445	8417.07
857.74	8322.24
858.035	8226.85
858.33	8136.84
858.624	8047.59
858.919	7973.11
859.213	7888.96
859.508	7807.39
859.802	7718.49
860.096	7638.27
860.391	7574.87
860.685	7513.17
860.979	7460.57
861.273	7412.68
861.567	7355.47
861.861	7290.93
862.155	7238.66
862.449	7171.25
862.743	7105.94
863.037	7049.85
863.33	6992.13
863.624	6934.37
863.918	6889.13
864.211	6850.54
864.505	6822.13
864.798	6780.15
865.092	6731.68
865.385	6686.54
865.678	6635.39
865.971	6603.33
866.264	6573.7
866.558	6543.93
866.851	6511.91
867.144	6479.28
867.437	6445.52
867.729	6415.16
868.022	6399.7
868.315	6378.36
868.608	6365.08
868.9	6358.55
869.193	6342.65
869.485	6317.72
869.778	6295.27
870.07	6268.62
870.363	6250.2
870.655	6228.56
870.947	6220.97
871.239	6212.93
871.532	6212.44
871.824	6217.12
872.116	6214.75
872.408	6208.56
872.699	6194.3
872.991	6186.29
873.283	6181.67
873.575	6181.03
873.867	6188.57
874.158	6195.24
874.45	6193.98
874.741	6190.81
875.033	6186.11
875.324	6197.63
875.615	6218.4
875.907	6241.69
876.198	6257.6
876.489	6266.18
876.78	6270.54
877.071	6270.74
877.362	6274.13
877.653	6276.64
877.944	6287.72
878.235	6295.72
878.526	6304.68
878.816	6322.56
