Data from 24HourExp_27052025_FLMS018081_21-08-19-037.txt Node
Date: Tue May 27 21:08:19 BST 2025
User: adleo
Spectrometer: FLMS01808
Trigger mode: 0
Integration Time (sec): 4.000000E-1
Scans to average: 10
Electric dark correction enabled: true
Nonlinearity correction enabled: true
Boxcar width: 10
XAxis mode: Wavelengths
Number of Pixels in Spectrum: 2048
>>>>>Begin Spectral Data<<<<<
178.471	-122.55
178.857	-117.16
179.244	-111.15
179.631	-103.33
180.017	-95.57
180.404	-87.63
180.79	-76.9
181.176	-67.32
181.563	-58.43
181.949	-47.66
182.335	-39.05
182.722	-22.49
183.108	-3.36
183.494	23.85
183.88	78.32
184.266	132.94
184.653	189.28
185.039	242.64
185.425	297.02
185.811	349.96
186.197	403.26
186.582	455.43
186.968	508.76
187.354	561.17
187.74	612.49
188.126	664.13
188.511	715.36
188.897	763.24
189.283	809.94
189.668	856.59
190.054	899.44
190.439	945.95
190.825	989.42
191.21	1031.15
191.596	1064.04
191.981	1071.13
192.366	1074.27
192.752	1075.51
193.137	1082.1
193.522	1084.16
193.908	1086.3
194.293	1089.49
194.678	1090.81
195.063	1092.6
195.448	1094.84
195.833	1094.49
196.218	1093.91
196.603	1092.2
196.988	1090.39
197.373	1092.3
197.757	1092.49
198.142	1093.62
198.527	1091.63
198.912	1091.16
199.296	1088.98
199.681	1087.81
200.066	1085.53
200.45	1085.22
200.835	1087.28
201.219	1085.9
201.604	1086.63
201.988	1086.65
202.372	1087.21
202.757	1087.4
203.141	1088.79
203.525	1089.35
203.91	1091.88
204.294	1092.9
204.678	1093.66
205.062	1095.1
205.446	1094.1
205.83	1096.28
206.214	1096.52
206.598	1098.62
206.982	1099.95
207.366	1102.2
207.75	1102.56
208.134	1104.48
208.517	1106.54
208.901	1105.44
209.285	1106.26
209.669	1107.76
210.052	1108.8
210.436	1108.83
210.819	1110.27
211.203	1109.03
211.586	1108.51
211.97	1108.71
212.353	1107.87
212.737	1110.05
213.12	1111.7
213.503	1113.3
213.886	1113.83
214.27	1116.85
214.653	1117.61
215.036	1117.37
215.419	1118.14
215.802	1120.14
216.185	1122.2
216.568	1125.74
216.951	1130.13
217.334	1134.69
217.717	1135.77
218.1	1137.34
218.482	1141.13
218.865	1144.26
219.248	1149.9
219.631	1154.34
220.013	1159.23
220.396	1167.72
220.778	1173.75
221.161	1179.57
221.544	1185.1
221.926	1192.09
222.308	1197.46
222.691	1205.21
223.073	1215.81
223.455	1224.6
223.838	1235.14
224.22	1244.07
224.602	1254.11
224.984	1263.7
225.366	1273.39
225.749	1288.48
226.131	1303.04
226.513	1316.95
226.895	1331.49
227.276	1344.21
227.658	1359.73
228.04	1375.31
228.422	1390.92
228.804	1406.67
229.186	1423.69
229.567	1440.53
229.949	1457.52
230.331	1475.88
230.712	1494.66
231.094	1511.71
231.475	1531.19
231.857	1551.39
232.238	1570.87
232.62	1588.85
233.001	1609.91
233.382	1629.87
233.763	1646.88
234.145	1668.7
234.526	1689.59
234.907	1709.67
235.288	1730.85
235.669	1751.98
236.05	1771.4
236.431	1789
236.812	1811.41
237.193	1833.09
237.574	1856.59
237.955	1878.53
238.336	1902.6
238.717	1925.57
239.097	1951.97
239.478	1975.48
239.859	1997.78
240.239	2022.73
240.62	2046.93
241.001	2069.92
241.381	2096.05
241.762	2121.14
242.142	2144.87
242.522	2169.89
242.903	2197.25
243.283	2223.63
243.663	2250.34
244.044	2280.58
244.424	2312.69
244.804	2340.36
245.184	2370.41
245.564	2398.97
245.944	2430.61
246.324	2461.99
246.704	2493.47
247.084	2520.36
247.464	2553.08
247.844	2584.58
248.224	2617.51
248.604	2652.73
248.983	2683.8
249.363	2717.03
249.743	2749.16
250.122	2781.46
250.502	2812.84
250.882	2843.6
251.261	2877.79
251.641	2912.12
252.02	2945.18
252.399	2979.18
252.779	3016.12
253.158	3054.65
253.537	3095.99
253.917	3141.12
254.296	3182.37
254.675	3223.63
255.054	3268.26
255.433	3310.88
255.812	3352.31
256.191	3396.09
256.57	3437.72
256.949	3485.02
257.328	3530.66
257.707	3578.72
258.086	3627.73
258.465	3678.97
258.843	3733.2
259.222	3787.41
259.601	3843.72
259.979	3900.5
260.358	3956.18
260.736	4011.98
261.115	4068.69
261.493	4124.14
261.872	4176.29
262.25	4233.77
262.629	4292.77
263.007	4352.17
263.385	4413.67
263.763	4480.79
264.142	4547.97
264.52	4613.11
264.898	4680.29
265.276	4747.81
265.654	4819.16
266.032	4887.76
266.41	4957.31
266.788	5028.81
267.166	5104.56
267.544	5180.44
267.921	5258.52
268.299	5341.29
268.677	5424.33
269.055	5506.99
269.432	5594.6
269.81	5682.19
270.188	5770.99
270.565	5861.83
270.943	5956.79
271.32	6048.69
271.697	6142.02
272.075	6238.1
272.452	6339.4
272.829	6438.32
273.207	6543.32
273.584	6650.79
273.961	6762.32
274.338	6878.25
274.715	7001.35
275.092	7121.79
275.469	7244.96
275.846	7366.22
276.223	7487.89
276.6	7610.1
276.977	7739.99
277.354	7867.79
277.731	7992.6
278.108	8129.11
278.484	8261.21
278.861	8393.05
279.238	8533.66
279.614	8673.4
279.991	8815.82
280.367	8959.21
280.744	9110.19
281.12	9261.08
281.497	9409.37
281.873	9560.05
282.249	9708.53
282.625	9850.54
283.002	9999.11
283.378	10146.81
283.754	10299.32
284.13	10455.58
284.506	10618.11
284.882	10771.36
285.258	10929.78
285.634	11094.26
286.01	11252.38
286.386	11416.93
286.762	11584.64
287.138	11749.64
287.513	11916.42
287.889	12080.47
288.265	12246.19
288.641	12406.65
289.016	12564.94
289.392	12728.59
289.767	12894.8
290.143	13067.11
290.518	13232.53
290.894	13393.89
291.269	13555.43
291.644	13717.77
292.02	13871.32
292.395	14021.28
292.77	14181.18
293.145	14336.83
293.52	14494.96
293.895	14644.84
294.27	14801.62
294.646	14958.23
295.02	15105.62
295.395	15261.76
295.77	15419.08
296.145	15573.5
296.52	15728.39
296.895	15888.36
297.269	16046.72
297.644	16198.5
298.019	16349.11
298.393	16506.81
298.768	16661.98
299.143	16818.44
299.517	16971.1
299.891	17131.53
300.266	17291.94
300.64	17452.1
301.015	17619
301.389	17789.49
301.763	17966.01
302.137	18139.42
302.512	18316.62
302.886	18500.43
303.26	18681.97
303.634	18863.5
304.008	19046.28
304.382	19232.84
304.756	19422.36
305.13	19608.48
305.504	19792.89
305.877	19988.38
306.251	20193.24
306.625	20403.07
306.999	20617.11
307.372	20835.89
307.746	21059.53
308.119	21280.35
308.493	21497.2
308.866	21717.06
309.24	21934.99
309.613	22142.67
309.987	22356.34
310.36	22554.26
310.733	22762.46
311.107	22981.03
311.48	23205.56
311.853	23440.96
312.226	23672.06
312.599	23901.25
312.972	24138.16
313.345	24377.74
313.718	24607
314.091	24831.41
314.464	25064.21
314.837	25294.47
315.21	25512.51
315.582	25732.89
315.955	25948.89
316.328	26170.96
316.7	26382.62
317.073	26605.85
317.446	26836.61
317.818	27066.36
318.191	27303.22
318.563	27534.67
318.936	27744.92
319.308	27951.59
319.68	28155.17
320.053	28354.96
320.425	28547.43
320.797	28726.85
321.169	28889.25
321.541	29037.73
321.913	29171.38
322.285	29286.7
322.657	29409.41
323.029	29559.56
323.401	29700.38
323.773	29866.52
324.145	30044.73
324.517	30232.46
324.889	30410.1
325.26	30612.95
325.632	30827.51
326.004	31069.96
326.375	31326.05
326.747	31608.86
327.118	31913.71
327.49	32207.59
327.861	32520.05
328.233	32824
328.604	33136.52
328.975	33453.34
329.346	33767.25
329.718	34081.78
330.089	34394.75
330.46	34692.74
330.831	34966.98
331.202	35227.86
331.573	35481.78
331.944	35706.62
332.315	35941.45
332.686	36164.43
333.057	36364.71
333.428	36545.65
333.799	36717.27
334.169	36878.08
334.54	37020.07
334.911	37136.12
335.281	37266.81
335.652	37386.47
336.022	37526.05
336.393	37672.05
336.763	37845.72
337.134	38035.09
337.504	38240.23
337.874	38442.69
338.245	38650.61
338.615	38868.84
338.985	39101.26
339.355	39321.93
339.726	39553.21
340.096	39775
340.466	40027.28
340.836	40270.55
341.206	40522.79
341.576	40772.06
341.945	41013.94
342.315	41245.83
342.685	41492.72
343.055	41743.96
343.425	41991.28
343.794	42232.99
344.164	42470.85
344.533	42702.28
344.903	42930.77
345.273	43166.79
345.642	43400.73
346.011	43634.04
346.381	43867.61
346.75	44100.59
347.12	44355.96
347.489	44606.74
347.858	44859.7
348.227	45070.41
348.596	45298.36
348.965	45536.61
349.334	45766.86
349.704	46011.35
350.072	46268.58
350.441	46501.83
350.81	46749.55
351.179	46988.8
351.548	47222.54
351.917	47442.37
352.285	47637.71
352.654	47846.08
353.023	48052.04
353.391	48251.51
353.76	48468.64
354.129	48665.41
354.497	48903.85
354.865	49121.52
355.234	49352.75
355.602	49567.65
355.971	49816.38
356.339	50034.06
356.707	50247.67
357.075	50466.6
357.443	50688.86
357.811	50897.81
358.18	51110.78
358.548	51311.43
358.916	51514.84
359.284	51730.53
359.651	51951.53
360.019	52170.94
360.387	52375.73
360.755	52577.02
361.123	52809.96
361.49	53035.22
361.858	53245.56
362.226	53437.8
362.593	53635.72
362.961	53817.82
363.328	54019.14
363.696	54186.85
364.063	54406.45
364.43	54616.62
364.798	54831.83
365.165	55008.84
365.532	55190.92
365.899	55379.02
366.267	55542.46
366.634	55693.4
367.001	55862.43
367.368	55999.81
367.735	56186.02
368.102	56366.65
368.469	56557.89
368.835	56734.35
369.202	56891.89
369.569	57088.27
369.936	57284.88
370.303	57473.93
370.669	57669.49
371.036	57833.22
371.402	58044.06
371.769	58224.6
372.135	58378.65
372.502	58501.35
372.868	58645.86
373.235	58789.27
373.601	58928.79
373.967	59104.86
374.333	59293.51
374.7	59473.18
375.066	59680.13
375.432	59865.63
375.798	60044.38
376.164	60217.77
376.53	60366.18
376.896	60544.19
377.262	60718.04
377.628	60845.43
377.993	60993.07
378.359	61145.14
378.725	61308.71
379.091	61462.3
379.456	61597.01
379.822	61730.41
380.187	61882.59
380.553	62078.21
380.918	62282.93
381.284	62469.27
381.649	62646.56
382.015	62789.34
382.38	62913.61
382.745	63088.98
383.11	63250.82
383.476	63402.01
383.841	63533.38
384.206	63702.99
384.571	63822.93
384.936	63960.71
385.301	64133.82
385.666	64273.87
386.031	64429.12
386.396	64585.65
386.76	64738.19
387.125	64938.25
387.49	65148.04
387.855	65347.92
388.219	65518.87
388.584	65692.25
388.948	65883.22
389.313	66042.98
389.677	66251.23
390.042	66488.76
390.406	66645.82
390.771	66831.09
391.135	67017.58
391.499	67251.4
391.863	67478.64
392.227	67722.58
392.592	67921.86
392.956	68128.93
393.32	68327.72
393.684	68547.62
394.048	68729.42
394.412	68908.26
394.775	69056.48
395.139	69202.69
395.503	69362.81
395.867	69511.06
396.231	69652.93
396.594	69761.25
396.958	69912.61
397.321	70075.98
397.685	70199.86
398.048	70341.93
398.412	70476.31
398.775	70620.69
399.139	70746.84
399.502	70863.78
399.865	71007.9
400.228	71213.3
400.592	71342.59
400.955	71544.77
401.318	71681
401.681	71848.67
402.044	71987.14
402.407	72140.85
402.77	72300.76
403.133	72497.65
403.496	72651.74
403.859	72810.16
404.221	73048.55
404.584	73289.94
404.947	73538.75
405.309	73760.87
405.672	74004.53
406.034	74238.56
406.397	74490.91
406.759	74720.56
407.122	74917.69
407.484	75097.02
407.847	75278.18
408.209	75527.55
408.571	75748.24
408.933	76002.32
409.296	76259.48
409.658	76520.95
410.02	76786.2
410.382	77068.76
410.744	77295.26
411.106	77556.44
411.468	77806.22
411.83	78011.52
412.191	78174.61
412.553	78306.7
412.915	78468.98
413.277	78622.18
413.638	78766.64
414	78891.53
414.361	79018.25
414.723	79176.76
415.084	79332.68
415.446	79442.97
415.807	79530.9
416.169	79588.82
416.53	79631.76
416.891	79679.52
417.252	79733.6
417.614	79764.28
417.975	79777.2
418.336	79796.8
418.697	79816.38
419.058	79832.35
419.419	79844.17
419.78	79855.62
420.141	79865.61
420.501	79875.2
420.862	79883.67
421.223	79889.09
421.584	79903.64
421.944	79910.35
422.305	79914.37
422.666	79918.21
423.026	79920.24
423.387	79925.29
423.747	79930.42
424.107	79936.03
424.468	79940.05
424.828	79943.56
425.188	79947.51
425.549	79952.09
425.909	79954.71
426.269	79953.2
426.629	79955.93
426.989	79956.86
427.349	79958.92
427.709	79960.07
428.069	79960.7
428.429	79963.02
428.789	79967.49
429.149	79972.15
429.508	79974.7
429.868	79979.13
430.228	79981.12
430.587	79983.3
430.947	79985.93
431.306	79989.32
431.666	79991.58
432.025	79994.65
432.385	79994.94
432.744	79994.57
433.103	79995.72
433.463	79996.57
433.822	79999.6
434.181	80001.74
434.54	80004.33
434.899	80008.61
435.258	80012.86
435.618	80014.6
435.976	80017.11
436.335	80018.11
436.694	80017.15
437.053	80017.33
437.412	80018.37
437.771	80019.22
438.129	80021.44
438.488	80021.29
438.847	80021.77
439.205	80020.96
439.564	80019.92
439.922	80019.85
440.281	80021.4
440.639	80022.4
440.997	80022.4
441.356	80024.43
441.714	80025.24
442.072	80024.25
442.431	80023.99
442.789	80022.36
443.147	80022.69
443.505	80023.47
443.863	80023.84
444.221	80022.8
444.579	80023.14
444.937	80023.99
445.294	80023.73
445.652	80022.95
446.01	80024.39
446.368	80026.61
446.725	80028.54
447.083	80028.46
447.441	80027.8
447.798	80028.5
448.156	80028.87
448.513	80029.57
448.87	80029.5
449.228	80028.5
449.585	80029.94
449.942	80029.61
450.3	80031.09
450.657	80031.46
451.014	80031.83
451.371	80032.34
451.728	80033.82
452.085	80034.01
452.442	80034.3
452.799	80034.93
453.156	80035.71
453.513	80036.01
453.869	80034.38
454.226	80034.64
454.583	80035.56
454.939	80038.19
455.296	80038.78
455.653	80039.26
456.009	80039.48
456.366	80039.44
456.722	80040.22
457.078	80041.14
457.435	80042.48
457.791	80042.66
458.147	80043.36
458.503	80043.47
458.86	80044.1
459.216	80042.99
459.572	80043.95
459.928	80043.55
460.284	80044.36
460.64	80045.21
460.996	80045.58
461.351	80045.73
461.707	80045.17
462.063	80045.1
462.419	80043.95
462.774	80044.29
463.13	80043.44
463.486	80044.18
463.841	80044.36
464.197	80045.51
464.552	80044.47
464.908	80043.33
465.263	80044.55
465.618	80045.21
465.974	80044.47
466.329	80042.51
466.684	80044.58
467.039	80042.92
467.394	80042.73
467.749	80042.88
468.104	80042.29
468.459	80042.55
468.814	80042.88
469.169	80043.03
469.524	80043.18
469.879	80045.03
470.233	80043.44
470.588	80044.03
470.943	80045.4
471.297	80047.28
471.652	80048.32
472.006	80049.21
472.361	80050.39
472.715	80049.95
473.07	80049.35
473.424	80050.98
473.778	80054.2
474.133	80054.64
474.487	80056.05
474.841	80057.27
475.195	80058.9
475.549	80060.16
475.903	80060.78
476.257	80061.52
476.611	80062.82
476.965	80064.37
477.319	80065.82
477.673	80067.78
478.026	80069.51
478.38	80069
478.734	80069.18
479.087	80070.07
479.441	80070.07
479.795	80070.03
480.148	80071.18
480.502	80072.44
480.855	80073.62
481.208	80073.77
481.562	80073.66
481.915	80076.25
482.268	80075.58
482.621	80075.36
482.974	80075.88
483.328	80076.4
483.681	80075.88
484.034	80075.14
484.387	80074.44
484.739	80073.88
485.092	80074.95
485.445	80075.03
485.798	80076.47
486.151	80077.84
486.503	80076.95
486.856	80078.25
487.209	80079.73
487.561	80079.88
487.914	80081.17
488.266	80079.77
488.618	80078.4
488.971	80079.17
489.323	80076.47
489.675	80077.43
490.028	80077.21
490.38	80075.92
490.732	80074.36
491.084	80075.99
491.436	80078.29
491.788	80079.62
492.14	80079.43
492.492	80078.95
492.844	80079.06
493.196	80077.4
493.548	80076.43
493.899	80076.66
494.251	80075.92
494.603	80075.92
494.954	80073.96
495.306	80071.96
495.657	80073.29
496.009	80073.22
496.36	80073.7
496.712	80075.62
497.063	80075.21
497.414	80076.36
497.765	80078.84
498.117	80080.32
498.468	80081.28
498.819	80080.25
499.17	80080.36
499.521	80081.25
499.872	80082.02
500.223	80081.99
500.574	80083.35
500.924	80084.39
501.275	80084.95
501.626	80085.43
501.977	80084.58
502.327	80084.95
502.678	80085.2
503.029	80084.24
503.379	80084.24
503.73	80084.43
504.08	80083.58
504.43	80084.69
504.781	80084.65
505.131	80083.76
505.481	80082.76
505.831	80082.5
506.182	80080.91
506.532	80080.36
506.882	80079.21
507.232	80078.17
507.582	80077.1
507.932	80076.14
508.281	80076.47
508.631	80075.47
508.981	80075.1
509.331	80074.73
509.681	80076.47
510.03	80077.03
510.38	80076.43
510.729	80077.88
511.079	80076.55
511.428	80076.47
511.778	80072.81
512.127	80072
512.476	80073.62
512.826	80073.88
513.175	80073.77
513.524	80076.21
513.873	80077.73
514.222	80080.1
514.571	80078.92
514.92	80078.88
515.269	80078.58
515.618	80076.99
515.967	80076.88
516.316	80078.44
516.665	80077.84
517.014	80076.92
517.362	80074.55
517.711	80075.25
518.059	80074.81
518.408	80074.96
518.757	80073.96
519.105	80076.92
519.453	80076.4
519.802	80075.44
520.15	80075.73
520.498	80074.7
520.847	80074.36
521.195	80071.92
521.543	80070
521.891	80071.51
522.239	80071.14
522.587	80072.62
522.935	80072.18
523.283	80070.81
523.631	80068.22
523.979	80069.55
524.326	80070.26
524.674	80072.48
525.022	80072.92
525.369	80073.18
525.717	80072.62
526.064	80072.25
526.412	80071.22
526.759	80072.4
527.107	80070.92
527.454	80070.51
527.801	80070.22
528.149	80069.26
528.496	80070.48
528.843	80071.29
529.19	80070.48
529.537	80072.4
529.884	80073.14
530.231	80074.18
530.578	80075.1
530.925	80076.03
531.272	80075.36
531.619	80074.25
531.966	80074.25
532.312	80073.66
532.659	80073.29
533.006	80074.47
533.352	80076.06
533.699	80076.21
534.045	80075.21
534.392	80073.18
534.738	80073.85
535.084	80075.14
535.431	80074.62
535.777	80074.92
536.123	80074.7
536.469	80076.62
536.815	80075.07
537.161	80073.55
537.507	80072.07
537.853	80074.22
538.199	80074.33
538.545	80075.4
538.891	80076.51
539.237	80076.99
539.582	80077.32
539.928	80076.88
540.274	80076.29
540.619	80076.44
540.965	80074.84
541.31	80075.81
541.656	80078.73
542.001	80079.32
542.347	80077.4
542.692	80078.95
543.037	80078.54
543.382	80078.32
543.728	80077.69
544.073	80078.21
544.418	80077.1
544.763	80077.06
545.108	80075.14
545.453	80075.44
545.798	80075.73
546.142	80075.03
546.487	80073.84
546.832	80074.14
547.177	80075.18
547.521	80075.84
547.866	80075.36
548.211	80077.54
548.555	80075.44
548.9	80075.07
549.244	80074.29
549.588	80074.77
549.933	80074.18
550.277	80074.95
550.621	80073.88
550.965	80071.66
551.31	80070
551.654	80071.66
551.998	80072.92
552.342	80073.29
552.686	80073.73
553.03	80072.11
553.373	80072.66
553.717	80072.55
554.061	80071.59
554.405	80071.07
554.748	80071.03
555.092	80071.85
555.436	80071.74
555.779	80073.55
556.123	80072.77
556.466	80072.51
556.81	80072.66
557.153	80071.7
557.496	80069.77
557.839	80072.29
558.183	80073.7
558.526	80073.25
558.869	80072.44
559.212	80071.99
559.555	80071.7
559.898	80071.81
560.241	80071.99
560.584	80071.33
560.927	80072.03
561.269	80072.29
561.612	80072.07
561.955	80071.66
562.297	80071.07
562.64	80070.85
562.983	80070.88
563.325	80072.36
563.668	80072.03
564.01	80072.62
564.352	80072.07
564.695	80071.81
565.037	80070.59
565.379	80071.03
565.721	80073.33
566.063	80074.07
566.406	80075.25
566.748	80075.84
567.09	80075.92
567.431	80075.21
567.773	80075.4
568.115	80074.29
568.457	80074.14
568.799	80075.18
569.14	80075.25
569.482	80075.18
569.824	80075.14
570.165	80074.62
570.507	80072.62
570.848	80072.55
571.19	80072.73
571.531	80073.36
571.872	80073.7
572.214	80073.33
572.555	80072.99
572.896	80071.55
573.237	80070.55
573.578	80067.63
573.919	80065.78
574.26	80065.33
574.601	80066.89
574.942	80064.71
575.283	80065.78
575.624	80065.71
575.964	80063.08
576.305	80061.64
576.646	80061.93
576.986	80061.86
577.327	80061.01
577.667	80062.56
578.008	80063.67
578.348	80063.34
578.689	80062.71
579.029	80061.34
579.369	80060.64
579.71	80060.45
580.05	80061.64
580.39	80061.49
580.73	80060.64
581.07	80062.41
581.41	80063.12
581.75	80060.19
582.09	80060.31
582.43	80060.56
582.769	80059.79
583.109	80061.34
583.449	80060.53
583.789	80060.6
584.128	80060.6
584.468	80060.42
584.807	80061.08
585.147	80059.01
585.486	80057.98
585.825	80059.08
586.165	80060.97
586.504	80059.16
586.843	80059.53
587.182	80059.6
587.522	80059.2
587.861	80061.16
588.2	80060.42
588.539	80058.86
588.878	80060.01
589.216	80062.6
589.555	80062.49
589.894	80062.71
590.233	80061.08
590.572	80062.38
590.91	80062.63
591.249	80062.38
591.587	80062.45
591.926	80061.23
592.264	80061.97
592.603	80061.67
592.941	80060.97
593.279	80060.08
593.618	80060.78
593.956	80059.79
594.294	80057.94
594.632	80057.6
594.97	80057.31
595.308	80056.83
595.646	80056.83
595.984	80055.68
596.322	80055.61
596.66	80055.61
596.998	80055.94
597.335	80058.34
597.673	80060.27
598.011	80057.9
598.348	80058.08
598.686	80059.31
599.023	80060.01
599.361	80061.12
599.698	80061.6
600.035	80060.86
600.373	80061.45
600.71	80062.41
601.047	80062.08
601.384	80061.56
601.722	80062.52
602.059	80062.38
602.396	80062.93
602.733	80062.52
603.069	80063.67
603.406	80061.64
603.743	80060.49
604.08	80059.01
604.417	80057.9
604.753	80056.83
605.09	80057.57
605.426	80056.49
605.763	80054.5
606.099	80054.24
606.436	80051.61
606.772	80050.69
607.109	80051.5
607.445	80050.35
607.781	80049.98
608.117	80049.65
608.453	80050.87
608.79	80050.5
609.126	80049.61
609.462	80050.32
609.798	80051.54
610.133	80051.87
610.469	80051.68
610.805	80051.61
611.141	80052.13
611.477	80051.28
611.812	80049.84
612.148	80050.13
612.483	80047.62
612.819	80046.25
613.154	80045.62
613.49	80047.73
613.825	80047.21
614.16	80046.29
614.496	80046.25
614.831	80046.62
615.166	80046.73
615.501	80045.36
615.836	80044.33
616.171	80045.07
616.506	80044.51
616.841	80044.22
617.176	80043.14
617.511	80042.07
617.846	80042.44
618.18	80042.33
618.515	80041.26
618.85	80041.4
619.184	80039.89
619.519	80043.29
619.853	80044.73
620.188	80042.96
620.522	80040.55
620.856	80041.55
621.191	80040.92
621.525	80041.74
621.859	80039.15
622.193	80038.78
622.527	80038.85
622.861	80039.22
623.195	80038.19
623.529	80036.6
623.863	80036
624.197	80035.49
624.531	80036.78
624.865	80036.34
625.198	80036.04
625.532	80035.97
625.866	80035.01
626.199	80034.64
626.533	80033.67
626.866	80033.64
627.2	80033.9
627.533	80033.79
627.866	80033.01
628.2	80033.97
628.533	80031.57
628.866	80032.27
629.199	80031.49
629.532	80032.56
629.865	80032.64
630.198	80033.3
630.531	80032.64
630.864	80030.83
631.197	80030.61
631.529	80029.57
631.862	80029.35
632.195	80029.35
632.527	80029.42
632.86	80030.2
633.193	80030.42
633.525	80030.72
633.857	80030.12
634.19	80029.64
634.522	80029.16
634.854	80027.65
635.187	80025.8
635.519	80026.06
635.851	80026.87
636.183	80027.61
636.515	80027.28
636.847	80025.73
637.179	80024.43
637.511	80025.8
637.843	80026.43
638.174	80025.43
638.506	80026.02
638.838	80025.5
639.17	80025.91
639.501	80025.84
639.833	80025.98
640.164	80027.65
640.496	80027.2
640.827	80028.83
641.158	80029.9
641.49	80031.64
641.821	80032.34
642.152	80033.42
642.483	80034.93
642.814	80035.75
643.145	80033.64
643.476	80032.16
643.807	80033.49
644.138	80032.97
644.469	80031.01
644.8	80030.5
645.131	80033.19
645.461	80034.01
645.792	80032.57
646.122	80030.46
646.453	80028.98
646.784	80027.58
647.114	80026.61
647.444	80025.65
647.775	80025.21
648.105	80023.58
648.435	80023.66
648.765	80023.32
649.096	80023.51
649.426	80021.51
649.756	80020.55
650.086	80021.1
650.416	80021.62
650.746	80019.81
651.075	80020.7
651.405	80022.51
651.735	80023.66
652.065	80021.95
652.394	80021.4
652.724	80021.95
653.054	80023.69
653.383	80025.02
653.712	80025.24
654.042	80023.36
654.371	80023.25
654.701	80021.55
655.03	80021.62
655.359	80021.55
655.688	80023.17
656.017	80023.06
656.346	80023.91
656.675	80024.43
657.004	80025.13
657.333	80024.54
657.662	80024.1
657.991	80023.91
658.32	80024.32
658.648	80024.06
658.977	80023.62
659.306	80023.17
659.634	80022.21
659.963	80021.55
660.291	80021.22
660.619	80018.96
660.948	80019.37
661.276	80019.44
661.604	80017.78
661.933	80017.48
662.261	80016.12
662.589	80013.86
662.917	80011.86
663.245	80011.9
663.573	80010.24
663.901	80008.98
664.229	80008.09
664.556	80009.68
664.884	80008.65
665.212	80006.28
665.539	80005.43
665.867	80005.54
666.195	80004.91
666.522	80005.47
666.85	80005.36
667.177	80004.99
667.504	80006.95
667.832	80008.39
668.159	80007.54
668.486	80009.64
668.813	80010.38
669.14	80009.9
669.467	80010.16
669.794	80010.83
670.121	80010.68
670.448	80009.94
670.775	80011.2
671.102	80012.6
671.429	80012.12
671.755	80011.75
672.082	80012.05
672.409	80011.75
672.735	80011.09
673.062	80011.57
673.388	80011.97
673.714	80010.94
674.041	80011.16
674.367	80011.27
674.693	80010.83
675.019	80011.27
675.346	80010.79
675.672	80009.9
675.998	80009.5
676.324	80009.27
676.65	80010.24
676.976	80009.2
677.301	80009.68
677.627	80009.5
677.953	80007.43
678.279	80007.06
678.604	80007.54
678.93	80006.36
679.255	80004.21
679.581	80004.32
679.906	80003.14
680.232	80002.51
680.557	80002.47
680.882	80000.85
681.208	79999.92
681.533	79997.93
681.858	79995.71
682.183	79994.75
682.508	79993.86
682.833	79993.05
683.158	79992.57
683.483	79990.32
683.808	79990.32
684.132	79989.17
684.457	79988.25
684.782	79987.77
685.106	79986.14
685.431	79984.48
685.755	79984.33
686.08	79984.26
686.404	79984.26
686.729	79984.92
687.053	79984.11
687.377	79983.93
687.701	79982.96
688.026	79982.37
688.35	79981.63
688.674	79981.82
688.998	79981.75
689.322	79982
689.646	79981.56
689.97	79981.49
690.293	79981.82
690.617	79980.9
690.941	79980.23
691.264	79977.57
691.588	79977.72
691.912	79976.94
692.235	79976.68
692.559	79976.09
692.882	79976.8
693.205	79975.91
693.529	79973.66
693.852	79972.84
694.175	79970.7
694.498	79969.41
694.821	79967.34
695.144	79966.75
695.467	79964.5
695.79	79960.62
696.113	79955.89
696.436	79953.42
696.759	79948.81
697.082	79943.64
697.404	79937.07
697.727	79931.13
698.049	79927.15
698.372	79918.48
698.694	79910.77
699.017	79901.22
699.339	79890.42
699.662	79876.27
699.984	79855.59
700.306	79833.63
700.628	79802.38
700.95	79763.85
701.272	79717.29
701.594	79660.59
701.916	79605.18
702.238	79542.57
702.56	79444.14
702.882	79335.13
703.204	79234.97
703.525	79113.6
703.847	78948.5
704.169	78795.06
704.49	78624.73
704.812	78442.08
705.133	78253.14
705.455	78061.62
705.776	77850.49
706.097	77652.73
706.419	77434.18
706.74	77196.11
707.061	76936.9
707.382	76661.22
707.703	76372.31
708.024	76101.88
708.345	75817.87
708.666	75504.48
708.987	75183.59
709.307	74906.33
709.628	74585.88
709.949	74255.25
710.27	73921.52
710.59	73643.59
710.911	73326.41
711.231	73010.2
711.552	72723.49
711.872	72392.67
712.192	72100.86
712.512	71825.08
712.833	71536.14
713.153	71247.06
713.473	71012.12
713.793	70784.31
714.113	70558.68
714.433	70344.67
714.753	70116.44
715.073	69908.86
715.393	69702.01
715.712	69531.95
716.032	69302.92
716.352	69134.39
716.671	68965.48
716.991	68800.32
717.31	68601.52
717.63	68441.48
717.949	68259.7
718.268	68046.17
718.588	67860.2
718.907	67632.38
719.226	67374.94
719.545	67117.66
719.864	66839.17
720.183	66554.74
720.502	66265.65
720.821	65984.52
721.14	65699.14
721.459	65393.92
721.778	65117.79
722.096	64792.4
722.415	64485.72
722.734	64220.68
723.052	63929.63
723.371	63635.32
723.689	63352.15
724.008	63067.67
724.326	62770.77
724.644	62497.9
724.963	62223.83
725.281	61997.28
725.599	61762.25
725.917	61570.17
726.235	61382.89
726.553	61232.28
726.871	61036.63
727.189	60828.66
727.507	60633.1
727.824	60476.1
728.142	60332.47
728.46	60129.46
728.777	60033.32
729.095	59886.55
729.413	59733.8
729.73	59585.29
730.047	59450.1
730.365	59332.33
730.682	59218.86
730.999	59130.07
731.317	59060.4
731.634	58977.26
731.951	58855.34
732.268	58730.23
732.585	58579.61
732.902	58411.87
733.219	58252.9
733.536	58078.16
733.852	57959.47
734.169	57824.53
734.486	57670.09
734.802	57510.56
735.119	57392.13
735.435	57209.49
735.752	57049.3
736.068	56871.95
736.385	56706.9
736.701	56510.26
737.017	56274.94
737.333	56030.75
737.65	55721.2
737.966	55339.32
738.282	54945.5
738.598	54535.59
738.914	54079.5
739.23	53586.45
739.545	53058.48
739.861	52500.53
740.177	51952.12
740.493	51352.27
740.808	50767.75
741.124	50158.49
741.439	49573.78
741.755	48998
742.07	48473.1
742.386	47915.4
742.701	47415.61
743.016	46914.96
743.331	46442.35
743.647	46018.81
743.962	45620.41
744.277	45269.68
744.592	44990.41
744.907	44771.4
745.222	44603.21
745.537	44509.26
745.851	44476.1
746.166	44495.83
746.481	44544.43
746.795	44662.9
747.11	44822.32
747.424	44996.31
747.739	45160.55
748.053	45341.93
748.368	45490.49
748.682	45605
748.996	45742.15
749.311	45836.09
749.625	45937.57
749.939	46032.74
750.253	46093.78
750.567	46174.15
750.881	46240.23
751.195	46305.01
751.509	46368.79
751.822	46418.05
752.136	46461.22
752.45	46515.97
752.763	46587.39
753.077	46650.51
753.39	46682.32
753.704	46702.92
754.017	46729.66
754.331	46770.02
754.644	46773.09
754.957	46785.12
755.27	46793.12
755.584	46799.24
755.897	46810.25
756.21	46798.7
756.523	46780.63
756.836	46755.05
757.149	46670.32
757.461	46597.82
757.774	46514.89
758.087	46392.88
758.4	46252.07
758.712	46102.18
759.025	45944.62
759.337	45781.25
759.65	45617.66
759.962	45462.25
760.275	45295.31
760.587	45143.09
760.899	44998.21
761.211	44906.19
761.523	44828.21
761.836	44830.21
762.148	44834.51
762.46	44871.64
762.772	44938.66
763.083	45066.23
763.395	45217.4
763.707	45440.33
764.019	45665.56
764.33	45900.65
764.642	46161.63
764.954	46433.29
765.265	46716.1
765.577	46981.72
765.888	47227.8
766.199	47473.97
766.511	47687.15
766.822	47912.11
767.133	48087.93
767.444	48255.87
767.755	48347.98
768.066	48415.85
768.377	48409.04
768.688	48344.38
768.999	48252.21
769.31	48130.15
769.621	47948.67
769.931	47725.49
770.242	47466.03
770.553	47176.73
770.863	46837.71
771.174	46480.04
771.484	46092.5
771.794	45681.61
772.105	45274.31
772.415	44846.56
772.725	44395.69
773.035	43954.84
773.345	43496.24
773.656	43032.74
773.966	42561.62
774.276	42123.9
774.585	41684.76
774.895	41245.31
775.205	40865.75
775.515	40464.04
775.824	40066.2
776.134	39672.45
776.444	39304.82
776.753	38932.74
777.063	38587.3
777.372	38259.23
777.681	37930.49
777.991	37625.97
778.3	37325.67
778.609	37024.26
778.918	36737.06
779.228	36472.9
779.537	36204.47
779.846	35943.52
780.154	35693.24
780.463	35451.72
780.772	35208.4
781.081	34983.82
781.39	34779.2
781.698	34553.54
782.007	34355.29
782.316	34144.42
782.624	33925.21
782.932	33723.88
783.241	33534.46
783.549	33331.8
783.858	33159.9
784.166	32994.74
784.474	32820.77
784.782	32661.85
785.09	32499.11
785.398	32349.44
785.706	32205.09
786.014	32063.17
786.322	31924.87
786.63	31789.51
786.937	31663.84
787.245	31535.4
787.553	31406.93
787.86	31295.24
788.168	31176.32
788.475	31056.72
788.783	30965.79
789.09	30873.34
789.398	30771.57
789.705	30671.08
790.012	30569.22
790.319	30462.45
790.626	30350.29
790.933	30259.25
791.24	30162.29
791.547	30074.48
791.854	29982.65
792.161	29885.88
792.468	29786.4
792.774	29684.45
793.081	29596.53
793.388	29513.47
793.694	29415.81
794.001	29322.88
794.307	29195.26
794.614	29087.44
794.92	28959.05
795.226	28836.45
795.533	28725.13
795.839	28629.14
796.145	28512.59
796.451	28405.75
796.757	28296.3
797.063	28189.75
797.369	28076.32
797.675	27969.94
797.98	27861.24
798.286	27732.74
798.592	27625.16
798.898	27511.27
799.203	27398.73
799.509	27280.7
799.814	27154.17
800.12	27055.53
800.425	26940.88
800.73	26828.7
801.035	26716.32
801.341	26616.27
801.646	26505.92
801.951	26396.99
802.256	26285.3
802.561	26184.59
802.866	26087.55
803.171	26000.03
803.476	25909.54
803.78	25815.95
804.085	25714.93
804.39	25604.26
804.694	25507.82
804.999	25408.11
805.303	25314.01
805.608	25229.65
805.912	25148.28
806.216	25081.58
806.521	25010.91
806.825	24936.89
807.129	24866.27
807.433	24789.85
807.737	24722.76
808.041	24665.04
808.345	24610.48
808.649	24557.54
808.953	24507.61
809.257	24448.36
809.561	24385.2
809.864	24335.93
810.168	24294.98
810.471	24260.94
810.775	24232.61
811.078	24213.3
811.382	24185.87
811.685	24184.33
811.988	24172.91
812.292	24157.67
812.595	24151.21
812.898	24146.65
813.201	24158.32
813.504	24181.33
813.807	24215.85
814.11	24244.32
814.413	24271.5
814.716	24298.71
815.018	24343.89
815.321	24405.87
815.624	24492.09
815.926	24595.62
816.229	24717.08
816.531	24858.78
816.834	25023.02
817.136	25223.89
817.438	25442.94
817.74	25714.22
818.043	26032.4
818.345	26411.04
818.647	26871.65
818.949	27418.32
819.251	28055.61
819.553	28802.1
819.855	29676.9
820.156	30642.56
820.458	31732.61
820.76	32884.24
821.062	34105.41
821.363	35374.65
821.665	36716.32
821.966	38151.7
822.268	39602.39
822.569	41063.74
822.87	42549.77
823.171	44044.82
823.473	45576.01
823.774	47162.44
824.075	48697.02
824.376	50192.33
824.677	51670.88
824.978	53050.7
825.279	54340
825.58	55514.14
825.88	56557.96
826.181	57445.58
826.482	58238.88
826.782	58863.04
827.083	59387.62
827.383	59772.63
827.684	59986.59
827.984	60067.56
828.284	59975.63
828.585	59752.45
828.885	59443.92
829.185	58993.81
829.485	58433.25
829.785	57758.15
830.085	56921.93
830.385	56045.74
830.685	55104.77
830.985	54050.22
831.285	52977.8
831.584	51864.49
831.884	50711.78
832.183	49538.02
832.483	48324.21
832.782	47043.29
833.082	45755.52
833.381	44472.22
833.681	43227.33
833.98	42058.75
834.279	40914.49
834.578	39805.3
834.877	38769.54
835.176	37753.97
835.475	36813.42
835.774	35922.8
836.073	35050.83
836.372	34221.45
836.671	33404.21
836.969	32599.2
837.268	31851.7
837.567	31136.82
837.865	30437.48
838.164	29756.57
838.462	29098.23
838.761	28478.92
839.059	27896.22
839.357	27345.31
839.655	26808.03
839.953	26269.99
840.252	25741.43
840.55	25217.22
840.848	24705.55
841.146	24210.74
841.443	23711.98
841.741	23201.33
842.039	22696.48
842.337	22189.68
842.634	21724.1
842.932	21278.67
843.229	20853.47
843.527	20433.33
843.824	19991.06
844.122	19543.06
844.419	19118.92
844.716	18686.96
845.013	18270.13
845.311	17874.47
845.608	17501.92
845.905	17136.42
846.202	16773.19
846.499	16402.55
846.796	16036.97
847.092	15667.74
847.389	15297.71
847.686	14959.67
847.982	14642.21
848.279	14327.82
848.576	14038.81
848.872	13745.36
849.168	13453.8
849.465	13168.93
849.761	12878.43
850.057	12601.09
850.354	12335.57
850.65	12079.99
850.946	11847.63
851.242	11626.53
851.538	11409.73
851.834	11187.49
852.13	10968.8
852.425	10770.08
852.721	10588.25
853.017	10418.58
853.312	10267.95
853.608	10120.7
853.903	9974.81
854.199	9829.02
854.494	9696.24
854.79	9562.79
855.085	9428.28
855.38	9298.56
855.675	9167.84
855.971	9048.76
856.266	8947.5
856.561	8852.51
856.856	8762.5
857.151	8670.45
857.445	8571
857.74	8467.23
858.035	8372.61
858.33	8278.48
858.624	8192.49
858.919	8113.45
859.213	8028.75
859.508	7941.95
859.802	7851.47
860.096	7768.6
860.391	7704.46
860.685	7641.65
860.979	7580.72
861.273	7530.35
861.567	7471.63
861.861	7406.23
862.155	7349.4
862.449	7281.51
862.743	7213.63
863.037	7153.55
863.33	7096.5
863.624	7041.44
863.918	6997.91
864.211	6955.64
864.505	6920.64
864.798	6881.69
865.092	6832.07
865.385	6784.95
865.678	6734.22
865.971	6701.77
866.264	6670.21
866.558	6641.53
866.851	6609.06
867.144	6581.94
867.437	6546.41
867.729	6518.12
868.022	6497.49
868.315	6478.1
868.608	6466.79
868.9	6461.56
869.193	6442.09
869.485	6414.23
869.778	6390.78
870.07	6363.03
870.363	6342.35
870.655	6327.66
870.947	6318.63
871.239	6314.91
871.532	6316.88
871.824	6321.16
872.116	6316.32
872.408	6311.57
872.699	6293.12
872.991	6285.59
873.283	6278.28
873.575	6278.9
873.867	6285.36
874.158	6289.81
874.45	6288.12
874.741	6282.13
875.033	6280.18
875.324	6295.55
875.615	6320.63
875.907	6345.6
876.198	6363.09
876.489	6375.41
876.78	6379.01
877.071	6377.82
877.362	6379.24
877.653	6381.45
877.944	6391.17
878.235	6403.84
878.526	6413.29
878.816	6434.81
