Data from 24HourExp_27052025_FLMS018081_03-08-22-238.txt Node
Date: Wed May 28 03:08:22 BST 2025
User: adleo
Spectrometer: FLMS01808
Trigger mode: 0
Integration Time (sec): 4.000000E-1
Scans to average: 10
Electric dark correction enabled: true
Nonlinearity correction enabled: true
Boxcar width: 10
XAxis mode: Wavelengths
Number of Pixels in Spectrum: 2048
>>>>>Begin Spectral Data<<<<<
178.471	-134.46
178.857	-126.26
179.244	-118.14
179.631	-111
180.017	-101.33
180.404	-92.47
180.79	-82.1
181.176	-72.51
181.563	-63.56
181.949	-52.79
182.335	-42.9
182.722	-25.89
183.108	-5.42
183.494	22.22
183.88	75.42
184.266	130.48
184.653	186.75
185.039	240.12
185.425	295.88
185.811	350.37
186.197	404.02
186.582	455.32
186.968	506.24
187.354	558.78
187.74	610.25
188.126	659.99
188.511	709.56
188.897	756.44
189.283	803.03
189.668	849.56
190.054	893.77
190.439	938
190.825	982.57
191.21	1022.89
191.596	1056.57
191.981	1063.29
192.366	1066.28
192.752	1068.45
193.137	1073.3
193.522	1072.92
193.908	1072.53
194.293	1076.07
194.678	1078.02
195.063	1079.97
195.448	1081.3
195.833	1081.26
196.218	1080.92
196.603	1081.08
196.988	1083.01
197.373	1084.37
197.757	1083.96
198.142	1083.87
198.527	1082.16
198.912	1082.07
199.296	1081.5
199.681	1078.08
200.066	1077.16
200.45	1076.37
200.835	1075.64
201.219	1074.61
201.604	1073.02
201.988	1075.64
202.372	1075.5
202.757	1076.07
203.141	1077.5
203.525	1076.86
203.91	1078.3
204.294	1077.9
204.678	1077.64
205.062	1076.44
205.446	1074.82
205.83	1076.72
206.214	1075.55
206.598	1078.33
206.982	1078.03
207.366	1078.11
207.75	1081.7
208.134	1083.92
208.517	1084.77
208.901	1085.97
209.285	1088.98
209.669	1090.95
210.052	1090.8
210.436	1090.03
210.819	1088.62
211.203	1088.25
211.586	1090.05
211.97	1091.34
212.353	1093.44
212.737	1095.14
213.12	1097.14
213.503	1099.42
213.886	1099.14
214.27	1102.7
214.653	1104.49
215.036	1105.3
215.419	1106.78
215.802	1107.32
216.185	1108.1
216.568	1112.66
216.951	1114.7
217.334	1115.65
217.717	1120.13
218.1	1122.39
218.482	1126.42
218.865	1131.77
219.248	1137.48
219.631	1140.53
220.013	1145.02
220.396	1152.68
220.778	1158.86
221.161	1164.83
221.544	1171.77
221.926	1180.43
222.308	1186.69
222.691	1193.28
223.073	1201.99
223.455	1211.74
223.838	1221.47
224.22	1231.05
224.602	1242.44
224.984	1254.09
225.366	1265.96
225.749	1280.34
226.131	1293.65
226.513	1307.34
226.895	1321.27
227.276	1334.08
227.658	1349.39
228.04	1364.08
228.422	1378.53
228.804	1393.01
229.186	1407.95
229.567	1425.68
229.949	1442.45
230.331	1460.9
230.712	1479.3
231.094	1497.11
231.475	1516.1
231.857	1536.18
232.238	1556.51
232.62	1571.91
233.001	1591.03
233.382	1612.51
233.763	1629.97
234.145	1650.99
234.526	1669.55
234.907	1689.47
235.288	1708.97
235.669	1728.56
236.05	1748.34
236.431	1766.38
236.812	1788.2
237.193	1810.61
237.574	1830.04
237.955	1850.96
238.336	1871.36
238.717	1892.67
239.097	1916.77
239.478	1936.93
239.859	1959.44
240.239	1982.19
240.62	2008.89
241.001	2031.54
241.381	2054.04
241.762	2077.55
242.142	2101.82
242.522	2126.71
242.903	2151.99
243.283	2178.14
243.663	2204.06
244.044	2235.04
244.424	2263.91
244.804	2290.57
245.184	2318.56
245.564	2347.42
245.944	2377.64
246.324	2409.55
246.704	2441.16
247.084	2470.35
247.464	2504.65
247.844	2537.85
248.224	2569.28
248.604	2600.37
248.983	2631.6
249.363	2663.94
249.743	2695.92
250.122	2725.3
250.502	2758.17
250.882	2789.36
251.261	2822.99
251.641	2855.13
252.02	2884.19
252.399	2918.81
252.779	2957.08
253.158	2993.92
253.537	3032.03
253.917	3074.53
254.296	3112.82
254.675	3151.08
255.054	3190.38
255.433	3231.42
255.812	3270.03
256.191	3312.7
256.57	3353.75
256.949	3396.77
257.328	3440.78
257.707	3484.84
258.086	3534.4
258.465	3582.82
258.843	3635.7
259.222	3685.56
259.601	3739.26
259.979	3795.02
260.358	3851.26
260.736	3904
261.115	3959
261.493	4014.9
261.872	4066.64
262.25	4123.43
262.629	4179.53
263.007	4240.1
263.385	4299.41
263.763	4365.01
264.142	4426.94
264.52	4493.06
264.898	4560.66
265.276	4627.14
265.654	4698.22
266.032	4766.63
266.41	4834.89
266.788	4906.73
267.166	4980.8
267.544	5058.07
267.921	5135.6
268.299	5211.25
268.677	5291.76
269.055	5374.9
269.432	5458.48
269.81	5541.95
270.188	5628.67
270.565	5719.12
270.943	5808.96
271.32	5896.98
271.697	5987.96
272.075	6084.2
272.452	6180.84
272.829	6279.06
273.207	6377.86
273.584	6482.42
273.961	6589.6
274.338	6703.52
274.715	6817.51
275.092	6937.99
275.469	7055.35
275.846	7176.67
276.223	7298.98
276.6	7418.97
276.977	7545.78
277.354	7673.07
277.731	7803.14
278.108	7933.75
278.484	8062.94
278.861	8196.57
279.238	8339.46
279.614	8479.36
279.991	8622.72
280.367	8763.91
280.744	8913.04
281.12	9063.2
281.497	9208.83
281.873	9361.16
282.249	9510.99
282.625	9655.61
283.002	9801.05
283.378	9953.36
283.754	10102.8
284.13	10257.87
284.506	10415.86
284.882	10569.35
285.258	10722.65
285.634	10876.91
286.01	11037.53
286.386	11201.11
286.762	11367.52
287.138	11528.6
287.513	11691.68
287.889	11853.33
288.265	12020.9
288.641	12179.5
289.016	12337.89
289.392	12501.9
289.767	12663.75
290.143	12827.45
290.518	12990.97
290.894	13155.79
291.269	13313.44
291.644	13469.88
292.02	13624.22
292.395	13777.76
292.77	13936.16
293.145	14094.75
293.52	14255.39
293.895	14405.75
294.27	14555.11
294.646	14705.03
295.02	14851.76
295.395	15003.91
295.77	15162.01
296.145	15315.2
296.52	15474.78
296.895	15633.04
297.269	15785.17
297.644	15934.34
298.019	16085.37
298.393	16237.96
298.768	16390.94
299.143	16543.95
299.517	16699.76
299.891	16858.33
300.266	17024.47
300.64	17179.51
301.015	17342.45
301.389	17510.03
301.763	17683.38
302.137	17858.57
302.512	18039.58
302.886	18217.74
303.26	18399.07
303.634	18576.61
304.008	18750.16
304.382	18926.81
304.756	19109.26
305.13	19299.32
305.504	19487.35
305.877	19677.97
306.251	19886.97
306.625	20079.59
306.999	20290.36
307.372	20501.54
307.746	20721.47
308.119	20928.9
308.493	21147.11
308.866	21360.59
309.24	21570.25
309.613	21774.82
309.987	21982.16
310.36	22174.53
310.733	22388.26
311.107	22604.35
311.48	22822.25
311.853	23050.91
312.226	23276.53
312.599	23511.69
312.972	23736.1
313.345	23963.56
313.718	24191.79
314.091	24412.63
314.464	24653.32
314.837	24869.04
315.21	25084.92
315.582	25302.19
315.955	25518.02
316.328	25735.51
316.7	25947.72
317.073	26171.18
317.446	26402.93
317.818	26635.34
318.191	26872.31
318.563	27086.13
318.936	27295.91
319.308	27499.56
319.68	27704.78
320.053	27900.61
320.425	28081.68
320.797	28261.55
321.169	28427.14
321.541	28579.63
321.913	28709.94
322.285	28821.8
322.657	28952.58
323.029	29099.58
323.401	29238.75
323.773	29397.88
324.145	29566.66
324.517	29756.56
324.889	29934.82
325.26	30134.24
325.632	30343.11
326.004	30578.08
326.375	30842.47
326.747	31115.2
327.118	31419.54
327.49	31710.42
327.861	32026.57
328.233	32335.03
328.604	32642.22
328.975	32956.9
329.346	33265.42
329.718	33577.97
330.089	33885.96
330.46	34184.18
330.831	34451.82
331.202	34711.41
331.573	34965.73
331.944	35199.08
332.315	35427.76
332.686	35645.11
333.057	35840.52
333.428	36022.02
333.799	36190.87
334.169	36339.31
334.54	36481.12
334.911	36598.16
335.281	36727.9
335.652	36848.2
336.022	36985.88
336.393	37136.11
336.763	37300.95
337.134	37484.34
337.504	37679.64
337.874	37886.31
338.245	38083.07
338.615	38309.07
338.985	38535.01
339.355	38747.48
339.726	38968.32
340.096	39181.46
340.466	39434.72
340.836	39679
341.206	39931.48
341.576	40170.76
341.945	40418.03
342.315	40649.63
342.685	40894.33
343.055	41138.59
343.425	41385.17
343.794	41619.88
344.164	41848.62
344.533	42080.51
344.903	42306.54
345.273	42543.54
345.642	42771.35
346.011	43005.66
346.381	43242.68
346.75	43471.95
347.12	43720.6
347.489	43969.31
347.858	44223.03
348.227	44430.23
348.596	44657.9
348.965	44887.55
349.334	45121.93
349.704	45365.05
350.072	45611.55
350.441	45842.23
350.81	46081
351.179	46306.76
351.548	46539.3
351.917	46769.28
352.285	46964.28
352.654	47174.31
353.023	47380.39
353.391	47569.98
353.76	47785.95
354.129	47964.62
354.497	48197.66
354.865	48419.47
355.234	48653.91
355.602	48868.3
355.971	49114.42
356.339	49326.48
356.707	49548.47
357.075	49769.08
357.443	49986.38
357.811	50201.08
358.18	50413.04
358.548	50627.66
358.916	50835.21
359.284	51049.13
359.651	51265.72
360.019	51487.39
360.387	51689.94
360.755	51885.9
361.123	52126.41
361.49	52352.86
361.858	52571.54
362.226	52774.85
362.593	52972.14
362.961	53150.79
363.328	53355.47
363.696	53521.23
364.063	53737.59
364.43	53937.51
364.798	54142.39
365.165	54323.13
365.532	54507.49
365.899	54700.44
366.267	54863.6
366.634	55010.8
367.001	55180.02
367.368	55316.9
367.735	55497.21
368.102	55673.7
368.469	55869.03
368.835	56045.71
369.202	56211.74
369.569	56404.74
369.936	56587.87
370.303	56781.04
370.669	56975.47
371.036	57139.7
371.402	57348.29
371.769	57523.93
372.135	57672.72
372.502	57801.88
372.868	57947.54
373.235	58087.86
373.601	58218.9
373.967	58393.85
374.333	58583.68
374.7	58760.63
375.066	58964.75
375.432	59148.15
375.798	59330.52
376.164	59494.76
376.53	59636.28
376.896	59792.2
377.262	59970.25
377.628	60095.26
377.993	60235.84
378.359	60380.48
378.725	60536.81
379.091	60690.35
379.456	60825.8
379.822	60966.56
380.187	61115.5
380.553	61299.64
380.918	61497.89
381.284	61679.38
381.649	61850.73
382.015	61992.93
382.38	62111.94
382.745	62276.77
383.11	62427.07
383.476	62568.38
383.841	62690.49
384.206	62855.5
384.571	62984.42
384.936	63109.89
385.301	63283.41
385.666	63412.4
386.031	63565.83
386.396	63727.6
386.76	63870.56
387.125	64056.57
387.49	64252.48
387.855	64449.73
388.219	64610.24
388.584	64774.15
388.948	64961.13
389.313	65122.17
389.677	65332.3
390.042	65568.23
390.406	65716.02
390.771	65906.39
391.135	66094.32
391.499	66336.33
391.863	66564.37
392.227	66796.96
392.592	66992.94
392.956	67195.94
393.32	67399.45
393.684	67613.62
394.048	67786.4
394.412	67969.65
394.775	68112.27
395.139	68264.02
395.503	68421.78
395.867	68584.18
396.231	68730.08
396.594	68828.44
396.958	68967.65
397.321	69115.1
397.685	69240.08
398.048	69385.38
398.412	69518.5
398.775	69645.72
399.139	69776.24
399.502	69883.94
399.865	70031.7
400.228	70219.9
400.592	70352.72
400.955	70549.05
401.318	70683.09
401.681	70838.9
402.044	70978.27
402.407	71151.67
402.77	71309.16
403.133	71498.27
403.496	71637.41
403.859	71789.41
404.221	72032.35
404.584	72268.44
404.947	72506.68
405.309	72709.99
405.672	72946.57
406.034	73168.61
406.397	73419.02
406.759	73639.96
407.122	73815.74
407.484	73993.05
407.847	74184.89
408.209	74425.56
408.571	74652.83
408.933	74918.29
409.296	75174.11
409.658	75411.29
410.02	75671
410.382	75970.16
410.744	76221.18
411.106	76505.29
411.468	76780.63
411.83	77012.48
412.191	77206.62
412.553	77382.9
412.915	77592.66
413.277	77793.21
413.638	77983.53
414	78151.81
414.361	78315.7
414.723	78542.2
415.084	78742.91
415.446	78902.02
415.807	79033.6
416.169	79133.25
416.53	79210.97
416.891	79307.96
417.252	79424.72
417.614	79498.21
417.975	79536.99
418.336	79581.79
418.697	79628.5
419.058	79667.37
419.419	79698.01
419.78	79731.16
420.141	79755.11
420.501	79778.05
420.862	79794.6
421.223	79809.06
421.584	79838.8
421.944	79853.16
422.305	79863.04
422.666	79869.71
423.026	79874.14
423.387	79884.97
423.747	79894.37
424.107	79903.81
424.468	79913.32
424.828	79919.23
425.188	79922.99
425.549	79930.3
425.909	79934.76
426.269	79932.88
426.629	79938.34
426.989	79942.85
427.349	79946.32
427.709	79949.38
428.069	79951.75
428.429	79957.25
428.789	79963.23
429.149	79966.37
429.508	79970.43
429.868	79974.72
430.228	79979.93
430.587	79983.73
430.947	79986.76
431.306	79989.27
431.666	79994.01
432.025	79994.37
432.385	79996.81
432.744	79999.22
433.103	79999.59
433.463	80001.36
433.822	80008.71
434.181	80012.44
434.54	80013.25
434.899	80017.06
435.258	80019.39
435.618	80020.53
435.976	80021.94
436.335	80022.71
436.694	80023.93
437.053	80024.12
437.412	80024.08
437.771	80023.71
438.129	80025.56
438.488	80027.52
438.847	80028.41
439.205	80027.41
439.564	80029.15
439.922	80031.51
440.281	80031.36
440.639	80033.77
440.997	80035.02
441.356	80036.28
441.714	80035.47
442.072	80036.47
442.431	80037.5
442.789	80037.21
443.147	80037.8
443.505	80038.8
443.863	80039.94
444.221	80040.61
444.579	80041.94
444.937	80043.53
445.294	80044.79
445.652	80044.68
446.01	80043.38
446.368	80044.05
446.725	80044.27
447.083	80044.45
447.441	80044.08
447.798	80045.49
448.156	80046.04
448.513	80045.67
448.87	80045.45
449.228	80045.53
449.585	80044.68
449.942	80043.09
450.3	80044.19
450.657	80045.08
451.014	80045.27
451.371	80043.75
451.728	80042.75
452.085	80044.16
452.442	80042.94
452.799	80040.94
453.156	80040.35
453.513	80042.31
453.869	80042.09
454.226	80042.75
454.583	80042.57
454.939	80041.16
455.296	80041.16
455.653	80039.68
456.009	80040.57
456.366	80039.91
456.722	80041.16
457.078	80041.13
457.435	80043.23
457.791	80045.49
458.147	80045.79
458.503	80045.38
458.86	80045.9
459.216	80047.49
459.572	80046.56
459.928	80046.23
460.284	80048.45
460.64	80049.82
460.996	80049
461.351	80050.19
461.707	80048.78
462.063	80049.97
462.419	80050.19
462.774	80049.52
463.13	80050.11
463.486	80049.71
463.841	80052.44
464.197	80051.93
464.552	80052.74
464.908	80051.59
465.263	80049.93
465.618	80049.59
465.974	80050.74
466.329	80050.59
466.684	80051.59
467.039	80051.63
467.394	80054.74
467.749	80055.66
468.104	80055.11
468.459	80057.18
468.814	80058.47
469.169	80060.25
469.524	80061.62
469.879	80063.1
470.233	80063.47
470.588	80065.76
470.943	80067.98
471.297	80069.57
471.652	80071.35
472.006	80072.31
472.361	80074.79
472.715	80075.79
473.07	80076.56
473.424	80077.56
473.778	80079.41
474.133	80078.56
474.487	80080.26
474.841	80079.6
475.195	80080.19
475.549	80081.15
475.903	80081.3
476.257	80080.93
476.611	80084.11
476.965	80083.04
477.319	80083.82
477.673	80084
478.026	80084.15
478.38	80082.63
478.734	80081.82
479.087	80081.56
479.441	80082.97
479.795	80082.23
480.148	80083.85
480.502	80084.85
480.855	80084.74
481.208	80085.7
481.562	80086.78
481.915	80086.63
482.268	80087.11
482.621	80088.07
482.974	80087.3
483.328	80087.96
483.681	80087.96
484.034	80085.89
484.387	80086.41
484.739	80086.3
485.092	80088.78
485.445	80090.15
485.798	80091.74
486.151	80091.14
486.503	80091.77
486.856	80091.51
487.209	80092
487.561	80092.44
487.914	80092.92
488.266	80094.51
488.618	80093.88
488.971	80094.7
489.323	80094.03
489.675	80094.14
490.028	80092.55
490.38	80092.59
490.732	80092.48
491.084	80092.66
491.436	80094
491.788	80094.99
492.14	80096.85
492.492	80095.55
492.844	80095.07
493.196	80095.4
493.548	80096.22
493.899	80095.73
494.251	80094.85
494.603	80094.25
494.954	80093.55
495.306	80092.03
495.657	80089.96
496.009	80091
496.36	80090
496.712	80090.63
497.063	80090.29
497.414	80090.96
497.765	80092.48
498.117	80092.74
498.468	80092.88
498.819	80091.18
499.17	80090.03
499.521	80087.74
499.872	80087.41
500.223	80088.11
500.574	80089.59
500.924	80088.81
501.275	80089.29
501.626	80088.92
501.977	80088.59
502.327	80087.48
502.678	80089.11
503.029	80090.55
503.379	80089.22
503.73	80089.41
504.08	80089.26
504.43	80089.29
504.781	80088.67
505.131	80089.37
505.481	80089
505.831	80089.15
506.182	80089.29
506.532	80089.78
506.882	80090.52
507.232	80092.29
507.582	80091.15
507.932	80089.37
508.281	80090.18
508.631	80090.63
508.981	80091.96
509.331	80092.55
509.681	80093.07
510.03	80092.07
510.38	80091.26
510.729	80091.77
511.079	80092.51
511.428	80091.22
511.778	80092
512.127	80091.88
512.476	80090.48
512.826	80089.03
513.175	80089.29
513.524	80089.7
513.873	80089
514.222	80088.37
514.571	80086.81
514.92	80086.96
515.269	80086.74
515.618	80086.07
515.967	80086.22
516.316	80086.26
516.665	80085
517.014	80085.89
517.362	80084.93
517.711	80084.96
518.059	80084.67
518.408	80083.26
518.757	80084.26
519.105	80083.48
519.453	80083.67
519.802	80084.45
520.15	80084.41
520.498	80083.59
520.847	80083.3
521.195	80082.97
521.543	80083.48
521.891	80083.56
522.239	80083.59
522.587	80084.96
522.935	80086.7
523.283	80086.48
523.631	80086.78
523.979	80089.7
524.326	80088.44
524.674	80089.7
525.022	80088.48
525.369	80088.81
525.717	80091.48
526.064	80092.15
526.412	80092.96
526.759	80093.22
527.107	80091.04
527.454	80091.7
527.801	80090.96
528.149	80090.7
528.496	80092.22
528.843	80092
529.19	80091.48
529.537	80090.15
529.884	80089.78
530.231	80088.56
530.578	80088.44
530.925	80087.96
531.272	80086.3
531.619	80086.96
531.966	80088
532.312	80089.18
532.659	80088.89
533.006	80086.7
533.352	80087.59
533.699	80088.44
534.045	80088.26
534.392	80088.96
534.738	80090.33
535.084	80092.03
535.431	80093.48
535.777	80092.74
536.123	80094.48
536.469	80094.55
536.815	80095.11
537.161	80094.4
537.507	80093
537.853	80093.62
538.199	80093
538.545	80092.51
538.891	80093.18
539.237	80091.66
539.582	80092.96
539.928	80093.44
540.274	80094.7
540.619	80095.25
540.965	80092.96
541.31	80093.14
541.656	80094.25
542.001	80093.18
542.347	80092.96
542.692	80091.74
543.037	80093
543.382	80092.37
543.728	80092.85
544.073	80092.96
544.418	80090.78
544.763	80091.96
545.108	80089.89
545.453	80089.89
545.798	80090.63
546.142	80088.52
546.487	80089.37
546.832	80088.63
547.177	80087.44
547.521	80083.78
547.866	80083
548.211	80084.78
548.555	80084.89
548.9	80082.93
549.244	80082.3
549.588	80082.56
549.933	80082.38
550.277	80082.78
550.621	80083.34
550.965	80081.97
551.31	80082.04
551.654	80084.52
551.998	80085.34
552.342	80087.08
552.686	80088.22
553.03	80087.08
553.373	80088.41
553.717	80087.93
554.061	80087.15
554.405	80087.82
554.748	80089.26
555.092	80089.11
555.436	80087.37
555.779	80088.04
556.123	80089.74
556.466	80091.37
556.81	80091.55
557.153	80092.81
557.496	80089.63
557.839	80090.22
558.183	80091.18
558.526	80090.37
558.869	80090.7
559.212	80088.85
559.555	80089.26
559.898	80088.56
560.241	80089
560.584	80089.92
560.927	80088.85
561.269	80088.11
561.612	80088.7
561.955	80089.15
562.297	80087.3
562.64	80088.22
562.983	80087.96
563.325	80088.37
563.668	80087.19
564.01	80086.33
564.352	80085.34
564.695	80087.04
565.037	80085.85
565.379	80086.04
565.721	80086.85
566.063	80086.41
566.406	80086.67
566.748	80085.48
567.09	80084.78
567.431	80083.82
567.773	80082.71
568.115	80082.34
568.457	80081.97
568.799	80081.82
569.14	80081.86
569.482	80081.3
569.824	80080.93
570.165	80079.56
570.507	80079.45
570.848	80080.15
571.19	80079.75
571.531	80079.08
571.872	80078.93
572.214	80079.01
572.555	80079.34
572.896	80078.97
573.237	80078.01
573.578	80079.41
573.919	80080.23
574.26	80080.89
574.601	80080.71
574.942	80079.71
575.283	80081.34
575.624	80081.52
575.964	80081.82
576.305	80083.6
576.646	80085.48
576.986	80085.37
577.327	80085.74
577.667	80085.3
578.008	80084.78
578.348	80085.41
578.689	80086.67
579.029	80087.44
579.369	80087.18
579.71	80088.04
580.05	80087.55
580.39	80088
580.73	80088
581.07	80087.89
581.41	80087.67
581.75	80088.78
582.09	80089.55
582.43	80088.41
582.769	80090.33
583.109	80088.04
583.449	80086
583.789	80085.26
584.128	80084.96
584.468	80082.63
584.807	80083.23
585.147	80083.19
585.486	80082.71
585.825	80080.97
586.165	80081.26
586.504	80079.9
586.843	80078.34
587.182	80078.6
587.522	80078.08
587.861	80076.34
588.2	80075.57
588.539	80074.16
588.878	80074.75
589.216	80074.46
589.555	80075.05
589.894	80074.34
590.233	80075.75
590.572	80075.71
590.91	80075.64
591.249	80075.49
591.587	80078.52
591.926	80077.56
592.264	80077.49
592.603	80076.49
592.941	80077.38
593.279	80076.08
593.618	80075.6
593.956	80076.27
594.294	80076.45
594.632	80074.71
594.97	80074.97
595.308	80074.49
595.646	80075.38
595.984	80074.05
596.322	80074.31
596.66	80074.57
596.998	80074.34
597.335	80074.08
597.673	80074.31
598.011	80073.97
598.348	80074.08
598.686	80071.49
599.023	80071.16
599.361	80070.42
599.698	80071.09
600.035	80071.64
600.373	80071.72
600.71	80071.9
601.047	80070.72
601.384	80070.64
601.722	80070.94
602.059	80071.31
602.396	80071.42
602.733	80072.16
603.069	80071.9
603.406	80070.9
603.743	80070.09
604.08	80070.35
604.417	80070.72
604.753	80070.64
605.09	80070.46
605.426	80068.79
605.763	80069.76
606.099	80070.05
606.436	80069.53
606.772	80069.05
607.109	80068.02
607.445	80068.46
607.781	80067.65
608.117	80067.91
608.453	80069.35
608.79	80070.31
609.126	80070.5
609.462	80069.31
609.798	80068.09
610.133	80068.39
610.469	80068.65
610.805	80068.28
611.141	80067.61
611.477	80065.69
611.812	80066.17
612.148	80064.84
612.483	80065.72
612.819	80066.43
613.154	80066.8
613.49	80067.06
613.825	80066.72
614.16	80065.95
614.496	80064.98
614.831	80066.39
615.166	80065.76
615.501	80061.95
615.836	80062.36
616.171	80061.1
616.506	80059.99
616.841	80059.95
617.176	80059.84
617.511	80059.06
617.846	80058.29
618.18	80057.14
618.515	80057.36
618.85	80056.07
619.184	80056.84
619.519	80056.55
619.853	80055.29
620.188	80053.15
620.522	80053.89
620.856	80053.03
621.191	80052.15
621.525	80052.48
621.859	80051.26
622.193	80050.41
622.527	80051.44
622.861	80051.33
623.195	80051
623.529	80050.96
623.863	80051.22
624.197	80050.19
624.531	80050.22
624.865	80049.22
625.198	80048.41
625.532	80047.75
625.866	80047.49
626.199	80047.12
626.533	80046.67
626.866	80046.45
627.2	80045.67
627.533	80043.49
627.866	80044.16
628.2	80045.82
628.533	80044.56
628.866	80045.49
629.199	80045.56
629.532	80046.12
629.865	80045.42
630.198	80044.6
630.531	80046.23
630.864	80044.27
631.197	80045.16
631.529	80045.27
631.862	80046.08
632.195	80046.15
632.527	80046.15
632.86	80046.93
633.193	80047.08
633.525	80046.93
633.857	80047.67
634.19	80047.78
634.522	80047.89
634.854	80048.23
635.187	80046.97
635.519	80047.04
635.851	80047.01
636.183	80047.26
636.515	80047.08
636.847	80047.34
637.179	80048.08
637.511	80047.26
637.843	80049
638.174	80047.15
638.506	80045.9
638.838	80046.67
639.17	80046.86
639.501	80047.52
639.833	80045.93
640.164	80046.78
640.496	80048.41
640.827	80048.34
641.158	80049.85
641.49	80050.11
641.821	80049.48
642.152	80049.82
642.483	80048.89
642.814	80047.75
643.145	80047.08
643.476	80046.89
643.807	80046.93
644.138	80045.08
644.469	80044.68
644.8	80044.05
645.131	80044.12
645.461	80045.16
645.792	80043.53
646.122	80043.6
646.453	80042.68
646.784	80042.31
647.114	80041.13
647.444	80040.24
647.775	80039.87
648.105	80038.43
648.435	80038.5
648.765	80038.17
649.096	80037.46
649.426	80037.98
649.756	80037.17
650.086	80037.09
650.416	80037.21
650.746	80034.1
651.075	80035.36
651.405	80036.17
651.735	80034.47
652.065	80034.77
652.394	80034.54
652.724	80035.17
653.054	80035.43
653.383	80035.5
653.712	80036.36
654.042	80035.62
654.371	80034.43
654.701	80033.58
655.03	80034.54
655.359	80034.28
655.688	80033.84
656.017	80033.73
656.346	80034.54
656.675	80036.39
657.004	80036.43
657.333	80034.91
657.662	80037.17
657.991	80036.06
658.32	80035.17
658.648	80036.17
658.977	80036.69
659.306	80034.91
659.634	80033.8
659.963	80033.84
660.291	80033.29
660.619	80031.96
660.948	80033.14
661.276	80032.14
661.604	80032.21
661.933	80030.88
662.261	80030
662.589	80029.07
662.917	80029.48
663.245	80027.74
663.573	80025.56
663.901	80025.41
664.229	80026.52
664.556	80025.89
664.884	80026.45
665.212	80025.97
665.539	80025.34
665.867	80025.04
666.195	80025.48
666.522	80026.15
666.85	80026.33
667.177	80027.63
667.504	80028.18
667.832	80025.15
668.159	80024.97
668.486	80024.15
668.813	80023.78
669.14	80022.82
669.467	80023.23
669.794	80023.12
670.121	80021.9
670.448	80020.01
670.775	80019.94
671.102	80018.28
671.429	80018.83
671.755	80018.61
672.082	80017.54
672.409	80017.21
672.735	80016.24
673.062	80017.46
673.388	80016.98
673.714	80017.39
674.041	80015.14
674.367	80014.28
674.693	80016.98
675.019	80017.39
675.346	80017.69
675.672	80018.02
675.998	80018.46
676.324	80017.69
676.65	80015.36
676.976	80017.02
677.301	80017.87
677.627	80017.2
677.953	80016.87
678.279	80015.32
678.604	80015.47
678.93	80016.43
679.255	80017.76
679.581	80017.09
679.906	80014.8
680.232	80014.88
680.557	80012.88
680.882	80012.18
681.208	80012.47
681.533	80009.37
681.858	80009.22
682.183	80008.78
682.508	80007.19
682.833	80006.15
683.158	80007.3
683.483	80008.59
683.808	80007.78
684.132	80008.11
684.457	80007.3
684.782	80007.41
685.106	80006.6
685.431	80004.49
685.755	80003.01
686.08	79999.43
686.404	79999.43
686.729	79999.8
687.053	79997.87
687.377	79997.13
687.701	79998.98
688.026	79997.69
688.35	79998.43
688.674	79997.84
688.998	79995.8
689.322	79995.14
689.646	79995.69
689.97	79993.26
690.293	79991.59
690.617	79989.52
690.941	79987.53
691.264	79984.94
691.588	79983.13
691.912	79982.58
692.235	79983.13
692.559	79982.13
692.882	79981.88
693.205	79978
693.529	79976.34
693.852	79975.01
694.175	79971.57
694.498	79966.84
694.821	79964.41
695.144	79960.68
695.467	79957.5
695.79	79954.18
696.113	79950.12
696.436	79944.58
696.759	79938.27
697.082	79934.1
697.404	79929.63
697.727	79922.37
698.049	79915.51
698.372	79903.9
698.694	79889.49
699.017	79871.85
699.339	79852.75
699.662	79831.12
699.984	79798.32
700.306	79755.44
700.628	79693.17
700.95	79612.21
701.272	79513.6
701.594	79400.34
701.916	79288.63
702.238	79160.48
702.56	78977.56
702.882	78798.61
703.204	78635.67
703.525	78456.6
703.847	78230.97
704.169	78018.4
704.49	77790.38
704.812	77553.09
705.133	77316.59
705.455	77072.89
705.776	76806.77
706.097	76557.64
706.419	76297.61
706.74	76026.95
707.061	75747.82
707.382	75451.53
707.703	75151.26
708.024	74882.42
708.345	74600.81
708.666	74300.41
708.987	73993.33
709.307	73744.86
709.628	73449.24
709.949	73128.52
710.27	72803.9
710.59	72541.28
710.911	72240.52
711.231	71935.05
711.552	71663.39
711.872	71334.7
712.192	71059.28
712.512	70799.28
712.833	70526.6
713.153	70246.95
713.473	70003.69
713.793	69760.35
714.113	69547.37
714.433	69345.14
714.753	69133.29
715.073	68939.72
715.393	68738.25
715.712	68576.17
716.032	68365.06
716.352	68195.97
716.671	68042.34
716.991	67879.64
717.31	67686.89
717.63	67532.73
717.949	67358.66
718.268	67145.11
718.588	66975.13
718.907	66749.65
719.226	66493.37
719.545	66247.02
719.864	65976.43
720.183	65707.36
720.502	65435.55
720.821	65157.9
721.14	64880.2
721.459	64570.93
721.778	64293.02
722.096	63974.14
722.415	63669.7
722.734	63402.41
723.052	63121.54
723.371	62831.15
723.689	62551.87
724.008	62270.69
724.326	61969.86
724.644	61705.8
724.963	61442.62
725.281	61210.85
725.599	60977.59
725.917	60788.17
726.235	60591.02
726.553	60436.27
726.871	60245.94
727.189	60046.41
727.507	59850.28
727.824	59689.75
728.142	59553.93
728.46	59353.39
728.777	59249.37
729.095	59115.31
729.413	58968.26
729.73	58825.41
730.047	58689.64
730.365	58576.65
730.682	58461.35
730.999	58382.78
731.317	58310.6
731.634	58221.52
731.951	58098.95
732.268	57976.96
732.585	57830.28
732.902	57666.79
733.219	57500.23
733.536	57329.58
733.852	57202.25
734.169	57075.65
734.486	56929.88
734.802	56773.87
735.119	56660.6
735.435	56489.38
735.752	56325.84
736.068	56151.06
736.385	55984
736.701	55791.51
737.017	55564.4
737.333	55320.68
737.65	55006.92
737.966	54627.36
738.282	54246.08
738.598	53840.56
738.914	53385.18
739.23	52896.42
739.545	52382.89
739.861	51837.41
740.177	51286
740.493	50694.93
740.808	50116.16
741.124	49504
741.439	48917.16
741.755	48344.62
742.07	47820.83
742.386	47261.01
742.701	46761.6
743.016	46266.54
743.331	45791.59
743.647	45363.28
743.962	44974.84
744.277	44630.36
744.592	44360.61
744.907	44134.92
745.222	43973.4
745.537	43881.22
745.851	43855.59
746.166	43868.18
746.481	43918.02
746.795	44031.48
747.11	44188.94
747.424	44362.24
747.739	44529.49
748.053	44711.88
748.368	44861.29
748.682	44975.91
748.996	45118.07
749.311	45220.1
749.625	45316.82
749.939	45421.61
750.253	45487.13
750.567	45555.39
750.881	45615.22
751.195	45677.08
751.509	45746.77
751.822	45793.8
752.136	45838.78
752.45	45892.29
752.763	45964.22
753.077	46032.2
753.39	46069.21
753.704	46085.26
754.017	46102.19
754.331	46139.34
754.644	46143.26
754.957	46152.58
755.27	46162.1
755.584	46165.75
755.897	46176.16
756.21	46171.48
756.523	46148.97
756.836	46126.62
757.149	46046.3
757.461	45982.73
757.774	45891.33
758.087	45765.96
758.4	45626
758.712	45483.43
759.025	45318.53
759.337	45159.29
759.65	44994.41
759.962	44841.56
760.275	44689.09
760.587	44540.97
760.899	44398.28
761.211	44301.58
761.523	44234.9
761.836	44233.54
762.148	44243.72
762.46	44275.42
762.772	44338.83
763.083	44468.06
763.395	44616.05
763.707	44839.18
764.019	45059.77
764.33	45288.34
764.642	45548.89
764.954	45819.01
765.265	46090.56
765.577	46359.32
765.888	46603.67
766.199	46843.79
766.511	47051.52
766.822	47266.41
767.133	47449.79
767.444	47623.83
767.755	47715.29
768.066	47772.6
768.377	47762.05
768.688	47698.57
768.999	47602.74
769.31	47478.42
769.621	47289.7
769.931	47070.7
770.242	46812.37
770.553	46517.51
770.863	46185.09
771.174	45831.23
771.484	45447.4
771.794	45044.83
772.105	44639.48
772.415	44206.53
772.725	43764.68
773.035	43331.19
773.345	42878.47
773.656	42407.8
773.966	41941.99
774.276	41511.49
774.585	41079.56
774.895	40645.62
775.205	40264.47
775.515	39871.67
775.824	39482.06
776.134	39095.78
776.444	38738.56
776.753	38380.27
777.063	38041.12
777.372	37720.73
777.681	37390.25
777.991	37090.54
778.3	36794.62
778.609	36489.4
778.918	36204.66
779.228	35941.78
779.537	35682.57
779.846	35418.11
780.154	35173.78
780.463	34928.39
780.772	34684.86
781.081	34461.12
781.39	34265.58
781.698	34044.18
782.007	33840.79
782.316	33629.81
782.624	33426.16
782.932	33215.54
783.241	33022.25
783.549	32822.63
783.858	32654.78
784.166	32494.27
784.474	32319.96
784.782	32151.36
785.09	31999.16
785.398	31860.29
785.706	31715.95
786.014	31574.13
786.322	31437.37
786.63	31299.95
786.937	31181.06
787.245	31060.89
787.553	30934.12
787.86	30816.26
788.168	30693.31
788.475	30586.67
788.783	30500.47
789.09	30405.55
789.398	30315.11
789.705	30214.06
790.012	30116.89
790.319	30013.24
790.626	29906.34
790.933	29811.78
791.24	29728.53
791.547	29636.46
791.854	29542.09
792.161	29443.63
792.468	29347.81
792.774	29255.71
793.081	29173.79
793.388	29085.79
793.694	28989.49
794.001	28897.29
794.307	28772.67
794.614	28672.84
794.92	28540
795.226	28402.63
795.533	28283.69
795.839	28181.14
796.145	28069.15
796.451	27955.05
796.757	27847.37
797.063	27740.45
797.369	27628.2
797.675	27518.85
797.98	27418.95
798.286	27296.43
798.592	27195.58
798.898	27082.6
799.203	26971.87
799.509	26859.3
799.814	26737.36
800.12	26632.78
800.425	26522.64
800.73	26420.48
801.035	26303.04
801.341	26208.9
801.646	26114.64
801.951	26011.01
802.256	25910.65
802.561	25809.55
802.866	25724.59
803.171	25633
803.476	25546.15
803.78	25456.68
804.085	25360.69
804.39	25248.87
804.694	25161.49
804.999	25058.59
805.303	24962.88
805.608	24878.46
805.912	24790.01
806.216	24722.22
806.521	24655.25
806.825	24580.74
807.129	24512.37
807.433	24442.58
807.737	24372.54
808.041	24312.83
808.345	24258.11
808.649	24192.25
808.953	24143.96
809.257	24084.26
809.561	24029.91
809.864	23981.13
810.168	23944.96
810.471	23910.99
810.775	23884.36
811.078	23856.62
811.382	23832.12
811.685	23830.15
811.988	23819.51
812.292	23808.84
812.595	23799.43
812.898	23794.26
813.201	23802.33
813.504	23819.66
813.807	23849.04
814.11	23879.27
814.413	23905.78
814.716	23933.99
815.018	23987.16
815.321	24045.83
815.624	24133.15
815.926	24233.94
816.229	24349.23
816.531	24498.01
816.834	24658.48
817.136	24858.68
817.438	25074.32
817.74	25344.34
818.043	25660.76
818.345	26031.58
818.647	26490.53
818.949	27040.02
819.251	27678.17
819.553	28428.76
819.855	29287.49
820.156	30258.21
820.458	31341.52
820.76	32495.8
821.062	33716.37
821.363	34973.49
821.665	36310.25
821.966	37733.94
822.268	39182.5
822.569	40636.55
822.87	42105.57
823.171	43596.02
823.473	45119.32
823.774	46696.83
824.075	48222.2
824.376	49706.92
824.677	51182.83
824.978	52554.89
825.279	53844.88
825.58	55009.53
825.88	56039.86
826.181	56922.94
826.482	57699.24
826.782	58317.7
827.083	58830.09
827.383	59204.81
827.684	59424.62
827.984	59503.71
828.284	59412.57
828.585	59191.21
828.885	58886.85
829.185	58436.8
829.485	57878.09
829.785	57202.43
830.085	56364.33
830.385	55494.51
830.685	54565.94
830.985	53519.74
831.285	52449.58
831.584	51322.51
831.884	50172.07
832.183	49002.03
832.483	47799.16
832.782	46528.03
833.082	45248.99
833.381	43970.59
833.681	42733.68
833.98	41572.07
834.279	40441.28
834.578	39337.46
834.877	38296.78
835.176	37283.39
835.475	36348.62
835.774	35466.06
836.073	34598.6
836.372	33782.6
836.671	32969.75
836.969	32166.87
837.268	31424.19
837.567	30714.63
837.865	30031.44
838.164	29358.4
838.462	28710.78
838.761	28098.71
839.059	27526.38
839.357	26984.65
839.655	26457.64
839.953	25919.34
840.252	25392.12
840.55	24868.79
840.848	24364.14
841.146	23876.35
841.443	23382.58
841.741	22881.47
842.039	22372.76
842.337	21875.62
842.634	21418.87
842.932	20980.8
843.229	20556.9
843.527	20141.06
843.824	19704.23
844.122	19259.43
844.419	18841.91
844.716	18416.32
845.013	18008.46
845.311	17619.6
845.608	17244.15
845.905	16879.67
846.202	16525.2
846.499	16158.78
846.796	15795.69
847.092	15427.83
847.389	15061.85
847.686	14730.95
847.982	14417.35
848.279	14109.25
848.576	13823.14
848.872	13529.35
849.168	13238.63
849.465	12962.18
849.761	12674
850.057	12402.49
850.354	12141.1
850.65	11892.38
850.946	11664.48
851.242	11443.32
851.538	11226.85
851.834	11012.17
852.13	10797.02
852.425	10600.8
852.721	10422.97
853.017	10261.11
853.312	10114.48
853.608	9972.28
853.903	9829.95
854.199	9684.05
854.494	9556.18
854.79	9423.67
855.085	9291.15
855.38	9166.04
855.675	9031.76
855.971	8913.13
856.266	8811.31
856.561	8716.89
856.856	8621.62
857.151	8531.26
857.445	8434.17
857.74	8335.78
858.035	8241.15
858.33	8152.75
858.624	8069.57
858.919	7989.64
859.213	7903.02
859.508	7820.85
859.802	7732.93
860.096	7650.8
860.391	7587.62
860.685	7525.87
860.979	7470.7
861.273	7420.86
861.567	7361.73
861.861	7299.23
862.155	7241.43
862.449	7174.33
862.743	7108.81
863.037	7052.92
863.33	6996.53
863.624	6944.6
863.918	6896.19
864.211	6855.59
864.505	6822.14
864.798	6781.04
865.092	6735.52
865.385	6689.89
865.678	6640
865.971	6605.03
866.264	6573.44
866.558	6544.15
866.851	6512.75
867.144	6482.25
867.437	6447.53
867.729	6417.78
868.022	6397.66
868.315	6379.75
868.608	6366.96
868.9	6361.5
869.193	6343.7
869.485	6315.82
869.778	6293.88
870.07	6268.63
870.363	6251.04
870.655	6235.42
870.947	6227.19
871.239	6218.28
871.532	6217.54
871.824	6222.54
872.116	6218.83
872.408	6213.7
872.699	6198.39
872.991	6193.25
873.283	6187.37
873.575	6188.41
873.867	6196.42
874.158	6202.86
874.45	6201.46
874.741	6199.65
875.033	6198.4
875.324	6209.86
875.615	6230.98
875.907	6251.09
876.198	6266.88
876.489	6275.59
876.78	6276.29
877.071	6276.57
877.362	6280.88
877.653	6285.35
877.944	6290.96
878.235	6301.32
878.526	6310.91
878.816	6328.71
