Data from 24HourExp_27052025_FLMS018081_19-48-19-114.txt Node
Date: Tue May 27 19:48:19 BST 2025
User: adleo
Spectrometer: FLMS01808
Trigger mode: 0
Integration Time (sec): 4.000000E-1
Scans to average: 10
Electric dark correction enabled: true
Nonlinearity correction enabled: true
Boxcar width: 10
XAxis mode: Wavelengths
Number of Pixels in Spectrum: 2048
>>>>>Begin Spectral Data<<<<<
178.471	-127.88
178.857	-119.55
179.244	-111.62
179.631	-104.93
180.017	-96.82
180.404	-88.99
180.79	-77.35
181.176	-69.25
181.563	-60.56
181.949	-48.99
182.335	-39.85
182.722	-24.75
183.108	-5.75
183.494	21.45
183.88	76.11
184.266	131.97
184.653	188.01
185.039	242.97
185.425	298.62
185.811	352.73
186.197	405.81
186.582	457.79
186.968	509.93
187.354	562.86
187.74	615.12
188.126	665.33
188.511	716.7
188.897	763.85
189.283	813.44
189.668	860.02
190.054	902.12
190.439	949.19
190.825	993.01
191.21	1033.95
191.596	1067.14
191.981	1075.67
192.366	1078.8
192.752	1080.59
193.137	1082.96
193.522	1084.7
193.908	1086.94
194.293	1090.59
194.678	1093.8
195.063	1096.24
195.448	1097.32
195.833	1097.24
196.218	1097.54
196.603	1096.81
196.988	1097.43
197.373	1097.6
197.757	1098.28
198.142	1100.57
198.527	1098.24
198.912	1098.73
199.296	1098.21
199.681	1096.14
200.066	1095.99
200.45	1096.45
200.835	1097.57
201.219	1098.83
201.604	1097.53
201.988	1097.62
202.372	1098.3
202.757	1098.87
203.141	1098.81
203.525	1099.2
203.91	1099.92
204.294	1102.21
204.678	1104
205.062	1102.05
205.446	1102.08
205.83	1104.38
206.214	1104.66
206.598	1106.04
206.982	1107.93
207.366	1108.9
207.75	1110.78
208.134	1111.27
208.517	1111.66
208.901	1112
209.285	1112.67
209.669	1115.12
210.052	1116.49
210.436	1115.83
210.819	1114.82
211.203	1115.66
211.586	1114.61
211.97	1116.65
212.353	1114.99
212.737	1114.38
213.12	1118.86
213.503	1119.12
213.886	1118.81
214.27	1118.74
214.653	1121.01
215.036	1120.57
215.419	1120.88
215.802	1122.92
216.185	1124.14
216.568	1128.2
216.951	1130.5
217.334	1133.66
217.717	1135.63
218.1	1136.99
218.482	1141.01
218.865	1145.1
219.248	1148.18
219.631	1153.82
220.013	1158.48
220.396	1166.71
220.778	1173.33
221.161	1178.75
221.544	1185.87
221.926	1194.38
222.308	1203.15
222.691	1209.11
223.073	1219.45
223.455	1227.89
223.838	1237.53
224.22	1249.46
224.602	1259.66
224.984	1270.51
225.366	1281.74
225.749	1298.42
226.131	1312.96
226.513	1325.97
226.895	1340.99
227.276	1355.18
227.658	1370.65
228.04	1386.02
228.422	1399.96
228.804	1414.62
229.186	1429.94
229.567	1447.37
229.949	1461.31
230.331	1479.55
230.712	1499.59
231.094	1516.33
231.475	1537.13
231.857	1556.38
232.238	1574
232.62	1591.18
233.001	1612.1
233.382	1632.12
233.763	1651.18
234.145	1671.37
234.526	1691.84
234.907	1711.4
235.288	1732.79
235.669	1751.67
236.05	1771.62
236.431	1793.14
236.812	1815.87
237.193	1837.29
237.574	1858.07
237.955	1882.08
238.336	1905.51
238.717	1927.74
239.097	1952.38
239.478	1976.65
239.859	1999.81
240.239	2024.6
240.62	2051.58
241.001	2076.16
241.381	2102.28
241.762	2124.2
242.142	2149.76
242.522	2174.59
242.903	2202.23
243.283	2229.74
243.663	2258.52
244.044	2288.66
244.424	2318.29
244.804	2344.84
245.184	2375.23
245.564	2404.08
245.944	2436.63
246.324	2466.46
246.704	2497.62
247.084	2526.71
247.464	2557.44
247.844	2589.78
248.224	2621.94
248.604	2656.23
248.983	2689.33
249.363	2724.7
249.743	2755.47
250.122	2786.79
250.502	2819.03
250.882	2849.14
251.261	2883.04
251.641	2917.25
252.02	2950.02
252.399	2984.03
252.779	3023.98
253.158	3062.37
253.537	3104.59
253.917	3147.37
254.296	3186.93
254.675	3226.95
255.054	3271.01
255.433	3314.13
255.812	3357.76
256.191	3399.83
256.57	3440.02
256.949	3486.01
257.328	3529
257.707	3577.48
258.086	3627.89
258.465	3678.44
258.843	3732.72
259.222	3785.22
259.601	3840.29
259.979	3895.27
260.358	3951.52
260.736	4004.75
261.115	4061.8
261.493	4115.66
261.872	4170.87
262.25	4229.81
262.629	4290.2
263.007	4351.91
263.385	4414.69
263.763	4478.05
264.142	4544.93
264.52	4611.64
264.898	4676.15
265.276	4745.32
265.654	4819.03
266.032	4889.76
266.41	4959.92
266.788	5032.89
267.166	5111.65
267.544	5187.64
267.921	5268.93
268.299	5348.75
268.677	5431.66
269.055	5516.72
269.432	5606.91
269.81	5691.85
270.188	5781.93
270.565	5872.26
270.943	5966.24
271.32	6058.76
271.697	6152.38
272.075	6249.32
272.452	6347.6
272.829	6447.23
273.207	6545.56
273.584	6647.56
273.961	6754.21
274.338	6871.03
274.715	6984.96
275.092	7104.07
275.469	7224.87
275.846	7344.68
276.223	7468.46
276.6	7592.67
276.977	7714.38
277.354	7838
277.731	7966.41
278.108	8097.73
278.484	8230.26
278.861	8359.89
279.238	8499.09
279.614	8638.91
279.991	8780.15
280.367	8924.24
280.744	9075.44
281.12	9228.87
281.497	9379.92
281.873	9531.3
282.249	9680.07
282.625	9831.21
283.002	9977.85
283.378	10129.25
283.754	10281.01
284.13	10439.66
284.506	10600.36
284.882	10764.58
285.258	10921.78
285.634	11081.16
286.01	11241.95
286.386	11401.89
286.762	11569.62
287.138	11736.64
287.513	11903.1
287.889	12066.88
288.265	12233.49
288.641	12392.33
289.016	12554.06
289.392	12717.37
289.767	12885.6
290.143	13049.96
290.518	13212.99
290.894	13380.1
291.269	13537.36
291.644	13694.85
292.02	13846.48
292.395	13999.11
292.77	14155.05
293.145	14314.03
293.52	14470.48
293.895	14621.61
294.27	14779.62
294.646	14931.21
295.02	15078.64
295.395	15230.64
295.77	15386.31
296.145	15540.83
296.52	15697.05
296.895	15850.84
297.269	16007.19
297.644	16156.76
298.019	16311.2
298.393	16465.29
298.768	16614.63
299.143	16772.82
299.517	16927.34
299.891	17088.55
300.266	17247.74
300.64	17405.3
301.015	17572.39
301.389	17743.18
301.763	17923.26
302.137	18094.54
302.512	18278.22
302.886	18453.9
303.26	18640.57
303.634	18816.89
304.008	18995.51
304.382	19180.04
304.756	19367.07
305.13	19558.73
305.504	19740.08
305.877	19930.25
306.251	20136.26
306.625	20344.14
306.999	20551.98
307.372	20768.02
307.746	20984.78
308.119	21204.83
308.493	21421.48
308.866	21633.36
309.24	21845.03
309.613	22052.17
309.987	22266.23
310.36	22464.98
310.733	22676.36
311.107	22892.89
311.48	23121.55
311.853	23357.41
312.226	23583.35
312.599	23819.08
312.972	24043.73
313.345	24281
313.718	24516.99
314.091	24740.07
314.464	24969.79
314.837	25196.15
315.21	25409.22
315.582	25632.47
315.955	25843.8
316.328	26062.16
316.7	26281.67
317.073	26508.98
317.446	26731.3
317.818	26960.23
318.191	27187.44
318.563	27416.28
318.936	27623.59
319.308	27826.81
319.68	28029.6
320.053	28235.53
320.425	28418.36
320.797	28602.62
321.169	28764.87
321.541	28910.12
321.913	29044.61
322.285	29162.89
322.657	29298.18
323.029	29450.8
323.401	29595.79
323.773	29766.37
324.145	29940
324.517	30127.56
324.889	30307.13
325.26	30511.15
325.632	30727.93
326.004	30972.45
326.375	31232.53
326.747	31516.84
327.118	31826.05
327.49	32116.99
327.861	32429.2
328.233	32742.04
328.604	33051.1
328.975	33372.76
329.346	33692.28
329.718	34004.52
330.089	34312.21
330.46	34600.32
330.831	34876.55
331.202	35135.59
331.573	35385.71
331.944	35615.72
332.315	35844.21
332.686	36063.69
333.057	36264.89
333.428	36446.26
333.799	36611.5
334.169	36767.13
334.54	36911.66
334.911	37025.35
335.281	37147.74
335.652	37264.5
336.022	37399.77
336.393	37550.13
336.763	37714.54
337.134	37903.62
337.504	38104.83
337.874	38310.67
338.245	38526.65
338.615	38747.39
338.985	38981.83
339.355	39199
339.726	39428.3
340.096	39650.97
340.466	39906.76
340.836	40153.12
341.206	40407.07
341.576	40663.11
341.945	40908.9
342.315	41137.21
342.685	41381.85
343.055	41643.69
343.425	41890.82
343.794	42125.45
344.164	42361.85
344.533	42600.53
344.903	42823.26
345.273	43058.75
345.642	43294.39
346.011	43519.39
346.381	43754.32
346.75	43981.36
347.12	44229.8
347.489	44481.84
347.858	44729.86
348.227	44937.98
348.596	45167.6
348.965	45398.89
349.334	45628.33
349.704	45866.56
350.072	46123.8
350.441	46368.87
350.81	46606.16
351.179	46840.71
351.548	47083.64
351.917	47304.44
352.285	47504.85
352.654	47715.37
353.023	47923.23
353.391	48115.93
353.76	48330.89
354.129	48519.38
354.497	48755.05
354.865	48978.73
355.234	49209.6
355.602	49428.34
355.971	49680.21
356.339	49887.46
356.707	50103.57
357.075	50325.22
357.443	50547.97
357.811	50751.49
358.18	50951.7
358.548	51163.23
358.916	51367.32
359.284	51586.71
359.651	51803.71
360.019	52013.97
360.387	52217.55
360.755	52418.84
361.123	52652.03
361.49	52882.04
361.858	53100.32
362.226	53300
362.593	53503.35
362.961	53688.12
363.328	53893.49
363.696	54060.89
364.063	54284.57
364.43	54491.42
364.798	54704.02
365.165	54885.49
365.532	55073.31
365.899	55267.58
366.267	55433.32
366.634	55590.4
367.001	55746.11
367.368	55878.69
367.735	56063.28
368.102	56238.82
368.469	56433.46
368.835	56612.77
369.202	56769.86
369.569	56969.86
369.936	57151.23
370.303	57335.52
370.669	57533.51
371.036	57693.13
371.402	57896.16
371.769	58075.22
372.135	58229.57
372.502	58352.84
372.868	58496.67
373.235	58639.21
373.601	58777.3
373.967	58949.96
374.333	59135.77
374.7	59322.22
375.066	59540.24
375.432	59731.47
375.798	59910.26
376.164	60079.07
376.53	60229.56
376.896	60407.65
377.262	60575.64
377.628	60708.41
377.993	60857.86
378.359	61002.37
378.725	61163.87
379.091	61323.46
379.456	61462.57
379.822	61599.41
380.187	61751.03
380.553	61943.95
380.918	62145.55
381.284	62323.87
381.649	62509.94
382.015	62653.79
382.38	62776.47
382.745	62941.5
383.11	63093.08
383.476	63244.19
383.841	63368.84
384.206	63528.13
384.571	63643.45
384.936	63777.87
385.301	63951.12
385.666	64088.02
386.031	64238.84
386.396	64408.03
386.76	64557.15
387.125	64743.08
387.49	64945.3
387.855	65145.35
388.219	65323.43
388.584	65486.97
388.948	65682.04
389.313	65843.21
389.677	66055.45
390.042	66291.64
390.406	66443.57
390.771	66635.65
391.135	66826.22
391.499	67074.56
391.863	67304.54
392.227	67554.78
392.592	67759
392.956	67960.89
393.32	68156.65
393.684	68379.48
394.048	68553.05
394.412	68735.6
394.775	68885.66
395.139	69032.88
395.503	69192.92
395.867	69335.98
396.231	69486.67
396.594	69590.3
396.958	69726.12
397.321	69882.59
397.685	70006.5
398.048	70154.59
398.412	70300.4
398.775	70431.45
399.139	70552.48
399.502	70667.27
399.865	70808.28
400.228	70999.63
400.592	71139.63
400.955	71341.02
401.318	71483.13
401.681	71649.48
402.044	71780.99
402.407	71946.53
402.77	72107
403.133	72301.22
403.496	72441.49
403.859	72604.86
404.221	72852.73
404.584	73097.12
404.947	73339.19
405.309	73553.23
405.672	73797.65
406.034	74011.85
406.397	74266.22
406.759	74491.72
407.122	74681.53
407.484	74856.07
407.847	75046.98
408.209	75290.46
408.571	75520.79
408.933	75776.33
409.296	76032.82
409.658	76296.25
410.02	76559.29
410.382	76851.39
410.744	77085.59
411.106	77364.26
411.468	77615.03
411.83	77821.99
412.191	77990.69
412.553	78135.45
412.915	78312.99
413.277	78478.96
413.638	78638.51
414	78778.41
414.361	78915.06
414.723	79094.23
415.084	79262.56
415.446	79382.51
415.807	79480.45
416.169	79543.32
416.53	79588.62
416.891	79640.74
417.252	79705.21
417.614	79743.01
417.975	79758.24
418.336	79779.65
418.697	79800.84
419.058	79819.92
419.419	79833.62
419.78	79849.68
420.141	79861.61
420.501	79873.37
420.862	79879.86
421.223	79886.01
421.584	79901.07
421.944	79911.17
422.305	79917.81
422.666	79923.68
423.026	79924.68
423.387	79928.96
423.747	79931.72
424.107	79937.7
424.468	79945.08
424.828	79948.74
425.188	79950.07
425.549	79954.5
425.909	79957.23
426.269	79955.09
426.629	79958.01
426.989	79961.66
427.349	79963.81
427.709	79966.39
428.069	79968.35
428.429	79972.6
428.789	79977.69
429.149	79983.27
429.508	79984.97
429.868	79988.45
430.228	79990.26
430.587	79994.99
430.947	79999.98
431.306	80005.89
431.666	80007.51
432.025	80010.28
432.385	80011.62
432.744	80013.61
433.103	80015.09
433.463	80017.09
433.822	80022.15
434.181	80023.77
434.54	80026.1
434.899	80027.47
435.258	80030.87
435.618	80032.53
435.976	80035.27
436.335	80035.97
436.694	80035.53
437.053	80036.27
437.412	80036.6
437.771	80036.45
438.129	80035.42
438.488	80034.38
438.847	80035.23
439.205	80037.19
439.564	80037.64
439.922	80038.6
440.281	80038.89
440.639	80041.04
440.997	80040.63
441.356	80041.59
441.714	80042.52
442.072	80041.85
442.431	80042.55
442.789	80042.41
443.147	80042.18
443.505	80043.22
443.863	80043.63
444.221	80043.29
444.579	80043.7
444.937	80042.59
445.294	80045.7
445.652	80046.73
446.01	80048.36
446.368	80047.36
446.725	80047.4
447.083	80047.29
447.441	80046.7
447.798	80046.96
448.156	80045.07
448.513	80045.81
448.87	80047.03
449.228	80047.47
449.585	80046.7
449.942	80046.14
450.3	80047.21
450.657	80047.25
451.014	80046.81
451.371	80045.51
451.728	80046.29
452.085	80045.66
452.442	80047.4
452.799	80045.96
453.156	80046.07
453.513	80045.36
453.869	80045.88
454.226	80044.66
454.583	80044.11
454.939	80044.81
455.296	80044.4
455.653	80045.73
456.009	80044.26
456.366	80043.89
456.722	80044.85
457.078	80046.22
457.435	80046.1
457.791	80045.36
458.147	80046.14
458.503	80046.66
458.86	80046.47
459.216	80047.07
459.572	80047.29
459.928	80047.1
460.284	80048.81
460.64	80049.62
460.996	80049.47
461.351	80051.02
461.707	80052.84
462.063	80053.35
462.419	80054.76
462.774	80055.76
463.13	80055.68
463.486	80059.5
463.841	80059.68
464.197	80059.5
464.552	80058.76
464.908	80059.31
465.263	80059.64
465.618	80059.42
465.974	80058.46
466.329	80061.01
466.684	80059.94
467.039	80059.61
467.394	80058.57
467.749	80058.27
468.104	80059.68
468.459	80060.72
468.814	80060.75
469.169	80061.57
469.524	80061.97
469.879	80062.86
470.233	80065.38
470.588	80065.75
470.943	80064.56
471.297	80065.34
471.652	80066.38
472.006	80067.3
472.361	80068.52
472.715	80069.19
473.07	80071.7
473.424	80073.78
473.778	80072.85
474.133	80075.14
474.487	80077.4
474.841	80079.73
475.195	80079.62
475.549	80079.36
475.903	80081.84
476.257	80082.73
476.611	80082.77
476.965	80083.06
477.319	80081.62
477.673	80081.73
478.026	80082.1
478.38	80082.43
478.734	80083.1
479.087	80082.32
479.441	80083.21
479.795	80083.25
480.148	80082.73
480.502	80082.58
480.855	80082.4
481.208	80083.84
481.562	80084.39
481.915	80083.88
482.268	80083.99
482.621	80086.28
482.974	80085.8
483.328	80084.91
483.681	80084.39
484.034	80084.14
484.387	80084.36
484.739	80086.02
485.092	80085.39
485.445	80087.02
485.798	80086.95
486.151	80087.61
486.503	80089.43
486.856	80090.65
487.209	80091.57
487.561	80091.54
487.914	80089.72
488.266	80089.5
488.618	80088.54
488.971	80088.95
489.323	80089.8
489.675	80090.65
490.028	80089.76
490.38	80089.72
490.732	80091.46
491.084	80091.58
491.436	80092.39
491.788	80094.39
492.14	80094.32
492.492	80095.98
492.844	80096.13
493.196	80096.2
493.548	80096.24
493.899	80095.17
494.251	80094.98
494.603	80094.87
494.954	80095.06
495.306	80096.02
495.657	80094.76
496.009	80097.31
496.36	80096.39
496.712	80095.35
497.063	80094.28
497.414	80093.35
497.765	80093.91
498.117	80090.87
498.468	80090.35
498.819	80089.87
499.17	80088.21
499.521	80087.95
499.872	80087.02
500.223	80086.91
500.574	80086.47
500.924	80086.02
501.275	80085.8
501.626	80085.02
501.977	80084.25
502.327	80084.32
502.678	80085.58
503.029	80087.39
503.379	80086.54
503.73	80087.28
504.08	80087.02
504.43	80087.24
504.781	80087.32
505.131	80085.69
505.481	80086.76
505.831	80086.65
506.182	80086.54
506.532	80086.91
506.882	80086.73
507.232	80086.17
507.582	80085.13
507.932	80085.95
508.281	80087.1
508.631	80086.39
508.981	80086.58
509.331	80087.06
509.681	80088.13
510.03	80087.61
510.38	80085.43
510.729	80085.06
511.079	80085.02
511.428	80085.32
511.778	80085.17
512.127	80085.21
512.476	80087.13
512.826	80087.24
513.175	80088.91
513.524	80089.1
513.873	80088.98
514.222	80087.84
514.571	80086.95
514.92	80087.24
515.269	80087.32
515.618	80086.39
515.967	80086.25
516.316	80085.62
516.665	80085.58
517.014	80085.58
517.362	80084.99
517.711	80087.02
518.059	80086.36
518.408	80086.47
518.757	80087.1
519.105	80086.1
519.453	80086.02
519.802	80085.28
520.15	80085.51
520.498	80083.69
520.847	80083.17
521.195	80082.4
521.543	80084.1
521.891	80085.58
522.239	80086.21
522.587	80085.88
522.935	80087.47
523.283	80088.98
523.631	80090.39
523.979	80091.69
524.326	80092.21
524.674	80091.39
525.022	80089.28
525.369	80091.8
525.717	80091.35
526.064	80092.21
526.412	80094.35
526.759	80093.8
527.107	80092.95
527.454	80093.21
527.801	80094.65
528.149	80096.61
528.496	80097.06
528.843	80096.35
529.19	80095.72
529.537	80094.76
529.884	80095.2
530.231	80091.91
530.578	80092.69
530.925	80091.72
531.272	80090.95
531.619	80089.39
531.966	80090.24
532.312	80091.58
532.659	80090.09
533.006	80090.17
533.352	80089.43
533.699	80088.98
534.045	80089.87
534.392	80090.8
534.738	80091.24
535.084	80090.69
535.431	80089.43
535.777	80090.02
536.123	80092.13
536.469	80093.24
536.815	80091.91
537.161	80090.8
537.507	80091.95
537.853	80091.35
538.199	80091.39
538.545	80091.91
538.891	80093.61
539.237	80095.05
539.582	80095.76
539.928	80095.35
540.274	80094.76
540.619	80095.54
540.965	80094.87
541.31	80095.76
541.656	80097.24
542.001	80097.05
542.347	80098.16
542.692	80096.8
543.037	80097.35
543.382	80095.8
543.728	80095.65
544.073	80098.68
544.418	80100.46
544.763	80100.87
545.108	80101.05
545.453	80099.72
545.798	80100.42
546.142	80098.68
546.487	80096.91
546.832	80095.57
547.177	80096.2
547.521	80096.09
547.866	80095.54
548.211	80095.31
548.555	80094.76
548.9	80093.5
549.244	80092.65
549.588	80091.13
549.933	80091.72
550.277	80091.09
550.621	80090.21
550.965	80089.69
551.31	80087.95
551.654	80085.99
551.998	80085.76
552.342	80085.51
552.686	80087.39
553.03	80086.58
553.373	80088.8
553.717	80089.76
554.061	80089.54
554.405	80089.8
554.748	80090.54
555.092	80089.69
555.436	80090.61
555.779	80089.84
556.123	80091.54
556.466	80090.91
556.81	80091.17
557.153	80090.95
557.496	80091.09
557.839	80090.72
558.183	80090.91
558.526	80092.09
558.869	80093.43
559.212	80093.83
559.555	80093.39
559.898	80092.13
560.241	80092.06
560.584	80089.76
560.927	80091.28
561.269	80091.61
561.612	80091.09
561.955	80090.32
562.297	80089.95
562.64	80089.61
562.983	80090.06
563.325	80088.47
563.668	80089.24
564.01	80090.28
564.352	80089.69
564.695	80089.61
565.037	80090.91
565.379	80090.58
565.721	80087.73
566.063	80087.06
566.406	80086.62
566.748	80087.73
567.09	80088.54
567.431	80086.69
567.773	80087.17
568.115	80084.73
568.457	80085.73
568.799	80085.76
569.14	80085.47
569.482	80085.39
569.824	80084.25
570.165	80083.54
570.507	80083.43
570.848	80083.17
571.19	80082.29
571.531	80082.43
571.872	80081.8
572.214	80080.66
572.555	80081.21
572.896	80083.62
573.237	80083.65
573.578	80083.32
573.919	80081.58
574.26	80083.25
574.601	80084.95
574.942	80085.91
575.283	80086.1
575.624	80085.8
575.964	80085.99
576.305	80085.69
576.646	80086.58
576.986	80088.47
577.327	80088.61
577.667	80088.43
578.008	80088.76
578.348	80089.06
578.689	80089.02
579.029	80087.95
579.369	80088.69
579.71	80087.32
580.05	80086.99
580.39	80086.1
580.73	80085.36
581.07	80086.17
581.41	80082.84
581.75	80080.77
582.09	80079.03
582.43	80078.47
582.769	80078.1
583.109	80078.25
583.449	80078.59
583.789	80079.44
584.128	80078.92
584.468	80079.14
584.807	80078.25
585.147	80078.88
585.486	80078.88
585.825	80078.88
586.165	80080.51
586.504	80079.25
586.843	80079.33
587.182	80079.77
587.522	80079.99
587.861	80080.51
588.2	80078.99
588.539	80079.18
588.878	80079.77
589.216	80078.59
589.555	80079.29
589.894	80078.07
590.233	80076.51
590.572	80076.62
590.91	80074.63
591.249	80074.15
591.587	80073.33
591.926	80074.26
592.264	80072.37
592.603	80070.93
592.941	80071.07
593.279	80070.78
593.618	80070.81
593.956	80071.92
594.294	80070
594.632	80070.07
594.97	80068.37
595.308	80070
595.646	80068.48
595.984	80068.89
596.322	80070
596.66	80069.3
596.998	80070.48
597.335	80070.37
597.673	80070.45
598.011	80070.45
598.348	80070.11
598.686	80071.78
599.023	80071
599.361	80070.96
599.698	80070.37
600.035	80070.48
600.373	80069.19
600.71	80068.56
601.047	80067.3
601.384	80067.6
601.722	80067.6
602.059	80069.48
602.396	80068.52
602.733	80070.07
603.069	80070.04
603.406	80069.56
603.743	80069.56
604.08	80069.19
604.417	80069.74
604.753	80069.48
605.09	80070.04
605.426	80069.08
605.763	80068.78
606.099	80069.78
606.436	80069.89
606.772	80070.41
607.109	80069.7
607.445	80070.3
607.781	80070.89
608.117	80070.48
608.453	80071.26
608.79	80070.19
609.126	80068.59
609.462	80066.71
609.798	80065.97
610.133	80064.41
610.469	80062.86
610.805	80061.64
611.141	80061.49
611.477	80060.57
611.812	80061.01
612.148	80059.72
612.483	80058.72
612.819	80056.24
613.154	80055.24
613.49	80055.02
613.825	80055.35
614.16	80055.35
614.496	80056.61
614.831	80055.83
615.166	80054.65
615.501	80051.69
615.836	80052.76
616.171	80053.02
616.506	80053.32
616.841	80053.76
617.176	80055.43
617.511	80055.39
617.846	80055.65
618.18	80055.09
618.515	80053.61
618.85	80050.84
619.184	80050.36
619.519	80052.54
619.853	80052.76
620.188	80051.39
620.522	80052.06
620.856	80052.69
621.191	80052.32
621.525	80050.65
621.859	80051.84
622.193	80052.28
622.527	80052.8
622.861	80050.8
623.195	80050.88
623.529	80052.69
623.863	80052.39
624.197	80050.95
624.531	80053.54
624.865	80053.06
625.198	80052.13
625.532	80053.02
625.866	80054.69
626.199	80055.06
626.533	80054.32
626.866	80053.32
627.2	80052.47
627.533	80050.99
627.866	80049.25
628.2	80048.1
628.533	80047.25
628.866	80046.03
629.199	80046.73
629.532	80046.73
629.865	80047.21
630.198	80047.07
630.531	80047.21
630.864	80047.7
631.197	80047.7
631.529	80045.29
631.862	80045.33
632.195	80045.36
632.527	80045.44
632.86	80046.18
633.193	80045.96
633.525	80045.03
633.857	80046.59
634.19	80048.29
634.522	80048.1
634.854	80048.62
635.187	80048.77
635.519	80048.47
635.851	80048.66
636.183	80048.43
636.515	80048.29
636.847	80048.4
637.179	80048.32
637.511	80046.14
637.843	80045.25
638.174	80044.29
638.506	80045.18
638.838	80045.36
639.17	80045.81
639.501	80045.55
639.833	80044.03
640.164	80043.77
640.496	80042.26
640.827	80042.22
641.158	80040.96
641.49	80041.18
641.821	80040.15
642.152	80041.26
642.483	80041.18
642.814	80040.11
643.145	80039.04
643.476	80039.78
643.807	80040.67
644.138	80038.89
644.469	80038.82
644.8	80038.26
645.131	80037.86
645.461	80037.12
645.792	80037.38
646.122	80037.49
646.453	80036.6
646.784	80037.08
647.114	80036.64
647.444	80037.27
647.775	80036.53
648.105	80036.67
648.435	80037.01
648.765	80037.41
649.096	80035.38
649.426	80035.31
649.756	80035.68
650.086	80035.42
650.416	80034.49
650.746	80033.75
651.075	80033.64
651.405	80034.49
651.735	80035.31
652.065	80037.27
652.394	80036.64
652.724	80037.3
653.054	80036.49
653.383	80036.71
653.712	80035.08
654.042	80035.75
654.371	80035.42
654.701	80035.01
655.03	80035.12
655.359	80033.72
655.688	80034.01
656.017	80035.38
656.346	80034.38
656.675	80034.42
657.004	80033.64
657.333	80033.2
657.662	80031.83
657.991	80032.64
658.32	80032.13
658.648	80031.53
658.977	80030.06
659.306	80031.09
659.634	80029.98
659.963	80029.09
660.291	80027.73
660.619	80029.39
660.948	80030.06
661.276	80031.02
661.604	80031.2
661.933	80030.2
662.261	80029.28
662.589	80027.25
662.917	80026.77
663.245	80027.28
663.573	80027.76
663.901	80029.43
664.229	80030.98
664.556	80031.31
664.884	80031.68
665.212	80030.09
665.539	80029.06
665.867	80028.58
666.195	80028.13
666.522	80025.77
666.85	80025.99
667.177	80027.17
667.504	80026.03
667.832	80024.07
668.159	80022.88
668.486	80022.18
668.813	80023.29
669.14	80024.29
669.467	80024.92
669.794	80024.92
670.121	80023.73
670.448	80022.59
670.775	80020.74
671.102	80018.59
671.429	80018.45
671.755	80016.6
672.082	80016.86
672.409	80017.63
672.735	80018.11
673.062	80016.89
673.388	80018.63
673.714	80017.3
674.041	80015.64
674.367	80015.56
674.693	80016.19
675.019	80016.23
675.346	80015.34
675.672	80014.01
675.998	80012.13
676.324	80011.94
676.65	80010.83
676.976	80010.46
677.301	80009.24
677.627	80009.02
677.953	80008.87
678.279	80008.58
678.604	80009.43
678.93	80010.02
679.255	80009.17
679.581	80008.39
679.906	80008.36
680.232	80008.43
680.557	80009.98
680.882	80011.28
681.208	80009.65
681.533	80009.32
681.858	80009.43
682.183	80010.68
682.508	80009.72
682.833	80010.72
683.158	80010.87
683.483	80011.64
683.808	80013.05
684.132	80012.94
684.457	80011.9
684.782	80013.09
685.106	80013.16
685.431	80012.75
685.755	80012.94
686.08	80011.68
686.404	80011.5
686.729	80010.68
687.053	80008.87
687.377	80008.02
687.701	80007.84
688.026	80007.69
688.35	80006.66
688.674	80005.81
688.998	80004.03
689.322	80004.4
689.646	80003.4
689.97	80002.89
690.293	80004.07
690.617	80001.81
690.941	80000.6
691.264	79999.6
691.588	79997.2
691.912	79995.42
692.235	79994.42
692.559	79992.24
692.882	79992.43
693.205	79991.84
693.529	79990.21
693.852	79987.59
694.175	79985.34
694.498	79982.82
694.821	79981.31
695.144	79978.91
695.467	79975.84
695.79	79972.67
696.113	79968.24
696.436	79965.06
696.759	79960.26
697.082	79952.8
697.404	79948.81
697.727	79943.13
698.049	79938.22
698.372	79931.25
698.694	79921
699.017	79909.17
699.339	79896.63
699.662	79881.82
699.984	79859.92
700.306	79838.33
700.628	79807.38
700.95	79764.66
701.272	79713.98
701.594	79654.67
701.916	79596.95
702.238	79524.97
702.56	79413.49
702.882	79293.73
703.204	79177.96
703.525	79041.86
703.847	78859.06
704.169	78691.51
704.49	78503.78
704.812	78314.24
705.133	78117.96
705.455	77919.38
705.776	77701.41
706.097	77495.78
706.419	77272.53
706.74	77032.42
707.061	76768.63
707.382	76485.18
707.703	76192.24
708.024	75908.21
708.345	75610.52
708.666	75291.2
708.987	74968.79
709.307	74690.74
709.628	74375.71
709.949	74052.32
710.27	73725.06
710.59	73455.31
710.911	73152.87
711.231	72843.15
711.552	72548.35
711.872	72209.21
712.192	71924.04
712.512	71654.72
712.833	71371.84
713.153	71090.97
713.473	70855.5
713.793	70620.67
714.113	70400.07
714.433	70193.53
714.753	69984.73
715.073	69791.27
715.393	69589.92
715.712	69423.68
716.032	69196.06
716.352	69014.11
716.671	68848.78
716.991	68684.51
717.31	68493.28
717.63	68329.74
717.949	68154.2
718.268	67945.11
718.588	67769.35
718.907	67534.33
719.226	67265.13
719.545	67007.83
719.864	66722.51
720.183	66436.89
720.502	66145.81
720.821	65864.41
721.14	65573.01
721.459	65257.01
721.778	64972.58
722.096	64649.94
722.415	64340.22
722.734	64077.05
723.052	63799.45
723.371	63501.61
723.689	63222.58
724.008	62928.1
724.326	62622.19
724.644	62352.08
724.963	62080.45
725.281	61848.31
725.599	61612.77
725.917	61422.88
726.235	61231.61
726.553	61075.61
726.871	60883.35
727.189	60681.55
727.507	60480.86
727.824	60320.43
728.142	60183.31
728.46	59978.91
728.777	59874.13
729.095	59731.96
729.413	59582.97
729.73	59436.52
730.047	59301.55
730.365	59180.39
730.682	59072.74
730.999	58982.76
731.317	58906.95
731.634	58825.99
731.951	58712.2
732.268	58589.26
732.585	58444.06
732.902	58278.42
733.219	58116.06
733.536	57938.48
733.852	57817.85
734.169	57687.19
734.486	57532.91
734.802	57373.3
735.119	57260.71
735.435	57088.07
735.752	56930.35
736.068	56752.59
736.385	56584.05
736.701	56387.27
737.017	56151.88
737.333	55904.03
737.65	55595.32
737.966	55214.89
738.282	54822.49
738.598	54406.59
738.914	53954.66
739.23	53464.56
739.545	52938.42
739.861	52390.14
740.177	51838.6
740.493	51238.15
740.808	50658.54
741.124	50051.25
741.439	49462.27
741.755	48881.46
742.07	48352.28
742.386	47786.76
742.701	47280.18
743.016	46783.2
743.331	46311.72
743.647	45889.68
743.962	45503.4
744.277	45163.56
744.592	44891.15
744.907	44675.7
745.222	44504.71
745.537	44410.75
745.851	44380.81
746.166	44400.35
746.481	44451.09
746.795	44566.04
747.11	44727.89
747.424	44901.53
747.739	45075.32
748.053	45258.21
748.368	45417.77
748.682	45533.16
748.996	45673.4
749.311	45779.44
749.625	45877.59
749.939	45978.73
750.253	46039.21
750.567	46109.33
750.881	46167.26
751.195	46228.95
751.509	46289.31
751.822	46337.03
752.136	46382.67
752.45	46431.61
752.763	46492.76
753.077	46552.83
753.39	46586.06
753.704	46607.08
754.017	46625.4
754.331	46653.27
754.644	46652.64
754.957	46668.15
755.27	46671.51
755.584	46676.79
755.897	46687.67
756.21	46683.52
756.523	46661.64
756.836	46640.32
757.149	46560.58
757.461	46494.54
757.774	46408.67
758.087	46286.48
758.4	46153.9
758.712	46002.12
759.025	45850.07
759.337	45702.37
759.65	45534.21
759.962	45381.79
760.275	45219.32
760.587	45069.58
760.899	44937.02
761.211	44846.96
761.523	44769.46
761.836	44769.77
762.148	44778.11
762.46	44807.21
762.772	44872.08
763.083	45007.35
763.395	45149.54
763.707	45369.67
764.019	45593.94
764.33	45819.61
764.642	46084.05
764.954	46352.83
765.265	46632.02
765.577	46890.05
765.888	47128.52
766.199	47375.29
766.511	47592.14
766.822	47818.67
767.133	47997.12
767.444	48161.5
767.755	48256.28
768.066	48305.31
768.377	48297.01
768.688	48229.92
768.999	48143.48
769.31	48016.73
769.621	47823.5
769.931	47604.95
770.242	47342.11
770.553	47047.89
770.863	46718.69
771.174	46345.63
771.484	45957.81
771.794	45555.85
772.105	45150.49
772.415	44723.41
772.725	44277.25
773.035	43834.73
773.345	43370.93
773.656	42903.51
773.966	42427.79
774.276	41991.04
774.585	41566.22
774.895	41126.92
775.205	40744.27
775.515	40342.16
775.824	39949.35
776.134	39558.67
776.444	39194.12
776.753	38828.26
777.063	38481.01
777.372	38155.78
777.681	37843.21
777.991	37541.36
778.3	37235.37
778.609	36933.2
778.918	36645.02
779.228	36380.14
779.537	36111.2
779.846	35850.89
780.154	35604.83
780.463	35370.67
780.772	35121.04
781.081	34890.49
781.39	34691.26
781.698	34468.58
782.007	34261.9
782.316	34054.78
782.624	33845.74
782.932	33635.94
783.241	33441.21
783.549	33248.88
783.858	33079.14
784.166	32909.49
784.474	32730.45
784.782	32563.43
785.09	32408.53
785.398	32260.33
785.706	32119.17
786.014	31978.69
786.322	31837.43
786.63	31702.86
786.937	31571.2
787.245	31448.57
787.553	31314.35
787.86	31197.47
788.168	31078.74
788.475	30973.68
788.783	30876.96
789.09	30777.16
789.398	30679.92
789.705	30580.11
790.012	30470.8
790.319	30359.28
790.626	30248.82
790.933	30161.67
791.24	30071.06
791.547	29969.63
791.854	29875.54
792.161	29775.39
792.468	29669.51
792.774	29574.06
793.081	29485.09
793.388	29400.79
793.694	29306.47
794.001	29221.7
794.307	29098.51
794.614	28998.19
794.92	28861.98
795.226	28729.28
795.533	28617.69
795.839	28522.07
796.145	28407.01
796.451	28295.5
796.757	28188.44
797.063	28083.76
797.369	27968.52
797.675	27861
797.98	27759.68
798.286	27638.97
798.592	27531.55
798.898	27426.71
799.203	27316.13
799.509	27202.02
799.814	27078.09
800.12	26972.7
800.425	26856.67
800.73	26741.94
801.035	26623.68
801.341	26527.22
801.646	26427.89
801.951	26322.89
802.256	26214.72
802.561	26116.19
802.866	26024.73
803.171	25934.62
803.476	25847.28
803.78	25753.33
804.085	25657.49
804.39	25547.68
804.694	25448.17
804.999	25350.2
805.303	25256.7
805.608	25164.61
805.912	25076.76
806.216	25007.64
806.521	24936.67
806.825	24861.07
807.129	24796.78
807.433	24720.64
807.737	24648.17
808.041	24586.61
808.345	24532.45
808.649	24473.5
808.953	24422.88
809.257	24364.9
809.561	24309.68
809.864	24248.73
810.168	24217.04
810.471	24179.9
810.775	24149.05
811.078	24132.21
811.382	24102.24
811.685	24096
811.988	24088.76
812.292	24075.76
812.595	24073.62
812.898	24075.17
813.201	24088.95
813.504	24107.03
813.807	24139.1
814.11	24171.34
814.413	24199.15
814.716	24225.01
815.018	24272.46
815.321	24333.43
815.624	24416.37
815.926	24514.61
816.229	24642.8
816.531	24782.14
816.834	24946.75
817.136	25144.14
817.438	25351.8
817.74	25626.78
818.043	25939.72
818.345	26319.97
818.647	26786.84
818.949	27334.78
819.251	27968.98
819.553	28716.29
819.855	29586.45
820.156	30557.16
820.458	31642.84
820.76	32808.13
821.062	34023.51
821.363	35288.87
821.665	36633.46
821.966	38060.86
822.268	39509.49
822.569	40968.53
822.87	42451.36
823.171	43945.44
823.473	45483.49
823.774	47076.71
824.075	48609.56
824.376	50109.21
824.677	51586.48
824.978	52972.98
825.279	54269.67
825.58	55441.93
825.88	56481.41
826.181	57372.43
826.482	58164.43
826.782	58786.59
827.083	59300.9
827.383	59682.43
827.684	59907.82
827.984	59982.47
828.284	59904.45
828.585	59688.92
828.885	59383.83
829.185	58926.65
829.485	58376.29
829.785	57702.5
830.085	56862.44
830.385	55987.63
830.685	55053.97
830.985	54001.39
831.285	52915.26
831.584	51783.84
831.884	50630.78
832.183	49455.93
832.483	48242.21
832.782	46958.69
833.082	45678.54
833.381	44390.82
833.681	43152.7
833.98	41978.79
834.279	40843.03
834.578	39736.54
834.877	38697.12
835.176	37680.98
835.475	36747.28
835.774	35852.37
836.073	34978.76
836.372	34154.75
836.671	33337.9
836.969	32529.36
837.268	31779.43
837.567	31066.28
837.865	30375.29
838.164	29695.81
838.462	29042.07
838.761	28428.77
839.059	27847.76
839.357	27296.77
839.655	26763.28
839.953	26220.37
840.252	25696.19
840.55	25164.88
840.848	24647.91
841.146	24144.61
841.443	23647.65
841.741	23142.34
842.039	22631.76
842.337	22125.99
842.634	21667.23
842.932	21219.85
843.229	20790.93
843.527	20374.38
843.824	19929.69
844.122	19486.12
844.419	19062.77
844.716	18631.9
845.013	18216.88
845.311	17827.23
845.608	17453.32
845.905	17085.49
846.202	16730.19
846.499	16355.06
846.796	15995.03
847.092	15625.65
847.389	15261.64
847.686	14921.44
847.982	14603.67
848.279	14290.13
848.576	14001.31
848.872	13702.16
849.168	13415.3
849.465	13135.24
849.761	12844
850.057	12569.47
850.354	12301.12
850.65	12050.35
850.946	11821.92
851.242	11599.13
851.538	11377.06
851.834	11155.85
852.13	10937.57
852.425	10739.29
852.721	10561.88
853.017	10395.77
853.312	10245.62
853.608	10100.05
853.903	9957.36
854.199	9811.05
854.494	9681.16
854.79	9550.53
855.085	9416.55
855.38	9284.2
855.675	9152.28
855.971	9031.23
856.266	8931.1
856.561	8835.06
856.856	8740.37
857.151	8648.51
857.445	8551.24
857.74	8454.73
858.035	8361.51
858.33	8268.96
858.624	8178.67
858.919	8099.29
859.213	8010.67
859.508	7927.71
859.802	7836.46
860.096	7754.86
860.391	7687.07
860.685	7622.68
860.979	7561.08
861.273	7509.03
861.567	7449.38
861.861	7387.68
862.155	7333.24
862.449	7264.49
862.743	7199.77
863.037	7140.35
863.33	7082.1
863.624	7026.1
863.918	6981.36
864.211	6941.68
864.505	6911.17
864.798	6873.37
865.092	6824.85
865.385	6778.29
865.678	6725.78
865.971	6693.22
866.264	6658.97
866.558	6631.43
866.851	6603.24
867.144	6573.24
867.437	6540.36
867.729	6510.13
868.022	6487.54
868.315	6467.76
868.608	6455.22
868.9	6445.47
869.193	6427.04
869.485	6399.25
869.778	6374.14
870.07	6343.41
870.363	6321.66
870.655	6303.69
870.947	6296.48
871.239	6287.93
871.532	6290.84
871.824	6295.24
872.116	6294.78
872.408	6290.7
872.699	6275.51
872.991	6263.53
873.283	6259.01
873.575	6257.35
873.867	6264.81
874.158	6270.35
874.45	6267.1
874.741	6263.91
875.033	6264.16
875.324	6277.37
875.615	6298.98
875.907	6322.15
876.198	6338.51
876.489	6349.33
876.78	6352.43
877.071	6350.64
877.362	6354.85
877.653	6355.82
877.944	6364.75
878.235	6371.73
878.526	6379.08
878.816	6393.94
