Data from 24HourExp_27052025_FLMS018081_01-48-20-611.txt Node
Date: Wed May 28 01:48:20 BST 2025
User: adleo
Spectrometer: FLMS01808
Trigger mode: 0
Integration Time (sec): 4.000000E-1
Scans to average: 10
Electric dark correction enabled: true
Nonlinearity correction enabled: true
Boxcar width: 10
XAxis mode: Wavelengths
Number of Pixels in Spectrum: 2048
>>>>>Begin Spectral Data<<<<<
178.471	-126.35
178.857	-119.19
179.244	-114.35
179.631	-105.35
180.017	-96.96
180.404	-89.35
180.79	-79.2
181.176	-69.97
181.563	-59.49
181.949	-49.11
182.335	-37.7
182.722	-22.34
183.108	-3.3
183.494	23.67
183.88	76.47
184.266	131.51
184.653	189.26
185.039	244.5
185.425	301.32
185.811	356.03
186.197	409.07
186.582	460.28
186.968	513.37
187.354	566.34
187.74	617.29
188.126	667.78
188.511	719.23
188.897	767.88
189.283	814.08
189.668	859.34
190.054	903.4
190.439	948.45
190.825	992.82
191.21	1032.3
191.596	1065.77
191.981	1073.94
192.366	1076.82
192.752	1077.5
193.137	1080.18
193.522	1082.42
193.908	1083.74
194.293	1087.2
194.678	1090.55
195.063	1093
195.448	1094.65
195.833	1094.72
196.218	1095.31
196.603	1094.16
196.988	1092.6
197.373	1092.89
197.757	1092.85
198.142	1094.64
198.527	1091.11
198.912	1089.09
199.296	1089.87
199.681	1086.8
200.066	1086.26
200.45	1085.6
200.835	1084.87
201.219	1084.56
201.604	1082.7
201.988	1084.08
202.372	1082.84
202.757	1083.57
203.141	1082.18
203.525	1082.77
203.91	1081.7
204.294	1081.99
204.678	1082.39
205.062	1082.89
205.446	1082.5
205.83	1084.24
206.214	1083.41
206.598	1085.95
206.982	1088.33
207.366	1087.53
207.75	1088.19
208.134	1090.19
208.517	1090.61
208.901	1092.54
209.285	1093.84
209.669	1095.87
210.052	1095.25
210.436	1096.53
210.819	1097.2
211.203	1099.74
211.586	1098.85
211.97	1101.26
212.353	1101.15
212.737	1102.56
213.12	1105.58
213.503	1108.52
213.886	1107.85
214.27	1109.56
214.653	1110.64
215.036	1111.5
215.419	1113.99
215.802	1117.76
216.185	1118.99
216.568	1124.3
216.951	1126.9
217.334	1128.61
217.717	1130.71
218.1	1134.8
218.482	1138.93
218.865	1140.86
219.248	1144.94
219.631	1150.55
220.013	1156.15
220.396	1162.35
220.778	1166.11
221.161	1169.63
221.544	1176.4
221.926	1184.81
222.308	1191.97
222.691	1199.35
223.073	1207.17
223.455	1216.31
223.838	1224.01
224.22	1233.05
224.602	1242.32
224.984	1252.28
225.366	1266.12
225.749	1281.36
226.131	1292.6
226.513	1306.92
226.895	1323.11
227.276	1336.26
227.658	1352.67
228.04	1367.38
228.422	1382.64
228.804	1399.92
229.186	1416.12
229.567	1434.71
229.949	1452.05
230.331	1469.45
230.712	1488.49
231.094	1509.33
231.475	1528.67
231.857	1550.25
232.238	1569.4
232.62	1588.33
233.001	1608.22
233.382	1628.71
233.763	1646.61
234.145	1667.93
234.526	1686.76
234.907	1703.77
235.288	1723.43
235.669	1741.55
236.05	1758.4
236.431	1778.15
236.812	1799.17
237.193	1821.24
237.574	1840.85
237.955	1861.43
238.336	1883.22
238.717	1903.63
239.097	1926.23
239.478	1948.67
239.859	1970.99
240.239	1995.32
240.62	2019.25
241.001	2041.92
241.381	2062.46
241.762	2084.25
242.142	2107.55
242.522	2130.9
242.903	2160
243.283	2186.35
243.663	2214.6
244.044	2245.4
244.424	2275.13
244.804	2303.17
245.184	2334.39
245.564	2363.3
245.944	2394.65
246.324	2425.83
246.704	2457.49
247.084	2486.45
247.464	2517.34
247.844	2547.4
248.224	2577.7
248.604	2608.06
248.983	2640.88
249.363	2677.04
249.743	2712.78
250.122	2745.84
250.502	2778.63
250.882	2809.53
251.261	2839.33
251.641	2869.27
252.02	2902.47
252.399	2937.07
252.779	2974.72
253.158	3010.55
253.537	3052.3
253.917	3096.09
254.296	3133.9
254.675	3173.82
255.054	3214.86
255.433	3257.43
255.812	3298.35
256.191	3341.78
256.57	3383.62
256.949	3428.41
257.328	3469.83
257.707	3513.47
258.086	3560.57
258.465	3608.99
258.843	3659.72
259.222	3713.36
259.601	3768.71
259.979	3824.77
260.358	3878.6
260.736	3931.6
261.115	3987.44
261.493	4039.27
261.872	4090.32
262.25	4149.52
262.629	4204.49
263.007	4265.43
263.385	4322.46
263.763	4383.78
264.142	4445.64
264.52	4514.67
264.898	4579.76
265.276	4646.77
265.654	4715.42
266.032	4784.74
266.41	4856.15
266.788	4928.16
267.166	5005.32
267.544	5081.78
267.921	5156.37
268.299	5234.7
268.677	5316.46
269.055	5398.74
269.432	5484.06
269.81	5571.26
270.188	5661.72
270.565	5752.83
270.943	5840.74
271.32	5933.94
271.697	6030.94
272.075	6129.66
272.452	6223.99
272.829	6321.94
273.207	6420.91
273.584	6524.85
273.961	6630.49
274.338	6743.91
274.715	6855.21
275.092	6971.36
275.469	7090.61
275.846	7211.98
276.223	7335.92
276.6	7457.41
276.977	7582.16
277.354	7709.52
277.731	7834.47
278.108	7961.99
278.484	8093.49
278.861	8223.37
279.238	8363.16
279.614	8503.2
279.991	8643.35
280.367	8790.51
280.744	8941.07
281.12	9093.07
281.497	9244.1
281.873	9396.01
282.249	9543.38
282.625	9697.82
283.002	9846.91
283.378	9997.79
283.754	10152.31
284.13	10304.73
284.506	10464.44
284.882	10622.12
285.258	10776.67
285.634	10936.58
286.01	11100.26
286.386	11257.71
286.762	11428.43
287.138	11591.13
287.513	11755.15
287.889	11919.95
288.265	12081.1
288.641	12238.03
289.016	12400.13
289.392	12562.89
289.767	12724.94
290.143	12892.16
290.518	13049.68
290.894	13214.27
291.269	13372.51
291.644	13527.88
292.02	13682.33
292.395	13834.73
292.77	13987.81
293.145	14144.73
293.52	14300.25
293.895	14446.53
294.27	14606.44
294.646	14759.13
295.02	14907.18
295.395	15059.94
295.77	15215.82
296.145	15368.51
296.52	15525.6
296.895	15682.53
297.269	15839.86
297.644	15991.73
298.019	16140.53
298.393	16294.43
298.768	16446.41
299.143	16603.64
299.517	16758.53
299.891	16914.79
300.266	17073.73
300.64	17233.64
301.015	17394.47
301.389	17562.76
301.763	17739.46
302.137	17907.09
302.512	18084.99
302.886	18265.27
303.26	18447.28
303.634	18622.09
304.008	18803.44
304.382	18987.34
304.756	19170.52
305.13	19357.95
305.504	19540.54
305.877	19732.43
306.251	19943.36
306.625	20146.49
306.999	20355.86
307.372	20567.4
307.746	20794.43
308.119	21012.35
308.493	21227.86
308.866	21446.26
309.24	21660.46
309.613	21864.72
309.987	22077.21
310.36	22275.25
310.733	22482.79
311.107	22696.03
311.48	22921.92
311.853	23148.41
312.226	23375.74
312.599	23602.1
312.972	23819.42
313.345	24055.19
313.718	24284.43
314.091	24501.73
314.464	24732.81
314.837	24952.45
315.21	25163.03
315.582	25375.36
315.955	25587.43
316.328	25808.12
316.7	26025.02
317.073	26249.12
317.446	26478.7
317.818	26705.76
318.191	26937.12
318.563	27163.52
318.936	27373.98
319.308	27578.64
319.68	27781.39
320.053	27977.83
320.425	28168.12
320.797	28354.12
321.169	28517.37
321.541	28661.28
321.913	28792.4
322.285	28906.31
322.657	29026.54
323.029	29176.01
323.401	29313.17
323.773	29476.94
324.145	29647.73
324.517	29837.04
324.889	30012.08
325.26	30209.31
325.632	30426.59
326.004	30664.47
326.375	30914.67
326.747	31191.07
327.118	31488.72
327.49	31780.87
327.861	32096.51
328.233	32409.97
328.604	32720.17
328.975	33029.65
329.346	33343.32
329.718	33655.04
330.089	33962.91
330.46	34263.42
330.831	34540.59
331.202	34801.08
331.573	35052.03
331.944	35279.67
332.315	35501.85
332.686	35725.39
333.057	35923.85
333.428	36103.29
333.799	36268.58
334.169	36427.74
334.54	36571.12
334.911	36691.77
335.281	36818.84
335.652	36937
336.022	37067.87
336.393	37217.33
336.763	37392.34
337.134	37583.88
337.504	37781.11
337.874	37984.47
338.245	38193.9
338.615	38409.26
338.985	38642.29
339.355	38859.19
339.726	39084.46
340.096	39304.4
340.466	39547.65
340.836	39792.94
341.206	40039.97
341.576	40289.38
341.945	40530.77
342.315	40757.95
342.685	41002.43
343.055	41255.21
343.425	41493.59
343.794	41725.82
344.164	41952.48
344.533	42179.08
344.903	42407.68
345.273	42643.74
345.642	42875.03
346.011	43106.3
346.381	43340.34
346.75	43568.03
347.12	43815.68
347.489	44070.19
347.858	44320.89
348.227	44532.86
348.596	44753.1
348.965	44993.33
349.334	45225.25
349.704	45473.98
350.072	45722.05
350.441	45954.96
350.81	46191.31
351.179	46426.01
351.548	46664.97
351.917	46889.24
352.285	47089.49
352.654	47291.69
353.023	47494.31
353.391	47689.26
353.76	47905.62
354.129	48092.83
354.497	48331.75
354.865	48549.92
355.234	48777.06
355.602	48995.03
355.971	49246.36
356.339	49465.03
356.707	49677.07
357.075	49897.2
357.443	50113.33
357.811	50327.04
358.18	50535.89
358.548	50745.75
358.916	50953.94
359.284	51169.89
359.651	51392.59
360.019	51606.44
360.387	51810.36
360.755	52015.32
361.123	52245.28
361.49	52461.88
361.858	52680.24
362.226	52872.66
362.593	53078.14
362.961	53257.14
363.328	53459.71
363.696	53628.09
364.063	53850.77
364.43	54058.03
364.798	54267.34
365.165	54448.34
365.532	54629.61
365.899	54821.57
366.267	54984.3
366.634	55130.64
367.001	55290.07
367.368	55421.88
367.735	55606.78
368.102	55777.96
368.469	55966.74
368.835	56148.54
369.202	56314.16
369.569	56505.86
369.936	56689.91
370.303	56869.57
370.669	57068.52
371.036	57229.61
371.402	57428.96
371.769	57603.08
372.135	57753.83
372.502	57875.44
372.868	58012.32
373.235	58162.29
373.601	58292.79
373.967	58470.53
374.333	58658.49
374.7	58843.88
375.066	59049.31
375.432	59230.95
375.798	59416.02
376.164	59588.48
376.53	59731.12
376.896	59903.02
377.262	60076.61
377.628	60212.16
377.993	60365.96
378.359	60517.05
378.725	60671.37
379.091	60819.33
379.456	60953.57
379.822	61082.26
380.187	61236.64
380.553	61430.83
380.918	61627.98
381.284	61805.9
381.649	61976.21
382.015	62124.46
382.38	62253.41
382.745	62422.93
383.11	62582.47
383.476	62730.52
383.841	62861.68
384.206	63022.94
384.571	63137.64
384.936	63273.7
385.301	63442.09
385.666	63575.86
386.031	63726.01
386.396	63894.24
386.76	64050.71
387.125	64242.92
387.49	64451.09
387.855	64642.01
388.219	64804.89
388.584	64971.64
388.948	65169.84
389.313	65339.04
389.677	65541.21
390.042	65765.9
390.406	65917.67
390.771	66097.85
391.135	66286.27
391.499	66514.43
391.863	66751.49
392.227	66997.76
392.592	67195.38
392.956	67394.93
393.32	67589.59
393.684	67804.12
394.048	67974.93
394.412	68157.87
394.775	68303.34
395.139	68452.74
395.503	68612.68
395.867	68770.31
396.231	68910.64
396.594	69011.31
396.958	69141.42
397.321	69292.55
397.685	69411.97
398.048	69558.44
398.412	69693.83
398.775	69827.25
399.139	69950.09
399.502	70053.81
399.865	70197.01
400.228	70394.48
400.592	70528.82
400.955	70726.53
401.318	70858.95
401.681	71019.26
402.044	71149.76
402.407	71310.67
402.77	71463.86
403.133	71652.2
403.496	71790.1
403.859	71943.66
404.221	72180.37
404.584	72416.71
404.947	72661.68
405.309	72878.86
405.672	73116.75
406.034	73347.1
406.397	73594.83
406.759	73817.66
407.122	73995.79
407.484	74171.31
407.847	74353.02
408.209	74601.99
408.571	74827.01
408.933	75091.74
409.296	75348.35
409.658	75602.88
410.02	75869.5
410.382	76173.7
410.744	76429.15
411.106	76717.88
411.468	76993.7
411.83	77226.27
412.191	77423.57
412.553	77592.24
412.915	77791.65
413.277	77983.66
413.638	78163.88
414	78324.61
414.361	78491.26
414.723	78708.48
415.084	78902.34
415.446	79055.35
415.807	79177.21
416.169	79272.89
416.53	79342.77
416.891	79429.15
417.252	79528.79
417.614	79591.98
417.975	79622.63
418.336	79659.43
418.697	79697.51
419.058	79732.43
419.419	79757.71
419.78	79786.17
420.141	79807.57
420.501	79825.35
420.862	79837.87
421.223	79849.87
421.584	79875.16
421.944	79889.3
422.305	79898.19
422.666	79904.61
423.026	79906.08
423.387	79914.9
423.747	79919.51
424.107	79927.43
424.468	79934.22
424.828	79938.5
425.188	79941.05
425.549	79947.29
425.909	79950.58
426.269	79950.61
426.629	79953.68
426.989	79956.78
427.349	79961.21
427.709	79963.58
428.069	79965.87
428.429	79971.3
428.789	79976.8
429.149	79981.38
429.508	79984.89
429.868	79990.95
430.228	79993.06
430.587	79996.68
430.947	79999.34
431.306	80003.77
431.666	80006.69
432.025	80008.65
432.385	80010.9
432.744	80013.53
433.103	80015.52
433.463	80018.37
433.822	80023.43
434.181	80024.47
434.54	80026.91
434.899	80029.16
435.258	80031.2
435.618	80033.16
435.976	80034.41
436.335	80035.56
436.694	80035.23
437.053	80036.04
437.412	80035.37
437.771	80036.3
438.129	80037.3
438.488	80038.81
438.847	80040.51
439.205	80041.59
439.564	80043.47
439.922	80045.36
440.281	80045.62
440.639	80045.76
440.997	80046.47
441.356	80048.17
441.714	80049.5
442.072	80050.98
442.431	80050.28
442.789	80049.91
443.147	80050.02
443.505	80051.39
443.863	80051.72
444.221	80051.72
444.579	80051.42
444.937	80051.72
445.294	80053.01
445.652	80053.23
446.01	80052.75
446.368	80051.98
446.725	80052.24
447.083	80052.61
447.441	80050.98
447.798	80052.79
448.156	80053.53
448.513	80054.53
448.87	80052.31
449.228	80051.68
449.585	80050.87
449.942	80049.72
450.3	80049.09
450.657	80049.91
451.014	80049.5
451.371	80049.5
451.728	80050.2
452.085	80049.94
452.442	80049.91
452.799	80049.8
453.156	80051.02
453.513	80051.54
453.869	80051.87
454.226	80052.09
454.583	80052.13
454.939	80055.64
455.296	80054.42
455.653	80053.9
456.009	80053.01
456.366	80054.46
456.722	80055.01
457.078	80054.53
457.435	80054.79
457.791	80056.68
458.147	80055.05
458.503	80055.64
458.86	80056.75
459.216	80057.75
459.572	80059.41
459.928	80058.97
460.284	80059.9
460.64	80058.93
460.996	80059.52
461.351	80060.6
461.707	80061.93
462.063	80062.85
462.419	80061.19
462.774	80063.34
463.13	80065.15
463.486	80065.48
463.841	80067.29
464.197	80067.81
464.552	80068.88
464.908	80071.51
465.263	80072.4
465.618	80073.21
465.974	80073.99
466.329	80073.43
466.684	80071.92
467.039	80071.66
467.394	80073.99
467.749	80074.06
468.104	80076.36
468.459	80077.73
468.814	80078.39
469.169	80078.32
469.524	80079.13
469.879	80080.28
470.233	80080.36
470.588	80080.36
470.943	80081.32
471.297	80080.65
471.652	80083.5
472.006	80084.43
472.361	80084.43
472.715	80083.98
473.07	80086.79
473.424	80087.79
473.778	80089.79
474.133	80091.75
474.487	80092.6
474.841	80091.94
475.195	80093.86
475.549	80092.27
475.903	80093.79
476.257	80094.83
476.611	80096.45
476.965	80096.38
477.319	80096.86
477.673	80097.56
478.026	80099.27
478.38	80099.05
478.734	80100.79
479.087	80099.82
479.441	80101.49
479.795	80101.38
480.148	80102.49
480.502	80101.86
480.855	80101.16
481.208	80101.04
481.562	80100.9
481.915	80101.67
482.268	80102.04
482.621	80102.04
482.974	80101.93
483.328	80100.67
483.681	80099.82
484.034	80100.19
484.387	80100.82
484.739	80101.97
485.092	80101.64
485.445	80101.38
485.798	80101.97
486.151	80100.38
486.503	80101.27
486.856	80101.86
487.209	80102.04
487.561	80101.82
487.914	80101.75
488.266	80101.97
488.618	80101.53
488.971	80103.27
489.323	80102.93
489.675	80105.45
490.028	80104.15
490.38	80105.04
490.732	80105.19
491.084	80106.01
491.436	80106.19
491.788	80105.49
492.14	80104.64
492.492	80105.08
492.844	80105.64
493.196	80106.6
493.548	80108.49
493.899	80108.12
494.251	80106.08
494.603	80106.23
494.954	80107.34
495.306	80107.63
495.657	80108
496.009	80109.67
496.36	80107.97
496.712	80107.78
497.063	80105.89
497.414	80106.78
497.765	80107.97
498.117	80107.63
498.468	80108
498.819	80108.19
499.17	80107.63
499.521	80108.04
499.872	80107.26
500.223	80106.49
500.574	80105.97
500.924	80106.23
501.275	80105.75
501.626	80104.38
501.977	80105.82
502.327	80104.89
502.678	80104.75
503.029	80104.64
503.379	80102.34
503.73	80102.9
504.08	80103.12
504.43	80103.38
504.781	80101.6
505.131	80101.67
505.481	80102.08
505.831	80101.04
506.182	80101.04
506.532	80102.04
506.882	80101.23
507.232	80101.78
507.582	80099.86
507.932	80099.64
508.281	80098.42
508.631	80097.6
508.981	80100.04
509.331	80098.45
509.681	80099.12
510.03	80098.53
510.38	80098.93
510.729	80100.19
511.079	80100.01
511.428	80100.04
511.778	80099.86
512.127	80100.04
512.476	80098.82
512.826	80098.82
513.175	80101.19
513.524	80100.67
513.873	80101.04
514.222	80101.93
514.571	80102.38
514.92	80105.23
515.269	80105.12
515.618	80106.08
515.967	80107.93
516.316	80107.49
516.665	80107.49
517.014	80106.52
517.362	80107.19
517.711	80107.71
518.059	80108.97
518.408	80108.67
518.757	80108.49
519.105	80108.12
519.453	80109.26
519.802	80110.97
520.15	80112.3
520.498	80110.34
520.847	80109.86
521.195	80109.74
521.543	80108.93
521.891	80108.26
522.239	80106.78
522.587	80106.67
522.935	80107.52
523.283	80106.56
523.631	80105.93
523.979	80107.6
524.326	80107.74
524.674	80110.49
525.022	80109.15
525.369	80108.12
525.717	80109.23
526.064	80109.52
526.412	80110.08
526.759	80109.34
527.107	80108.93
527.454	80106.45
527.801	80106.3
528.149	80106.15
528.496	80104.19
528.843	80104.16
529.19	80102.19
529.537	80102.38
529.884	80103.01
530.231	80102.01
530.578	80102.27
530.925	80102.93
531.272	80102.12
531.619	80101.38
531.966	80099.67
532.312	80100.23
532.659	80098.93
533.006	80097.53
533.352	80095.97
533.699	80095.68
534.045	80095.27
534.392	80094.53
534.738	80094.94
535.084	80095.16
535.431	80097.75
535.777	80100.68
536.123	80100.82
536.469	80101.75
536.815	80099.94
537.161	80099.79
537.507	80099.42
537.853	80096.97
538.199	80096.46
538.545	80097.16
538.891	80098.38
539.237	80099.75
539.582	80099.16
539.928	80100.83
540.274	80101.75
540.619	80104.49
540.965	80104.08
541.31	80104.56
541.656	80104.3
542.001	80106.01
542.347	80106.64
542.692	80103.64
543.037	80103.27
543.382	80103.42
543.728	80104.53
544.073	80107.23
544.418	80106.34
544.763	80103.68
545.108	80107.12
545.453	80107.38
545.798	80105.67
546.142	80104.75
546.487	80102.41
546.832	80103.12
547.177	80102.19
547.521	80102.71
547.866	80101.67
548.211	80100.71
548.555	80102.34
548.9	80101.08
549.244	80100.53
549.588	80100.86
549.933	80100.86
550.277	80099.16
550.621	80098.94
550.965	80098.38
551.31	80096.34
551.654	80096.53
551.998	80099.12
552.342	80097.49
552.686	80097.93
553.03	80098.93
553.373	80100.12
553.717	80099.97
554.061	80100.04
554.405	80099.34
554.748	80098.45
555.092	80097.82
555.436	80100.53
555.779	80101.16
556.123	80102.78
556.466	80101.3
556.81	80100.08
557.153	80100.56
557.496	80102.78
557.839	80102.82
558.183	80102.93
558.526	80103.86
558.869	80104.04
559.212	80103.12
559.555	80103.52
559.898	80104.3
560.241	80102.93
560.584	80104.01
560.927	80104.01
561.269	80103.34
561.612	80105.01
561.955	80105.27
562.297	80107.64
562.64	80106.64
562.983	80104.12
563.325	80104.38
563.668	80106.19
564.01	80105.93
564.352	80103.86
564.695	80101.45
565.037	80100.34
565.379	80099.68
565.721	80100.05
566.063	80099.79
566.406	80100.31
566.748	80102.23
567.09	80100.75
567.431	80102.38
567.773	80101.34
568.115	80099.94
568.457	80100.27
568.799	80099.2
569.14	80099.49
569.482	80096.94
569.824	80095.38
570.165	80095.31
570.507	80095.27
570.848	80094.2
571.19	80094.35
571.531	80097.64
571.872	80098.71
572.214	80098.86
572.555	80098.9
572.896	80098.75
573.237	80098.93
573.578	80099.12
573.919	80097.49
574.26	80098.08
574.601	80097.6
574.942	80096.56
575.283	80097.82
575.624	80096.56
575.964	80095.94
576.305	80094.57
576.646	80094.86
576.986	80097.01
577.327	80097.42
577.667	80096.75
578.008	80097.34
578.348	80098.86
578.689	80097.01
579.029	80095.38
579.369	80096.64
579.71	80096.71
580.05	80096.05
580.39	80095.49
580.73	80094.27
581.07	80092.86
581.41	80091.61
581.75	80090.38
582.09	80090.68
582.43	80090.61
582.769	80091.86
583.109	80093.6
583.449	80094.01
583.789	80092.49
584.128	80091.61
584.468	80091.94
584.807	80092.9
585.147	80092.01
585.486	80089.2
585.825	80088.61
586.165	80089.72
586.504	80088.46
586.843	80089.53
587.182	80089.75
587.522	80088.64
587.861	80087.87
588.2	80088.5
588.539	80087.98
588.878	80089.27
589.216	80088.61
589.555	80087.72
589.894	80086.39
590.233	80084.94
590.572	80085.28
590.91	80085.54
591.249	80085.8
591.587	80085.68
591.926	80082.5
592.264	80083.2
592.603	80083.28
592.941	80083.46
593.279	80083.09
593.618	80083.61
593.956	80082.06
594.294	80082.09
594.632	80083.2
594.97	80084.02
595.308	80083.8
595.646	80083.76
595.984	80082.65
596.322	80082.72
596.66	80084.09
596.998	80084.24
597.335	80085.24
597.673	80084.83
598.011	80084.5
598.348	80083.35
598.686	80082.09
599.023	80084.31
599.361	80082.57
599.698	80083.39
600.035	80083.94
600.373	80083.76
600.71	80083.65
601.047	80082.91
601.384	80081.39
601.722	80080.84
602.059	80081.21
602.396	80079.5
602.733	80079.32
603.069	80078.69
603.406	80078.76
603.743	80077.8
604.08	80078.54
604.417	80076.54
604.753	80075.84
605.09	80076.21
605.426	80075.8
605.763	80074.77
606.099	80073.1
606.436	80073.06
606.772	80072.03
607.109	80072.03
607.445	80072.58
607.781	80072.07
608.117	80071.95
608.453	80073.03
608.79	80071.99
609.126	80072.44
609.462	80072.88
609.798	80073.06
610.133	80072.55
610.469	80072.51
610.805	80071.62
611.141	80070.03
611.477	80069.25
611.812	80068.81
612.148	80068.99
612.483	80068.62
612.819	80070.22
613.154	80070.47
613.49	80071.1
613.825	80071.92
614.16	80069.7
614.496	80068.55
614.831	80069.07
615.166	80068.11
615.501	80066.81
615.836	80068.66
616.171	80068.37
616.506	80069.29
616.841	80069.25
617.176	80070.77
617.511	80070.33
617.846	80070.81
618.18	80071.29
618.515	80072.73
618.85	80073.99
619.184	80073.77
619.519	80073.77
619.853	80073.36
620.188	80071.62
620.522	80071.84
620.856	80070.18
621.191	80070.07
621.525	80070.77
621.859	80069.59
622.193	80071.88
622.527	80074.47
622.861	80072.18
623.195	80071.36
623.529	80070.48
623.863	80070.25
624.197	80070.81
624.531	80068.85
624.865	80067.33
625.198	80067.78
625.532	80067.33
625.866	80065.82
626.199	80066.81
626.533	80065.67
626.866	80065.48
627.2	80066.85
627.533	80066
627.866	80067.7
628.2	80068.29
628.533	80067.41
628.866	80067.29
629.199	80066.89
629.532	80065.3
629.865	80066.15
630.198	80066.07
630.531	80066.07
630.864	80065.41
631.197	80063.26
631.529	80064.48
631.862	80065.63
632.195	80064.7
632.527	80065.26
632.86	80064.92
633.193	80062.78
633.525	80064.37
633.857	80064.26
634.19	80064.26
634.522	80064.18
634.854	80063.67
635.187	80064.59
635.519	80065.37
635.851	80065.11
636.183	80063.96
636.515	80061.85
636.847	80060.86
637.179	80060.19
637.511	80059.86
637.843	80059.45
638.174	80060.08
638.506	80058.9
638.838	80058.27
639.17	80058.01
639.501	80056.05
639.833	80057.01
640.164	80057.97
640.496	80057.19
640.827	80056.68
641.158	80056.6
641.49	80055.86
641.821	80057.08
642.152	80056.31
642.483	80055.01
642.814	80054.23
643.145	80054.2
643.476	80055.31
643.807	80055.38
644.138	80055.23
644.469	80054.46
644.8	80053.64
645.131	80054.09
645.461	80055.38
645.792	80055.42
646.122	80054.6
646.453	80055.05
646.784	80054.2
647.114	80052.83
647.444	80052.72
647.775	80052.87
648.105	80052.27
648.435	80051.53
648.765	80050.09
649.096	80048.35
649.426	80048.83
649.756	80049.02
650.086	80049.91
650.416	80048.35
650.746	80049.06
651.075	80049.17
651.405	80049.8
651.735	80050.94
652.065	80050.35
652.394	80049.02
652.724	80048.65
653.054	80049.65
653.383	80048.39
653.712	80048.06
654.042	80049.69
654.371	80048.32
654.701	80048.21
655.03	80049.72
655.359	80050.43
655.688	80051.35
656.017	80052.94
656.346	80052.16
656.675	80052.35
657.004	80049.54
657.333	80050.39
657.662	80049.02
657.991	80048.21
658.32	80047.65
658.648	80047.17
658.977	80045.99
659.306	80046.76
659.634	80046.8
659.963	80045.65
660.291	80047.1
660.619	80046.65
660.948	80044.91
661.276	80045.84
661.604	80045.95
661.933	80042.99
662.261	80042.58
662.589	80041.92
662.917	80040.81
663.245	80040.29
663.573	80039.48
663.901	80040.44
664.229	80041.07
664.556	80041.88
664.884	80043.43
665.212	80044.69
665.539	80044.32
665.867	80044.32
666.195	80041.96
666.522	80041.07
666.85	80040.85
667.177	80040.07
667.504	80039.48
667.832	80038.7
668.159	80037.59
668.486	80036.41
668.813	80038.07
669.14	80037.67
669.467	80036.41
669.794	80037.04
670.121	80036
670.448	80036.26
670.775	80035.37
671.102	80034.63
671.429	80033.71
671.755	80031.56
672.082	80029.12
672.409	80030.57
672.735	80030.12
673.062	80031.08
673.388	80032.41
673.714	80032.34
674.041	80031.75
674.367	80031.19
674.693	80032.6
675.019	80033.38
675.346	80033.19
675.672	80031.56
675.998	80031.86
676.324	80030.57
676.65	80030.94
676.976	80032.05
677.301	80033.12
677.627	80034.04
677.953	80032.9
678.279	80032.67
678.604	80031.49
678.93	80030.68
679.255	80029.49
679.581	80028.61
679.906	80028.83
680.232	80026.24
680.557	80025.1
680.882	80023.84
681.208	80024.28
681.533	80024.91
681.858	80022.47
682.183	80020.66
682.508	80021.47
682.833	80019.03
683.158	80018.48
683.483	80017.52
683.808	80017.52
684.132	80014.34
684.457	80013.23
684.782	80013.12
685.106	80013.52
685.431	80014.6
685.755	80014.93
686.08	80013.34
686.404	80012.67
686.729	80013.41
687.053	80014.6
687.377	80015.48
687.701	80016.19
688.026	80016.26
688.35	80014.12
688.674	80015.22
688.998	80015.59
689.322	80012.45
689.646	80013.45
689.97	80012.93
690.293	80011.31
690.617	80008.57
690.941	80007.54
691.264	80005.43
691.588	80004.77
691.912	80002.07
692.235	80000.26
692.559	79998.52
692.882	79998.08
693.205	79997.04
693.529	79994.34
693.852	79990.91
694.175	79988.8
694.498	79987.32
694.821	79983.22
695.144	79981.08
695.467	79977.46
695.79	79972.84
696.113	79970.63
696.436	79964.61
696.759	79958.37
697.082	79953.72
697.404	79948.44
697.727	79940.29
698.049	79933.21
698.372	79920.71
698.694	79907.3
699.017	79892.89
699.339	79876.1
699.662	79855.52
699.984	79825.72
700.306	79790.81
700.628	79738.22
700.95	79668.25
701.272	79576.4
701.594	79471.42
701.916	79372.16
702.238	79258.88
702.56	79093.15
702.882	78934.42
703.204	78778.3
703.525	78597.39
703.847	78373.58
704.169	78172.1
704.49	77956.37
704.812	77723.32
705.133	77491.91
705.455	77257.91
705.776	77000.12
706.097	76757.82
706.419	76505.27
706.74	76249.24
707.061	75971.75
707.382	75678.56
707.703	75377.99
708.024	75108.01
708.345	74823.84
708.666	74518.26
708.987	74203.72
709.307	73953.29
709.628	73642.34
709.949	73326.43
710.27	73018.8
710.59	72760.01
710.911	72456.82
711.231	72156.32
711.552	71890.19
711.872	71562.65
712.192	71279.09
712.512	71024.93
712.833	70747.79
713.153	70459.22
713.473	70212.3
713.793	69971.91
714.113	69756.64
714.433	69548.97
714.753	69334.63
715.073	69134.72
715.393	68933.55
715.712	68766.38
716.032	68537.41
716.352	68370.86
716.671	68216.19
716.991	68048.53
717.31	67854.49
717.63	67694.88
717.949	67518.23
718.268	67297.74
718.588	67125.98
718.907	66902.56
719.226	66642.99
719.545	66391.88
719.864	66126.06
720.183	65849.47
720.502	65570.78
720.821	65290.09
721.14	65005.08
721.459	64696.93
721.778	64427.33
722.096	64107.78
722.415	63809.86
722.734	63551.49
723.052	63267.97
723.371	62972.03
723.689	62695.05
724.008	62422.11
724.326	62126.46
724.644	61859.03
724.963	61596.77
725.281	61371.06
725.599	61137.69
725.917	60947.04
726.235	60757.21
726.553	60600.75
726.871	60414.92
727.189	60213.55
727.507	60013.63
727.824	59865.68
728.142	59727.67
728.46	59529.92
728.777	59428.18
729.095	59287.29
729.413	59136.42
729.73	58989.25
730.047	58851.15
730.365	58738.63
730.682	58622.37
730.999	58533.32
731.317	58456.76
731.634	58378.66
731.951	58260.06
732.268	58139.79
732.585	57985.48
732.902	57822.81
733.219	57671.61
733.536	57492.86
733.852	57368.88
734.169	57241.4
734.486	57091.5
734.802	56933.83
735.119	56819.33
735.435	56641.69
735.752	56484.03
736.068	56313.44
736.385	56149.77
736.701	55959.19
737.017	55724.36
737.333	55477.48
737.65	55172.1
737.966	54792.86
738.282	54392.93
738.598	53979.49
738.914	53523.96
739.23	53042.77
739.545	52521.44
739.861	51962.6
740.177	51411.45
740.493	50815.94
740.808	50241.24
741.124	49625.19
741.439	49043.49
741.755	48474.58
742.07	47948.75
742.386	47390.73
742.701	46888.82
743.016	46393.13
743.331	45931.44
743.647	45508.77
743.962	45119.85
744.277	44774.15
744.592	44501.91
744.907	44291.75
745.222	44127.92
745.537	44041.48
745.851	44006.77
746.166	44031.23
746.481	44083.42
746.795	44204.72
747.11	44355.17
747.424	44523.43
747.739	44700.7
748.053	44878.45
748.368	45027.31
748.682	45148.54
748.996	45282.78
749.311	45381.35
749.625	45481.03
749.939	45574.18
750.253	45632.33
750.567	45700.52
750.881	45767.86
751.195	45836.15
751.509	45900.92
751.822	45946.65
752.136	45983.29
752.45	46039.47
752.763	46097.95
753.077	46159.48
753.39	46183.21
753.704	46215.08
754.017	46233.17
754.331	46257.42
754.644	46262.47
754.957	46273.04
755.27	46280.63
755.584	46290.19
755.897	46301.5
756.21	46292.53
756.523	46263.92
756.836	46246.42
757.149	46172.64
757.461	46095.33
757.774	46005.13
758.087	45877.56
758.4	45745.97
758.712	45599.47
759.025	45443.28
759.337	45293.92
759.65	45133.64
759.962	44981.4
760.275	44820.77
760.587	44673.31
760.899	44537.05
761.211	44447.75
761.523	44370.75
761.836	44361.71
762.148	44368.49
762.46	44397.82
762.772	44466.42
763.083	44602.59
763.395	44749.71
763.707	44966.37
764.019	45196.5
764.33	45423.81
764.642	45688.47
764.954	45949.07
765.265	46228.84
765.577	46492.37
765.888	46731.61
766.199	46974.48
766.511	47187.41
766.822	47402.78
767.133	47579.3
767.444	47747.02
767.755	47836.21
768.066	47898.43
768.377	47894.65
768.688	47829.06
768.999	47742.63
769.31	47616.56
769.621	47429.87
769.931	47208.51
770.242	46946.02
770.553	46648.91
770.863	46318.67
771.174	45955.05
771.484	45571.43
771.794	45167.08
772.105	44754.89
772.415	44331.96
772.725	43889.31
773.035	43461.32
773.345	43002.43
773.656	42542.42
773.966	42072.71
774.276	41641.09
774.585	41207.74
774.895	40773.01
775.205	40389.12
775.515	39990.69
775.824	39599.59
776.134	39211.18
776.444	38841.81
776.753	38480.05
777.063	38136.14
777.372	37807.97
777.681	37487.53
777.991	37190.91
778.3	36888.88
778.609	36591.05
778.918	36303.75
779.228	36036.14
779.537	35769.5
779.846	35515.79
780.154	35266.62
780.463	35034.65
780.772	34782.83
781.081	34550.57
781.39	34343.15
781.698	34126.92
782.007	33922.99
782.316	33715.83
782.624	33504.33
782.932	33306.32
783.241	33113.47
783.549	32926.34
783.858	32757.14
784.166	32591.77
784.474	32416.08
784.782	32248.98
785.09	32093.15
785.398	31944.26
785.706	31802.5
786.014	31661.41
786.322	31523.17
786.63	31393.75
786.937	31265.13
787.245	31144.26
787.553	31019.02
787.86	30909.3
788.168	30782.31
788.475	30676.21
788.783	30576.87
789.09	30485.02
789.398	30383.96
789.705	30278.39
790.012	30170.72
790.319	30069.5
790.626	29961.05
790.933	29866.64
791.24	29783.79
791.547	29695.15
791.854	29603.81
792.161	29504.93
792.468	29403.89
792.774	29313.44
793.081	29224.68
793.388	29140.79
793.694	29046.99
794.001	28958.91
794.307	28836.27
794.614	28738.09
794.92	28606.86
795.226	28481.82
795.533	28364.37
795.839	28267.4
796.145	28160.71
796.451	28050.44
796.757	27939.74
797.063	27833.51
797.369	27721.78
797.675	27611.18
797.98	27508.37
798.286	27386.95
798.592	27277.9
798.898	27165.9
799.203	27042.21
799.509	26921.15
799.814	26792.46
800.12	26691.27
800.425	26584.5
800.73	26481.51
801.035	26366.35
801.341	26266.37
801.646	26163.89
801.951	26062.04
802.256	25958.59
802.561	25860.85
802.866	25771.87
803.171	25681.06
803.476	25589.79
803.78	25501.32
804.085	25407.78
804.39	25290.71
804.694	25196.54
804.999	25097.17
805.303	25007.6
805.608	24928.49
805.912	24848.73
806.216	24781.46
806.521	24711.06
806.825	24633.2
807.129	24561.62
807.433	24490.95
807.737	24426
808.041	24369.44
808.345	24309.59
808.649	24252.06
808.953	24201.71
809.257	24142.06
809.561	24088.13
809.864	24040.5
810.168	24005.41
810.471	23965.43
810.775	23942.06
811.078	23919.82
811.382	23898.96
811.685	23888.54
811.988	23878.6
812.292	23868.42
812.595	23862.86
812.898	23860.17
813.201	23870.75
813.504	23893.75
813.807	23922.16
814.11	23945.19
814.413	23970.96
814.716	24001.22
815.018	24048.75
815.321	24111.51
815.624	24196.31
815.926	24291.64
816.229	24413.42
816.531	24556.12
816.834	24720.91
817.136	24915.4
817.438	25127.29
817.74	25398
818.043	25713.59
818.345	26094.4
818.647	26555.35
818.949	27109.58
819.251	27745.76
819.553	28491.89
819.855	29357.94
820.156	30332.23
820.458	31424.78
820.76	32582.37
821.062	33796.26
821.363	35061.79
821.665	36398.51
821.966	37826.6
822.268	39278.03
822.569	40731.72
822.87	42203.53
823.171	43692.73
823.473	45227
823.774	46811.98
824.075	48340.66
824.376	49837.25
824.677	51301.86
824.978	52674.29
825.279	53956.83
825.58	55129.47
825.88	56162.79
826.181	57041.65
826.482	57823.57
826.782	58442.71
827.083	58955.83
827.383	59335.87
827.684	59549.79
827.984	59621.68
828.284	59534.78
828.585	59309.58
828.885	59001.52
829.185	58549.79
829.485	57996.85
829.785	57320.44
830.085	56482
830.385	55607.74
830.685	54666.36
830.985	53623.7
831.285	52554.68
831.584	51433.17
831.884	50277.14
832.183	49104.36
832.483	47898.4
832.782	46623.05
833.082	45344.61
833.381	44069.53
833.681	42833.77
833.98	41665.74
834.279	40534.05
834.578	39419.02
834.877	38387.85
835.176	37377.8
835.475	36445.56
835.774	35560.27
836.073	34692.13
836.372	33875.47
836.671	33067.09
836.969	32269.71
837.268	31521.34
837.567	30809.85
837.865	30123.92
838.164	29447.04
838.462	28797.45
838.761	28187.07
839.059	27605.58
839.357	27056.76
839.655	26522.65
839.953	25985.3
840.252	25461.88
840.55	24941.21
840.848	24442.57
841.146	23946.46
841.443	23449.99
841.741	22949.41
842.039	22442.02
842.337	21939.13
842.634	21476.79
842.932	21030.05
843.229	20605.85
843.527	20190.42
843.824	19746.84
844.122	19299.91
844.419	18880.09
844.716	18454.87
845.013	18041.54
845.311	17655.44
845.608	17281.98
845.905	16915.21
846.202	16561.03
846.499	16195.61
846.796	15834
847.092	15464.2
847.389	15101.13
847.686	14767.5
847.982	14448.51
848.279	14145.79
848.576	13859.97
848.872	13568.75
849.168	13279.96
849.465	13002.46
849.761	12714.76
850.057	12443.49
850.354	12182.54
850.65	11933.75
850.946	11706.61
851.242	11484.87
851.538	11264.3
851.834	11048.53
852.13	10835.21
852.425	10639.79
852.721	10460.38
853.017	10292.62
853.312	10142.76
853.608	10000.78
853.903	9858.7
854.199	9712.02
854.494	9575.9
854.79	9445.22
855.085	9309.52
855.38	9181.01
855.675	9050.64
855.971	8930.85
856.266	8829.57
856.561	8732.21
856.856	8642.66
857.151	8550.88
857.445	8452.66
857.74	8356.82
858.035	8265.24
858.33	8174.27
858.624	8086.15
858.919	8010.03
859.213	7923.35
859.508	7841.76
859.802	7754.97
860.096	7672.84
860.391	7612.86
860.685	7548.6
860.979	7489.08
861.273	7442.09
861.567	7385.14
861.861	7322.35
862.155	7270.08
862.449	7203.54
862.743	7140.9
863.037	7078.83
863.33	7023.55
863.624	6968.57
863.918	6922.06
864.211	6882.48
864.505	6850.26
864.798	6810.18
865.092	6760.06
865.385	6717.91
865.678	6668.62
865.971	6631
866.264	6596.28
866.558	6564.25
866.851	6533.78
867.144	6503.12
867.437	6467.03
867.729	6436.88
868.022	6414.94
868.315	6395.47
868.608	6381.78
868.9	6376.7
869.193	6360.56
869.485	6331.62
869.778	6311.67
870.07	6284.43
870.363	6261.95
870.655	6244.63
870.947	6237.53
871.239	6230.19
871.532	6232.19
871.824	6236.13
872.116	6235.24
872.408	6232.97
872.699	6220.84
872.991	6212.71
873.283	6208.21
873.575	6206.98
873.867	6218.18
874.158	6226.05
874.45	6221.79
874.741	6219.88
875.033	6214.73
875.324	6226.71
875.615	6248.69
875.907	6270.17
876.198	6286.89
876.489	6296.31
876.78	6298.84
877.071	6298.76
877.362	6302.61
877.653	6303.54
877.944	6312.14
878.235	6318.43
878.526	6327.33
878.816	6341.4
