Data from 24HourExp_27052025_FLMS018081_17-38-21-251.txt Node
Date: Tue May 27 17:38:21 BST 2025
User: adleo
Spectrometer: FLMS01808
Trigger mode: 0
Integration Time (sec): 4.000000E-1
Scans to average: 10
Electric dark correction enabled: true
Nonlinearity correction enabled: true
Boxcar width: 10
XAxis mode: Wavelengths
Number of Pixels in Spectrum: 2048
>>>>>Begin Spectral Data<<<<<
178.471	-126.21
178.857	-118.48
179.244	-111.04
179.631	-103.24
180.017	-95.65
180.404	-87.48
180.79	-75.68
181.176	-66.49
181.563	-58.66
181.949	-47.84
182.335	-38.33
182.722	-22.32
183.108	-3.76
183.494	22.83
183.88	76.32
184.266	130.3
184.653	187.2
185.039	242.87
185.425	298.31
185.811	352.38
186.197	407.13
186.582	460.28
186.968	512.11
187.354	564.55
187.74	614.15
188.126	666.19
188.511	716.25
188.897	761.54
189.283	808.66
189.668	855.37
190.054	899.33
190.439	945.15
190.825	989.41
191.21	1031.02
191.596	1063.81
191.981	1073.36
192.366	1077.11
192.752	1078.91
193.137	1082.15
193.522	1084.04
193.908	1086.92
194.293	1087.8
194.678	1089.17
195.063	1091.18
195.448	1091.92
195.833	1094.98
196.218	1094.23
196.603	1093.65
196.988	1095.16
197.373	1094.76
197.757	1095.93
198.142	1096.52
198.527	1093.9
198.912	1092.13
199.296	1090.76
199.681	1090.12
200.066	1087.78
200.45	1087.62
200.835	1086.93
201.219	1087.04
201.604	1086.39
201.988	1084.9
202.372	1085.63
202.757	1086.32
203.141	1087.3
203.525	1088.13
203.91	1087.57
204.294	1088.01
204.678	1089.05
205.062	1088.43
205.446	1089.4
205.83	1091.55
206.214	1090.96
206.598	1092.41
206.982	1094.56
207.366	1094.19
207.75	1094.6
208.134	1095.28
208.517	1096.62
208.901	1097.78
209.285	1096.36
209.669	1098.9
210.052	1101.03
210.436	1102.09
210.819	1100.88
211.203	1099.11
211.586	1099.14
211.97	1099.63
212.353	1100.06
212.737	1101.86
213.12	1104.7
213.503	1106.07
213.886	1105.9
214.27	1108.24
214.653	1111.08
215.036	1112.34
215.419	1115.81
215.802	1117.77
216.185	1118.65
216.568	1121.88
216.951	1123.65
217.334	1126.96
217.717	1130.17
218.1	1131.6
218.482	1136.21
218.865	1139.84
219.248	1146.53
219.631	1150.04
220.013	1156.13
220.396	1164.26
220.778	1168.27
221.161	1172.81
221.544	1179.05
221.926	1187.88
222.308	1195.27
222.691	1201.64
223.073	1210
223.455	1218.09
223.838	1228.97
224.22	1238.71
224.602	1248.48
224.984	1259.07
225.366	1271.07
225.749	1284.04
226.131	1298.34
226.513	1309.6
226.895	1325.46
227.276	1340.83
227.658	1356.41
228.04	1372.18
228.422	1387.96
228.804	1405.78
229.186	1422.86
229.567	1440.04
229.949	1454.71
230.331	1472
230.712	1489.51
231.094	1508.22
231.475	1528.06
231.857	1546.89
232.238	1565.95
232.62	1586.08
233.001	1606.92
233.382	1628.75
233.763	1647.93
234.145	1668.46
234.526	1688.14
234.907	1708.58
235.288	1726.11
235.669	1746.19
236.05	1765.01
236.431	1783.92
236.812	1804.37
237.193	1825.24
237.574	1847.39
237.955	1869.7
238.336	1894.06
238.717	1918.04
239.097	1941.28
239.478	1963.48
239.859	1988.36
240.239	2015.57
240.62	2039.62
241.001	2063.78
241.381	2088.4
241.762	2113.32
242.142	2136.72
242.522	2162.22
242.903	2188.75
243.283	2215.87
243.663	2245.11
244.044	2275.14
244.424	2303.55
244.804	2331.1
245.184	2364.29
245.564	2393.75
245.944	2426.18
246.324	2457.54
246.704	2488.31
247.084	2520.24
247.464	2553.44
247.844	2586.75
248.224	2617.83
248.604	2650.72
248.983	2683.17
249.363	2715.2
249.743	2748.06
250.122	2780.52
250.502	2812.24
250.882	2844.42
251.261	2876.67
251.641	2908.96
252.02	2943.18
252.399	2978.98
252.779	3016.6
253.158	3051.27
253.537	3092.27
253.917	3136.51
254.296	3174.82
254.675	3218.74
255.054	3258.72
255.433	3303.02
255.812	3340.72
256.191	3385.03
256.57	3428.36
256.949	3474.17
257.328	3520.74
257.707	3567.05
258.086	3617.47
258.465	3668.7
258.843	3720.44
259.222	3774.9
259.601	3830.98
259.979	3886.17
260.358	3940.81
260.736	3997.98
261.115	4053.38
261.493	4110.33
261.872	4165.03
262.25	4223.13
262.629	4278.26
263.007	4336.91
263.385	4395.08
263.763	4460.72
264.142	4524.22
264.52	4588.66
264.898	4655.82
265.276	4721.81
265.654	4791.69
266.032	4860.57
266.41	4934.51
266.788	5007.76
267.166	5085.59
267.544	5161.71
267.921	5240.95
268.299	5321.21
268.677	5403.77
269.055	5489.29
269.432	5572.95
269.81	5659.54
270.188	5748.61
270.565	5838.66
270.943	5934.05
271.32	6026.91
271.697	6125.41
272.075	6223.67
272.452	6319.85
272.829	6417.84
273.207	6519.66
273.584	6621.65
273.961	6728.82
274.338	6839.97
274.715	6954.58
275.092	7075.3
275.469	7197.41
275.846	7320.07
276.223	7443.88
276.6	7567.59
276.977	7693.36
277.354	7819.91
277.731	7946.97
278.108	8075.29
278.484	8209.66
278.861	8343.03
279.238	8484.45
279.614	8617.51
279.991	8758.99
280.367	8905.69
280.744	9052.24
281.12	9205.16
281.497	9358.31
281.873	9508.72
282.249	9657.04
282.625	9802.75
283.002	9942.33
283.378	10088.01
283.754	10237.76
284.13	10392.01
284.506	10551.99
284.882	10710.51
285.258	10867.71
285.634	11023.95
286.01	11189.32
286.386	11347.34
286.762	11511.48
287.138	11679.31
287.513	11847.32
287.889	12009.03
288.265	12175.67
288.641	12339.24
289.016	12501
289.392	12667.09
289.767	12833.3
290.143	13002.93
290.518	13172.97
290.894	13342.85
291.269	13508.65
291.644	13670.34
292.02	13826.33
292.395	13975.86
292.77	14133.33
293.145	14285.93
293.52	14441.42
293.895	14588.7
294.27	14745.48
294.646	14896.96
295.02	15041.89
295.395	15192.08
295.77	15354.18
296.145	15510.12
296.52	15669.67
296.895	15824.63
297.269	15981.98
297.644	16137.51
298.019	16289.87
298.393	16442.91
298.768	16598.43
299.143	16749.56
299.517	16901.37
299.891	17063.66
300.266	17226.34
300.64	17385.26
301.015	17553.44
301.389	17729.39
301.763	17910.25
302.137	18085.82
302.512	18271.22
302.886	18451.52
303.26	18638.53
303.634	18815.48
304.008	18989.26
304.382	19172.3
304.756	19358.83
305.13	19541.68
305.504	19723.45
305.877	19918.86
306.251	20127.07
306.625	20326.56
306.999	20541.86
307.372	20757.07
307.746	20975.27
308.119	21189.87
308.493	21403.55
308.866	21615.61
309.24	21828.45
309.613	22031.29
309.987	22237.97
310.36	22430.81
310.733	22643.33
311.107	22858.1
311.48	23080.18
311.853	23319.78
312.226	23546.32
312.599	23777.4
312.972	24007.14
313.345	24240.03
313.718	24471.86
314.091	24694.16
314.464	24929.46
314.837	25149.57
315.21	25360.09
315.582	25580.69
315.955	25794.74
316.328	26017.1
316.7	26241.19
317.073	26464.25
317.446	26696.52
317.818	26935.42
318.191	27174.49
318.563	27401.85
318.936	27620.19
319.308	27821.43
319.68	28026.16
320.053	28226.03
320.425	28415.72
320.797	28598.08
321.169	28767.07
321.541	28912.08
321.913	29050.4
322.285	29164.9
322.657	29295.09
323.029	29450.24
323.401	29590.52
323.773	29759.53
324.145	29933.93
324.517	30114.77
324.889	30294.17
325.26	30494.65
325.632	30707.01
326.004	30941.5
326.375	31197.89
326.747	31470.89
327.118	31782.34
327.49	32068.9
327.861	32384.95
328.233	32695.27
328.604	33009.94
328.975	33327.39
329.346	33641.44
329.718	33945.87
330.089	34262.82
330.46	34558.06
330.831	34836.01
331.202	35096.94
331.573	35348.57
331.944	35578.61
332.315	35816.41
332.686	36035.35
333.057	36240.11
333.428	36423.18
333.799	36603.46
334.169	36760.09
334.54	36911.15
334.911	37026.07
335.281	37157.69
335.652	37268.93
336.022	37413.35
336.393	37559.47
336.763	37724.35
337.134	37905.25
337.504	38102.69
337.874	38303.89
338.245	38518.14
338.615	38736.29
338.985	38972.56
339.355	39194.3
339.726	39420.07
340.096	39635.96
340.466	39889.56
340.836	40131.35
341.206	40377.33
341.576	40617.29
341.945	40858.16
342.315	41083.27
342.685	41333.54
343.055	41586.14
343.425	41833.76
343.794	42063.99
344.164	42297.02
344.533	42535.98
344.903	42774.91
345.273	43015.37
345.642	43246.49
346.011	43475.09
346.381	43706.76
346.75	43936.58
347.12	44186.83
347.489	44443.26
347.858	44694.98
348.227	44906.88
348.596	45133.16
348.965	45372.17
349.334	45598.2
349.704	45837.92
350.072	46088.23
350.441	46322.74
350.81	46561.32
351.179	46800.36
351.548	47033.82
351.917	47255.12
352.285	47446.23
352.654	47646.83
353.023	47861.58
353.391	48063.42
353.76	48278.88
354.129	48470.76
354.497	48706.79
354.865	48926.42
355.234	49155.39
355.602	49374.14
355.971	49624.08
356.339	49831.69
356.707	50051.06
357.075	50275.77
357.443	50503.57
357.811	50712.31
358.18	50921.01
358.548	51131.17
358.916	51342.03
359.284	51557.07
359.651	51775.64
360.019	52000.78
360.387	52205.47
360.755	52401.74
361.123	52629.05
361.49	52856.88
361.858	53072.95
362.226	53264.74
362.593	53469.48
362.961	53653.22
363.328	53854.7
363.696	54025.37
364.063	54243.39
364.43	54447.11
364.798	54666.84
365.165	54844.06
365.532	55033.06
365.899	55222.59
366.267	55384.6
366.634	55529.62
367.001	55695.86
367.368	55840.24
367.735	56028.59
368.102	56208.15
368.469	56402.67
368.835	56581.35
369.202	56736.6
369.569	56935.12
369.936	57126.26
370.303	57311.32
370.669	57508.4
371.036	57680.67
371.402	57881.37
371.769	58078.37
372.135	58231.66
372.502	58350.48
372.868	58494.86
373.235	58641.27
373.601	58778.9
373.967	58963.06
374.333	59153.35
374.7	59340.61
375.066	59549.18
375.432	59728.01
375.798	59913.18
376.164	60081.1
376.53	60232.76
376.896	60413.1
377.262	60586.47
377.628	60717.38
377.993	60860.79
378.359	61009.31
378.725	61165.41
379.091	61325.34
379.456	61457.19
379.822	61590.49
380.187	61747.03
380.553	61940.51
380.918	62141.38
381.284	62320.71
381.649	62486.09
382.015	62631.31
382.38	62756.04
382.745	62925.58
383.11	63079.06
383.476	63227.27
383.841	63359.11
384.206	63521.67
384.571	63636.67
384.936	63766.48
385.301	63945.97
385.666	64085.54
386.031	64237.44
386.396	64399.57
386.76	64545.47
387.125	64738.19
387.49	64934.88
387.855	65124.9
388.219	65292.85
388.584	65468.24
388.948	65663.92
389.313	65832.25
389.677	66038.73
390.042	66270.19
390.406	66418.53
390.771	66614.96
391.135	66803.88
391.499	67041.98
391.863	67272.58
392.227	67520.05
392.592	67720.06
392.956	67911.25
393.32	68111.3
393.684	68341.33
394.048	68514.34
394.412	68698.24
394.775	68841.78
395.139	69003.85
395.503	69171.92
395.867	69329.74
396.231	69470.51
396.594	69577.33
396.958	69719.47
397.321	69876.47
397.685	70006.24
398.048	70154.82
398.412	70287.96
398.775	70415.64
399.139	70535.11
399.502	70643.48
399.865	70787.1
400.228	70985.12
400.592	71123.38
400.955	71319.11
401.318	71450.12
401.681	71623.05
402.044	71763.54
402.407	71923.87
402.77	72084.75
403.133	72271.72
403.496	72414.5
403.859	72568
404.221	72809.71
404.584	73050.97
404.947	73302.75
405.309	73520.09
405.672	73763.48
406.034	73994.96
406.397	74261.05
406.759	74494.09
407.122	74685.17
407.484	74857.28
407.847	75042.89
408.209	75291.36
408.571	75517.03
408.933	75770.28
409.296	76027.29
409.658	76285.66
410.02	76556.9
410.382	76842.56
410.744	77087.64
411.106	77361.61
411.468	77620.06
411.83	77830.64
412.191	78003.93
412.553	78145.84
412.915	78316.63
413.277	78481.36
413.638	78632.16
414	78762.38
414.361	78897.11
414.723	79080.36
415.084	79251.71
415.446	79377.58
415.807	79473.64
416.169	79543.92
416.53	79591.36
416.891	79644.16
417.252	79707.14
417.614	79741.92
417.975	79758.58
418.336	79776.42
418.697	79797.31
419.058	79815.59
419.419	79828.08
419.78	79844.93
420.141	79856.21
420.501	79864.46
420.862	79872.53
421.223	79879.54
421.584	79896.28
421.944	79903.77
422.305	79908.71
422.666	79912.77
423.026	79914.14
423.387	79920.96
423.747	79924.24
424.107	79932.47
424.468	79938.27
424.828	79942.03
425.188	79944.51
425.549	79948.31
425.909	79951.89
426.269	79950.12
426.629	79952.78
426.989	79955.44
427.349	79957.73
427.709	79960.16
428.069	79962.27
428.429	79964.96
428.789	79969.14
429.149	79972.02
429.508	79974.72
429.868	79978.56
430.228	79982.33
430.587	79984.8
430.947	79988.42
431.306	79992.52
431.666	79993.45
432.025	79993.37
432.385	79996.55
432.744	79996.96
433.103	79998.51
433.463	80000.51
433.822	80006.97
434.181	80011.3
434.54	80013.7
434.899	80015.73
435.258	80017.28
435.618	80020.98
435.976	80024.71
436.335	80025.71
436.694	80026.71
437.053	80025.64
437.412	80027.04
437.771	80027.23
438.129	80028.85
438.488	80029.89
438.847	80030.85
439.205	80032.74
439.564	80035.4
439.922	80036.21
440.281	80038.54
440.639	80038.47
440.997	80038.02
441.356	80037.87
441.714	80035.14
442.072	80036.88
442.431	80035.8
442.789	80037.65
443.147	80036.73
443.505	80036.1
443.863	80036.84
444.221	80037.69
444.579	80039.21
444.937	80038.02
445.294	80038.43
445.652	80039.32
446.01	80037.87
446.368	80038.47
446.725	80039.1
447.083	80039.43
447.441	80039.28
447.798	80038.54
448.156	80040.09
448.513	80041.28
448.87	80040.02
449.228	80041.76
449.585	80041.98
449.942	80043.05
450.3	80040.65
450.657	80041.39
451.014	80041.68
451.371	80041.83
451.728	80041.76
452.085	80042.35
452.442	80042.27
452.799	80042.64
453.156	80043.24
453.513	80044.75
453.869	80046.12
454.226	80044.97
454.583	80044.27
454.939	80044.79
455.296	80044.42
455.653	80044.97
456.009	80045.09
456.366	80046.34
456.722	80046.93
457.078	80045.64
457.435	80047.56
457.791	80049.74
458.147	80050.04
458.503	80049.89
458.86	80050.74
459.216	80050.85
459.572	80050.93
459.928	80051.59
460.284	80053.59
460.64	80053.59
460.996	80052.7
461.351	80051.78
461.707	80053.15
462.063	80054.29
462.419	80053.85
462.774	80055
463.13	80054.96
463.486	80056.14
463.841	80057.73
464.197	80057.44
464.552	80058.36
464.908	80057.7
465.263	80057.77
465.618	80057.88
465.974	80056.81
466.329	80056.14
466.684	80056.96
467.039	80058.25
467.394	80058.47
467.749	80057.62
468.104	80057.44
468.459	80059.66
468.814	80060.25
469.169	80060.58
469.524	80060.69
469.879	80059.62
470.233	80058.84
470.588	80059.51
470.943	80060.55
471.297	80060.62
471.652	80063.21
472.006	80063.54
472.361	80065.36
472.715	80065.25
473.07	80066.13
473.424	80069.54
473.778	80070.91
474.133	80070.98
474.487	80071.02
474.841	80073.9
475.195	80074.94
475.549	80075.94
475.903	80076.83
476.257	80077.42
476.611	80077.38
476.965	80078.71
477.319	80079.49
477.673	80080.71
478.026	80081.9
478.38	80082.01
478.734	80082.41
479.087	80080.97
479.441	80081.04
479.795	80081.38
480.148	80082.75
480.502	80084.12
480.855	80084.89
481.208	80085.23
481.562	80087.3
481.915	80088.48
482.268	80085.12
482.621	80084.71
482.974	80085.52
483.328	80085.45
483.681	80085.74
484.034	80085.67
484.387	80085.45
484.739	80088.04
485.092	80088.74
485.445	80089.04
485.798	80087.41
486.151	80087.85
486.503	80089.26
486.856	80090.48
487.209	80091.56
487.561	80092.44
487.914	80090.59
488.266	80089.74
488.618	80088.48
488.971	80087.15
489.323	80087.11
489.675	80090.41
490.028	80090.56
490.38	80088.67
490.732	80088.37
491.084	80087.89
491.436	80089.11
491.788	80089.19
492.14	80089.04
492.492	80088.37
492.844	80088.34
493.196	80090.78
493.548	80091.15
493.899	80090.82
494.251	80091.04
494.603	80089.3
494.954	80088.22
495.306	80088.3
495.657	80088.04
496.009	80088.78
496.36	80089.07
496.712	80088.93
497.063	80087.08
497.414	80087.48
497.765	80088.37
498.117	80086.74
498.468	80087.45
498.819	80088.15
499.17	80087.48
499.521	80086.52
499.872	80087.82
500.223	80087.04
500.574	80088.26
500.924	80086.93
501.275	80087.22
501.626	80086.93
501.977	80087.67
502.327	80088
502.678	80088.82
503.029	80089.93
503.379	80088.96
503.73	80089.59
504.08	80089.82
504.43	80091.41
504.781	80089.78
505.131	80091.3
505.481	80092.41
505.831	80092.55
506.182	80092.33
506.532	80093.92
506.882	80094.81
507.232	80094.26
507.582	80093
507.932	80089.93
508.281	80091
508.631	80089.04
508.981	80089.96
509.331	80089.34
509.681	80088.96
510.03	80089.37
510.38	80087.74
510.729	80089.67
511.079	80087.71
511.428	80088.93
511.778	80086.19
512.127	80088.82
512.476	80087.08
512.826	80086.3
513.175	80086.41
513.524	80084.78
513.873	80082.97
514.222	80080.79
514.571	80079.38
514.92	80079.34
515.269	80080.49
515.618	80079.57
515.967	80081.93
516.316	80080.71
516.665	80079.82
517.014	80080.19
517.362	80080.82
517.711	80080.38
518.059	80080.42
518.408	80082.56
518.757	80080.27
519.105	80081.34
519.453	80080.6
519.802	80082.08
520.15	80084.08
520.498	80083.23
520.847	80083.52
521.195	80083.93
521.543	80085.86
521.891	80087.56
522.239	80088.74
522.587	80088.22
522.935	80089.85
523.283	80087.82
523.631	80088.67
523.979	80089.19
524.326	80090.04
524.674	80090.33
525.022	80091.07
525.369	80090.56
525.717	80090.37
526.064	80090.93
526.412	80092.78
526.759	80094.18
527.107	80092.85
527.454	80091.44
527.801	80091.48
528.149	80092.18
528.496	80093.37
528.843	80093.11
529.19	80093.29
529.537	80094.48
529.884	80095.03
530.231	80094.29
530.578	80096.51
530.925	80096.77
531.272	80098.37
531.619	80097.48
531.966	80097.7
532.312	80096.92
532.659	80097.14
533.006	80096.89
533.352	80097
533.699	80095.77
534.045	80093.11
534.392	80093.22
534.738	80095.18
535.084	80096.29
535.431	80096.55
535.777	80096
536.123	80096.44
536.469	80096.44
536.815	80095.63
537.161	80096.81
537.507	80096.66
537.853	80095.74
538.199	80093.29
538.545	80091.74
538.891	80092.59
539.237	80091.18
539.582	80093.74
539.928	80092.04
540.274	80092.85
540.619	80093.78
540.965	80092.89
541.31	80094.55
541.656	80094.59
542.001	80094.29
542.347	80093.41
542.692	80092.07
543.037	80091.56
543.382	80090.67
543.728	80091.93
544.073	80093.22
544.418	80090.22
544.763	80089.85
545.108	80088.74
545.453	80090.19
545.798	80090.78
546.142	80089.22
546.487	80090.04
546.832	80089.67
547.177	80092.15
547.521	80091.07
547.866	80092.48
548.211	80093.37
548.555	80092.85
548.9	80094.52
549.244	80092.67
549.588	80092.74
549.933	80092.41
550.277	80093.04
550.621	80091.78
550.965	80090.74
551.31	80089.19
551.654	80089.59
551.998	80090.52
552.342	80091.48
552.686	80091.74
553.03	80090.85
553.373	80092.41
553.717	80091.89
554.061	80090.67
554.405	80088.37
554.748	80088.19
555.092	80086.82
555.436	80087.19
555.779	80087.45
556.123	80086.15
556.466	80087.82
556.81	80088.26
557.153	80089.37
557.496	80089.3
557.839	80092.96
558.183	80092.59
558.526	80093.81
558.869	80094.89
559.212	80093.96
559.555	80092.81
559.898	80093.26
560.241	80092.3
560.584	80090.33
560.927	80091.37
561.269	80091.63
561.612	80094.63
561.955	80096.26
562.297	80096
562.64	80094.37
562.983	80094.15
563.325	80095.04
563.668	80094.52
564.01	80095.66
564.352	80094.67
564.695	80094.63
565.037	80092.52
565.379	80092.18
565.721	80091.81
566.063	80091.63
566.406	80091.33
566.748	80091.74
567.09	80089.22
567.431	80089.48
567.773	80090.56
568.115	80089.52
568.457	80090.04
568.799	80088.82
569.14	80086.82
569.482	80086.15
569.824	80086.37
570.165	80085.89
570.507	80083.97
570.848	80084.6
571.19	80082.38
571.531	80083.52
571.872	80083.63
572.214	80084.26
572.555	80083.67
572.896	80084.26
573.237	80083.41
573.578	80082.75
573.919	80083.08
574.26	80084.3
574.601	80086.04
574.942	80083.71
575.283	80083.64
575.624	80082.38
575.964	80081.3
576.305	80081.53
576.646	80081.97
576.986	80082.78
577.327	80082.38
577.667	80083.15
578.008	80081.82
578.348	80082.3
578.689	80082.34
579.029	80082.45
579.369	80080.53
579.71	80080.79
580.05	80078.01
580.39	80079.9
580.73	80079.67
581.07	80079.3
581.41	80079.27
581.75	80078.08
582.09	80079.38
582.43	80078.56
582.769	80078.53
583.109	80079.38
583.449	80078.86
583.789	80077.9
584.128	80078.27
584.468	80077.27
584.807	80076.79
585.147	80075.49
585.486	80074.31
585.825	80072.98
586.165	80072.09
586.504	80071.9
586.843	80072.09
587.182	80072.09
587.522	80069.65
587.861	80069.91
588.2	80069.2
588.539	80070.2
588.878	80068.94
589.216	80070.65
589.555	80070.02
589.894	80069.68
590.233	80069.8
590.572	80070.17
590.91	80069.28
591.249	80067.17
591.587	80066.76
591.926	80066.58
592.264	80067.28
592.603	80068.28
592.941	80068.39
593.279	80069.31
593.618	80068.83
593.956	80068.8
594.294	80068.69
594.632	80069.65
594.97	80069.54
595.308	80069.68
595.646	80068.76
595.984	80071.24
596.322	80069.8
596.66	80071.39
596.998	80072.64
597.335	80069.8
597.673	80068.06
598.011	80068.17
598.348	80067.98
598.686	80069.02
599.023	80069.35
599.361	80068.72
599.698	80068.28
600.035	80067.84
600.373	80066.65
600.71	80068.13
601.047	80067.17
601.384	80065.84
601.722	80065.69
602.059	80065.13
602.396	80064.84
602.733	80063.84
603.069	80062.32
603.406	80062.17
603.743	80059.77
604.08	80058.81
604.417	80060.25
604.753	80061.66
605.09	80061.95
605.426	80062.51
605.763	80061.77
606.099	80061.73
606.436	80061.8
606.772	80062.84
607.109	80061.36
607.445	80059.7
607.781	80057.44
608.117	80057.29
608.453	80060.03
608.79	80058.4
609.126	80057.44
609.462	80058.44
609.798	80058.22
610.133	80057.14
610.469	80056.77
610.805	80056.4
611.141	80055.81
611.477	80056.29
611.812	80057
612.148	80055.04
612.483	80054.52
612.819	80054
613.154	80052.89
613.49	80053.37
613.825	80051.71
614.16	80053.19
614.496	80053.74
614.831	80055.11
615.166	80053.96
615.501	80053.74
615.836	80054.89
616.171	80055.74
616.506	80054.63
616.841	80055.7
617.176	80054.44
617.511	80054.04
617.846	80056
618.18	80055.18
618.515	80053.67
618.85	80051.19
619.184	80053
619.519	80052.67
619.853	80052.93
620.188	80052.67
620.522	80052.19
620.856	80052.3
621.191	80050.93
621.525	80050.93
621.859	80048.34
622.193	80049.75
622.527	80048.82
622.861	80048.71
623.195	80048.49
623.529	80048.49
623.863	80048.04
624.197	80049.89
624.531	80049.71
624.865	80049.89
625.198	80051.08
625.532	80050.71
625.866	80051.74
626.199	80051.59
626.533	80052.81
626.866	80052.67
627.2	80052.74
627.533	80051.11
627.866	80050.67
628.2	80050.74
628.533	80050.82
628.866	80052.33
629.199	80052.52
629.532	80052.41
629.865	80050.52
630.198	80050.71
630.531	80050.19
630.864	80048.89
631.197	80046.64
631.529	80046.71
631.862	80045.27
632.195	80044.64
632.527	80043.24
632.86	80043.35
633.193	80042.64
633.525	80042.2
633.857	80042.98
634.19	80041.2
634.522	80041.79
634.854	80042.35
635.187	80042.5
635.519	80041.91
635.851	80041.91
636.183	80039.72
636.515	80040.57
636.847	80041.35
637.179	80041.2
637.511	80040.46
637.843	80040.57
638.174	80041.39
638.506	80039.76
638.838	80039.46
639.17	80038.58
639.501	80040.94
639.833	80039.61
640.164	80039.02
640.496	80037.98
640.827	80037.02
641.158	80038.95
641.49	80038.83
641.821	80039.28
642.152	80039.28
642.483	80039.57
642.814	80040.39
643.145	80041.02
643.476	80040.46
643.807	80040.2
644.138	80040.17
644.469	80041.24
644.8	80039.72
645.131	80040.91
645.461	80043.42
645.792	80042.61
646.122	80042.42
646.453	80040.13
646.784	80041.31
647.114	80042.5
647.444	80042.57
647.775	80041.39
648.105	80040.8
648.435	80040.72
648.765	80040.17
649.096	80039.72
649.426	80039.06
649.756	80037.54
650.086	80037.47
650.416	80035.36
650.746	80036.36
651.075	80036.69
651.405	80034.25
651.735	80036.17
652.065	80034.25
652.394	80033.99
652.724	80034.92
653.054	80034.58
653.383	80036.32
653.712	80036.1
654.042	80034.18
654.371	80034.66
654.701	80035.32
655.03	80034.44
655.359	80033.77
655.688	80033.03
656.017	80032.33
656.346	80031.81
656.675	80032.11
657.004	80031.88
657.333	80031.66
657.662	80030.96
657.991	80029.85
658.32	80031.22
658.648	80031.25
658.977	80031.81
659.306	80030
659.634	80029
659.963	80029.18
660.291	80027.96
660.619	80026.48
660.948	80027.33
661.276	80027.22
661.604	80027.22
661.933	80027.3
662.261	80027.89
662.589	80026.67
662.917	80025.86
663.245	80026.04
663.573	80025.67
663.901	80025.3
664.229	80025.71
664.556	80024.01
664.884	80022.79
665.212	80022.94
665.539	80021.57
665.867	80021.49
666.195	80019.83
666.522	80021.53
666.85	80020.72
667.177	80021.24
667.504	80021.09
667.832	80019.2
668.159	80018.76
668.486	80018.02
668.813	80017.5
669.14	80017.02
669.467	80017.87
669.794	80019.31
670.121	80018.13
670.448	80017.5
670.775	80016.06
671.102	80016.65
671.429	80017.02
671.755	80017.91
672.082	80017.95
672.409	80017.47
672.735	80017.21
673.062	80016.87
673.388	80016.39
673.714	80015.99
674.041	80014.29
674.367	80013.73
674.693	80014.62
675.019	80012.66
675.346	80012.73
675.672	80011.7
675.998	80011.81
676.324	80010.81
676.65	80009.67
676.976	80009.26
677.301	80010.63
677.627	80010.26
677.953	80009.37
678.279	80009.15
678.604	80008.3
678.93	80006.71
679.255	80004.68
679.581	80003.98
679.906	80005.05
680.232	80002.16
680.557	80002.39
680.882	80001.87
681.208	80000.94
681.533	80000.57
681.858	80002.46
682.183	80001.02
682.508	80000.61
682.833	79999.72
683.158	79999.72
683.483	79998.8
683.808	79999.43
684.132	79996.77
684.457	79998.1
684.782	79997.62
685.106	79997.21
685.431	79996.58
685.755	79996.92
686.08	79999.02
686.404	79997.95
686.729	79997.36
687.053	79998.76
687.377	79997.84
687.701	79999.8
688.026	80001.09
688.35	80000.39
688.674	80000.32
688.998	80000.35
689.322	80000.35
689.646	79998.54
689.97	79996.36
690.293	79996.62
690.617	79995.59
690.941	79994.88
691.264	79993.18
691.588	79991.23
691.912	79989.45
692.235	79988.09
692.559	79987.01
692.882	79984.21
693.205	79984.28
693.529	79981.77
693.852	79978.48
694.175	79977.11
694.498	79973.94
694.821	79969.98
695.144	79966.92
695.467	79961.16
695.79	79959.2
696.113	79956.62
696.436	79953.63
696.759	79950.93
697.082	79946.21
697.404	79941.89
697.727	79937.94
698.049	79932.03
698.372	79924.18
698.694	79914.26
699.017	79906.18
699.339	79893.69
699.662	79880.94
699.984	79858.64
700.306	79837.28
700.628	79805.89
700.95	79762.98
701.272	79709.63
701.594	79648.39
701.916	79587.45
702.238	79516.8
702.56	79403.98
702.882	79283.09
703.204	79172.37
703.525	79040.04
703.847	78862.72
704.169	78689.03
704.49	78495.37
704.812	78301.3
705.133	78103.48
705.455	77901.22
705.776	77672.36
706.097	77454.58
706.419	77233.01
706.74	76999.49
707.061	76745.06
707.382	76459.01
707.703	76169.21
708.024	75894.52
708.345	75600.84
708.666	75284.16
708.987	74958.2
709.307	74675.7
709.628	74367.12
709.949	74033.66
710.27	73704.67
710.59	73421.1
710.911	73124.63
711.231	72820.67
711.552	72545.97
711.872	72211.67
712.192	71926.74
712.512	71663.88
712.833	71388.22
713.153	71097.82
713.473	70852
713.793	70611.09
714.113	70391.19
714.433	70172
714.753	69952.13
715.073	69754.64
715.393	69554.5
715.712	69385.58
716.032	69163.97
716.352	68989.33
716.671	68832.37
716.991	68656.43
717.31	68471.04
717.63	68313.17
717.949	68129.95
718.268	67911.42
718.588	67731.82
718.907	67496.43
719.226	67230.14
719.545	66983.86
719.864	66707.5
720.183	66424.03
720.502	66132.53
720.821	65852.18
721.14	65570.68
721.459	65263.42
721.778	64979.06
722.096	64654.41
722.415	64354.19
722.734	64094.13
723.052	63803.13
723.371	63505.18
723.689	63228.59
724.008	62941.66
724.326	62631.56
724.644	62363.11
724.963	62089.83
725.281	61860.43
725.599	61625.65
725.917	61437.67
726.235	61234.92
726.553	61076.99
726.871	60883.46
727.189	60678.21
727.507	60478.31
727.824	60319.72
728.142	60174.28
728.46	59973.56
728.777	59876.48
729.095	59731.76
729.413	59573.69
729.73	59424.47
730.047	59288.05
730.365	59168.98
730.682	59055.12
730.999	58963.67
731.317	58888.5
731.634	58807.89
731.951	58690.1
732.268	58571.57
732.585	58416.06
732.902	58249.12
733.219	58088.18
733.536	57915.98
733.852	57802.65
734.169	57668.74
734.486	57519.39
734.802	57361.62
735.119	57250.63
735.435	57069.04
735.752	56908.12
736.068	56736.15
736.385	56573.3
736.701	56375.39
737.017	56145.93
737.333	55902.63
737.65	55599.48
737.966	55223.25
738.282	54824.28
738.598	54412.8
738.914	53961.58
739.23	53473.31
739.545	52955.77
739.861	52403.79
740.177	51850.06
740.493	51243.64
740.808	50668.73
741.124	50058.11
741.439	49478.28
741.755	48903.84
742.07	48377.72
742.386	47822.06
742.701	47318.98
743.016	46821.19
743.331	46352.24
743.647	45931.98
743.962	45538.31
744.277	45192.46
744.592	44920.35
744.907	44704.57
745.222	44533.89
745.537	44434.9
745.851	44408.85
746.166	44428.77
746.481	44481.8
746.795	44597.72
747.11	44756.17
747.424	44927.69
747.739	45092.18
748.053	45265.53
748.368	45413
748.682	45522.14
748.996	45647.33
749.311	45748.02
749.625	45842.83
749.939	45942.39
750.253	46001
750.567	46069.44
750.881	46127.72
751.195	46188.62
751.509	46252.11
751.822	46306.61
752.136	46354.49
752.45	46405.9
752.763	46468.47
753.077	46523.82
753.39	46554.21
753.704	46575.06
754.017	46594.42
754.331	46629.52
754.644	46635.26
754.957	46652.8
755.27	46665.83
755.584	46685.08
755.897	46692.65
756.21	46688.39
756.523	46667.39
756.836	46645.67
757.149	46572.42
757.461	46506.12
757.774	46418.49
758.087	46295.85
758.4	46157.09
758.712	46012.43
759.025	45854.6
759.337	45699.02
759.65	45541.39
759.962	45388.82
760.275	45232.84
760.587	45082.38
760.899	44944.77
761.211	44851.49
761.523	44769.86
761.836	44770.68
762.148	44773.92
762.46	44802.27
762.772	44864.15
763.083	44989.39
763.395	45135.62
763.707	45354.75
764.019	45578.07
764.33	45812.26
764.642	46071.53
764.954	46335.84
765.265	46614.68
765.577	46880.64
765.888	47124.83
766.199	47370.64
766.511	47590.91
766.822	47808.83
767.133	47991.82
767.444	48163.44
767.755	48259.14
768.066	48321.59
768.377	48316.13
768.688	48256.22
768.999	48178.74
769.31	48057.38
769.621	47876.29
769.931	47658.03
770.242	47402.79
770.553	47110.97
770.863	46775.81
771.174	46421.08
771.484	46034.79
771.794	45624.32
772.105	45215.68
772.415	44792.95
772.725	44342.71
773.035	43898.94
773.345	43445.81
773.656	42975.27
773.966	42499.05
774.276	42063.46
774.585	41627.79
774.895	41185.5
775.205	40800.19
775.515	40395.52
775.824	40001.9
776.134	39607.57
776.444	39241.17
776.753	38867.83
777.063	38518.73
777.372	38192.53
777.681	37864.5
777.991	37564.52
778.3	37256.83
778.609	36957.29
778.918	36666.42
779.228	36400.31
779.537	36130.37
779.846	35869.5
780.154	35623.2
780.463	35388.95
780.772	35134.53
781.081	34906.87
781.39	34700.22
781.698	34476.18
782.007	34268.53
782.316	34056.58
782.624	33846.66
782.932	33643.45
783.241	33453.61
783.549	33257.16
783.858	33087.43
784.166	32919.56
784.474	32743.56
784.782	32580.84
785.09	32416.73
785.398	32272.52
785.706	32125.51
786.014	31988.86
786.322	31840.24
786.63	31705.12
786.937	31571.52
787.245	31455.01
787.553	31326.61
787.86	31217.83
788.168	31098.51
788.475	30995.33
788.783	30898.99
789.09	30800
789.398	30695.99
789.705	30586.83
790.012	30488.09
790.319	30376.79
790.626	30270.04
790.933	30180.54
791.24	30093.54
791.547	30004.06
791.854	29900.48
792.161	29810.88
792.468	29708.35
792.774	29615.51
793.081	29523.82
793.388	29438.65
793.694	29331.99
794.001	29240.69
794.307	29117.81
794.614	29015.73
794.92	28881.37
795.226	28757.26
795.533	28650.2
795.839	28553.98
796.145	28448.23
796.451	28335.22
796.757	28229.32
797.063	28118.1
797.369	28006.73
797.675	27902.49
797.98	27799.94
798.286	27680.13
798.592	27573.3
798.898	27460.82
799.203	27350.7
799.509	27242.43
799.814	27123.71
800.12	27028.51
800.425	26924.48
800.73	26816
801.035	26696.58
801.341	26598.71
801.646	26494.83
801.951	26386.67
802.256	26280.63
802.561	26173.86
802.866	26082.78
803.171	25985.99
803.476	25902.99
803.78	25803.81
804.085	25699.94
804.39	25585.17
804.694	25490.12
804.999	25386.52
805.303	25293.67
805.608	25205.63
805.912	25113.65
806.216	25039.13
806.521	24968.62
806.825	24884.11
807.129	24812
807.433	24736.85
807.737	24668.54
808.041	24607.78
808.345	24549.79
808.649	24488.2
808.953	24444.16
809.257	24385.54
809.561	24333.46
809.864	24277.62
810.168	24246.73
810.471	24217.1
810.775	24188.25
811.078	24165.68
811.382	24137.01
811.685	24129.04
811.988	24116.72
812.292	24105.23
812.595	24099.89
812.898	24098.19
813.201	24107.66
813.504	24122.44
813.807	24154.64
814.11	24177.8
814.413	24202.44
814.716	24230.36
815.018	24279.93
815.321	24337.78
815.624	24417.11
815.926	24518.87
816.229	24640.7
816.531	24776.03
816.834	24929.25
817.136	25127.21
817.438	25349.13
817.74	25624.36
818.043	25942.34
818.345	26320.92
818.647	26778.06
818.949	27325.27
819.251	27955.46
819.553	28710.47
819.855	29584.43
820.156	30554.48
820.458	31641.72
820.76	32803.18
821.062	34025.13
821.363	35294.37
821.665	36637.98
821.966	38075.65
822.268	39526.64
822.569	40980.57
822.87	42469.51
823.171	43961.95
823.473	45493.22
823.774	47075.69
824.075	48601.57
824.376	50093.27
824.677	51567.78
824.978	52959.36
825.279	54254.1
825.58	55439.09
825.88	56480.38
826.181	57368.47
826.482	58158.5
826.782	58783.79
827.083	59301.35
827.383	59682.09
827.684	59897.42
827.984	59974.01
828.284	59883.85
828.585	59662.08
828.885	59364.11
829.185	58914.28
829.485	58369.85
829.785	57700.19
830.085	56862.64
830.385	55995.57
830.685	55069.61
830.985	54025.1
831.285	52942.61
831.584	51820.94
831.884	50668.8
832.183	49485.57
832.483	48272.25
832.782	46994.66
833.082	45710.44
833.381	44428.05
833.681	43184.44
833.98	42018.59
834.279	40878.78
834.578	39770.43
834.877	38731.57
835.176	37717.01
835.475	36768.08
835.774	35872.25
836.073	34998.54
836.372	34173.89
836.671	33356.06
836.969	32546.96
837.268	31795.56
837.567	31086.51
837.865	30395.46
838.164	29706.54
838.462	29053.71
838.761	28439.04
839.059	27853.91
839.357	27307.48
839.655	26775
839.953	26231.02
840.252	25698.33
840.55	25172.27
840.848	24661.25
841.146	24162.15
841.443	23658.15
841.741	23152.98
842.039	22645.13
842.337	22145.54
842.634	21678.83
842.932	21233.13
843.229	20806.15
843.527	20388.21
843.824	19942.26
844.122	19490.83
844.419	19067.59
844.716	18638.62
845.013	18225.25
845.311	17834.19
845.608	17457.09
845.905	17088.58
846.202	16729.75
846.499	16360.99
846.796	15997.62
847.092	15627.76
847.389	15266.17
847.686	14927.56
847.982	14610
848.279	14298.04
848.576	14006
848.872	13710.47
849.168	13421.11
849.465	13139.2
849.761	12848.25
850.057	12570.76
850.354	12309.51
850.65	12060.82
850.946	11831.7
851.242	11608.56
851.538	11384.63
851.834	11164.11
852.13	10943.46
852.425	10748.28
852.721	10566.97
853.017	10399.89
853.312	10247.71
853.608	10100.39
853.903	9958.17
854.199	9814.02
854.494	9683.13
854.79	9549.08
855.085	9417.66
855.38	9283.84
855.675	9150.02
855.971	9027.76
856.266	8925.83
856.561	8826.69
856.856	8732.69
857.151	8638.7
857.445	8540.73
857.74	8443.57
858.035	8348.23
858.33	8258.08
858.624	8173.32
858.919	8094.88
859.213	8007.61
859.508	7921.98
859.802	7831.5
860.096	7749.61
860.391	7686.36
860.685	7622.69
860.979	7563.81
861.273	7509.19
861.567	7451.18
861.861	7389.45
862.155	7334.91
862.449	7267.63
862.743	7200.26
863.037	7137.66
863.33	7081.3
863.624	7024.16
863.918	6979.81
864.211	6940.15
864.505	6908.44
864.798	6866.68
865.092	6818.91
865.385	6774.46
865.678	6725.86
865.971	6689.4
866.264	6657.79
866.558	6626.31
866.851	6594.36
867.144	6564.44
867.437	6531.95
867.729	6504.53
868.022	6480.69
868.315	6461.89
868.608	6449.37
868.9	6443.02
869.193	6426.61
869.485	6401.06
869.778	6377.97
870.07	6348.74
870.363	6330.22
870.655	6311.29
870.947	6303.16
871.239	6294.73
871.532	6294.53
871.824	6298.2
872.116	6297.03
872.408	6293.12
872.699	6277.99
872.991	6270.78
873.283	6263.93
873.575	6263.96
873.867	6269.64
874.158	6275.16
874.45	6271.39
874.741	6269.13
875.033	6266.02
875.324	6277.25
875.615	6294.64
875.907	6315.94
876.198	6333.27
876.489	6341.83
876.78	6343.98
877.071	6342.79
877.362	6344.6
877.653	6347.38
877.944	6354.97
878.235	6362.89
878.526	6367.99
878.816	6384.64
