Data from 24HourExp_27052025_FLMS018081_23-18-18-749.txt Node
Date: Tue May 27 23:18:18 BST 2025
User: adleo
Spectrometer: FLMS01808
Trigger mode: 0
Integration Time (sec): 4.000000E-1
Scans to average: 10
Electric dark correction enabled: true
Nonlinearity correction enabled: true
Boxcar width: 10
XAxis mode: Wavelengths
Number of Pixels in Spectrum: 2048
>>>>>Begin Spectral Data<<<<<
178.471	-128.38
178.857	-121.87
179.244	-114.71
179.631	-105.01
180.017	-97.32
180.404	-89.63
180.79	-78.71
181.176	-69.95
181.563	-60.66
181.949	-50.3
182.335	-40.13
182.722	-25.39
183.108	-6.53
183.494	19.94
183.88	73.72
184.266	128.07
184.653	183.45
185.039	239.03
185.425	295.37
185.811	349.3
186.197	400.93
186.582	453.35
186.968	507
187.354	559.73
187.74	611.11
188.126	661.99
188.511	712.22
188.897	760.38
189.283	807.34
189.668	853.1
190.054	897.13
190.439	943.6
190.825	988.97
191.21	1029.7
191.596	1062.1
191.981	1070.95
192.366	1074.36
192.752	1077.1
193.137	1080.66
193.522	1080.45
193.908	1081.2
194.293	1084.89
194.678	1088.53
195.063	1089.6
195.448	1090.31
195.833	1088.25
196.218	1088.21
196.603	1087.76
196.988	1087.14
197.373	1089.17
197.757	1089.29
198.142	1089.93
198.527	1087.4
198.912	1087.29
199.296	1087.45
199.681	1087.78
200.066	1085.85
200.45	1086
200.835	1085.75
201.219	1083.75
201.604	1083.48
201.988	1084.12
202.372	1085.17
202.757	1084.79
203.141	1083.92
203.525	1084.43
203.91	1086.18
204.294	1087.84
204.678	1089.28
205.062	1088.72
205.446	1086.16
205.83	1087.46
206.214	1087.94
206.598	1090
206.982	1090.57
207.366	1091.05
207.75	1091.51
208.134	1093.03
208.517	1094.69
208.901	1095.49
209.285	1097.02
209.669	1098.99
210.052	1101.08
210.436	1100.36
210.819	1098.78
211.203	1098.85
211.586	1100.12
211.97	1100.14
212.353	1099.05
212.737	1099.83
213.12	1101.62
213.503	1104.53
213.886	1106.78
214.27	1108.5
214.653	1109.69
215.036	1111.19
215.419	1112.43
215.802	1116.01
216.185	1117.09
216.568	1120.26
216.951	1123.03
217.334	1125.03
217.717	1128.95
218.1	1130.59
218.482	1135.91
218.865	1139.15
219.248	1144.9
219.631	1148.4
220.013	1155.28
220.396	1163.91
220.778	1169.05
221.161	1175.74
221.544	1182.01
221.926	1189.08
222.308	1195.14
222.691	1200.51
223.073	1209.24
223.455	1217.79
223.838	1225.27
224.22	1235.09
224.602	1245.14
224.984	1256
225.366	1268.25
225.749	1281.99
226.131	1295.42
226.513	1308.47
226.895	1324.71
227.276	1338.41
227.658	1353.82
228.04	1366.57
228.422	1379.7
228.804	1395.63
229.186	1410.6
229.567	1427.96
229.949	1444.3
230.331	1462.82
230.712	1481.52
231.094	1497.93
231.475	1518.11
231.857	1538.93
232.238	1558.32
232.62	1575.9
233.001	1596.41
233.382	1617.9
233.763	1636.73
234.145	1657.67
234.526	1677.69
234.907	1698.39
235.288	1720.31
235.669	1741.34
236.05	1763.46
236.431	1784.15
236.812	1806.73
237.193	1827.41
237.574	1848.28
237.955	1869.78
238.336	1893.16
238.717	1916.76
239.097	1942.64
239.478	1964.07
239.859	1986.16
240.239	2011.3
240.62	2036.81
241.001	2059.76
241.381	2083.09
241.762	2107.31
242.142	2129.59
242.522	2153.2
242.903	2178.64
243.283	2202.96
243.663	2229.76
244.044	2258.78
244.424	2286.5
244.804	2314.07
245.184	2344.97
245.564	2373.84
245.944	2405.94
246.324	2436.24
246.704	2466.43
247.084	2494.23
247.464	2526.34
247.844	2558.4
248.224	2589.99
248.604	2622.04
248.983	2652.11
249.363	2686.12
249.743	2715.05
250.122	2747.3
250.502	2778.22
250.882	2809.81
251.261	2843.72
251.641	2876.06
252.02	2908.84
252.399	2945.6
252.779	2983.76
253.158	3022.32
253.537	3064.02
253.917	3108.12
254.296	3148.1
254.675	3189.51
255.054	3232.23
255.433	3275.04
255.812	3317.25
256.191	3357.55
256.57	3397.65
256.949	3444.13
257.328	3487.34
257.707	3537.54
258.086	3587.21
258.465	3638.35
258.843	3692.1
259.222	3742.68
259.601	3798.47
259.979	3854.15
260.358	3907.48
260.736	3961.07
261.115	4016.34
261.493	4071.5
261.872	4120.73
262.25	4177.8
262.629	4235.87
263.007	4295.53
263.385	4358.34
263.763	4420.57
264.142	4488.46
264.52	4558.07
264.898	4626.18
265.276	4693.27
265.654	4760.74
266.032	4828.55
266.41	4898.71
266.788	4972.32
267.166	5049.64
267.544	5122.03
267.921	5197.96
268.299	5277.55
268.677	5357.36
269.055	5440.69
269.432	5524.54
269.81	5609.89
270.188	5697.91
270.565	5784.72
270.943	5877.02
271.32	5965.14
271.697	6059.83
272.075	6155.45
272.452	6251.71
272.829	6348.49
273.207	6451.77
273.584	6558.61
273.961	6665.42
274.338	6779.78
274.715	6893.48
275.092	7011.43
275.469	7131.67
275.846	7257.24
276.223	7381.64
276.6	7506.68
276.977	7635.18
277.354	7761.32
277.731	7892.48
278.108	8024.67
278.484	8156.51
278.861	8289.38
279.238	8431.37
279.614	8570.75
279.991	8711.09
280.367	8855.69
280.744	9005.29
281.12	9157.09
281.497	9305.29
281.873	9459.12
282.249	9607.06
282.625	9755.34
283.002	9905.76
283.378	10057.12
283.754	10204.71
284.13	10356.68
284.506	10513.89
284.882	10669.32
285.258	10826.3
285.634	10980.99
286.01	11140.11
286.386	11303.66
286.762	11469.8
287.138	11634.13
287.513	11799.6
287.889	11964.47
288.265	12130.78
288.641	12289.91
289.016	12451.62
289.392	12618.28
289.767	12781.43
290.143	12948.3
290.518	13108.66
290.894	13267.22
291.269	13428.25
291.644	13585.08
292.02	13737.28
292.395	13893.23
292.77	14049.36
293.145	14206.65
293.52	14370.51
293.895	14522.2
294.27	14676.51
294.646	14825.51
295.02	14970.85
295.395	15124.32
295.77	15279.53
296.145	15430.1
296.52	15591.13
296.895	15747.35
297.269	15898.14
297.644	16053.41
298.019	16205
298.393	16362.29
298.768	16517.63
299.143	16672.9
299.517	16825.92
299.891	16991.2
300.266	17154.84
300.64	17314.35
301.015	17478
301.389	17647.05
301.763	17823.2
302.137	17992.87
302.512	18172.17
302.886	18355.43
303.26	18542.85
303.634	18727.02
304.008	18907.32
304.382	19089.21
304.756	19274.1
305.13	19463.02
305.504	19645.3
305.877	19839.89
306.251	20043.52
306.625	20251.74
306.999	20463.13
307.372	20679.49
307.746	20896.3
308.119	21105.47
308.493	21318.88
308.866	21527.15
309.24	21738.39
309.613	21943.34
309.987	22155.49
310.36	22355.45
310.733	22563.96
311.107	22774.49
311.48	22992.14
311.853	23225.96
312.226	23445.46
312.599	23677.07
312.972	23901.63
313.345	24133.57
313.718	24357.14
314.091	24574.45
314.464	24801.43
314.837	25025.17
315.21	25239.61
315.582	25458.24
315.955	25670.29
316.328	25891.92
316.7	26114.66
317.073	26336.65
317.446	26566.04
317.818	26802.64
318.191	27034.56
318.563	27258.26
318.936	27466.91
319.308	27668.92
319.68	27867.19
320.053	28069.81
320.425	28251.57
320.797	28432.95
321.169	28594.49
321.541	28744.63
321.913	28882.85
322.285	29004.9
322.657	29130.36
323.029	29278.16
323.401	29425.13
323.773	29592.95
324.145	29761.11
324.517	29950.94
324.889	30125.83
325.26	30326.83
325.632	30536.22
326.004	30773.77
326.375	31033.51
326.747	31314.28
327.118	31621.25
327.49	31908.62
327.861	32225.7
328.233	32534.28
328.604	32848.66
328.975	33167.63
329.346	33486.64
329.718	33802.65
330.089	34103.21
330.46	34398.46
330.831	34669.45
331.202	34924.52
331.573	35176.92
331.944	35406.65
332.315	35632.3
332.686	35852.27
333.057	36050.65
333.428	36236.24
333.799	36409.96
334.169	36563.09
334.54	36706.28
334.911	36822.21
335.281	36955.18
335.652	37073.94
336.022	37211.02
336.393	37357.54
336.763	37530.92
337.134	37716.13
337.504	37916.37
337.874	38131.47
338.245	38344.59
338.615	38569.9
338.985	38797.21
339.355	39016.41
339.726	39244.23
340.096	39463.16
340.466	39717.8
340.836	39965.98
341.206	40209.44
341.576	40459.75
341.945	40707.54
342.315	40935.51
342.685	41179.58
343.055	41430.92
343.425	41677.21
343.794	41907.55
344.164	42144.34
344.533	42373.58
344.903	42600.11
345.273	42831.62
345.642	43052.21
346.011	43278.83
346.381	43513.14
346.75	43748.24
347.12	43992.59
347.489	44246.62
347.858	44499.84
348.227	44715.57
348.596	44937.01
348.965	45174.3
349.334	45399.83
349.704	45640.25
350.072	45893.06
350.441	46130.04
350.81	46370.58
351.179	46594.15
351.548	46833.32
351.917	47059.32
352.285	47253.82
352.654	47457.89
353.023	47666.51
353.391	47872.78
353.76	48085.8
354.129	48270.6
354.497	48506.14
354.865	48729.02
355.234	48960.39
355.602	49177.81
355.971	49426.67
356.339	49635.71
356.707	49852.47
357.075	50070.56
357.443	50287.15
357.811	50497.37
358.18	50705.16
358.548	50913.43
358.916	51128.47
359.284	51352.31
359.651	51561.01
360.019	51781.67
360.387	51987.16
360.755	52186.41
361.123	52410.32
361.49	52640.17
361.858	52859.53
362.226	53049.37
362.593	53252.31
362.961	53427.8
363.328	53630.92
363.696	53797.96
364.063	54026.33
364.43	54233.74
364.798	54450.23
365.165	54626.2
365.532	54811.52
365.899	55004.66
366.267	55164.57
366.634	55310.86
367.001	55470.09
367.368	55609.7
367.735	55793.89
368.102	55972.87
368.469	56167.12
368.835	56346.52
369.202	56504.86
369.569	56701.17
369.936	56894.04
370.303	57077.12
370.669	57278.89
371.036	57439.01
371.402	57640.24
371.769	57819.57
372.135	57967.52
372.502	58089.7
372.868	58239.81
373.235	58384.53
373.601	58524.12
373.967	58704.44
374.333	58889.77
374.7	59078.98
375.066	59286.88
375.432	59472.07
375.798	59653.85
376.164	59818.32
376.53	59964.22
376.896	60136.13
377.262	60315.67
377.628	60447.6
377.993	60600.43
378.359	60748.96
378.725	60911.29
379.091	61056.92
379.456	61188.66
379.822	61327.67
380.187	61481.02
380.553	61671.4
380.918	61853.89
381.284	62030.94
381.649	62206.34
382.015	62352.98
382.38	62467.06
382.745	62637.86
383.11	62788.4
383.476	62930.77
383.841	63066.23
384.206	63229.96
384.571	63346.86
384.936	63468.87
385.301	63644.62
385.666	63770.52
386.031	63915.7
386.396	64079.99
386.76	64237.2
387.125	64424.8
387.49	64625.23
387.855	64815.24
388.219	64984.94
388.584	65169.94
388.948	65362.24
389.313	65531.69
389.677	65730.88
390.042	65966.63
390.406	66120.02
390.771	66309.77
391.135	66498.16
391.499	66724.67
391.863	66952.37
392.227	67199.84
392.592	67408.32
392.956	67599.44
393.32	67802.2
393.684	68029.58
394.048	68208.1
394.412	68378.84
394.775	68531.09
395.139	68674.34
395.503	68839.74
395.867	68986.96
396.231	69132.25
396.594	69240.79
396.958	69376.17
397.321	69548.76
397.685	69674.27
398.048	69817.24
398.412	69944.33
398.775	70075.26
399.139	70202.61
399.502	70311.59
399.865	70453.19
400.228	70633.91
400.592	70779.06
400.955	70982.47
401.318	71113.23
401.681	71268.16
402.044	71415.54
402.407	71570.48
402.77	71734.79
403.133	71926.51
403.496	72077.46
403.859	72228.61
404.221	72461.21
404.584	72699.91
404.947	72938.95
405.309	73150.17
405.672	73388
406.034	73617.92
406.397	73874.14
406.759	74094.99
407.122	74279.5
407.484	74451.07
407.847	74645.73
408.209	74886.5
408.571	75113.02
408.933	75372.88
409.296	75634.19
409.658	75885.9
410.02	76157.4
410.382	76453.77
410.744	76697.75
411.106	76975.1
411.468	77242.19
411.83	77464.52
412.191	77647.77
412.553	77803.66
412.915	77996.38
413.277	78178.31
413.638	78355.15
414	78505.49
414.361	78664.47
414.723	78869.31
415.084	79056.16
415.446	79194.43
415.807	79306.04
416.169	79384.88
416.53	79447.29
416.891	79516.32
417.252	79602.45
417.614	79653.63
417.975	79677.89
418.336	79706.91
418.697	79735.24
419.058	79761.64
419.419	79782.7
419.78	79806.2
420.141	79821.22
420.501	79835.88
420.862	79846.67
421.223	79854.37
421.584	79876.87
421.944	79886.61
422.305	79893.43
422.666	79897.23
423.026	79901.54
423.387	79910.03
423.747	79913.24
424.107	79920.84
424.468	79929.51
424.828	79935.34
425.188	79939.44
425.549	79945.2
425.909	79949.81
426.269	79949.48
426.629	79953.83
426.989	79958.41
427.349	79960.85
427.709	79962.88
428.069	79964.03
428.429	79969.83
428.789	79975.74
429.149	79979.62
429.508	79982.28
429.868	79985.86
430.228	79990.29
430.587	79991.22
430.947	79994.36
431.306	79998.6
431.666	80000.75
432.025	80001.67
432.385	80002.82
432.744	80003.22
433.103	80005.33
433.463	80007.44
433.822	80014.56
434.181	80017.45
434.54	80017.37
434.899	80020.07
435.258	80023.58
435.618	80025.62
435.976	80026.25
436.335	80025.62
436.694	80025.73
437.053	80026.02
437.412	80027.61
437.771	80028.32
438.129	80031.01
438.488	80029.13
438.847	80030.53
439.205	80030.94
439.564	80033.49
439.922	80032.83
440.281	80034.38
440.639	80034.93
440.997	80036.27
441.356	80035.75
441.714	80035.38
442.072	80035.64
442.431	80033.83
442.789	80034.12
443.147	80033.86
443.505	80033.6
443.863	80035.3
444.221	80036.86
444.579	80038.19
444.937	80037.71
445.294	80039.11
445.652	80038.08
446.01	80039.96
446.368	80040.19
446.725	80041.41
447.083	80040.59
447.441	80041.63
447.798	80042.51
448.156	80042.48
448.513	80042.7
448.87	80043
449.228	80043.37
449.585	80044.51
449.942	80044.62
450.3	80044.22
450.657	80043.99
451.014	80043.33
451.371	80043.7
451.728	80043.92
452.085	80043
452.442	80042.15
452.799	80041.66
453.156	80042.63
453.513	80042.48
453.869	80043.51
454.226	80042.26
454.583	80042.66
454.939	80043.29
455.296	80042.63
455.653	80043.33
456.009	80042.48
456.366	80042.92
456.722	80043.51
457.078	80042.74
457.435	80043.37
457.791	80044.07
458.147	80044.55
458.503	80046.8
458.86	80046.77
459.216	80046.29
459.572	80046.66
459.928	80048.54
460.284	80048.8
460.64	80048.91
460.996	80049.1
461.351	80049.06
461.707	80048.95
462.063	80047.32
462.419	80047.95
462.774	80049.99
463.13	80051.39
463.486	80052.72
463.841	80052.94
464.197	80052.94
464.552	80054.76
464.908	80055.72
465.263	80055.61
465.618	80056.53
465.974	80056.16
466.329	80056.68
466.684	80057.27
467.039	80059.42
467.394	80060.34
467.749	80062.27
468.104	80063.53
468.459	80065.86
468.814	80066.82
469.169	80068.82
469.524	80071.55
469.879	80072.55
470.233	80071.59
470.588	80072.03
470.943	80073.22
471.297	80074.14
471.652	80074.48
472.006	80075.14
472.361	80076.29
472.715	80076.66
473.07	80078.1
473.424	80079.29
473.778	80080.54
474.133	80080.06
474.487	80079.73
474.841	80079.73
475.195	80078.14
475.549	80080.36
475.903	80079.47
476.257	80079.25
476.611	80080.14
476.965	80079.4
477.319	80079.21
477.673	80078.51
478.026	80077.84
478.38	80076.95
478.734	80077.73
479.087	80080.14
479.441	80080.69
479.795	80081.58
480.148	80085.06
480.502	80084.58
480.855	80085.58
481.208	80085.47
481.562	80086.5
481.915	80087.54
482.268	80087.65
482.621	80089.13
482.974	80087.35
483.328	80088.72
483.681	80090.13
484.034	80090.69
484.387	80091.13
484.739	80093.05
485.092	80095.24
485.445	80096.61
485.798	80097.57
486.151	80098.2
486.503	80097.16
486.856	80096.9
487.209	80095.31
487.561	80094.31
487.914	80094.2
488.266	80093.09
488.618	80090.61
488.971	80090.2
489.323	80088.83
489.675	80088.72
490.028	80088.21
490.38	80088.87
490.732	80089.76
491.084	80088.8
491.436	80087.76
491.788	80088.09
492.14	80088.5
492.492	80087.69
492.844	80088.65
493.196	80089.65
493.548	80089.28
493.899	80089.8
494.251	80090.13
494.603	80090.69
494.954	80088.91
495.306	80088.5
495.657	80089.46
496.009	80092.83
496.36	80094.39
496.712	80095.72
497.063	80097.01
497.414	80097.38
497.765	80097.5
498.117	80096.42
498.468	80097.64
498.819	80098.75
499.17	80098.24
499.521	80097.31
499.872	80098.01
500.223	80095.94
500.574	80094.05
500.924	80094.64
501.275	80093.83
501.626	80092.72
501.977	80093.09
502.327	80094.02
502.678	80094.61
503.029	80095.05
503.379	80094.42
503.73	80094.16
504.08	80093.46
504.43	80092.5
504.781	80092.35
505.131	80092.13
505.481	80091.05
505.831	80090.76
506.182	80089.31
506.532	80088.02
506.882	80087.24
507.232	80086.58
507.582	80087.13
507.932	80087.21
508.281	80087.21
508.631	80087.46
508.981	80089.09
509.331	80090.09
509.681	80091.13
510.03	80089.91
510.38	80089.91
510.729	80088.72
511.079	80087.46
511.428	80087.35
511.778	80086.95
512.127	80086.69
512.476	80088.58
512.826	80089.35
513.175	80089.91
513.524	80092.87
513.873	80094.91
514.222	80094.61
514.571	80095.16
514.92	80095.35
515.269	80095.5
515.618	80094.65
515.967	80094.65
516.316	80093.02
516.665	80091.46
517.014	80091.06
517.362	80092.87
517.711	80092.39
518.059	80093.39
518.408	80094.87
518.757	80094.83
519.105	80095.02
519.453	80095.72
519.802	80093.83
520.15	80093.31
520.498	80093.02
520.847	80090.5
521.195	80089.87
521.543	80090.68
521.891	80091.09
522.239	80091.72
522.587	80092.24
522.935	80092.83
523.283	80093.35
523.631	80093.9
523.979	80094.13
524.326	80093.42
524.674	80093.09
525.022	80093.64
525.369	80093.31
525.717	80091.39
526.064	80093.27
526.412	80093.72
526.759	80094.68
527.107	80094.72
527.454	80095.53
527.801	80095.05
528.149	80095.38
528.496	80096.16
528.843	80096.64
529.19	80096.27
529.537	80095.57
529.884	80094.39
530.231	80095.72
530.578	80096.2
530.925	80097.12
531.272	80097.83
531.619	80097.01
531.966	80096.31
532.312	80094.61
532.659	80094.5
533.006	80094.87
533.352	80094.02
533.699	80094.76
534.045	80093.61
534.392	80092.42
534.738	80092.28
535.084	80092.35
535.431	80093.57
535.777	80093.65
536.123	80093.91
536.469	80093.46
536.815	80093.79
537.161	80094.16
537.507	80091.46
537.853	80090.65
538.199	80089.76
538.545	80089.13
538.891	80090.87
539.237	80092.02
539.582	80094.31
539.928	80095.9
540.274	80096.61
540.619	80095.68
540.965	80095.94
541.31	80096.79
541.656	80097.5
542.001	80098.42
542.347	80097.53
542.692	80096.39
543.037	80098.05
543.382	80096.64
543.728	80097.72
544.073	80098.57
544.418	80099.42
544.763	80100.27
545.108	80098.9
545.453	80099.53
545.798	80100.05
546.142	80098.64
546.487	80098.01
546.832	80095.9
547.177	80094.02
547.521	80094.31
547.866	80095.13
548.211	80093.61
548.555	80093.83
548.9	80093.61
549.244	80093.02
549.588	80093.54
549.933	80093.57
550.277	80090.31
550.621	80090.09
550.965	80088.09
551.31	80086.69
551.654	80086.32
551.998	80087.54
552.342	80090.13
552.686	80090.06
553.03	80090.28
553.373	80090.61
553.717	80090.28
554.061	80090.28
554.405	80091.42
554.748	80091.17
555.092	80091.5
555.436	80091.54
555.779	80090.28
556.123	80089.61
556.466	80088.8
556.81	80089.35
557.153	80090.76
557.496	80092.28
557.839	80093.61
558.183	80094.05
558.526	80093.94
558.869	80094.68
559.212	80094.68
559.555	80093.39
559.898	80093.76
560.241	80092.35
560.584	80092.39
560.927	80092.28
561.269	80093.72
561.612	80092.24
561.955	80091.06
562.297	80090.24
562.64	80091.83
562.983	80091.83
563.325	80094.46
563.668	80095.9
564.01	80095.65
564.352	80093.02
564.695	80093.46
565.037	80091.8
565.379	80091.76
565.721	80092.65
566.063	80092.2
566.406	80091.83
566.748	80091.46
567.09	80090.8
567.431	80090.8
567.773	80089.24
568.115	80091.24
568.457	80090.02
568.799	80089.98
569.14	80090.61
569.482	80089.39
569.824	80087.13
570.165	80086.06
570.507	80083.54
570.848	80081.8
571.19	80081.28
571.531	80081.25
571.872	80080.29
572.214	80079.66
572.555	80079.21
572.896	80077.66
573.237	80076.77
573.578	80074.36
573.919	80073.59
574.26	80072.48
574.601	80072.55
574.942	80072.48
575.283	80070.26
575.624	80069.29
575.964	80069.48
576.305	80067.67
576.646	80068.96
576.986	80070
577.327	80070.15
577.667	80070.52
578.008	80069.67
578.348	80070.11
578.689	80070.66
579.029	80069.96
579.369	80071.63
579.71	80072.11
580.05	80072.96
580.39	80073.92
580.73	80075.36
581.07	80075.92
581.41	80076.7
581.75	80075.66
582.09	80076.36
582.43	80074.62
582.769	80074.18
583.109	80073.88
583.449	80075.03
583.789	80074.03
584.128	80073.18
584.468	80072.26
584.807	80072.29
585.147	80071.37
585.486	80070.44
585.825	80070.81
586.165	80071.74
586.504	80071.59
586.843	80071.48
587.182	80069.78
587.522	80068.44
587.861	80068.19
588.2	80067.52
588.539	80065.74
588.878	80065.85
589.216	80064.78
589.555	80067.08
589.894	80066.78
590.233	80066.41
590.572	80067.19
590.91	80066.37
591.249	80065.74
591.587	80065.41
591.926	80065.26
592.264	80066.45
592.603	80064.08
592.941	80062.08
593.279	80060.64
593.618	80058.57
593.956	80058.38
594.294	80059.16
594.632	80058.09
594.97	80057.64
595.308	80057.72
595.646	80057.64
595.984	80058.38
596.322	80060.45
596.66	80059.16
596.998	80060.27
597.335	80059.86
597.673	80058.12
598.011	80058.31
598.348	80058.6
598.686	80059.53
599.023	80059.01
599.361	80059.83
599.698	80061.49
600.035	80062.71
600.373	80062.56
600.71	80062.38
601.047	80061.71
601.384	80061.67
601.722	80062.12
602.059	80062.3
602.396	80062.27
602.733	80062.89
603.069	80062.04
603.406	80061.38
603.743	80061.6
604.08	80061.19
604.417	80063.49
604.753	80063.97
605.09	80063.01
605.426	80062.67
605.763	80061.82
606.099	80060.79
606.436	80058.9
606.772	80059.27
607.109	80058.6
607.445	80059.6
607.781	80061.53
608.117	80061.23
608.453	80059.94
608.79	80061.08
609.126	80059.79
609.462	80059.38
609.798	80058.64
610.133	80060.23
610.469	80060.08
610.805	80059.31
611.141	80059.86
611.477	80057.12
611.812	80057.94
612.148	80058.79
612.483	80056.76
612.819	80055.98
613.154	80058.35
613.49	80058.12
613.825	80055.61
614.16	80054.83
614.496	80053.72
614.831	80052.39
615.166	80052.47
615.501	80053.65
615.836	80051.95
616.171	80053.83
616.506	80052.91
616.841	80052.91
617.176	80051.32
617.511	80048.88
617.846	80048.62
618.18	80047.47
618.515	80047.4
618.85	80046.58
619.184	80046.92
619.519	80048.62
619.853	80050.36
620.188	80048.99
620.522	80049.84
620.856	80053.43
621.191	80053.54
621.525	80053.94
621.859	80055.13
622.193	80056.46
622.527	80056.64
622.861	80056.05
623.195	80055.16
623.529	80056.24
623.863	80056.72
624.197	80056.35
624.531	80059.46
624.865	80060.53
625.198	80059.01
625.532	80059.75
625.866	80059.31
626.199	80057.87
626.533	80057.27
626.866	80056.02
627.2	80054.94
627.533	80052.21
627.866	80050.25
628.2	80051.73
628.533	80050.39
628.866	80049.58
629.199	80047.55
629.532	80045.81
629.865	80046.55
630.198	80046.25
630.531	80044.33
630.864	80042.55
631.197	80043.55
631.529	80040.96
631.862	80041.37
632.195	80042.03
632.527	80041.85
632.86	80042.07
633.193	80043
633.525	80042.92
633.857	80044.33
634.19	80045.59
634.522	80047.95
634.854	80047.29
635.187	80045.77
635.519	80046.32
635.851	80044.77
636.183	80044.51
636.515	80045.73
636.847	80045.18
637.179	80044.73
637.511	80046.55
637.843	80048.28
638.174	80047.32
638.506	80048.02
638.838	80047.14
639.17	80047.84
639.501	80046.25
639.833	80045.03
640.164	80044.33
640.496	80044.81
640.827	80043.36
641.158	80041.44
641.49	80041.18
641.821	80043.03
642.152	80044.29
642.483	80043.37
642.814	80043.4
643.145	80043.25
643.476	80042.74
643.807	80042.74
644.138	80042.11
644.469	80041.85
644.8	80040.96
645.131	80041.48
645.461	80040.89
645.792	80039.7
646.122	80038.04
646.453	80037.93
646.784	80038.82
647.114	80037.74
647.444	80037.23
647.775	80036.27
648.105	80036.34
648.435	80035.19
648.765	80032.75
649.096	80031.9
649.426	80032.79
649.756	80034.56
650.086	80034.01
650.416	80033.49
650.746	80032.27
651.075	80031.72
651.405	80031.75
651.735	80031.64
652.065	80030.61
652.394	80029.54
652.724	80029.42
653.054	80030.39
653.383	80030.72
653.712	80030.16
654.042	80031.2
654.371	80031.13
654.701	80030.57
655.03	80031.31
655.359	80030.9
655.688	80031.68
656.017	80030.05
656.346	80030.02
656.675	80027.1
657.004	80027.24
657.333	80026.87
657.662	80027.83
657.991	80027.8
658.32	80026.98
658.648	80027.24
658.977	80026.87
659.306	80027.72
659.634	80028.31
659.963	80029.05
660.291	80029.13
660.619	80030.24
660.948	80029.87
661.276	80029.87
661.604	80030.5
661.933	80029.68
662.261	80030.05
662.589	80030.39
662.917	80030.24
663.245	80028.98
663.573	80029.5
663.901	80029.13
664.229	80028.46
664.556	80028.5
664.884	80027.58
665.212	80025.47
665.539	80024.51
665.867	80023.88
666.195	80024.73
666.522	80024.17
666.85	80022.81
667.177	80022.59
667.504	80021.51
667.832	80021.81
668.159	80018.93
668.486	80019.96
668.813	80019.48
669.14	80019.78
669.467	80017.63
669.794	80018.59
670.121	80018.67
670.448	80019.26
670.775	80019.07
671.102	80017.6
671.429	80018.11
671.755	80018.15
672.082	80019.96
672.409	80018.15
672.735	80018.7
673.062	80016.71
673.388	80016.56
673.714	80016.82
674.041	80017.41
674.367	80016.26
674.693	80016.26
675.019	80018.45
675.346	80016.74
675.672	80017.52
675.998	80016.6
676.324	80016.67
676.65	80015.49
676.976	80014.86
677.301	80013.6
677.627	80014.05
677.953	80014.9
678.279	80013.93
678.604	80014.23
678.93	80014.01
679.255	80016.34
679.581	80014.97
679.906	80014.08
680.232	80014.05
680.557	80012.38
680.882	80010.53
681.208	80010.02
681.533	80009.54
681.858	80009.2
682.183	80009.09
682.508	80008.09
682.833	80007.98
683.158	80009.31
683.483	80009.83
683.808	80009.43
684.132	80010.83
684.457	80008.39
684.782	80007.87
685.106	80006.47
685.431	80005.8
685.755	80003.29
686.08	80002.59
686.404	80002.92
686.729	80003.4
687.053	80001.55
687.377	80003.55
687.701	80003.55
688.026	80003.62
688.35	80002.77
688.674	80001.22
688.998	79998.82
689.322	79998.12
689.646	79998.12
689.97	79995.6
690.293	79994.83
690.617	79993.68
690.941	79991.17
691.264	79991.02
691.588	79989.1
691.912	79988.7
692.235	79988.33
692.559	79988.4
692.882	79985.3
693.205	79985.04
693.529	79983.52
693.852	79981.71
694.175	79977.98
694.498	79975.51
694.821	79972
695.144	79969.63
695.467	79966.86
695.79	79964.65
696.113	79960.85
696.436	79955.31
696.759	79952.13
697.082	79947
697.404	79941.69
697.727	79934.86
698.049	79928
698.372	79918.75
698.694	79907.13
699.017	79894.49
699.339	79879.16
699.662	79864.58
699.984	79837.7
700.306	79807.76
700.628	79761.96
700.95	79699.01
701.272	79626.16
701.594	79544.16
701.916	79458.97
702.238	79357.34
702.56	79209.62
702.882	79060.86
703.204	78921.93
703.525	78760.29
703.847	78565.73
704.169	78378.49
704.49	78176.07
704.812	77968.78
705.133	77751.24
705.455	77528.47
705.776	77286.41
706.097	77054.8
706.419	76810.31
706.74	76555.88
707.061	76279.65
707.382	75984.07
707.703	75695.3
708.024	75417.96
708.345	75124.46
708.666	74814.24
708.987	74498.85
709.307	74243.77
709.628	73941.01
709.949	73628.5
710.27	73308.65
710.59	73041.52
710.911	72733.58
711.231	72425.1
711.552	72137.8
711.872	71810.72
712.192	71526.62
712.512	71260.53
712.833	70986.53
713.153	70709.59
713.473	70469.85
713.793	70241.37
714.113	70033.95
714.433	69823.32
714.753	69610.97
715.073	69416.5
715.393	69214.37
715.712	69051.09
716.032	68824.75
716.352	68652.43
716.671	68487.24
716.991	68320.38
717.31	68117.01
717.63	67960.66
717.949	67779.23
718.268	67565.38
718.588	67387.57
718.907	67158.99
719.226	66900.53
719.545	66645.22
719.864	66366.16
720.183	66079.94
720.502	65791.08
720.821	65502.56
721.14	65215.53
721.459	64899.27
721.778	64623.63
722.096	64300.54
722.415	63997.09
722.734	63733.12
723.052	63447.1
723.371	63152.27
723.689	62878.16
724.008	62593.87
724.326	62294.91
724.644	62033.19
724.963	61766.76
725.281	61540.15
725.599	61312.36
725.917	61120.19
726.235	60926.03
726.553	60763.44
726.871	60572.06
727.189	60376.62
727.507	60180.11
727.824	60026.7
728.142	59891.33
728.46	59686.87
728.777	59588.27
729.095	59444.69
729.413	59292.86
729.73	59144.32
730.047	59004.57
730.365	58890.18
730.682	58781.29
730.999	58693.66
731.317	58615.34
731.634	58540.05
731.951	58415.95
732.268	58283.3
732.585	58135.01
732.902	57967.29
733.219	57815.18
733.536	57639.64
733.852	57511.03
734.169	57388.07
734.486	57234.32
734.802	57077.31
735.119	56962.11
735.435	56784.34
735.752	56627.35
736.068	56452.95
736.385	56285.09
736.701	56091.26
737.017	55853.49
737.333	55604.14
737.65	55296.29
737.966	54917.1
738.282	54518.01
738.598	54106.43
738.914	53661.79
739.23	53173.91
739.545	52658.26
739.861	52101.77
740.177	51563.3
740.493	50964.54
740.808	50382.28
741.124	49773.37
741.439	49193.89
741.755	48617.89
742.07	48094.59
742.386	47533.25
742.701	47034.7
743.016	46543.75
743.331	46075.34
743.647	45652.81
743.962	45265.39
744.277	44919.11
744.592	44643.53
744.907	44425.84
745.222	44263.99
745.537	44171.8
745.851	44142.24
746.166	44164.99
746.481	44220.54
746.795	44334.52
747.11	44490.61
747.424	44661.59
747.739	44826.63
748.053	44999.52
748.368	45158.68
748.682	45267.99
748.996	45402.91
749.311	45503.21
749.625	45600.34
749.939	45695.16
750.253	45751.52
750.567	45816.68
750.881	45878.99
751.195	45943.5
751.509	46003.9
751.822	46047.91
752.136	46090.38
752.45	46145.64
752.763	46206.6
753.077	46269.45
753.39	46297.55
753.704	46321.6
754.017	46340.36
754.331	46373.83
754.644	46377.63
754.957	46389.17
755.27	46400.5
755.584	46416.62
755.897	46420.87
756.21	46416.41
756.523	46401.82
756.836	46382.58
757.149	46308.11
757.461	46235.33
757.774	46154.16
758.087	46037.07
758.4	45902.6
758.712	45754.48
759.025	45595.45
759.337	45437.36
759.65	45272.78
759.962	45125.68
760.275	44965.15
760.587	44811.38
760.899	44680.66
761.211	44593.63
761.523	44514.58
761.836	44517.66
762.148	44517.92
762.46	44550.07
762.772	44607.92
763.083	44735.9
763.395	44884.4
763.707	45106.88
764.019	45335.64
764.33	45561.12
764.642	45818.73
764.954	46088.82
765.265	46367.54
765.577	46624.09
765.888	46870.59
766.199	47106.4
766.511	47314.44
766.822	47540.25
767.133	47729.1
767.444	47890.28
767.755	47977.65
768.066	48040.97
768.377	48031.09
768.688	47967.6
768.999	47880.23
769.31	47759.65
769.621	47568.41
769.931	47350.8
770.242	47093.33
770.553	46798.77
770.863	46461.09
771.174	46102.36
771.484	45717.92
771.794	45312.57
772.105	44908.12
772.415	44483.13
772.725	44049.94
773.035	43613.9
773.345	43158.19
773.656	42691.45
773.966	42220.26
774.276	41789.6
774.585	41354.72
774.895	40915.95
775.205	40535.4
775.515	40134.48
775.824	39741.83
776.134	39352.23
776.444	38981.85
776.753	38618.51
777.063	38276.67
777.372	37955.52
777.681	37632.83
777.991	37329.96
778.3	37027.71
778.609	36729.39
778.918	36440.41
779.228	36167.1
779.537	35901.46
779.846	35636.35
780.154	35388.28
780.463	35152.77
780.772	34904.1
781.081	34674.81
781.39	34474.97
781.698	34255.15
782.007	34054.14
782.316	33847.4
782.624	33642.34
782.932	33439.08
783.241	33246.49
783.549	33047.9
783.858	32876.48
784.166	32707.76
784.474	32535.94
784.782	32368.7
785.09	32207.27
785.398	32061.89
785.706	31918.36
786.014	31778.96
786.322	31640.46
786.63	31502.39
786.937	31373.68
787.245	31255.04
787.553	31135.66
787.86	31023.83
788.168	30903.29
788.475	30799.93
788.783	30707.62
789.09	30610.97
789.398	30510.63
789.705	30402.6
790.012	30299.08
790.319	30197.3
790.626	30087.02
790.933	29991.24
791.24	29905.3
791.547	29818.38
791.854	29724.01
792.161	29627.9
792.468	29527.59
792.774	29433.19
793.081	29350.07
793.388	29268.01
793.694	29167.63
794.001	29067.37
794.307	28937.8
794.614	28832.16
794.92	28700.61
795.226	28570.18
795.533	28452.83
795.839	28356.71
796.145	28244.07
796.451	28138.3
796.757	28027.63
797.063	27925.9
797.369	27811.47
797.675	27705.33
797.98	27604.92
798.286	27490.45
798.592	27387.55
798.898	27279.95
799.203	27165.2
799.509	27043.07
799.814	26912.53
800.12	26807.79
800.425	26701.62
800.73	26593.55
801.035	26477.7
801.341	26375.73
801.646	26274.61
801.951	26177.22
802.256	26070.52
802.561	25973
802.866	25880.16
803.171	25793.07
803.476	25705.78
803.78	25616.93
804.085	25517.58
804.39	25403.6
804.694	25301.92
804.999	25204.72
805.303	25105.94
805.608	25026.2
805.912	24944.5
806.216	24880.61
806.521	24808.72
806.825	24731.81
807.129	24664.04
807.433	24595.69
807.737	24524.79
808.041	24463
808.345	24403.06
808.649	24344.05
808.953	24293.62
809.257	24237.75
809.561	24179.6
809.864	24126.23
810.168	24092.54
810.471	24060.99
810.775	24033.18
811.078	24014.65
811.382	23985.3
811.685	23980.67
811.988	23967.33
812.292	23957.94
812.595	23958.57
812.898	23957.1
813.201	23971.63
813.504	23996.58
813.807	24024.28
814.11	24057.25
814.413	24089.71
814.716	24119.18
815.018	24173.71
815.321	24237.56
815.624	24319.08
815.926	24418.64
816.229	24544.25
816.531	24686.68
816.834	24845.83
817.136	25042.04
817.438	25249.63
817.74	25520.73
818.043	25834.83
818.345	26203.53
818.647	26667.83
818.949	27209.35
819.251	27844.61
819.553	28588.15
819.855	29455.94
820.156	30429.7
820.458	31515.43
820.76	32664.7
821.062	33877.59
821.363	35138.65
821.665	36476.37
821.966	37908.53
822.268	39363.59
822.569	40811.88
822.87	42289.15
823.171	43777.07
823.473	45308.26
823.774	46897.02
824.075	48424.92
824.376	49921.84
824.677	51391.54
824.978	52760.63
825.279	54049.35
825.58	55224.13
825.88	56257.01
826.181	57143.18
826.482	57919.56
826.782	58539.52
827.083	59061.57
827.383	59446.37
827.684	59666.46
827.984	59738.92
828.284	59643.33
828.585	59415.73
828.885	59115.51
829.185	58660.04
829.485	58104.79
829.785	57431.66
830.085	56593.7
830.385	55716.05
830.685	54782.97
830.985	53744.67
831.285	52673.45
831.584	51552.07
831.884	50400.83
832.183	49230.57
832.483	48014.36
832.782	46741.14
833.082	45462.07
833.381	44176.74
833.681	42934.41
833.98	41767.65
834.279	40638.98
834.578	39536.09
834.877	38493.36
835.176	37479.78
835.475	36542.54
835.774	35655.97
836.073	34787.7
836.372	33969.07
836.671	33164.43
836.969	32354.92
837.268	31606.88
837.567	30894.15
837.865	30204.44
838.164	29529.14
838.462	28877.35
838.761	28267.16
839.059	27691.41
839.357	27140.79
839.655	26614.41
839.953	26076.84
840.252	25551.57
840.55	25024.37
840.848	24517.22
841.146	24029.78
841.443	23533.02
841.741	23029.22
842.039	22519.47
842.337	22015.65
842.634	21551.31
842.932	21105.09
843.229	20681.67
843.527	20262.63
843.824	19820.97
844.122	19374.47
844.419	18952.27
844.716	18523.55
845.013	18106.28
845.311	17716.58
845.608	17341.91
845.905	16971.64
846.202	16613.1
846.499	16237.13
846.796	15873.01
847.092	15502.85
847.389	15134.4
847.686	14796.37
847.982	14479.08
848.279	14174.16
848.576	13888.46
848.872	13595.77
849.168	13301.87
849.465	13021.09
849.761	12735.74
850.057	12465.09
850.354	12205.23
850.65	11952
850.946	11725.79
851.242	11510.19
851.538	11286.94
851.834	11068.89
852.13	10854.98
852.425	10658.39
852.721	10484.35
853.017	10320.67
853.312	10171.94
853.608	10029.05
853.903	9887.59
854.199	9742.63
854.494	9609.84
854.79	9475.89
855.085	9342.82
855.38	9215.49
855.675	9086.48
855.971	8968.3
856.266	8864.64
856.561	8770.48
856.856	8676.6
857.151	8582.86
857.445	8482.29
857.74	8385.9
858.035	8295.98
858.33	8203.9
858.624	8116.32
858.919	8037.31
859.213	7952.69
859.508	7870.84
859.802	7782.53
860.096	7700.89
860.391	7639.81
860.685	7577.4
860.979	7516.9
861.273	7463.9
861.567	7408.67
861.861	7344.11
862.155	7288.23
862.449	7221.8
862.743	7154.78
863.037	7099.25
863.33	7038.13
863.624	6983.96
863.918	6939.39
864.211	6899.17
864.505	6864.64
864.798	6826.07
865.092	6776.35
865.385	6727.28
865.678	6674.86
865.971	6640.15
866.264	6608.84
866.558	6576.68
866.851	6546.68
867.144	6515.65
867.437	6483.02
867.729	6454.52
868.022	6434.54
868.315	6414.69
868.608	6404.75
868.9	6396.5
869.193	6378.28
869.485	6353.32
869.778	6331.53
870.07	6300.5
870.363	6278.35
870.655	6260.6
870.947	6253.41
871.239	6246.33
871.532	6249.32
871.824	6254.19
872.116	6252.09
872.408	6246.85
872.699	6232.74
872.991	6226.39
873.283	6224.39
873.575	6225.29
873.867	6231.35
874.158	6236.64
874.45	6235.62
874.741	6229.77
875.033	6228.89
875.324	6241.35
875.615	6264.19
875.907	6285.72
876.198	6304.64
876.489	6315.11
876.78	6319.86
877.071	6320.27
877.362	6324.1
877.653	6325.48
877.944	6333.47
878.235	6343.06
878.526	6350.29
878.816	6368.73
