Data from 24HourExp_27052025_FLMS018081_23-08-18-770.txt Node
Date: Tue May 27 23:08:18 BST 2025
User: adleo
Spectrometer: FLMS01808
Trigger mode: 0
Integration Time (sec): 4.000000E-1
Scans to average: 10
Electric dark correction enabled: true
Nonlinearity correction enabled: true
Boxcar width: 10
XAxis mode: Wavelengths
Number of Pixels in Spectrum: 2048
>>>>>Begin Spectral Data<<<<<
178.471	-132.16
178.857	-124.23
179.244	-116.37
179.631	-107.82
180.017	-99.69
180.404	-91.32
180.79	-80.71
181.176	-71.65
181.563	-62.14
181.949	-51.74
182.335	-41.25
182.722	-25.02
183.108	-6.4
183.494	21.25
183.88	74.5
184.266	128.69
184.653	185.85
185.039	242.52
185.425	298.28
185.811	352.32
186.197	406.4
186.582	458.71
186.968	509.95
187.354	562.69
187.74	613.17
188.126	665.31
188.511	716.13
188.897	765.08
189.283	813.06
189.668	859.21
190.054	903.36
190.439	948.48
190.825	993.03
191.21	1034.41
191.596	1066.88
191.981	1075.24
192.366	1077.72
192.752	1078.75
193.137	1080.71
193.522	1080.67
193.908	1080.42
194.293	1082.59
194.678	1083.89
195.063	1085.25
195.448	1087.78
195.833	1087.96
196.218	1086.75
196.603	1085.56
196.988	1084.07
197.373	1085.6
197.757	1085.89
198.142	1088.14
198.527	1086.21
198.912	1083.93
199.296	1084.85
199.681	1083.51
200.066	1081.42
200.45	1081.34
200.835	1081.55
201.219	1082.27
201.604	1082.3
201.988	1084.49
202.372	1084.49
202.757	1085.4
203.141	1087.67
203.525	1085.12
203.91	1086.59
204.294	1087.15
204.678	1087.06
205.062	1087.62
205.446	1087.7
205.83	1089.22
206.214	1088.09
206.598	1090.95
206.982	1093.32
207.366	1090.89
207.75	1092.42
208.134	1094.97
208.517	1098.25
208.901	1099.21
209.285	1101.12
209.669	1102.21
210.052	1103.25
210.436	1103.49
210.819	1104
211.203	1104.02
211.586	1105.58
211.97	1105.93
212.353	1107.15
212.737	1107.73
213.12	1110.46
213.503	1111.7
213.886	1112.57
214.27	1113.4
214.653	1113.71
215.036	1115.93
215.419	1120.38
215.802	1123.56
216.185	1124.25
216.568	1128.44
216.951	1131.07
217.334	1131.94
217.717	1135.49
218.1	1138
218.482	1142.58
218.865	1147.71
219.248	1151.79
219.631	1157.15
220.013	1163.01
220.396	1168.36
220.778	1176.33
221.161	1181.02
221.544	1186.41
221.926	1192.43
222.308	1200.25
222.691	1207.6
223.073	1216.46
223.455	1223.51
223.838	1231.93
224.22	1242.75
224.602	1251.59
224.984	1261.85
225.366	1273.32
225.749	1287.8
226.131	1298.83
226.513	1312.73
226.895	1326.52
227.276	1342.41
227.658	1356.61
228.04	1372.47
228.422	1389.52
228.804	1406.33
229.186	1423.27
229.567	1441.86
229.949	1458.07
230.331	1477.22
230.712	1496.4
231.094	1514.83
231.475	1535.46
231.857	1555.74
232.238	1575.45
232.62	1594.17
233.001	1613.39
233.382	1634.96
233.763	1653.18
234.145	1676.99
234.526	1695.32
234.907	1714.03
235.288	1730.35
235.669	1750.52
236.05	1770.62
236.431	1788.96
236.812	1808.64
237.193	1828.81
237.574	1848.1
237.955	1873.05
238.336	1895.02
238.717	1916.46
239.097	1939.3
239.478	1960.85
239.859	1982.76
240.239	2006.22
240.62	2031.42
241.001	2056.73
241.381	2080.63
241.762	2105.28
242.142	2127.03
242.522	2154.81
242.903	2181.02
243.283	2209.04
243.663	2237.27
244.044	2266.42
244.424	2297.2
244.804	2324.53
245.184	2356.21
245.564	2386.46
245.944	2416.99
246.324	2447.65
246.704	2478.47
247.084	2507.91
247.464	2542.52
247.844	2575.1
248.224	2606.16
248.604	2637.84
248.983	2670
249.363	2704.17
249.743	2736.38
250.122	2770.64
250.502	2801.32
250.882	2832.59
251.261	2867.34
251.641	2899.47
252.02	2930.27
252.399	2965.31
252.779	3002.36
253.158	3038.66
253.537	3078.97
253.917	3120.4
254.296	3158.99
254.675	3200.5
255.054	3242.7
255.433	3284.77
255.812	3325.09
256.191	3366.56
256.57	3409.13
256.949	3454.16
257.328	3500.22
257.707	3544.97
258.086	3593.99
258.465	3643.17
258.843	3696.93
259.222	3748.58
259.601	3803.43
259.979	3858.69
260.358	3912.63
260.736	3967.78
261.115	4024.82
261.493	4078.33
261.872	4132
262.25	4191.69
262.629	4247.4
263.007	4305.7
263.385	4364.95
263.763	4430.87
264.142	4497.19
264.52	4563.85
264.898	4629.84
265.276	4695.18
265.654	4766.69
266.032	4835.5
266.41	4905.92
266.788	4977.01
267.166	5056.38
267.544	5131.44
267.921	5209.41
268.299	5291.5
268.677	5372.53
269.055	5454.38
269.432	5542.24
269.81	5629.27
270.188	5715.16
270.565	5806.06
270.943	5900.42
271.32	5990.36
271.697	6083.34
272.075	6179.5
272.452	6275.19
272.829	6372.14
273.207	6474.38
273.584	6581.66
273.961	6687.75
274.338	6801.98
274.715	6919.96
275.092	7034.63
275.469	7157.03
275.846	7281.57
276.223	7402.33
276.6	7524.9
276.977	7649.75
277.354	7771.83
277.731	7896.61
278.108	8030.69
278.484	8164.48
278.861	8296.23
279.238	8441.73
279.614	8580.71
279.991	8725.38
280.367	8872.01
280.744	9026.06
281.12	9176.03
281.497	9321.22
281.873	9471.9
282.249	9622.53
282.625	9768.61
283.002	9920.07
283.378	10065.91
283.754	10215.72
284.13	10368.78
284.506	10533.51
284.882	10690.55
285.258	10850.23
285.634	11011.44
286.01	11172.02
286.386	11332.48
286.762	11501.07
287.138	11660.59
287.513	11826.73
287.889	11988.52
288.265	12149.46
288.641	12307.97
289.016	12465.76
289.392	12631.63
289.767	12798.76
290.143	12967.11
290.518	13133.1
290.894	13297.69
291.269	13461.55
291.644	13620.15
292.02	13773.76
292.395	13923.3
292.77	14083
293.145	14237.36
293.52	14388.45
293.895	14537.85
294.27	14694.55
294.646	14845
295.02	14995.2
295.395	15150.52
295.77	15305.61
296.145	15465.18
296.52	15620.6
296.895	15781.53
297.269	15936.45
297.644	16088.56
298.019	16240.9
298.393	16393.27
298.768	16545.37
299.143	16697.98
299.517	16850.05
299.891	17008.15
300.266	17166.22
300.64	17324.33
301.015	17491.78
301.389	17663.91
301.763	17842.47
302.137	18009.75
302.512	18186.84
302.886	18361.72
303.26	18546.08
303.634	18724.44
304.008	18899.91
304.382	19084.01
304.756	19268.96
305.13	19455.84
305.504	19642.05
305.877	19829.06
306.251	20035.43
306.625	20240.19
306.999	20454.66
307.372	20669.32
307.746	20887.35
308.119	21105.12
308.493	21318.68
308.866	21530.08
309.24	21747.89
309.613	21957.24
309.987	22171.32
310.36	22369.45
310.733	22583.23
311.107	22796.77
311.48	23017.79
311.853	23246.61
312.226	23472.92
312.599	23698.91
312.972	23924.14
313.345	24154.1
313.718	24378.4
314.091	24602.21
314.464	24830.89
314.837	25052.74
315.21	25272.9
315.582	25495.07
315.955	25709.88
316.328	25930
316.7	26151.45
317.073	26374.16
317.446	26592.86
317.818	26820.86
318.191	27060.95
318.563	27285.39
318.936	27494.26
319.308	27700.83
319.68	27907.6
320.053	28108.66
320.425	28299.61
320.797	28484.75
321.169	28646.33
321.541	28799.19
321.913	28931.59
322.285	29047.51
322.657	29171.22
323.029	29312.79
323.401	29457.06
323.773	29622.23
324.145	29800.57
324.517	29985.99
324.889	30160.29
325.26	30359.36
325.632	30576.97
326.004	30814.92
326.375	31076.04
326.747	31356.57
327.118	31661.4
327.49	31948.98
327.861	32263.3
328.233	32568.34
328.604	32885.78
328.975	33204.23
329.346	33518.55
329.718	33831.47
330.089	34146.29
330.46	34439.86
330.831	34719.75
331.202	34983.74
331.573	35231.97
331.944	35453.38
332.315	35684.36
332.686	35905.91
333.057	36113.6
333.428	36292.95
333.799	36457.62
334.169	36615.14
334.54	36757.41
334.911	36879.05
335.281	37017.98
335.652	37137.88
336.022	37280.47
336.393	37425.71
336.763	37596.49
337.134	37778.58
337.504	37979.04
337.874	38181.32
338.245	38396.5
338.615	38616.36
338.985	38841.91
339.355	39069.42
339.726	39299.88
340.096	39520.24
340.466	39774.04
340.836	40011.33
341.206	40265.32
341.576	40516.75
341.945	40756.25
342.315	40985.36
342.685	41225.92
343.055	41472.04
343.425	41716.33
343.794	41950.74
344.164	42180.64
344.533	42417.88
344.903	42653.18
345.273	42889.81
345.642	43116.24
346.011	43346.8
346.381	43574.1
346.75	43810.03
347.12	44052.5
347.489	44303.66
347.858	44550.68
348.227	44765.15
348.596	44986.25
348.965	45220.77
349.334	45452.55
349.704	45694.56
350.072	45948.07
350.441	46184.16
350.81	46422.8
351.179	46655.78
351.548	46894.11
351.917	47116.53
352.285	47314.39
352.654	47523.15
353.023	47722.86
353.391	47917.47
353.76	48131.64
354.129	48325.74
354.497	48555.84
354.865	48774.22
355.234	49004.55
355.602	49228.96
355.971	49475.34
356.339	49697.94
356.707	49907.31
357.075	50119.93
357.443	50336.68
357.811	50547.42
358.18	50753.67
358.548	50958.36
358.916	51165.04
359.284	51374.7
359.651	51589.18
360.019	51801.01
360.387	51999.46
360.755	52206.49
361.123	52438.5
361.49	52658.34
361.858	52875.45
362.226	53066.74
362.593	53264.38
362.961	53447.55
363.328	53646.06
363.696	53808.08
364.063	54026.97
364.43	54240.05
364.798	54452.6
365.165	54631.41
365.532	54816.47
365.899	55010.98
366.267	55183.56
366.634	55327.71
367.001	55496.18
367.368	55635.91
367.735	55824.25
368.102	56003.61
368.469	56194.47
368.835	56378.15
369.202	56549.59
369.569	56744.64
369.936	56943.28
370.303	57137.58
370.669	57339.78
371.036	57503.17
371.402	57717.9
371.769	57902.34
372.135	58052.74
372.502	58180.42
372.868	58331.19
373.235	58473.72
373.601	58609.54
373.967	58782.21
374.333	58973.54
374.7	59155.42
375.066	59362.6
375.432	59546.46
375.798	59731.97
376.164	59903.56
376.53	60054.76
376.896	60220.33
377.262	60397.42
377.628	60520.98
377.993	60672.01
378.359	60814.79
378.725	60971.67
379.091	61120.62
379.456	61255.07
379.822	61391.63
380.187	61540.54
380.553	61729.33
380.918	61924.06
381.284	62100.34
381.649	62268.9
382.015	62410.28
382.38	62532.67
382.745	62703.89
383.11	62857.05
383.476	62998.4
383.841	63129.95
384.206	63287.68
384.571	63406.78
384.936	63534.1
385.301	63707.79
385.666	63830.16
386.031	63981.16
386.396	64146.63
386.76	64298.08
387.125	64485.32
387.49	64680.85
387.855	64881.46
388.219	65054.04
388.584	65228.89
388.948	65430.94
389.313	65596.76
389.677	65805.65
390.042	66039.99
390.406	66194.89
390.771	66379.89
391.135	66567.38
391.499	66800.68
391.863	67032.54
392.227	67280.57
392.592	67480.46
392.956	67674.52
393.32	67890.83
393.684	68111.9
394.048	68283.3
394.412	68461.14
394.775	68612.83
395.139	68771.29
395.503	68925.89
395.867	69076.91
396.231	69223.64
396.594	69322.39
396.958	69468.25
397.321	69627.29
397.685	69753.32
398.048	69902.02
398.412	70035.22
398.775	70170
399.139	70299.29
399.502	70411.97
399.865	70555.62
400.228	70750.34
400.592	70898.14
400.955	71092.67
401.318	71228.74
401.681	71394.95
402.044	71531.17
402.407	71691.59
402.77	71843.59
403.133	72036.28
403.496	72182.41
403.859	72333.33
404.221	72581.21
404.584	72818.43
404.947	73058.49
405.309	73272.61
405.672	73500.25
406.034	73731
406.397	73990.2
406.759	74210.15
407.122	74391.67
407.484	74566.47
407.847	74751.33
408.209	74994.29
408.571	75218.63
408.933	75478.19
409.296	75737.09
409.658	75995.52
410.02	76260.35
410.382	76558.83
410.744	76808.61
411.106	77085.68
411.468	77354.76
411.83	77572.06
412.191	77757.14
412.553	77918.66
412.915	78107.48
413.277	78294.63
413.638	78463.68
414	78607.09
414.361	78753.98
414.723	78950.61
415.084	79129.11
415.446	79268.09
415.807	79375.54
416.169	79451.2
416.53	79507.26
416.891	79574.43
417.252	79657.3
417.614	79705.77
417.975	79729.57
418.336	79755.03
418.697	79783.1
419.058	79804.61
419.419	79819.15
419.78	79837.33
420.141	79849.97
420.501	79861.21
420.862	79868.65
421.223	79878.28
421.584	79899.32
421.944	79910.68
422.305	79919.28
422.666	79924.15
423.026	79926.7
423.387	79934.11
423.747	79938.83
424.107	79946.87
424.468	79953.26
424.828	79956.66
425.188	79961.31
425.549	79965.41
425.909	79970.03
426.269	79967.18
426.629	79970.03
426.989	79974.42
427.349	79976.94
427.709	79979.74
428.069	79982.4
428.429	79986.61
428.789	79989.94
429.149	79993.27
429.508	79995.08
429.868	79998.18
430.228	80001.88
430.587	80005.8
430.947	80007.53
431.306	80012.26
431.666	80015.96
432.025	80019.55
432.385	80021.54
432.744	80022.65
433.103	80024.28
433.463	80026.5
433.822	80031.7
434.181	80034.7
434.54	80035.29
434.899	80037.95
435.258	80039.17
435.618	80040.17
435.976	80041.98
436.335	80041.83
436.694	80043.39
437.053	80045.01
437.412	80045.49
437.771	80047.49
438.129	80048.01
438.488	80048.79
438.847	80049.19
439.205	80048.75
439.564	80048.6
439.922	80047.34
440.281	80048.9
440.639	80050.89
440.997	80049.23
441.356	80050.93
441.714	80052.23
442.072	80053
442.431	80053.22
442.789	80054.59
443.147	80055.85
443.505	80056.78
443.863	80057.55
444.221	80056.7
444.579	80055.55
444.937	80054.48
445.294	80054.96
445.652	80054.37
446.01	80056.59
446.368	80055.7
446.725	80056.04
447.083	80056.55
447.441	80057.63
447.798	80056.7
448.156	80055.67
448.513	80057.44
448.87	80057.55
449.228	80057.33
449.585	80056.18
449.942	80055.3
450.3	80055.15
450.657	80054.85
451.014	80053.85
451.371	80053.52
451.728	80053.67
452.085	80054.52
452.442	80055.41
452.799	80054.96
453.156	80056.89
453.513	80057.66
453.869	80060.22
454.226	80061.51
454.583	80062.21
454.939	80062.21
455.296	80063.73
455.653	80064.25
456.009	80064.54
456.366	80066.14
456.722	80066.43
457.078	80067.17
457.435	80068.69
457.791	80068.28
458.147	80067.91
458.503	80071.65
458.86	80074.42
459.216	80074.98
459.572	80076.53
459.928	80077.64
460.284	80077.61
460.64	80076.5
460.996	80074.24
461.351	80073.17
461.707	80070.98
462.063	80070.5
462.419	80072.5
462.774	80072.17
463.13	80073.57
463.486	80073.17
463.841	80073.02
464.197	80073.09
464.552	80075.09
464.908	80074.79
465.263	80077.01
465.618	80080.23
465.974	80078.68
466.329	80078.75
466.684	80079.57
467.039	80079.01
467.394	80078.53
467.749	80079.38
468.104	80080.94
468.459	80084.93
468.814	80086.08
469.169	80089.41
469.524	80090.04
469.879	80089.45
470.233	80088.89
470.588	80088.67
470.943	80089.74
471.297	80089.85
471.652	80090.56
472.006	80089.52
472.361	80091.85
472.715	80091.26
473.07	80090.3
473.424	80090.78
473.778	80091
474.133	80090.93
474.487	80092.67
474.841	80093.89
475.195	80093.93
475.549	80093.52
475.903	80092.81
476.257	80093
476.611	80092.19
476.965	80091.89
477.319	80093.41
477.673	80095.15
478.026	80096.96
478.38	80097.52
478.734	80097.85
479.087	80097.85
479.441	80099.37
479.795	80098.96
480.148	80100.22
480.502	80100.25
480.855	80100.03
481.208	80099.22
481.562	80099.29
481.915	80098.77
482.268	80097.89
482.621	80098.37
482.974	80099.44
483.328	80099.81
483.681	80100.85
484.034	80101.14
484.387	80102.44
484.739	80100.25
485.092	80100.25
485.445	80100.96
485.798	80101.59
486.151	80102.11
486.503	80103.66
486.856	80103.4
487.209	80102.88
487.561	80103.25
487.914	80103.62
488.266	80102.22
488.618	80103.88
488.971	80104.18
489.323	80104.81
489.675	80106.29
490.028	80107.11
490.38	80106.25
490.732	80106.22
491.084	80105.62
491.436	80105.96
491.788	80104.81
492.14	80106.33
492.492	80105.11
492.844	80103.25
493.196	80102.44
493.548	80102.74
493.899	80102.74
494.251	80102.48
494.603	80103.22
494.954	80102.18
495.306	80101.74
495.657	80103.33
496.009	80102.44
496.36	80103.81
496.712	80103.29
497.063	80102.22
497.414	80101.88
497.765	80102.85
498.117	80101.07
498.468	80102.81
498.819	80102.96
499.17	80103.77
499.521	80103.18
499.872	80103.81
500.223	80105.22
500.574	80106.44
500.924	80106.55
501.275	80106.07
501.626	80105.99
501.977	80105.44
502.327	80106.1
502.678	80108.77
503.029	80109.92
503.379	80110.03
503.73	80110.7
504.08	80109.4
504.43	80108.62
504.781	80108.07
505.131	80108.59
505.481	80109.62
505.831	80107.59
506.182	80107.07
506.532	80107.88
506.882	80109.22
507.232	80110.21
507.582	80108.99
507.932	80107.22
508.281	80106.59
508.631	80104.74
508.981	80104.62
509.331	80105.55
509.681	80104.74
510.03	80102.4
510.38	80101.37
510.729	80101.74
511.079	80099.77
511.428	80101.03
511.778	80102.22
512.127	80102.88
512.476	80102.99
512.826	80102.14
513.175	80102.99
513.524	80102.25
513.873	80102.18
514.222	80102.33
514.571	80100.88
514.92	80102.11
515.269	80102.88
515.618	80102.07
515.967	80101.92
516.316	80102.62
516.665	80101.55
517.014	80101.48
517.362	80101.18
517.711	80102.37
518.059	80102.77
518.408	80104.48
518.757	80104.18
519.105	80105.07
519.453	80104.92
519.802	80103.85
520.15	80105.14
520.498	80106.88
520.847	80107.14
521.195	80106.44
521.543	80106.4
521.891	80107.4
522.239	80105.44
522.587	80105.7
522.935	80106.48
523.283	80109.25
523.631	80109.14
523.979	80109.96
524.326	80111.1
524.674	80111.18
525.022	80110.84
525.369	80109.25
525.717	80107.29
526.064	80108.77
526.412	80108.1
526.759	80108.88
527.107	80109.25
527.454	80108.84
527.801	80106.44
528.149	80107.66
528.496	80108.62
528.843	80109.81
529.19	80109.81
529.537	80112.03
529.884	80111.73
530.231	80113.21
530.578	80111.81
530.925	80112.55
531.272	80112.18
531.619	80111.84
531.966	80112.51
532.312	80112.4
532.659	80112.51
533.006	80113.32
533.352	80111.58
533.699	80111.1
534.045	80109.95
534.392	80111.29
534.738	80111.44
535.084	80111.25
535.431	80111.25
535.777	80111.21
536.123	80110.29
536.469	80111.06
536.815	80111.4
537.161	80112.06
537.507	80111.55
537.853	80111.4
538.199	80110.73
538.545	80112.06
538.891	80112.14
539.237	80112.03
539.582	80112.47
539.928	80114.14
540.274	80114.95
540.619	80114.43
540.965	80113.4
541.31	80114.06
541.656	80113.73
542.001	80113.03
542.347	80113.14
542.692	80112.25
543.037	80110.62
543.382	80110.07
543.728	80110.29
544.073	80110.55
544.418	80109.96
544.763	80109.47
545.108	80109.88
545.453	80108.59
545.798	80107.7
546.142	80107.1
546.487	80106.88
546.832	80105.96
547.177	80104.77
547.521	80103.48
547.866	80105.22
548.211	80106.4
548.555	80105.92
548.9	80104.66
549.244	80104.33
549.588	80104.07
549.933	80103.51
550.277	80104.51
550.621	80105.59
550.965	80104.4
551.31	80103.14
551.654	80104.66
551.998	80103.51
552.342	80103.25
552.686	80104.59
553.03	80105.51
553.373	80106.88
553.717	80106.7
554.061	80104.96
554.405	80105.29
554.748	80104.62
555.092	80104.07
555.436	80104
555.779	80104.51
556.123	80104.59
556.466	80105.44
556.81	80105.7
557.153	80107.92
557.496	80107.81
557.839	80107.22
558.183	80108.77
558.526	80108.22
558.869	80108.03
559.212	80108.84
559.555	80108.96
559.898	80111.29
560.241	80111.18
560.584	80110.51
560.927	80111.03
561.269	80113.81
561.612	80113.58
561.955	80115.36
562.297	80115.25
562.64	80116.36
562.983	80116.25
563.325	80117.14
563.668	80116.73
564.01	80116.92
564.352	80113.47
564.695	80113.99
565.037	80113.4
565.379	80112.33
565.721	80113.95
566.063	80113.88
566.406	80114.51
566.748	80114.14
567.09	80111.62
567.431	80111.03
567.773	80109.36
568.115	80108.73
568.457	80106.7
568.799	80107.51
569.14	80107.14
569.482	80107.07
569.824	80106.18
570.165	80105.14
570.507	80105.48
570.848	80105.14
571.19	80103.4
571.531	80105.25
571.872	80103.44
572.214	80104.22
572.555	80104.03
572.896	80102.77
573.237	80099.37
573.578	80098.48
573.919	80097.89
574.26	80098.18
574.601	80096.7
574.942	80096.3
575.283	80095.22
575.624	80094.82
575.964	80093.15
576.305	80091.34
576.646	80092.19
576.986	80093.26
577.327	80093.41
577.667	80091.85
578.008	80091.3
578.348	80092.89
578.689	80091.74
579.029	80092.37
579.369	80091.34
579.71	80089.71
580.05	80090.11
580.39	80090.97
580.73	80090.34
581.07	80091.85
581.41	80090.89
581.75	80090.74
582.09	80091.63
582.43	80092.26
582.769	80094.81
583.109	80093.52
583.449	80095.44
583.789	80093.59
584.128	80091.45
584.468	80091.08
584.807	80092.22
585.147	80092.11
585.486	80090.26
585.825	80091.93
586.165	80091.89
586.504	80091.67
586.843	80093.26
587.182	80091.67
587.522	80092.04
587.861	80092.82
588.2	80091.89
588.539	80092.11
588.878	80092
589.216	80093
589.555	80093.93
589.894	80092.48
590.233	80094.89
590.572	80094.18
590.91	80093.78
591.249	80094.55
591.587	80093.78
591.926	80091.56
592.264	80092.19
592.603	80092.81
592.941	80091.85
593.279	80092.22
593.618	80091.85
593.956	80090.59
594.294	80090.67
594.632	80091.41
594.97	80090.45
595.308	80088
595.646	80088.89
595.984	80089.11
596.322	80087.49
596.66	80085.86
596.998	80086.04
597.335	80083.75
597.673	80083.45
598.011	80083.6
598.348	80083.38
598.686	80083.53
599.023	80083.01
599.361	80083.27
599.698	80084.08
600.035	80082.67
600.373	80081.93
600.71	80081.97
601.047	80082.45
601.384	80083.19
601.722	80081.49
602.059	80081.05
602.396	80083.34
602.733	80081.56
603.069	80082.01
603.406	80082.01
603.743	80082.45
604.08	80082.16
604.417	80082.34
604.753	80080.86
605.09	80079.6
605.426	80078.53
605.763	80078.97
606.099	80079.94
606.436	80080.45
606.772	80080.05
607.109	80081.97
607.445	80079.97
607.781	80078.75
608.117	80077.09
608.453	80075.27
608.79	80076.01
609.126	80075.31
609.462	80074.02
609.798	80074.98
610.133	80073.2
610.469	80073.42
610.805	80073.35
611.141	80072.17
611.477	80073.13
611.812	80073.46
612.148	80074.5
612.483	80072.5
612.819	80071.83
613.154	80072.28
613.49	80070.28
613.825	80069.87
614.16	80068.5
614.496	80070.5
614.831	80071.61
615.166	80072.13
615.501	80072.54
615.836	80072.13
616.171	80072.98
616.506	80072.83
616.841	80071.5
617.176	80072.02
617.511	80070.87
617.846	80070.39
618.18	80069.43
618.515	80069.06
618.85	80068.32
619.184	80068.43
619.519	80068.87
619.853	80069.24
620.188	80068.61
620.522	80068.61
620.856	80068.02
621.191	80067.84
621.525	80066.32
621.859	80065.58
622.193	80065.32
622.527	80066.54
622.861	80066.5
623.195	80066.32
623.529	80065.39
623.863	80065.36
624.197	80064.88
624.531	80064.99
624.865	80064.95
625.198	80066.39
625.532	80066.39
625.866	80066.8
626.199	80065.95
626.533	80067.54
626.866	80065.62
627.2	80064.06
627.533	80063.77
627.866	80064.51
628.2	80064.73
628.533	80064.06
628.866	80064.54
629.199	80064.4
629.532	80062.99
629.865	80062.25
630.198	80061.92
630.531	80063.17
630.864	80062.51
631.197	80061.69
631.529	80061.4
631.862	80061.18
632.195	80060.44
632.527	80059.62
632.86	80059.96
633.193	80061.73
633.525	80061.14
633.857	80062.73
634.19	80064.47
634.522	80066.13
634.854	80065.36
635.187	80064.54
635.519	80065.95
635.851	80065.58
636.183	80067.1
636.515	80067.17
636.847	80067.24
637.179	80067.58
637.511	80067.47
637.843	80068.95
638.174	80069.46
638.506	80071.35
638.838	80072.39
639.17	80072.39
639.501	80073.94
639.833	80074.02
640.164	80073.46
640.496	80074.87
640.827	80074.79
641.158	80073.09
641.49	80072.02
641.821	80071.17
642.152	80070.57
642.483	80070.76
642.814	80071.24
643.145	80068.91
643.476	80068.43
643.807	80066.73
644.138	80065.03
644.469	80064.51
644.8	80062.55
645.131	80062.7
645.461	80060.59
645.792	80058.15
646.122	80058.66
646.453	80055.56
646.784	80053.97
647.114	80052.71
647.444	80051.41
647.775	80049.78
648.105	80050.3
648.435	80049.3
648.765	80049.93
649.096	80049.38
649.426	80048.64
649.756	80046.42
650.086	80046.79
650.416	80046.46
650.746	80047.93
651.075	80048.64
651.405	80048.38
651.735	80049.6
652.065	80049.71
652.394	80048.9
652.724	80048.56
653.054	80047.19
653.383	80047.49
653.712	80047.68
654.042	80047.71
654.371	80046.97
654.701	80048.86
655.03	80047.42
655.359	80046.97
655.688	80047.64
656.017	80048.42
656.346	80048.38
656.675	80049.53
657.004	80049.56
657.333	80048.27
657.662	80049.34
657.991	80049.04
658.32	80048.71
658.648	80047.38
658.977	80045.64
659.306	80046.01
659.634	80046.42
659.963	80046.79
660.291	80046.05
660.619	80045.98
660.948	80045.83
661.276	80045.61
661.604	80041.98
661.933	80041.91
662.261	80043.17
662.589	80041.98
662.917	80040.91
663.245	80040.17
663.573	80039.61
663.901	80038.25
664.229	80039.8
664.556	80038.1
664.884	80036.77
665.212	80037.25
665.539	80037.1
665.867	80038.47
666.195	80037.54
666.522	80037.28
666.85	80036.88
667.177	80037.36
667.504	80037.58
667.832	80035.33
668.159	80034.73
668.486	80036.8
668.813	80038.06
669.14	80036.36
669.467	80037.91
669.794	80038.8
670.121	80039.36
670.448	80038.99
670.775	80041.09
671.102	80041.39
671.429	80042.5
671.755	80042.54
672.082	80041.46
672.409	80041.43
672.735	80039.8
673.062	80041.09
673.388	80042.8
673.714	80041.87
674.041	80043.13
674.367	80042.54
674.693	80043.68
675.019	80042.72
675.346	80039.73
675.672	80039.28
675.998	80039.69
676.324	80037.18
676.65	80036.29
676.976	80034.59
677.301	80035.22
677.627	80034.25
677.953	80032.22
678.279	80030.41
678.604	80030.85
678.93	80029.96
679.255	80029.48
679.581	80030.56
679.906	80028
680.232	80026.53
680.557	80027.3
680.882	80026.6
681.208	80027.3
681.533	80026.34
681.858	80027.45
682.183	80027.82
682.508	80026.89
682.833	80025.45
683.158	80025.05
683.483	80022.27
683.808	80022.72
684.132	80021.35
684.457	80020.2
684.782	80021.17
685.106	80020.17
685.431	80019.8
685.755	80019.95
686.08	80019.39
686.404	80017.91
686.729	80018.1
687.053	80018.58
687.377	80018.32
687.701	80017.51
688.026	80015.36
688.35	80013.99
688.674	80013.07
688.998	80013.03
689.322	80013.22
689.646	80012.74
689.97	80011.74
690.293	80014.14
690.617	80013.99
690.941	80011.59
691.264	80011.22
691.588	80008.56
691.912	80007.3
692.235	80005.01
692.559	80002.54
692.882	80001.72
693.205	80000.47
693.529	80000.1
693.852	79996.51
694.175	79993.26
694.498	79990.86
694.821	79989.57
695.144	79988.86
695.467	79984.73
695.79	79981.88
696.113	79977.41
696.436	79973.06
696.759	79969.29
697.082	79962.64
697.404	79956.66
697.727	79950.87
698.049	79942.82
698.372	79933.27
698.694	79922.36
699.017	79909.57
699.339	79894.91
699.662	79878.29
699.984	79851.45
700.306	79821.98
700.628	79778.99
700.95	79721.94
701.272	79655.25
701.594	79574.07
701.916	79492.59
702.238	79400.7
702.56	79265.16
702.882	79123.42
703.204	78987.14
703.525	78827.45
703.847	78628.36
704.169	78446.04
704.49	78238.73
704.812	78022.8
705.133	77810.37
705.455	77594.88
705.776	77357.34
706.097	77130.63
706.419	76890.43
706.74	76638.73
707.061	76371.74
707.382	76080.24
707.703	75788.39
708.024	75512.72
708.345	75222.76
708.666	74910.08
708.987	74590.46
709.307	74318.16
709.628	74002.87
709.949	73682.92
710.27	73374.55
710.59	73105.17
710.911	72798.64
711.231	72508.07
711.552	72230.81
711.872	71892.29
712.192	71612.22
712.512	71343.82
712.833	71065.5
713.153	70784.2
713.473	70545.03
713.793	70305.75
714.113	70088.42
714.433	69876.28
714.753	69662.44
715.073	69466.72
715.393	69267.34
715.712	69104.95
716.032	68883.84
716.352	68721.18
716.671	68560.97
716.991	68384.96
717.31	68195.96
717.63	68033.45
717.949	67843.5
718.268	67633.19
718.588	67462.61
718.907	67225.93
719.226	66967.76
719.545	66717.79
719.864	66440.09
720.183	66159.24
720.502	65878.32
720.821	65603.46
721.14	65319.71
721.459	65006.95
721.778	64727.63
722.096	64403.63
722.415	64094.8
722.734	63827.2
723.052	63532.3
723.371	63239.62
723.689	62959.84
724.008	62672.39
724.326	62378.48
724.644	62115.55
724.963	61842.5
725.281	61610.97
725.599	61379.19
725.917	61190.04
726.235	60991.71
726.553	60834.6
726.871	60639.48
727.189	60433.95
727.507	60230.3
727.824	60071.63
728.142	59931.07
728.46	59727.14
728.777	59621.92
729.095	59484.37
729.413	59341.34
729.73	59204.01
730.047	59072.16
730.365	58953.13
730.682	58846.39
730.999	58760.9
731.317	58683.66
731.634	58606.05
731.951	58491.14
732.268	58368.58
732.585	58219.23
732.902	58058.04
733.219	57899.92
733.536	57728.95
733.852	57611.28
734.169	57478.72
734.486	57329.59
734.802	57167.15
735.119	57057.56
735.435	56881.39
735.752	56719.62
736.068	56540.14
736.385	56371.01
736.701	56175.32
737.017	55943.97
737.333	55693.78
737.65	55382.7
737.966	54995.88
738.282	54602.92
738.598	54188.82
738.914	53733.5
739.23	53250.88
739.545	52729.32
739.861	52172.83
740.177	51624.63
740.493	51019.95
740.808	50441.15
741.124	49828.39
741.439	49250.42
741.755	48676.6
742.07	48158.59
742.386	47599.85
742.701	47097.47
743.016	46595.54
743.331	46118.07
743.647	45690.42
743.962	45301.75
744.277	44954
744.592	44684.35
744.907	44462.91
745.222	44297.3
745.537	44201.06
745.851	44163.17
746.166	44178.74
746.481	44233.9
746.795	44350.28
747.11	44514.19
747.424	44692.04
747.739	44860.56
748.053	45037.9
748.368	45185.19
748.682	45297.16
748.996	45427.6
749.311	45531.6
749.625	45635.43
749.939	45733.66
750.253	45799.2
750.567	45869.32
750.881	45930.75
751.195	45996.75
751.509	46066.36
751.822	46117.41
752.136	46163.03
752.45	46212.11
752.763	46280.35
753.077	46346.7
753.39	46374.07
753.704	46391.22
754.017	46402.04
754.331	46437.27
754.644	46446.29
754.957	46456.21
755.27	46463.39
755.584	46476.48
755.897	46483.54
756.21	46480.77
756.523	46455.62
756.836	46433.32
757.149	46352.84
757.461	46279.93
757.774	46194.46
758.087	46075.07
758.4	45928.93
758.712	45783.36
759.025	45633.87
759.337	45481.37
759.65	45314.8
759.962	45160.43
760.275	45001.16
760.587	44860.73
760.899	44717.99
761.211	44620.06
761.523	44548.74
761.836	44557
762.148	44566.83
762.46	44603.23
762.772	44665.29
763.083	44803.52
763.395	44949.24
763.707	45169.89
764.019	45397.75
764.33	45627.67
764.642	45879.33
764.954	46153.62
765.265	46432.78
765.577	46693.35
765.888	46933.1
766.199	47175.2
766.511	47395.91
766.822	47618.55
767.133	47800.16
767.444	47967.63
767.755	48061.48
768.066	48113.76
768.377	48094.89
768.688	48027.99
768.999	47938.18
769.31	47811.44
769.621	47623.27
769.931	47405.59
770.242	47145.64
770.553	46850.56
770.863	46514.18
771.174	46159.68
771.484	45774.78
771.794	45366.81
772.105	44958.78
772.415	44531
772.725	44086.27
773.035	43642.26
773.345	43180.48
773.656	42708.27
773.966	42246.44
774.276	41813.82
774.585	41384.54
774.895	40951.17
775.205	40565.99
775.515	40165.39
775.824	39772.44
776.134	39383.3
776.444	39016.64
776.753	38655.05
777.063	38312.64
777.372	37988.97
777.681	37663.93
777.991	37361.27
778.3	37062.05
778.609	36759.42
778.918	36475.15
779.228	36209.06
779.537	35949.78
779.846	35689.96
780.154	35438.51
780.463	35199.07
780.772	34949.06
781.081	34718.7
781.39	34517.64
781.698	34302.73
782.007	34096.4
782.316	33886.72
782.624	33674.61
782.932	33473.13
783.241	33277.99
783.549	33080.72
783.858	32905.68
784.166	32738.87
784.474	32568.44
784.782	32400.75
785.09	32245.35
785.398	32096.57
785.706	31962.09
786.014	31818.62
786.322	31685.09
786.63	31562.09
786.937	31430.78
787.245	31306.21
787.553	31184.39
787.86	31070.65
788.168	30951.12
788.475	30847.51
788.783	30758.16
789.09	30664.27
789.398	30565.57
789.705	30463.3
790.012	30362.02
790.319	30266.31
790.626	30162.48
790.933	30065.64
791.24	29980.64
791.547	29885.57
791.854	29790.68
792.161	29686.01
792.468	29589.13
792.774	29487.16
793.081	29392.98
793.388	29313.88
793.694	29218.85
794.001	29130.23
794.307	29009.57
794.614	28899.76
794.92	28768.02
795.226	28635.9
795.533	28520.42
795.839	28425.5
796.145	28312.93
796.451	28200.63
796.757	28086.38
797.063	27978.32
797.369	27871.2
797.675	27767.47
797.98	27669.6
798.286	27553.28
798.592	27451.13
798.898	27337.11
799.203	27228.3
799.509	27104.85
799.814	26975.28
800.12	26876.33
800.425	26761.28
800.73	26648.25
801.035	26533.9
801.341	26435.72
801.646	26339.35
801.951	26236.97
802.256	26126.71
802.561	26027.23
802.866	25935.33
803.171	25846.56
803.476	25752.14
803.78	25652.02
804.085	25548.46
804.39	25433.9
804.694	25336.23
804.999	25236.79
805.303	25142.08
805.608	25055.59
805.912	24981.41
806.216	24909.53
806.521	24831.95
806.825	24752.65
807.129	24677.04
807.433	24605.07
807.737	24531.7
808.041	24470.58
808.345	24410.87
808.649	24354.77
808.953	24307.59
809.257	24248.17
809.561	24190.6
809.864	24141.02
810.168	24109.72
810.471	24080.58
810.775	24052.6
811.078	24029.18
811.382	24000.38
811.685	23996.55
811.988	23984.02
812.292	23971
812.595	23966.01
812.898	23966.41
813.201	23980.73
813.504	24005.28
813.807	24035.96
814.11	24069.98
814.413	24096.65
814.716	24127.81
815.018	24170.82
815.321	24230.7
815.624	24316.13
815.926	24423.49
816.229	24543.62
816.531	24685.34
816.834	24843.39
817.136	25041.74
817.438	25261.8
817.74	25535.45
818.043	25844.81
818.345	26219.99
818.647	26671.91
818.949	27221.4
819.251	27857.2
819.553	28608.44
819.855	29474.9
820.156	30447.2
820.458	31531.99
820.76	32686.66
821.062	33900.15
821.363	35169.13
821.665	36502.42
821.966	37930.91
822.268	39373.58
822.569	40828.67
822.87	42314.63
823.171	43803.85
823.473	45341.57
823.774	46914.6
824.075	48434.52
824.376	49929.65
824.677	51404.95
824.978	52790.56
825.279	54081.65
825.58	55253.91
825.88	56294.05
826.181	57177.52
826.482	57956.8
826.782	58577.23
827.083	59095.29
827.383	59479.87
827.684	59693.03
827.984	59783.89
828.284	59702.9
828.585	59476.45
828.885	59174.08
829.185	58713.07
829.485	58159.9
829.785	57479.51
830.085	56643.41
830.385	55777.29
830.685	54847.57
830.985	53800.51
831.285	52730.9
831.584	51606.39
831.884	50454.11
832.183	49273.27
832.483	48069.33
832.782	46794.93
833.082	45511.51
833.381	44231.61
833.681	42992.3
833.98	41826.85
834.279	40680.85
834.578	39570.27
834.877	38536.78
835.176	37525.21
835.475	36588.24
835.774	35694.75
836.073	34826.77
836.372	34015.09
836.671	33195.66
836.969	32389.39
837.268	31644.21
837.567	30929.55
837.865	30242.66
838.164	29561.5
838.462	28911.55
838.761	28299.96
839.059	27721.08
839.357	27180.39
839.655	26646.54
839.953	26106.39
840.252	25582.8
840.55	25058.47
840.848	24547.33
841.146	24054.83
841.443	23555.86
841.741	23052.48
842.039	22548.98
842.337	22041.35
842.634	21574.58
842.932	21133.28
843.229	20707.6
843.527	20289.11
843.824	19847.25
844.122	19401.13
844.419	18983.72
844.716	18557.71
845.013	18144.07
845.311	17752.95
845.608	17372.71
845.905	17004.85
846.202	16648.44
846.499	16277.64
846.796	15913.49
847.092	15543.99
847.389	15174.71
847.686	14835.58
847.982	14519.23
848.279	14210.93
848.576	13927.47
848.872	13633.92
849.168	13345.29
849.465	13067.92
849.761	12775.97
850.057	12499.4
850.354	12234.21
850.65	11985.75
850.946	11754.3
851.242	11528.12
851.538	11310.69
851.834	11090.55
852.13	10875.11
852.425	10678.45
852.721	10500.85
853.017	10336.19
853.312	10184.44
853.608	10044.31
853.903	9905.33
854.199	9757.77
854.494	9626.23
854.79	9491.54
855.085	9355.52
855.38	9227.39
855.675	9094.97
855.971	8977.13
856.266	8875.12
856.561	8780.65
856.856	8687.04
857.151	8593
857.445	8496.69
857.74	8398.54
858.035	8308.07
858.33	8217.96
858.624	8132.35
858.919	8049.57
859.213	7965.34
859.508	7883.78
859.802	7792.51
860.096	7711.54
860.391	7650.58
860.685	7587.45
860.979	7527.51
861.273	7480.65
861.567	7423.35
861.861	7359.12
862.155	7303.79
862.449	7238.93
862.743	7173.42
863.037	7113.35
863.33	7060.3
863.624	7007.71
863.918	6961.97
864.211	6920.19
864.505	6885.36
864.798	6843.6
865.092	6797.18
865.385	6749.77
865.678	6701.48
865.971	6665.51
866.264	6633.12
866.558	6604.73
866.851	6572.93
867.144	6543.83
867.437	6506.17
867.729	6475.15
868.022	6454.18
868.315	6431.85
868.608	6419.46
868.9	6412.41
869.193	6390.94
869.485	6362.35
869.778	6338.9
870.07	6310.54
870.363	6291.4
870.655	6274.04
870.947	6265
871.239	6258.57
871.532	6261
871.824	6264.5
872.116	6265.09
872.408	6260.44
872.699	6247.8
872.991	6241.06
873.283	6237.49
873.575	6237.32
873.867	6245.1
874.158	6251.03
874.45	6254.42
874.741	6252.03
875.033	6249.41
875.324	6265.01
875.615	6286.04
875.907	6308.6
876.198	6325.63
876.489	6335.99
876.78	6339.95
877.071	6340.33
877.362	6344.23
877.653	6346.02
877.944	6356.32
878.235	6362.95
878.526	6369.58
878.816	6380.14
