Data from 24HourExp_27052025_FLMS018081_00-28-20-777.txt Node
Date: Wed May 28 00:28:20 BST 2025
User: adleo
Spectrometer: FLMS01808
Trigger mode: 0
Integration Time (sec): 4.000000E-1
Scans to average: 10
Electric dark correction enabled: true
Nonlinearity correction enabled: true
Boxcar width: 10
XAxis mode: Wavelengths
Number of Pixels in Spectrum: 2048
>>>>>Begin Spectral Data<<<<<
178.471	-129.41
178.857	-121.59
179.244	-114.67
179.631	-105.03
180.017	-96.28
180.404	-88.87
180.79	-77.37
181.176	-68.59
181.563	-59.54
181.949	-47.61
182.335	-37.61
182.722	-23.47
183.108	-5.75
183.494	18.05
183.88	73.71
184.266	127.22
184.653	186.86
185.039	241.38
185.425	297.04
185.811	351.74
186.197	406.83
186.582	459.72
186.968	511.86
187.354	564.81
187.74	614.43
188.126	664.51
188.511	715.85
188.897	763.63
189.283	810.97
189.668	857.16
190.054	898.95
190.439	943.66
190.825	987.04
191.21	1029.8
191.596	1066.45
191.981	1073.3
192.366	1077.24
192.752	1076.66
193.137	1080.19
193.522	1081.21
193.908	1084.16
194.293	1085.99
194.678	1088.55
195.063	1092.39
195.448	1093.73
195.833	1094.62
196.218	1094.65
196.603	1093.96
196.988	1092.62
197.373	1094.08
197.757	1094.02
198.142	1097.42
198.527	1095.99
198.912	1097.8
199.296	1095.47
199.681	1093.35
200.066	1091.46
200.45	1090.59
200.835	1090.53
201.219	1090.85
201.604	1090.76
201.988	1088.91
202.372	1090.23
202.757	1089.6
203.141	1088.93
203.525	1088.73
203.91	1088.13
204.294	1088.37
204.678	1088.13
205.062	1088.63
205.446	1087.53
205.83	1089.45
206.214	1088.15
206.598	1090.39
206.982	1090.5
207.366	1090.76
207.75	1091.2
208.134	1093.89
208.517	1096.6
208.901	1096.67
209.285	1096.25
209.669	1096.38
210.052	1097.99
210.436	1096.86
210.819	1098.07
211.203	1098.33
211.586	1097.37
211.97	1098.62
212.353	1099.27
212.737	1100.72
213.12	1103.29
213.503	1105.48
213.886	1105.69
214.27	1107.6
214.653	1106.96
215.036	1109.26
215.419	1111.34
215.802	1113.85
216.185	1114.91
216.568	1116.98
216.951	1119.37
217.334	1122.24
217.717	1125.68
218.1	1128.39
218.482	1133.2
218.865	1138.28
219.248	1141.51
219.631	1146.74
220.013	1151.85
220.396	1160.22
220.778	1165.04
221.161	1170.38
221.544	1176.9
221.926	1186.21
222.308	1194.99
222.691	1203.78
223.073	1211.88
223.455	1221.9
223.838	1231.46
224.22	1240.27
224.602	1251.91
224.984	1263.98
225.366	1278.09
225.749	1293.26
226.131	1305.06
226.513	1318.11
226.895	1330.34
227.276	1345.68
227.658	1360.72
228.04	1374.67
228.422	1388.03
228.804	1405.06
229.186	1422.06
229.567	1441.05
229.949	1456.47
230.331	1469.29
230.712	1488.25
231.094	1506.03
231.475	1525.06
231.857	1545.11
232.238	1565.14
232.62	1584.21
233.001	1605.36
233.382	1624.96
233.763	1641.91
234.145	1664.14
234.526	1683.51
234.907	1703.45
235.288	1723.18
235.669	1743.31
236.05	1765.37
236.431	1786.15
236.812	1806.59
237.193	1827.01
237.574	1846.14
237.955	1868.75
238.336	1893.94
238.717	1915.46
239.097	1939.47
239.478	1960.55
239.859	1981.93
240.239	2006.95
240.62	2030.79
241.001	2052.73
241.381	2077.16
241.762	2101.99
242.142	2125.77
242.522	2151.65
242.903	2175.48
243.283	2201.66
243.663	2229.75
244.044	2259.05
244.424	2287.02
244.804	2316.9
245.184	2347.24
245.564	2376.23
245.944	2406.14
246.324	2436.6
246.704	2467.3
247.084	2496.29
247.464	2528.86
247.844	2561.6
248.224	2593.8
248.604	2627.18
248.983	2658.35
249.363	2690.91
249.743	2721.18
250.122	2753.02
250.502	2784.17
250.882	2818.56
251.261	2850.36
251.641	2881.95
252.02	2915.58
252.399	2953.08
252.779	2990.28
253.158	3026.91
253.537	3066.81
253.917	3111.33
254.296	3151.02
254.675	3192.46
255.054	3233.04
255.433	3276.63
255.812	3315.74
256.191	3358.83
256.57	3398.98
256.949	3444.23
257.328	3488.25
257.707	3536.05
258.086	3584.96
258.465	3634.43
258.843	3689.45
259.222	3741.67
259.601	3798.67
259.979	3852.61
260.358	3906.07
260.736	3961.19
261.115	4016.75
261.493	4071.74
261.872	4121.74
262.25	4179.91
262.629	4237.08
263.007	4299.28
263.385	4359.75
263.763	4426.65
264.142	4489.33
264.52	4555.48
264.898	4623.07
265.276	4691.99
265.654	4762.92
266.032	4832.3
266.41	4903.15
266.788	4972.52
267.166	5049.97
267.544	5126.11
267.921	5203.26
268.299	5281.47
268.677	5360.61
269.055	5445.02
269.432	5530.3
269.81	5620.07
270.188	5709.1
270.565	5799.97
270.943	5893.8
271.32	5987.97
271.697	6083.25
272.075	6180.49
272.452	6277.73
272.829	6376.68
273.207	6478.05
273.584	6583.71
273.961	6692.31
274.338	6808.48
274.715	6925.56
275.092	7045.49
275.469	7166.42
275.846	7287.27
276.223	7411.34
276.6	7532.52
276.977	7656.79
277.354	7783.36
277.731	7908.33
278.108	8041.31
278.484	8173.07
278.861	8304.39
279.238	8440.24
279.614	8581.06
279.991	8720.66
280.367	8866.37
280.744	9016.47
281.12	9164.81
281.497	9308.04
281.873	9458.49
282.249	9604.85
282.625	9755.18
283.002	9903.34
283.378	10050.97
283.754	10203.73
284.13	10360.83
284.506	10524.44
284.882	10681.09
285.258	10840.1
285.634	10998.51
286.01	11155.8
286.386	11313.15
286.762	11478.05
287.138	11638.91
287.513	11800.7
287.889	11965.88
288.265	12128.65
288.641	12286.43
289.016	12446.85
289.392	12615.93
289.767	12778.66
290.143	12945.81
290.518	13106.97
290.894	13267.42
291.269	13427.18
291.644	13588.25
292.02	13739.9
292.395	13890.63
292.77	14049.41
293.145	14203.26
293.52	14361.59
293.895	14511.18
294.27	14671.17
294.646	14823.13
295.02	14973.79
295.395	15126.85
295.77	15282.3
296.145	15440.38
296.52	15600.64
296.895	15758.82
297.269	15910.91
297.644	16064.42
298.019	16217.19
298.393	16371.5
298.768	16524.05
299.143	16682.82
299.517	16834.64
299.891	16995.35
300.266	17154.61
300.64	17316.99
301.015	17485.31
301.389	17655.97
301.763	17834.49
302.137	18005.13
302.512	18184.58
302.886	18369.09
303.26	18553.81
303.634	18737.78
304.008	18910.93
304.382	19087.54
304.756	19272.36
305.13	19465.54
305.504	19650.22
305.877	19843.48
306.251	20051.13
306.625	20259.11
306.999	20470.64
307.372	20686.45
307.746	20903.03
308.119	21117.9
308.493	21329.06
308.866	21538.99
309.24	21753.34
309.613	21964.15
309.987	22180.64
310.36	22380.22
310.733	22589.56
311.107	22808.45
311.48	23026.32
311.853	23264.04
312.226	23493.59
312.599	23727.8
312.972	23954.3
313.345	24189.46
313.718	24417.15
314.091	24632.15
314.464	24865.72
314.837	25088.01
315.21	25301.43
315.582	25524.87
315.955	25742.14
316.328	25963.32
316.7	26177.22
317.073	26401.72
317.446	26624.64
317.818	26856.88
318.191	27087.96
318.563	27313.14
318.936	27520
319.308	27725.77
319.68	27928.33
320.053	28132.09
320.425	28320.06
320.797	28499.71
321.169	28660.24
321.541	28809.27
321.913	28946.94
322.285	29064.52
322.657	29190.1
323.029	29338.7
323.401	29483.55
323.773	29651.57
324.145	29825.44
324.517	30020.75
324.889	30196.1
325.26	30404.08
325.632	30615.32
326.004	30859.63
326.375	31121.1
326.747	31397.12
327.118	31699.45
327.49	31988.33
327.861	32301.32
328.233	32607.89
328.604	32921.9
328.975	33245.02
329.346	33559.23
329.718	33870.57
330.089	34176.54
330.46	34468.43
330.831	34742.22
331.202	34997.86
331.573	35247.57
331.944	35478.47
332.315	35709.1
332.686	35933.63
333.057	36126.65
333.428	36309.01
333.799	36478.1
334.169	36629.05
334.54	36766.53
334.911	36883.85
335.281	37023.23
335.652	37140.3
336.022	37275.65
336.393	37416
336.763	37578.91
337.134	37765.84
337.504	37966.49
337.874	38169.02
338.245	38379.96
338.615	38602.74
338.985	38835.19
339.355	39055.6
339.726	39279.58
340.096	39500.31
340.466	39752.17
340.836	39998.35
341.206	40249.15
341.576	40495.54
341.945	40742.62
342.315	40979.73
342.685	41230.61
343.055	41475.27
343.425	41729.9
343.794	41967.59
344.164	42211.44
344.533	42445.99
344.903	42676.17
345.273	42913.23
345.642	43141.55
346.011	43372.4
346.381	43605.08
346.75	43832.09
347.12	44082.07
347.489	44333.2
347.858	44575.71
348.227	44777.82
348.596	45001.07
348.965	45232.62
349.334	45456.1
349.704	45692.52
350.072	45941.7
350.441	46172.93
350.81	46412.18
351.179	46630.25
351.548	46868.66
351.917	47089.1
352.285	47284.98
352.654	47492.59
353.023	47700.44
353.391	47900.65
353.76	48117.8
354.129	48307.41
354.497	48547.37
354.865	48764.37
355.234	48998.97
355.602	49220.88
355.971	49481.24
356.339	49697.28
356.707	49909.87
357.075	50136.59
357.443	50356.6
357.811	50573.69
358.18	50783.53
358.548	50991.96
358.916	51204.08
359.284	51426.16
359.651	51636.52
360.019	51852.34
360.387	52059.46
360.755	52263.63
361.123	52490.48
361.49	52711.96
361.858	52929.59
362.226	53118.04
362.593	53322.46
362.961	53498.19
363.328	53698.6
363.696	53859.36
364.063	54075.49
364.43	54283
364.798	54494.16
365.165	54673.33
365.532	54854.37
365.899	55043.92
366.267	55206.52
366.634	55364.87
367.001	55519.92
367.368	55665.7
367.735	55858.9
368.102	56030.92
368.469	56222.15
368.835	56410.37
369.202	56576.99
369.569	56765.3
369.936	56958.98
370.303	57139.2
370.669	57341.58
371.036	57511.04
371.402	57715.11
371.769	57898.48
372.135	58049.86
372.502	58172.2
372.868	58321.07
373.235	58457.11
373.601	58592.87
373.967	58770.47
374.333	58952.07
374.7	59138.75
375.066	59346.29
375.432	59525.88
375.798	59702.85
376.164	59867.54
376.53	60013.4
376.896	60184.27
377.262	60360.05
377.628	60487.12
377.993	60633.82
378.359	60780.16
378.725	60940.41
379.091	61088.92
379.456	61218.81
379.822	61357.86
380.187	61515.92
380.553	61709.18
380.918	61912.91
381.284	62093.84
381.649	62266.27
382.015	62411.44
382.38	62536.31
382.745	62694.82
383.11	62850.69
383.476	62997.79
383.841	63135.16
384.206	63298.28
384.571	63418.72
384.936	63552.49
385.301	63733.37
385.666	63869.92
386.031	64020.93
386.396	64181.57
386.76	64336.27
387.125	64531.44
387.49	64731.83
387.855	64928.33
388.219	65091.85
388.584	65263.88
388.948	65458.5
389.313	65625.76
389.677	65829.07
390.042	66065.24
390.406	66226.15
390.771	66417
391.135	66611.92
391.499	66838.97
391.863	67065.81
392.227	67315.5
392.592	67520.07
392.956	67710.71
393.32	67911.62
393.684	68132.83
394.048	68302.43
394.412	68490.28
394.775	68637.54
395.139	68785.95
395.503	68947.44
395.867	69102.98
396.231	69249.09
396.594	69356.87
396.958	69493.57
397.321	69652.48
397.685	69767.02
398.048	69917.84
398.412	70050.09
398.775	70179.75
399.139	70308.29
399.502	70419.35
399.865	70550.72
400.228	70755.63
400.592	70894.56
400.955	71095.22
401.318	71233.86
401.681	71404.98
402.044	71545.08
402.407	71706.27
402.77	71867.48
403.133	72049.94
403.496	72186.68
403.859	72341.46
404.221	72577.63
404.584	72821.34
404.947	73064.77
405.309	73282.02
405.672	73512.1
406.034	73732.76
406.397	73984.11
406.759	74202.22
407.122	74384.64
407.484	74566.62
407.847	74745.51
408.209	74992.61
408.571	75217
408.933	75469.89
409.296	75723.23
409.658	75970.12
410.02	76237.34
410.382	76530.94
410.744	76779.22
411.106	77062.79
411.468	77330.34
411.83	77550.77
412.191	77731.36
412.553	77886.31
412.915	78073.2
413.277	78256.39
413.638	78428.75
414	78577.94
414.361	78730.38
414.723	78929.25
415.084	79106.58
415.446	79237.85
415.807	79344.73
416.169	79423.36
416.53	79483.66
416.891	79550.38
417.252	79633.38
417.614	79682.69
417.975	79706.38
418.336	79732.26
418.697	79759.98
419.058	79781.15
419.419	79798.85
419.78	79816.76
420.141	79832.89
420.501	79845.97
420.862	79855.33
421.223	79863.5
421.584	79884.55
421.944	79896.71
422.305	79903.64
422.666	79908.59
423.026	79910.03
423.387	79918.51
423.747	79924
424.107	79930.75
424.468	79936.77
424.828	79939.57
425.188	79942.38
425.549	79945.37
425.909	79950.24
426.269	79949.03
426.629	79953.2
426.989	79955.67
427.349	79960.1
427.709	79960.92
428.069	79963.13
428.429	79965.42
428.789	79970.41
429.149	79973.96
429.508	79974.73
429.868	79978.94
430.228	79982.2
430.587	79986.48
430.947	79989.33
431.306	79994.5
431.666	79997.12
432.025	80000.08
432.385	80002.7
432.744	80004.89
433.103	80009.65
433.463	80012.68
433.822	80021.18
434.181	80022.69
434.54	80026.1
434.899	80027.17
435.258	80030.09
435.618	80031.97
435.976	80034.82
436.335	80036.15
436.694	80036.41
437.053	80037.96
437.412	80037.48
437.771	80039.29
438.129	80039.88
438.488	80040.81
438.847	80039.96
439.205	80041.36
439.564	80042.36
439.922	80042.84
440.281	80041.92
440.639	80040.51
440.997	80038.85
441.356	80036.67
441.714	80037.74
442.072	80037.44
442.431	80037
442.789	80038.29
443.147	80036.67
443.505	80037.74
443.863	80036.93
444.221	80037.7
444.579	80036.59
444.937	80036.93
445.294	80036.59
445.652	80035.85
446.01	80035.19
446.368	80036.08
446.725	80034.74
447.083	80035.85
447.441	80036.3
447.798	80037.11
448.156	80038.55
448.513	80040.88
448.87	80042.81
449.228	80043.03
449.585	80041.66
449.942	80043.32
450.3	80042.1
450.657	80043.88
451.014	80043.88
451.371	80045.84
451.728	80046.47
452.085	80048.65
452.442	80050.39
452.799	80051.31
453.156	80052.35
453.513	80052.5
453.869	80052.98
454.226	80054.72
454.583	80053.83
454.939	80053.83
455.296	80054.94
455.653	80056.57
456.009	80056.08
456.366	80056.57
456.722	80057.53
457.078	80059.34
457.435	80058.45
457.791	80060.56
458.147	80060.67
458.503	80061.15
458.86	80060.67
459.216	80060.6
459.572	80061
459.928	80059.56
460.284	80058.82
460.64	80059.71
460.996	80062.63
461.351	80061.48
461.707	80060.89
462.063	80061.6
462.419	80062.56
462.774	80062.67
463.13	80061.08
463.486	80061.15
463.841	80061.85
464.197	80063.37
464.552	80064.04
464.908	80067.07
465.263	80066.66
465.618	80068.03
465.974	80069.29
466.329	80069.99
466.684	80071.7
467.039	80071.36
467.394	80073.44
467.749	80074.4
468.104	80073.29
468.459	80072.29
468.814	80074.88
469.169	80075.21
469.524	80075.65
469.879	80075.8
470.233	80076.06
470.588	80076.84
470.943	80077.06
471.297	80077.43
471.652	80076.76
472.006	80077.06
472.361	80075.36
472.715	80075.99
473.07	80076.28
473.424	80074.54
473.778	80074.91
474.133	80072.99
474.487	80074.14
474.841	80074.4
475.195	80075.54
475.549	80076.51
475.903	80077.8
476.257	80077.69
476.611	80078.43
476.965	80078.32
477.319	80078.13
477.673	80079.91
478.026	80080.35
478.38	80080.54
478.734	80079.28
479.087	80078.13
479.441	80079.21
479.795	80080.32
480.148	80080.54
480.502	80079.84
480.855	80081.09
481.208	80081.72
481.562	80082.8
481.915	80082.28
482.268	80081.61
482.621	80081.43
482.974	80082.35
483.328	80082.32
483.681	80083.06
484.034	80082.98
484.387	80083.8
484.739	80084.02
485.092	80083.13
485.445	80083.94
485.798	80085.02
486.151	80087.61
486.503	80090.72
486.856	80090.61
487.209	80090.98
487.561	80091.94
487.914	80093.01
488.266	80093.53
488.618	80092.79
488.971	80093.64
489.323	80094.45
489.675	80095.94
490.028	80096.86
490.38	80096.79
490.732	80096.6
491.084	80096.49
491.436	80097.86
491.788	80098.05
492.14	80098.16
492.492	80097.27
492.844	80097.64
493.196	80098.97
493.548	80099.16
493.899	80097.08
494.251	80097.08
494.603	80095.75
494.954	80095.01
495.306	80094.05
495.657	80094.2
496.009	80093.83
496.36	80094.12
496.712	80096.2
497.063	80094.57
497.414	80094.2
497.765	80094.05
498.117	80094.57
498.468	80093.35
498.819	80092.98
499.17	80093.46
499.521	80092.57
499.872	80092.49
500.223	80092.24
500.574	80090.57
500.924	80089.64
501.275	80090.64
501.626	80090.42
501.977	80091.53
502.327	80090.46
502.678	80090.83
503.029	80090.9
503.379	80093.05
503.73	80093.72
504.08	80090.75
504.43	80092.38
504.781	80091.64
505.131	80091.27
505.481	80089.57
505.831	80089.72
506.182	80091.09
506.532	80089.68
506.882	80090.01
507.232	80089.24
507.582	80089.39
507.932	80088.79
508.281	80088.9
508.631	80088.2
508.981	80088.42
509.331	80089.2
509.681	80090.5
510.03	80091.16
510.38	80091.53
510.729	80090.94
511.079	80090.31
511.428	80089.42
511.778	80088.83
512.127	80089.65
512.476	80088.02
512.826	80089.13
513.175	80089.94
513.524	80088.98
513.873	80089.61
514.222	80090.72
514.571	80091.94
514.92	80091.2
515.269	80091.35
515.618	80091.68
515.967	80092.2
516.316	80091.64
516.665	80091.35
517.014	80091.49
517.362	80091.49
517.711	80092.01
518.059	80092.79
518.408	80091.94
518.757	80093.53
519.105	80094.34
519.453	80092.49
519.802	80094.6
520.15	80096.38
520.498	80096.97
520.847	80095.34
521.195	80096.68
521.543	80096.2
521.891	80097.08
522.239	80098.9
522.587	80099.9
522.935	80099.67
523.283	80098.34
523.631	80097.53
523.979	80097.27
524.326	80096.86
524.674	80096.42
525.022	80096.75
525.369	80095.27
525.717	80095.68
526.064	80096.53
526.412	80095.46
526.759	80097.49
527.107	80098.34
527.454	80096.79
527.801	80096.64
528.149	80097.01
528.496	80094.9
528.843	80095.57
529.19	80096.34
529.537	80094.57
529.884	80094.16
530.231	80094.68
530.578	80095.71
530.925	80097.16
531.272	80096.23
531.619	80096.56
531.966	80096.6
532.312	80095.34
532.659	80096.82
533.006	80096.34
533.352	80096.08
533.699	80098.08
534.045	80096.05
534.392	80094.71
534.738	80093.6
535.084	80092.83
535.431	80094.72
535.777	80096.31
536.123	80095.75
536.469	80093.75
536.815	80093.72
537.161	80095.23
537.507	80094.9
537.853	80095.09
538.199	80094.79
538.545	80095.46
538.891	80095.2
539.237	80095.09
539.582	80095.38
539.928	80094.9
540.274	80096.27
540.619	80096.27
540.965	80095.34
541.31	80097.12
541.656	80097.49
542.001	80098.56
542.347	80098.93
542.692	80098.34
543.037	80098.97
543.382	80099.53
543.728	80101.52
544.073	80102.89
544.418	80102.38
544.763	80103.04
545.108	80103.3
545.453	80103.45
545.798	80103.19
546.142	80102.34
546.487	80103.89
546.832	80104.6
547.177	80103.41
547.521	80102.45
547.866	80103.27
548.211	80102.6
548.555	80101.78
548.9	80101.53
549.244	80100.64
549.588	80101.08
549.933	80100.79
550.277	80098.86
550.621	80098.05
550.965	80098.08
551.31	80095.71
551.654	80095.57
551.998	80093.31
552.342	80092.64
552.686	80092.35
553.03	80093.83
553.373	80095.12
553.717	80093.42
554.061	80091.79
554.405	80091.86
554.748	80091.09
555.092	80090.79
555.436	80090.01
555.779	80090.75
556.123	80092.61
556.466	80093.16
556.81	80093.31
557.153	80093.83
557.496	80093.64
557.839	80095.12
558.183	80093.42
558.526	80094.05
558.869	80092.94
559.212	80094.2
559.555	80093.83
559.898	80094.49
560.241	80093.97
560.584	80093.34
560.927	80094.64
561.269	80096.27
561.612	80096.86
561.955	80097.79
562.297	80098.19
562.64	80099.3
562.983	80099.71
563.325	80098.12
563.668	80097.75
564.01	80096.86
564.352	80093.83
564.695	80093.9
565.037	80091.83
565.379	80092.94
565.721	80092.57
566.063	80092.35
566.406	80093.16
566.748	80093.75
567.09	80092.83
567.431	80091.12
567.773	80091.42
568.115	80090.05
568.457	80087.94
568.799	80087.35
569.14	80085.83
569.482	80084.28
569.824	80082.91
570.165	80080.69
570.507	80081.28
570.848	80081.5
571.19	80082.83
571.531	80084.13
571.872	80086.39
572.214	80088.31
572.555	80087.2
572.896	80088.76
573.237	80087.79
573.578	80085.5
573.919	80084.83
574.26	80085.72
574.601	80086.28
574.942	80085.91
575.283	80086.72
575.624	80087.46
575.964	80086.76
576.305	80087.65
576.646	80087.13
576.986	80087.24
577.327	80087.65
577.667	80086.72
578.008	80086.72
578.348	80085.35
578.689	80085.72
579.029	80082.87
579.369	80082.98
579.71	80083.43
580.05	80083.46
580.39	80084.83
580.73	80085.2
581.07	80085.2
581.41	80084.09
581.75	80083.06
582.09	80081.76
582.43	80079.39
582.769	80078.58
583.109	80078.1
583.449	80077.47
583.789	80076.14
584.128	80076.43
584.468	80077.39
584.807	80077.14
585.147	80076.58
585.486	80076.69
585.825	80075.51
586.165	80076.51
586.504	80074.25
586.843	80073.21
587.182	80072.03
587.522	80071.21
587.861	80070.84
588.2	80071.88
588.539	80070.44
588.878	80070.55
589.216	80070.47
589.555	80071.03
589.894	80071.47
590.233	80072.36
590.572	80074.06
590.91	80075.95
591.249	80076.25
591.587	80075.1
591.926	80076.1
592.264	80076.06
592.603	80076.32
592.941	80076.06
593.279	80075.8
593.618	80075.06
593.956	80075.51
594.294	80075.36
594.632	80073.03
594.97	80074.4
595.308	80072.33
595.646	80073.44
595.984	80073.32
596.322	80073.66
596.66	80074.25
596.998	80074.55
597.335	80076.43
597.673	80074.95
598.011	80072.84
598.348	80070.81
598.686	80071.48
599.023	80069.96
599.361	80070.03
599.698	80068.74
600.035	80069.11
600.373	80069.11
600.71	80071.62
601.047	80070.25
601.384	80070.44
601.722	80072.25
602.059	80069.99
602.396	80069.66
602.733	80069.66
603.069	80069.62
603.406	80068.52
603.743	80067
604.08	80065.07
604.417	80064.08
604.753	80064.82
605.09	80067.18
605.426	80068.11
605.763	80067.15
606.099	80068.03
606.436	80069
606.772	80069.11
607.109	80068.26
607.445	80068.66
607.781	80065.48
608.117	80065.07
608.453	80065.19
608.79	80064.63
609.126	80066.07
609.462	80065.85
609.798	80065.11
610.133	80065
610.469	80064.85
610.805	80064.3
611.141	80064.56
611.477	80062.6
611.812	80059.97
612.148	80058.82
612.483	80057.86
612.819	80059.64
613.154	80058.67
613.49	80055.94
613.825	80055.23
614.16	80055.79
614.496	80055.09
614.831	80057.05
615.166	80056.34
615.501	80055.38
615.836	80055.09
616.171	80054.61
616.506	80055.57
616.841	80057.53
617.176	80057.64
617.511	80058.67
617.846	80059.19
618.18	80059.6
618.515	80060.34
618.85	80060.15
619.184	80060.01
619.519	80059.56
619.853	80057.38
620.188	80055.86
620.522	80058.34
620.856	80057.53
621.191	80058.16
621.525	80057.08
621.859	80055.49
622.193	80056.45
622.527	80056.6
622.861	80057.45
623.195	80057.79
623.529	80056.31
623.863	80054.83
624.197	80053.61
624.531	80052.2
624.865	80051.9
625.198	80052.39
625.532	80052.61
625.866	80055.12
626.199	80054.42
626.533	80054.46
626.866	80052.83
627.2	80054.53
627.533	80052.72
627.866	80053.13
628.2	80051.98
628.533	80052.27
628.866	80053.53
629.199	80054.68
629.532	80054.35
629.865	80054.31
630.198	80053.94
630.531	80053.98
630.864	80053.16
631.197	80054.83
631.529	80054.83
631.862	80055.49
632.195	80054.83
632.527	80054.75
632.86	80053.27
633.193	80053.35
633.525	80053.49
633.857	80054.57
634.19	80054.42
634.522	80053.2
634.854	80054.01
635.187	80054.27
635.519	80054.09
635.851	80053.68
636.183	80051.72
636.515	80051.94
636.847	80051.53
637.179	80050.61
637.511	80050.87
637.843	80049.61
638.174	80048.46
638.506	80048.5
638.838	80048.83
639.17	80048.24
639.501	80046.95
639.833	80047.17
640.164	80047.91
640.496	80047.69
640.827	80049.54
641.158	80048.69
641.49	80049.72
641.821	80049.24
642.152	80048.24
642.483	80047.61
642.814	80046.36
643.145	80046.32
643.476	80045.65
643.807	80045.32
644.138	80044.43
644.469	80044.28
644.8	80043.95
645.131	80043.84
645.461	80043.77
645.792	80042.36
646.122	80042.77
646.453	80042.73
646.784	80042.07
647.114	80040.25
647.444	80040.85
647.775	80039.33
648.105	80039.62
648.435	80038.7
648.765	80037.89
649.096	80038
649.426	80038.15
649.756	80037.89
650.086	80039.11
650.416	80037.7
650.746	80037
651.075	80037.85
651.405	80037.81
651.735	80039.37
652.065	80039.14
652.394	80039.99
652.724	80039.62
653.054	80038.55
653.383	80037.67
653.712	80036.44
654.042	80037.55
654.371	80037.18
654.701	80037.22
655.03	80036
655.359	80037.15
655.688	80037.55
656.017	80038.7
656.346	80037.7
656.675	80036.63
657.004	80035.93
657.333	80037.48
657.662	80037.63
657.991	80035.78
658.32	80036.59
658.648	80034.78
658.977	80034.89
659.306	80033.52
659.634	80033.45
659.963	80033.45
660.291	80033.78
660.619	80033.75
660.948	80032.53
661.276	80031.68
661.604	80030.12
661.933	80029.83
662.261	80027.13
662.589	80027.83
662.917	80026.06
663.245	80025.91
663.573	80026.57
663.901	80026.5
664.229	80024.87
664.556	80025.28
664.884	80025.98
665.212	80024.17
665.539	80023.28
665.867	80022.8
666.195	80023.73
666.522	80024.95
666.85	80024.91
667.177	80025.61
667.504	80026.5
667.832	80025.06
668.159	80025.1
668.486	80025.91
668.813	80025.95
669.14	80027.31
669.467	80025.46
669.794	80025.06
670.121	80025.21
670.448	80025.02
670.775	80025.72
671.102	80024.1
671.429	80022.17
671.755	80022.43
672.082	80022.4
672.409	80024.06
672.735	80022.77
673.062	80024.02
673.388	80023.06
673.714	80024.28
674.041	80023.99
674.367	80022.88
674.693	80024.32
675.019	80023.43
675.346	80023.43
675.672	80022.91
675.998	80021.95
676.324	80022.62
676.65	80022.18
676.976	80021.81
677.301	80021.62
677.627	80019.29
677.953	80020.33
678.279	80019.81
678.604	80017.41
678.93	80016.59
679.255	80015.52
679.581	80014.3
679.906	80012.23
680.232	80010.2
680.557	80008.31
680.882	80007.06
681.208	80006.91
681.533	80006.09
681.858	80005.28
682.183	80004.54
682.508	80004.99
682.833	80005.24
683.158	80002.8
683.483	80001.77
683.808	80001.92
684.132	80001.4
684.457	80001.44
684.782	80001.4
685.106	80001.33
685.431	80002.18
685.755	80003.73
686.08	80002.92
686.404	80003.84
686.729	80001.77
687.053	80002.14
687.377	80001.25
687.701	80000
688.026	79999.18
688.35	79999.96
688.674	80000.29
688.998	79999.18
689.322	79998.07
689.646	79996.97
689.97	79996.63
690.293	79995.82
690.617	79994.93
690.941	79992.53
691.264	79991.72
691.588	79991.9
691.912	79990.69
692.235	79988.25
692.559	79985.66
692.882	79983.92
693.205	79982.3
693.529	79980.82
693.852	79980.08
694.175	79977.42
694.498	79975.69
694.821	79974.65
695.144	79971.25
695.467	79967.97
695.79	79964.9
696.113	79961.36
696.436	79958.51
696.759	79954.49
697.082	79950.47
697.404	79942.79
697.727	79937.48
698.049	79930.98
698.372	79920.07
698.694	79909.04
699.017	79897.7
699.339	79882.37
699.662	79866.87
699.984	79841.72
700.306	79814.02
700.628	79769.97
700.95	79715.7
701.272	79645.51
701.594	79563.7
701.916	79482.73
702.238	79388.81
702.56	79247.37
702.882	79099.02
703.204	78960.94
703.525	78798.08
703.847	78598.33
704.169	78412.25
704.49	78206.98
704.812	77997.96
705.133	77784.83
705.455	77570.24
705.776	77328.35
706.097	77103.78
706.419	76860.46
706.74	76604.97
707.061	76336.32
707.382	76046.6
707.703	75753.16
708.024	75478.46
708.345	75186.38
708.666	74875.54
708.987	74558.71
709.307	74295
709.628	73988.18
709.949	73673.95
710.27	73356.7
710.59	73094.38
710.911	72795
711.231	72485.17
711.552	72202.74
711.872	71870.87
712.192	71583.87
712.512	71316.38
712.833	71034.95
713.153	70754.81
713.473	70520.24
713.793	70282.61
714.113	70070.19
714.433	69864.08
714.753	69646.36
715.073	69450.18
715.393	69252.07
715.712	69084.59
716.032	68864.25
716.352	68699.48
716.671	68535.11
716.991	68365.94
717.31	68171.28
717.63	68010.18
717.949	67837.18
718.268	67627.01
718.588	67452.06
718.907	67221.23
719.226	66966.09
719.545	66722.17
719.864	66448.65
720.183	66170.95
720.502	65884.7
720.821	65599.94
721.14	65309.21
721.459	64997.8
721.778	64717.66
722.096	64391.97
722.415	64088.28
722.734	63822.01
723.052	63536.2
723.371	63243.09
723.689	62971.58
724.008	62682.89
724.326	62379.73
724.644	62110.8
724.963	61839.48
725.281	61606.65
725.599	61379.8
725.917	61186.22
726.235	60982.64
726.553	60823.41
726.871	60625.31
727.189	60425.84
727.507	60228.84
727.824	60068.69
728.142	59931.9
728.46	59732.29
728.777	59632
729.095	59491.99
729.413	59346.52
729.73	59201.04
730.047	59060.05
730.365	58940.67
730.682	58829.79
730.999	58744.44
731.317	58668.02
731.634	58587.54
731.951	58469.45
732.268	58345.06
732.585	58200.14
732.902	58037.76
733.219	57879.52
733.536	57708.19
733.852	57588.94
734.169	57459.91
734.486	57315
734.802	57156.93
735.119	57041.51
735.435	56861.38
735.752	56709.36
736.068	56525.7
736.385	56354.94
736.701	56160.69
737.017	55931.29
737.333	55687.21
737.65	55375.91
737.966	55003.36
738.282	54613.71
738.598	54204.17
738.914	53747.74
739.23	53258.8
739.545	52741.83
739.861	52189.96
740.177	51645.57
740.493	51040.37
740.808	50452.56
741.124	49837.84
741.439	49255.67
741.755	48680.19
742.07	48155.16
742.386	47592.55
742.701	47092.25
743.016	46592.94
743.331	46122.55
743.647	45695.83
743.962	45304.03
744.277	44962.15
744.592	44680
744.907	44457.17
745.222	44290.27
745.537	44194.52
745.851	44162.01
746.166	44179.59
746.481	44230.37
746.795	44338.11
747.11	44497.75
747.424	44676.39
747.739	44844.9
748.053	45017.17
748.368	45168.83
748.682	45287.6
748.996	45414.82
749.311	45522.14
749.625	45630.81
749.939	45735.06
750.253	45793.86
750.567	45863.8
750.881	45926.67
751.195	45997.01
751.509	46055.77
751.822	46103.6
752.136	46155.21
752.45	46208.84
752.763	46277.52
753.077	46339.61
753.39	46370.66
753.704	46397.24
754.017	46417.17
754.331	46455.28
754.644	46465.05
754.957	46484.77
755.27	46494.08
755.584	46507.01
755.897	46510.27
756.21	46502.45
756.523	46472.37
756.836	46451.99
757.149	46373.54
757.461	46307.1
757.774	46215.52
758.087	46105.33
758.4	45971.4
758.712	45826.74
759.025	45670.07
759.337	45510.88
759.65	45348.39
759.962	45192.75
760.275	45030.4
760.587	44879.61
760.899	44736.67
761.211	44640.74
761.523	44562.58
761.836	44560.7
762.148	44565.01
762.46	44596.38
762.772	44656.27
763.083	44796.27
763.395	44945.35
763.707	45162.03
764.019	45387.01
764.33	45623.13
764.642	45871.88
764.954	46134.96
765.265	46406.72
765.577	46671.14
765.888	46909.28
766.199	47155.23
766.511	47380.07
766.822	47596.41
767.133	47777.12
767.444	47948.61
767.755	48043.43
768.066	48106.58
768.377	48093.27
768.688	48032.94
768.999	47941.72
769.31	47815.68
769.621	47626.63
769.931	47405.6
770.242	47150.53
770.553	46850.97
770.863	46510.99
771.174	46155.19
771.484	45776.33
771.794	45368.95
772.105	44963.2
772.415	44539.08
772.725	44092.4
773.035	43650.75
773.345	43197.18
773.656	42732.86
773.966	42253.29
774.276	41820.65
774.585	41389.58
774.895	40956.52
775.205	40570.98
775.515	40174.86
775.824	39782.3
776.134	39386.92
776.444	39021.22
776.753	38659.3
777.063	38316.58
777.372	37992.06
777.681	37669.04
777.991	37362.7
778.3	37056.23
778.609	36751.03
778.918	36461.3
779.228	36194.7
779.537	35923.87
779.846	35655.77
780.154	35402.16
780.463	35171.89
780.772	34923.88
781.081	34691.15
781.39	34487.87
781.698	34269.85
782.007	34065
782.316	33855.86
782.624	33646.34
782.932	33442.31
783.241	33241.59
783.549	33045.07
783.858	32878.87
784.166	32714.69
784.474	32544.23
784.782	32384.13
785.09	32228.43
785.398	32088.42
785.706	31948.73
786.014	31809.43
786.322	31676.8
786.63	31549.32
786.937	31422.17
787.245	31296.86
787.553	31166.63
787.86	31052.16
788.168	30929.44
788.475	30822.14
788.783	30738.45
789.09	30646.61
789.398	30547.72
789.705	30453.02
790.012	30357.02
790.319	30253.16
790.626	30146.72
790.933	30053.97
791.24	29969.71
791.547	29878.41
791.854	29782.67
792.161	29682.75
792.468	29586.57
792.774	29489.14
793.081	29405.13
793.388	29316.98
793.694	29221.77
794.001	29132.25
794.307	29012.81
794.614	28910.22
794.92	28776.98
795.226	28640.07
795.533	28523.75
795.839	28425.24
796.145	28310.6
796.451	28195.61
796.757	28086.1
797.063	27973.13
797.369	27857.4
797.675	27745.58
797.98	27644.68
798.286	27519.61
798.592	27410.71
798.898	27297.92
799.203	27188.12
799.509	27063.83
799.814	26940.96
800.12	26844.33
800.425	26735.6
800.73	26623.98
801.035	26506.82
801.341	26413.35
801.646	26314.34
801.951	26215.06
802.256	26109.38
802.561	26006.19
802.866	25916.25
803.171	25822.84
803.476	25736.61
803.78	25645.28
804.085	25546.33
804.39	25433.42
804.694	25339.7
804.999	25243.28
805.303	25145.89
805.608	25063.05
805.912	24976.07
806.216	24908.7
806.521	24838.04
806.825	24757.72
807.129	24684.55
807.433	24616.88
807.737	24546.45
808.041	24479.53
808.345	24419.17
808.649	24365.42
808.953	24321.96
809.257	24258.44
809.561	24204.94
809.864	24154.9
810.168	24121.03
810.471	24089.97
810.775	24064.71
811.078	24044.46
811.382	24017.27
811.685	24019.72
811.988	24006.23
812.292	23997.61
812.595	23993.49
812.898	23986.35
813.201	24000
813.504	24023.54
813.807	24049.2
814.11	24073.31
814.413	24106.3
814.716	24139.81
815.018	24181.64
815.321	24239.63
815.624	24328.83
815.926	24433.04
816.229	24558.15
816.531	24703.91
816.834	24866.12
817.136	25059.76
817.438	25273.41
817.74	25542.3
818.043	25850.95
818.345	26223.37
818.647	26681.22
818.949	27227.47
819.251	27863.95
819.553	28613.55
819.855	29476.39
820.156	30447.38
820.458	31535.02
820.76	32691.87
821.062	33903.24
821.363	35170.12
821.665	36513.33
821.966	37938.88
822.268	39383.25
822.569	40834.45
822.87	42307.77
823.171	43794.52
823.473	45326.73
823.774	46909.21
824.075	48438.79
824.376	49933.75
824.677	51407.93
824.978	52790.64
825.279	54083.43
825.58	55244.8
825.88	56284.25
826.181	57173.29
826.482	57958.46
826.782	58582.9
827.083	59101.46
827.383	59481.6
827.684	59697.4
827.984	59775.3
828.284	59685.45
828.585	59464.93
828.885	59163.68
829.185	58706.78
829.485	58155.75
829.785	57486.01
830.085	56648.79
830.385	55780.04
830.685	54845.62
830.985	53794.35
831.285	52717.03
831.584	51589.29
831.884	50448.01
832.183	49270.13
832.483	48065.64
832.782	46789.17
833.082	45506.88
833.381	44225.69
833.681	42986.4
833.98	41822.34
834.279	40682.73
834.578	39580.28
834.877	38535.22
835.176	37516.1
835.475	36580.56
835.774	35685.55
836.073	34812.55
836.372	33994.92
836.671	33176.37
836.969	32369.96
837.268	31629.83
837.567	30920.77
837.865	30234.7
838.164	29555.57
838.462	28902.77
838.761	28284.37
839.059	27701.13
839.357	27155.23
839.655	26620.75
839.953	26081.74
840.252	25551.18
840.55	25021.65
840.848	24516.78
841.146	24026.21
841.443	23529.78
841.741	23028.82
842.039	22525.04
842.337	22018.27
842.634	21554.03
842.932	21109.83
843.229	20687.02
843.527	20268.48
843.824	19825.55
844.122	19377.27
844.419	18958.51
844.716	18526.81
845.013	18116.38
845.311	17729.44
845.608	17357.5
845.905	16987.62
846.202	16628.36
846.499	16261.2
846.796	15900.88
847.092	15523.68
847.389	15159.48
847.686	14824.18
847.982	14505.24
848.279	14197.42
848.576	13910.88
848.872	13615.34
849.168	13324.87
849.465	13043.42
849.761	12752.46
850.057	12479.06
850.354	12216.5
850.65	11963.93
850.946	11740.93
851.242	11519.29
851.538	11298.95
851.834	11074.36
852.13	10861.33
852.425	10669.22
852.721	10492.05
853.017	10328.5
853.312	10179.8
853.608	10033.39
853.903	9890.34
854.199	9747.48
854.494	9612.62
854.79	9480.32
855.085	9350.44
855.38	9223.31
855.675	9092.8
855.971	8974.72
856.266	8873.98
856.561	8778.8
856.856	8688.17
857.151	8595.06
857.445	8497.68
857.74	8400.31
858.035	8309.53
858.33	8216.44
858.624	8126.02
858.919	8046.82
859.213	7958.07
859.508	7877.68
859.802	7793.05
860.096	7713.33
860.391	7648.66
860.685	7589.87
860.979	7530.28
861.273	7476.04
861.567	7418.04
861.861	7355.82
862.155	7301.58
862.449	7231.24
862.743	7163.96
863.037	7100.1
863.33	7041.4
863.624	6984.05
863.918	6939.18
864.211	6900.08
864.505	6868.91
864.798	6831.99
865.092	6781.37
865.385	6736.59
865.678	6684.46
865.971	6646.9
866.264	6611.61
866.558	6582.23
866.851	6547.44
867.144	6518.41
867.437	6485.41
867.729	6457.94
868.022	6436.98
868.315	6416.35
868.608	6405.08
868.9	6400.41
869.193	6385.43
869.485	6358.82
869.778	6337.9
870.07	6308.77
870.363	6289.52
870.655	6274.88
870.947	6265.92
871.239	6261.79
871.532	6264.74
871.824	6267.98
872.116	6266.96
872.408	6264.67
872.699	6250.67
872.991	6245.92
873.283	6240.53
873.575	6243.47
873.867	6251.88
874.158	6256.68
874.45	6254.52
874.741	6253.83
875.033	6250.85
875.324	6261.82
875.615	6281.03
875.907	6301.35
876.198	6318.76
876.489	6327.97
876.78	6327.47
877.071	6326.78
877.362	6328.94
877.653	6328.74
877.944	6339.79
878.235	6348.63
878.526	6354.48
878.816	6368.58
