Data from 24HourExp_27052025_FLMS018081_06-38-20-041.txt Node
Date: Wed May 28 06:38:20 BST 2025
User: adleo
Spectrometer: FLMS01808
Trigger mode: 0
Integration Time (sec): 4.000000E-1
Scans to average: 10
Electric dark correction enabled: true
Nonlinearity correction enabled: true
Boxcar width: 10
XAxis mode: Wavelengths
Number of Pixels in Spectrum: 2048
>>>>>Begin Spectral Data<<<<<
178.471	-123.01
178.857	-116.19
179.244	-110.99
179.631	-103.17
180.017	-94.43
180.404	-85.03
180.79	-74.21
181.176	-65.63
181.563	-56.7
181.949	-47.54
182.335	-37.99
182.722	-22.2
183.108	-2.74
183.494	23
183.88	77.34
184.266	131.33
184.653	186.43
185.039	240.26
185.425	297.45
185.811	350.1
186.197	402.19
186.582	455.32
186.968	506.97
187.354	559.84
187.74	611.35
188.126	662.16
188.511	712
188.897	758.84
189.283	806.72
189.668	854.01
190.054	899.49
190.439	946.31
190.825	989.93
191.21	1026.62
191.596	1060.69
191.981	1068.01
192.366	1072.05
192.752	1073.41
193.137	1079.34
193.522	1078.42
193.908	1081.71
194.293	1085.37
194.678	1084.99
195.063	1088.04
195.448	1089.06
195.833	1089.93
196.218	1089.75
196.603	1087.61
196.988	1089.68
197.373	1090.28
197.757	1089.56
198.142	1090.57
198.527	1088.07
198.912	1086.77
199.296	1089.25
199.681	1086.45
200.066	1084.83
200.45	1083.16
200.835	1083.25
201.219	1080.5
201.604	1080.77
201.988	1082.22
202.372	1083.38
202.757	1084.94
203.141	1084.67
203.525	1086.87
203.91	1086.41
204.294	1087.89
204.678	1091.1
205.062	1088.74
205.446	1088.05
205.83	1089.84
206.214	1089.95
206.598	1090.87
206.982	1092.45
207.366	1093.4
207.75	1095.34
208.134	1097.3
208.517	1100.06
208.901	1099.41
209.285	1100.72
209.669	1101.73
210.052	1100.23
210.436	1099.46
210.819	1100.05
211.203	1100.4
211.586	1100.59
211.97	1101.5
212.353	1101.32
212.737	1100.77
213.12	1104.68
213.503	1107.69
213.886	1107.28
214.27	1108.85
214.653	1110.4
215.036	1114.16
215.419	1117.59
215.802	1119.91
216.185	1121.48
216.568	1124.53
216.951	1129.73
217.334	1132.4
217.717	1136.95
218.1	1140.6
218.482	1145.68
218.865	1148.97
219.248	1152.57
219.631	1158.21
220.013	1163.3
220.396	1170.52
220.778	1175.02
221.161	1180.47
221.544	1186.57
221.926	1194.78
222.308	1201.41
222.691	1210.34
223.073	1217.38
223.455	1223.84
223.838	1235.81
224.22	1246.06
224.602	1254.3
224.984	1263.72
225.366	1276.57
225.749	1290.17
226.131	1302.38
226.513	1314.43
226.895	1327.25
227.276	1343.02
227.658	1357.18
228.04	1372.11
228.422	1386.36
228.804	1404.28
229.186	1419.84
229.567	1435.21
229.949	1453.46
230.331	1471.57
230.712	1488.43
231.094	1505.55
231.475	1524.4
231.857	1542.23
232.238	1562.29
232.62	1582.81
233.001	1603.61
233.382	1623.97
233.763	1641.13
234.145	1661.98
234.526	1681.89
234.907	1703.67
235.288	1723.17
235.669	1741.83
236.05	1761.1
236.431	1780.86
236.812	1802.76
237.193	1822.79
237.574	1845.83
237.955	1866.16
238.336	1887.83
238.717	1908.88
239.097	1934.03
239.478	1956.68
239.859	1977.76
240.239	2001.13
240.62	2025.51
241.001	2048.17
241.381	2071.13
241.762	2094.91
242.142	2118.08
242.522	2141.15
242.903	2165.31
243.283	2190.47
243.663	2218.33
244.044	2248.08
244.424	2277.18
244.804	2303.9
245.184	2331.51
245.564	2357.32
245.944	2388.06
246.324	2417.46
246.704	2447.34
247.084	2474.09
247.464	2501.67
247.844	2534.18
248.224	2564.22
248.604	2596.23
248.983	2627.82
249.363	2658.4
249.743	2689.02
250.122	2718.48
250.502	2749.73
250.882	2783.87
251.261	2816.86
251.641	2845.71
252.02	2877.99
252.399	2910.63
252.779	2944.37
253.158	2981.33
253.537	3019.65
253.917	3058.88
254.296	3097.77
254.675	3139.51
255.054	3179.33
255.433	3223.86
255.812	3264.05
256.191	3304.94
256.57	3346.16
256.949	3387.05
257.328	3430.89
257.707	3475.95
258.086	3524.75
258.465	3575.79
258.843	3623.43
259.222	3671.93
259.601	3728.33
259.979	3780.47
260.358	3832.8
260.736	3886.95
261.115	3943.96
261.493	3997.37
261.872	4049.27
262.25	4106.13
262.629	4162.39
263.007	4223.09
263.385	4282.82
263.763	4343.97
264.142	4409.35
264.52	4473.72
264.898	4537.05
265.276	4604.3
265.654	4673.26
266.032	4742.46
266.41	4812.79
266.788	4885.57
267.166	4963.29
267.544	5037.7
267.921	5112.49
268.299	5194.06
268.677	5274.15
269.055	5358.21
269.432	5444.14
269.81	5529.71
270.188	5618.31
270.565	5705.98
270.943	5798.52
271.32	5890.58
271.697	5984.51
272.075	6080.38
272.452	6174.49
272.829	6278.42
273.207	6378.89
273.584	6483.02
273.961	6588
274.338	6697.39
274.715	6814.11
275.092	6931.4
275.469	7049.19
275.846	7176.6
276.223	7298.85
276.6	7421.86
276.977	7546.97
277.354	7676.44
277.731	7805.51
278.108	7935.76
278.484	8070.82
278.861	8202.46
279.238	8343.02
279.614	8484.17
279.991	8625.21
280.367	8772.29
280.744	8921.77
281.12	9075.46
281.497	9226.97
281.873	9384.54
282.249	9538.44
282.625	9683.18
283.002	9830.56
283.378	9981.87
283.754	10130.16
284.13	10283.3
284.506	10444.36
284.882	10603.72
285.258	10758.4
285.634	10917.22
286.01	11077.53
286.386	11236.37
286.762	11401.39
287.138	11564.84
287.513	11729.59
287.889	11895.98
288.265	12058.63
288.641	12221.64
289.016	12382
289.392	12546.62
289.767	12710.47
290.143	12873.09
290.518	13040.15
290.894	13204.54
291.269	13366.07
291.644	13526.93
292.02	13684.41
292.395	13840.99
292.77	13995.35
293.145	14155.59
293.52	14313.89
293.895	14469.05
294.27	14626.63
294.646	14782.33
295.02	14933.53
295.395	15087.24
295.77	15242.81
296.145	15402.31
296.52	15555.3
296.895	15713.38
297.269	15865.99
297.644	16019.67
298.019	16176.89
298.393	16328.91
298.768	16486.66
299.143	16645.45
299.517	16800.11
299.891	16954.49
300.266	17112.79
300.64	17277
301.015	17442.72
301.389	17618.22
301.763	17790.1
302.137	17965.98
302.512	18151.94
302.886	18327.69
303.26	18511.82
303.634	18692.48
304.008	18869.59
304.382	19056.65
304.756	19239.59
305.13	19430.61
305.504	19610.58
305.877	19803.25
306.251	20013.19
306.625	20217.63
306.999	20431.16
307.372	20644.51
307.746	20866.69
308.119	21079.34
308.493	21291.84
308.866	21506.23
309.24	21717.18
309.613	21929.45
309.987	22141.07
310.36	22329.27
310.733	22541.18
311.107	22758.84
311.48	22975.83
311.853	23208.33
312.226	23433.62
312.599	23667.72
312.972	23890.3
313.345	24124.25
313.718	24352.68
314.091	24572.5
314.464	24801.3
314.837	25019.88
315.21	25234.84
315.582	25454.01
315.955	25667.95
316.328	25885.68
316.7	26099.45
317.073	26323.17
317.446	26551.16
317.818	26782.63
318.191	27020.52
318.563	27244.99
318.936	27460.56
319.308	27672.54
319.68	27877.27
320.053	28077.28
320.425	28264.47
320.797	28450.78
321.169	28618.56
321.541	28765.08
321.913	28899.73
322.285	29018.47
322.657	29146.83
323.029	29295.88
323.401	29443.18
323.773	29616.36
324.145	29797.55
324.517	29990.31
324.889	30170.68
325.26	30367.68
325.632	30579
326.004	30814.11
326.375	31073.57
326.747	31340.82
327.118	31640.93
327.49	31931.83
327.861	32245.41
328.233	32551.58
328.604	32866.79
328.975	33183.97
329.346	33501.05
329.718	33813.44
330.089	34121.55
330.46	34418.5
330.831	34694.06
331.202	34952.12
331.573	35192.9
331.944	35419.79
332.315	35649.56
332.686	35860.71
333.057	36063.49
333.428	36239.22
333.799	36404.54
334.169	36564.7
334.54	36708.12
334.911	36823.86
335.281	36953.41
335.652	37074.28
336.022	37208.82
336.393	37353.82
336.763	37518.23
337.134	37698.34
337.504	37897.82
337.874	38099.76
338.245	38305.08
338.615	38529.89
338.985	38755.28
339.355	38978.44
339.726	39202.59
340.096	39421.4
340.466	39676.41
340.836	39916.32
341.206	40166.38
341.576	40421.3
341.945	40662.17
342.315	40893.63
342.685	41140.01
343.055	41381.52
343.425	41622.73
343.794	41856.67
344.164	42088.35
344.533	42323.38
344.903	42556.43
345.273	42786.97
345.642	43018.64
346.011	43250.77
346.381	43481.69
346.75	43717.7
347.12	43965.89
347.489	44214.62
347.858	44460.62
348.227	44675.33
348.596	44902.66
348.965	45145.55
349.334	45373.15
349.704	45611.82
350.072	45860.07
350.441	46096.77
350.81	46344.21
351.179	46573.74
351.548	46811.7
351.917	47041.31
352.285	47233.18
352.654	47438.05
353.023	47650.47
353.391	47853.75
353.76	48069.67
354.129	48255.56
354.497	48490.02
354.865	48707.94
355.234	48941.11
355.602	49157.99
355.971	49407.18
356.339	49619.9
356.707	49826.41
357.075	50043.78
357.443	50263.93
357.811	50477.75
358.18	50686.88
358.548	50896.08
358.916	51105.96
359.284	51325.89
359.651	51537.89
360.019	51761.02
360.387	51966.67
360.755	52165.74
361.123	52390.7
361.49	52613.76
361.858	52832.55
362.226	53025.59
362.593	53233.07
362.961	53414.92
363.328	53616.94
363.696	53781.05
364.063	53999.6
364.43	54209.87
364.798	54422.97
365.165	54603.56
365.532	54789.76
365.899	54980.36
366.267	55146.13
366.634	55297.09
367.001	55457.64
367.368	55594.75
367.735	55775.22
368.102	55953.9
368.469	56147.62
368.835	56330.51
369.202	56492.24
369.569	56684.52
369.936	56873.97
370.303	57053.22
370.669	57248.79
371.036	57416.57
371.402	57619.95
371.769	57799.43
372.135	57953.62
372.502	58088.74
372.868	58232.1
373.235	58370.39
373.601	58504.52
373.967	58681.56
374.333	58873.25
374.7	59062.42
375.066	59277.33
375.432	59462.11
375.798	59640.69
376.164	59813.38
376.53	59958.36
376.896	60128.14
377.262	60298.73
377.628	60431.05
377.993	60580.69
378.359	60724.74
378.725	60887.76
379.091	61033.98
379.456	61170.09
379.822	61305.13
380.187	61453.52
380.553	61643.48
380.918	61847.09
381.284	62023.6
381.649	62195.31
382.015	62339.68
382.38	62457.67
382.745	62618.9
383.11	62769.27
383.476	62919.53
383.841	63046.18
384.206	63205.67
384.571	63324.18
384.936	63462.72
385.301	63637.01
385.666	63780.2
386.031	63933.12
386.396	64089
386.76	64243.64
387.125	64431.17
387.49	64630.61
387.855	64819.91
388.219	64989.76
388.584	65161.46
388.948	65357.92
389.313	65521.46
389.677	65725.87
390.042	65967.78
390.406	66117.24
390.771	66310.77
391.135	66498.47
391.499	66727.29
391.863	66964.95
392.227	67214.6
392.592	67413.4
392.956	67604.69
393.32	67799.46
393.684	68017.77
394.048	68185.22
394.412	68370.75
394.775	68524.45
395.139	68667.63
395.503	68830.14
395.867	68982.91
396.231	69117.89
396.594	69220.55
396.958	69354.43
397.321	69514.59
397.685	69634.46
398.048	69776.67
398.412	69914.1
398.775	70037.26
399.139	70168.79
399.502	70265.32
399.865	70404.38
400.228	70597.24
400.592	70734.94
400.955	70933.46
401.318	71070.72
401.681	71240.35
402.044	71382.12
402.407	71540.08
402.77	71712.97
403.133	71901.65
403.496	72048.69
403.859	72211.33
404.221	72450.21
404.584	72698.53
404.947	72941.62
405.309	73147.26
405.672	73389.84
406.034	73617.48
406.397	73874.16
406.759	74091.68
407.122	74288.24
407.484	74462.52
407.847	74646.19
408.209	74897.41
408.571	75121.89
408.933	75380.82
409.296	75640.87
409.658	75888.21
410.02	76156.39
410.382	76447.01
410.744	76698.25
411.106	76979.34
411.468	77248.64
411.83	77476.39
412.191	77659.41
412.553	77816.07
412.915	78015.04
413.277	78202.73
413.638	78372.77
414	78527.26
414.361	78686.24
414.723	78885.09
415.084	79072.2
415.446	79216.86
415.807	79327.08
416.169	79410.33
416.53	79473.84
416.891	79546.56
417.252	79636.18
417.614	79691.44
417.975	79717.92
418.336	79746.9
418.697	79774.49
419.058	79800.54
419.419	79819.59
419.78	79840.15
420.141	79856.14
420.501	79868.82
420.862	79877.3
421.223	79887.99
421.584	79908.66
421.944	79920.05
422.305	79926.99
422.666	79932.05
423.026	79933.45
423.387	79942.52
423.747	79948.68
424.107	79957.06
424.468	79963.74
424.828	79967.44
425.188	79968.84
425.549	79973.46
425.909	79976.86
426.269	79976.42
426.629	79979.96
426.989	79984.54
427.349	79989.97
427.709	79991.45
428.069	79993.56
428.429	79999.03
428.789	80002.69
429.149	80008.52
429.508	80010.74
429.868	80014.62
430.228	80019.21
430.587	80020.95
430.947	80024.75
431.306	80028.97
431.666	80031.41
432.025	80033.66
432.385	80034.96
432.744	80036.4
433.103	80039.39
433.463	80040.58
433.822	80046.79
434.181	80050.41
434.54	80052.59
434.899	80054
435.258	80056.25
435.618	80057.07
435.976	80059.47
436.335	80058.84
436.694	80059.18
437.053	80060.47
437.412	80061.43
437.771	80061.06
438.129	80063.13
438.488	80064.21
438.847	80064.95
439.205	80065.24
439.564	80065.13
439.922	80066.46
440.281	80068.72
440.639	80069.94
440.997	80071.64
441.356	80073.46
441.714	80073.49
442.072	80072.42
442.431	80072.38
442.789	80073.27
443.147	80074.49
443.505	80073.49
443.863	80074.49
444.221	80075.6
444.579	80075.05
444.937	80076.16
445.294	80077.01
445.652	80078.23
446.01	80077.6
446.368	80078.97
446.725	80078.6
447.083	80080.52
447.441	80082.15
447.798	80082.3
448.156	80080.04
448.513	80080.64
448.87	80080.64
449.228	80080.71
449.585	80080.56
449.942	80081.41
450.3	80079.71
450.657	80080.56
451.014	80082.34
451.371	80083.15
451.728	80082.08
452.085	80082.86
452.442	80083.3
452.799	80085.11
453.156	80084.85
453.513	80085.15
453.869	80086.3
454.226	80086.82
454.583	80087.08
454.939	80086.59
455.296	80086.93
455.653	80089.67
456.009	80089.7
456.366	80088.89
456.722	80089.11
457.078	80090.63
457.435	80089.74
457.791	80091.11
458.147	80091.4
458.503	80091.37
458.86	80093.33
459.216	80095.18
459.572	80095.33
459.928	80093.88
460.284	80091.96
460.64	80092.11
460.996	80092.77
461.351	80091.29
461.707	80091.88
462.063	80090.96
462.419	80091.81
462.774	80093.07
463.13	80092.88
463.486	80093.44
463.841	80095.29
464.197	80095.92
464.552	80096.44
464.908	80096.81
465.263	80099.62
465.618	80100.1
465.974	80100.95
466.329	80101.44
466.684	80100.7
467.039	80102.03
467.394	80101.55
467.749	80103.1
468.104	80104.21
468.459	80106.43
468.814	80106.47
469.169	80106.1
469.524	80106.84
469.879	80105.55
470.233	80104.47
470.588	80103.73
470.943	80103.06
471.297	80102.47
471.652	80102.62
472.006	80104.03
472.361	80104.51
472.715	80102.95
473.07	80102.25
473.424	80102.36
473.778	80101.51
474.133	80101.77
474.487	80101.95
474.841	80105.1
475.195	80104.14
475.549	80105.17
475.903	80102.81
476.257	80104.4
476.611	80106.73
476.965	80109.17
477.319	80111.25
477.673	80110.65
478.026	80112.02
478.38	80113.58
478.734	80113.76
479.087	80113.95
479.441	80114.54
479.795	80115.43
480.148	80117.39
480.502	80119.1
480.855	80119.5
481.208	80119.65
481.562	80120.36
481.915	80121.91
482.268	80120.73
482.621	80123.17
482.974	80122.91
483.328	80126.21
483.681	80126.98
484.034	80126.65
484.387	80123.8
484.739	80123.72
485.092	80124.87
485.445	80125.5
485.798	80124.8
486.151	80126.28
486.503	80126.84
486.856	80125.95
487.209	80127.21
487.561	80127.02
487.914	80126.65
488.266	80125.17
488.618	80123.58
488.971	80123.91
489.323	80124.17
489.675	80124.21
490.028	80124.28
490.38	80124.91
490.732	80122.8
491.084	80121.65
491.436	80121.47
491.788	80123.84
492.14	80124.43
492.492	80125.73
492.844	80125.8
493.196	80125.8
493.548	80125.39
493.899	80125.43
494.251	80125.5
494.603	80126.06
494.954	80125.32
495.306	80124.36
495.657	80126.73
496.009	80129.32
496.36	80129.69
496.712	80128.84
497.063	80129.46
497.414	80129.02
497.765	80129.13
498.117	80131.13
498.468	80131.58
498.819	80132.35
499.17	80131.91
499.521	80132.09
499.872	80130.87
500.223	80131.32
500.574	80132.13
500.924	80132.21
501.275	80133.02
501.626	80135.35
501.977	80133.95
502.327	80134.69
502.678	80138.13
503.029	80137.32
503.379	80135.72
503.73	80134.91
504.08	80133.8
504.43	80132.21
504.781	80131.87
505.131	80131.58
505.481	80130.32
505.831	80130.8
506.182	80130.06
506.532	80130.35
506.882	80129.98
507.232	80130.1
507.582	80129.5
507.932	80128.91
508.281	80128.65
508.631	80127.5
508.981	80124.98
509.331	80125.02
509.681	80125.02
510.03	80123.69
510.38	80123.32
510.729	80122.95
511.079	80123.28
511.428	80125.54
511.778	80127.76
512.127	80127.09
512.476	80126.98
512.826	80125.95
513.175	80126.21
513.524	80128.21
513.873	80127.17
514.222	80126.5
514.571	80127.5
514.92	80125.98
515.269	80125.69
515.618	80125.39
515.967	80125.54
516.316	80126.98
516.665	80126.61
517.014	80125.43
517.362	80123.76
517.711	80124.87
518.059	80126.02
518.408	80127.28
518.757	80125.61
519.105	80124.69
519.453	80124.69
519.802	80124.65
520.15	80125.91
520.498	80125.09
520.847	80123.72
521.195	80122.5
521.543	80122.06
521.891	80121.87
522.239	80123.98
522.587	80123.95
522.935	80124.69
523.283	80124.72
523.631	80124.39
523.979	80124.21
524.326	80126.58
524.674	80127.76
525.022	80126.06
525.369	80125.17
525.717	80125.21
526.064	80125.69
526.412	80126.17
526.759	80125.87
527.107	80125.8
527.454	80125.95
527.801	80126.5
528.149	80126.21
528.496	80129.39
528.843	80130.02
529.19	80130.47
529.537	80130.84
529.884	80130.76
530.231	80130.73
530.578	80130.1
530.925	80130.1
531.272	80130.24
531.619	80127.91
531.966	80128.54
532.312	80129.39
532.659	80131.58
533.006	80129.43
533.352	80129.61
533.699	80129.43
534.045	80131.39
534.392	80131.5
534.738	80132.43
535.084	80133.43
535.431	80134.21
535.777	80132.28
536.123	80133.32
536.469	80132.8
536.815	80131.39
537.161	80133.98
537.507	80133.43
537.853	80134.28
538.199	80132.76
538.545	80132.39
538.891	80133.32
539.237	80132.95
539.582	80134.02
539.928	80134.28
540.274	80136.43
540.619	80136.91
540.965	80136.1
541.31	80134.02
541.656	80134.95
542.001	80135.02
542.347	80134.06
542.692	80133.1
543.037	80133.39
543.382	80132.02
543.728	80131.91
544.073	80132.17
544.418	80130.39
544.763	80130.46
545.108	80128.13
545.453	80130.17
545.798	80131.61
546.142	80131.8
546.487	80132.1
546.832	80132.28
547.177	80130.84
547.521	80130.84
547.866	80130.47
548.211	80130.91
548.555	80132.95
548.9	80131.61
549.244	80129.47
549.588	80129.47
549.933	80130.43
550.277	80130.39
550.621	80130.32
550.965	80130.06
551.31	80129.58
551.654	80131.02
551.998	80131.58
552.342	80133.91
552.686	80132.35
553.03	80132.17
553.373	80132.87
553.717	80133.24
554.061	80131.65
554.405	80132.32
554.748	80129.13
555.092	80129.21
555.436	80129.39
555.779	80128.84
556.123	80127.54
556.466	80129.24
556.81	80129.54
557.153	80129.87
557.496	80130.91
557.839	80131.76
558.183	80132.13
558.526	80131.36
558.869	80129.5
559.212	80128.58
559.555	80128.21
559.898	80128.8
560.241	80127.87
560.584	80126.39
560.927	80125.87
561.269	80127.73
561.612	80128.91
561.955	80131.91
562.297	80131.47
562.64	80131.95
562.983	80133.32
563.325	80136.47
563.668	80135.02
564.01	80133.06
564.352	80128.95
564.695	80126.14
565.037	80124.51
565.379	80123.73
565.721	80124.58
566.063	80124.32
566.406	80125.25
566.748	80124.84
567.09	80124.06
567.431	80123.62
567.773	80123.32
568.115	80123.32
568.457	80121.17
568.799	80119.58
569.14	80118.77
569.482	80119.91
569.824	80119.32
570.165	80118.1
570.507	80115.65
570.848	80116.28
571.19	80115.91
571.531	80119.02
571.872	80119.98
572.214	80121.06
572.555	80121.17
572.896	80120.65
573.237	80120.1
573.578	80117.47
573.919	80116.06
574.26	80116.65
574.601	80117.17
574.942	80117.36
575.283	80115.25
575.624	80114.76
575.964	80115.06
576.305	80115.32
576.646	80114.28
576.986	80114.91
577.327	80114.43
577.667	80113.73
578.008	80113.39
578.348	80115.88
578.689	80115.39
579.029	80115.69
579.369	80115.58
579.71	80114.73
580.05	80115.73
580.39	80115.43
580.73	80115.95
581.07	80118.1
581.41	80118.47
581.75	80117.84
582.09	80116.69
582.43	80116.8
582.769	80117.36
583.109	80116.06
583.449	80113.58
583.789	80112.32
584.128	80112.28
584.468	80109.88
584.807	80111.06
585.147	80109.84
585.486	80107.99
585.825	80106.51
586.165	80106.58
586.504	80106.69
586.843	80106.77
587.182	80107.21
587.522	80108.28
587.861	80109.73
588.2	80109.54
588.539	80107.8
588.878	80107.51
589.216	80108.36
589.555	80108.91
589.894	80109.1
590.233	80109.03
590.572	80111.1
590.91	80110.73
591.249	80109.28
591.587	80111.95
591.926	80111.58
592.264	80113.06
592.603	80112.1
592.941	80112.36
593.279	80113.02
593.618	80112.76
593.956	80114.28
594.294	80112.95
594.632	80111.32
594.97	80110.43
595.308	80109.28
595.646	80109.84
595.984	80110.88
596.322	80110.91
596.66	80110.25
596.998	80110.69
597.335	80110.58
597.673	80109.95
598.011	80110.14
598.348	80109.28
598.686	80108.65
599.023	80108.73
599.361	80106.21
599.698	80106.69
600.035	80107.95
600.373	80105.69
600.71	80103.99
601.047	80102.99
601.384	80102.92
601.722	80104.47
602.059	80104.51
602.396	80103.95
602.733	80103.32
603.069	80102.03
603.406	80102.55
603.743	80101.95
604.08	80100.21
604.417	80099.18
604.753	80098.96
605.09	80098.4
605.426	80099.7
605.763	80098.59
606.099	80098.66
606.436	80099.66
606.772	80100.29
607.109	80099.55
607.445	80100.14
607.781	80101.51
608.117	80099.92
608.453	80099.95
608.79	80098.36
609.126	80098.07
609.462	80097.84
609.798	80097.14
610.133	80096.59
610.469	80095.1
610.805	80095.66
611.141	80095.25
611.477	80096.29
611.812	80095.33
612.148	80095.33
612.483	80094.81
612.819	80094.7
613.154	80093.07
613.49	80092.44
613.825	80092.29
614.16	80092.33
614.496	80091.59
614.831	80090.81
615.166	80091.7
615.501	80092.55
615.836	80092.81
616.171	80094.07
616.506	80095.14
616.841	80094.81
617.176	80096.07
617.511	80095.22
617.846	80094.92
618.18	80094.85
618.515	80093.51
618.85	80093.07
619.184	80093.92
619.519	80093.74
619.853	80093
620.188	80093.4
620.522	80094.07
620.856	80093.14
621.191	80092.96
621.525	80094.92
621.859	80095.18
622.193	80094.92
622.527	80092.51
622.861	80092.92
623.195	80091.81
623.529	80090.55
623.863	80091.81
624.197	80090.85
624.531	80091.96
624.865	80091.22
625.198	80091.55
625.532	80093.48
625.866	80093.29
626.199	80093.29
626.533	80091.48
626.866	80090.92
627.2	80090.77
627.533	80088.63
627.866	80088.89
628.2	80088.78
628.533	80087.37
628.866	80086.96
629.199	80086.89
629.532	80086.44
629.865	80085.93
630.198	80086
630.531	80086.41
630.864	80086.07
631.197	80085.22
631.529	80085.67
631.862	80085.59
632.195	80085.3
632.527	80084.96
632.86	80086.22
633.193	80084.63
633.525	80084.89
633.857	80084.56
634.19	80084.19
634.522	80085.59
634.854	80085.19
635.187	80084.22
635.519	80083.08
635.851	80081.67
636.183	80081.37
636.515	80082.6
636.847	80081.71
637.179	80081.74
637.511	80080.26
637.843	80079.41
638.174	80078.78
638.506	80076.67
638.838	80077.75
639.17	80077.64
639.501	80075.9
639.833	80074.6
640.164	80075.42
640.496	80077.23
640.827	80078.56
641.158	80078.3
641.49	80078.71
641.821	80077.93
642.152	80079.41
642.483	80080.97
642.814	80081.37
643.145	80080.23
643.476	80078.82
643.807	80079.86
644.138	80078.53
644.469	80078.93
644.8	80078.01
645.131	80079.82
645.461	80080.93
645.792	80081.41
646.122	80080.45
646.453	80081.26
646.784	80080.75
647.114	80080.82
647.444	80079.67
647.775	80079.3
648.105	80079.19
648.435	80078.19
648.765	80078.56
649.096	80078.01
649.426	80076.86
649.756	80075.94
650.086	80076.75
650.416	80076.34
650.746	80076.27
651.075	80076.08
651.405	80075.23
651.735	80076.9
652.065	80074.64
652.394	80073.64
652.724	80072.94
653.054	80074.49
653.383	80074.16
653.712	80074.82
654.042	80072.72
654.371	80071.83
654.701	80071.79
655.03	80071.64
655.359	80071.53
655.688	80071.38
656.017	80070.35
656.346	80069.83
656.675	80069.98
657.004	80068.9
657.333	80068.94
657.662	80066.8
657.991	80065.65
658.32	80065.32
658.648	80063.61
658.977	80064.02
659.306	80062.91
659.634	80062.1
659.963	80059.8
660.291	80059.84
660.619	80059.91
660.948	80060.62
661.276	80060.95
661.604	80060.1
661.933	80060.43
662.261	80060.17
662.589	80061.91
662.917	80061.8
663.245	80061.43
663.573	80063.69
663.901	80064.43
664.229	80066.61
664.556	80068.42
664.884	80070.05
665.212	80071.38
665.539	80073.01
665.867	80073.68
666.195	80075.01
666.522	80075.34
666.85	80076.97
667.177	80076.56
667.504	80075.19
667.832	80074.75
668.159	80073.9
668.486	80072.94
668.813	80071.94
669.14	80070.39
669.467	80068.02
669.794	80067.57
670.121	80068.24
670.448	80065.98
670.775	80066.65
671.102	80064.32
671.429	80062.28
671.755	80060.21
672.082	80060.36
672.409	80057.88
672.735	80056.44
673.062	80056.07
673.388	80054.81
673.714	80052.48
674.041	80051
674.367	80052
674.693	80052.89
675.019	80054.22
675.346	80053.85
675.672	80053.44
675.998	80055.48
676.324	80055.29
676.65	80054.55
676.976	80053.55
677.301	80053.18
677.627	80051.96
677.953	80051.59
678.279	80052.52
678.604	80053.18
678.93	80052.22
679.255	80053.66
679.581	80053.52
679.906	80052.29
680.232	80051.85
680.557	80052.55
680.882	80052.63
681.208	80052.18
681.533	80050.81
681.858	80049.08
682.183	80050.48
682.508	80050.44
682.833	80049.82
683.158	80049.56
683.483	80049
683.808	80048.74
684.132	80048.97
684.457	80047.74
684.782	80047.93
685.106	80047.89
685.431	80047.12
685.755	80047.08
686.08	80045.67
686.404	80045.38
686.729	80044.64
687.053	80044.38
687.377	80044.49
687.701	80045.04
688.026	80044.71
688.35	80044.27
688.674	80042.86
688.998	80040.61
689.322	80039.05
689.646	80038.39
689.97	80037.35
690.293	80035.69
690.617	80033.84
690.941	80033.47
691.264	80032.18
691.588	80029.29
691.912	80027.08
692.235	80024.82
692.559	80022.82
692.882	80020.98
693.205	80020.42
693.529	80018.61
693.852	80016.95
694.175	80013.29
694.498	80010.59
694.821	80007.67
695.144	80005.45
695.467	80000.98
695.79	79997.18
696.113	79994.15
696.436	79988.31
696.759	79983.29
697.082	79980
697.404	79974.28
697.727	79965.27
698.049	79958.33
698.372	79948
698.694	79934.43
699.017	79920.65
699.339	79903.26
699.662	79884.25
699.984	79854.25
700.306	79821.64
700.628	79773.68
700.95	79711.51
701.272	79630.98
701.594	79540.02
701.916	79452.21
702.238	79352.72
702.56	79196.7
702.882	79042.2
703.204	78898.62
703.525	78725.15
703.847	78512.24
704.169	78313.31
704.49	78103.26
704.812	77877.65
705.133	77651.86
705.455	77426.61
705.776	77184.46
706.097	76949.59
706.419	76699.4
706.74	76441.87
707.061	76167.39
707.382	75870.42
707.703	75577.69
708.024	75304.62
708.345	75015.51
708.666	74701.77
708.987	74387.8
709.307	74130.18
709.628	73830.96
709.949	73508.47
710.27	73195.77
710.59	72932.37
710.911	72637.09
711.231	72332.95
711.552	72056.9
711.872	71734.98
712.192	71455.03
712.512	71189.99
712.833	70917.96
713.153	70644.77
713.473	70404.37
713.793	70164.68
714.113	69948.43
714.433	69733.55
714.753	69514.15
715.073	69320.3
715.393	69123.83
715.712	68949.59
716.032	68725.88
716.352	68550.95
716.671	68395.6
716.991	68232.18
717.31	68038.89
717.63	67874.21
717.949	67687.57
718.268	67478.93
718.588	67300.23
718.907	67067.11
719.226	66806.84
719.545	66551.94
719.864	66271.55
720.183	65997.06
720.502	65720.52
720.821	65448.32
721.14	65167.8
721.459	64858.07
721.778	64574.73
722.096	64251.52
722.415	63953.39
722.734	63693.6
723.052	63409.96
723.371	63113.48
723.689	62832.85
724.008	62546.31
724.326	62246.37
724.644	61988.76
724.963	61724.46
725.281	61501.01
725.599	61272.47
725.917	61085.34
726.235	60886.2
726.553	60733.65
726.871	60538.87
727.189	60334.43
727.507	60128.79
727.824	59967.73
728.142	59830.61
728.46	59625.36
728.777	59522.48
729.095	59382.1
729.413	59232.57
729.73	59082.86
730.047	58948.36
730.365	58838.36
730.682	58733.81
730.999	58651.45
731.317	58577.28
731.634	58492.81
731.951	58368.05
732.268	58246.65
732.585	58093.14
732.902	57935.23
733.219	57776.41
733.536	57597.52
733.852	57474.86
734.169	57346.08
734.486	57197.09
734.802	57042.25
735.119	56932.1
735.435	56755.84
735.752	56594.95
736.068	56418.64
736.385	56256.99
736.701	56066.79
737.017	55824.69
737.333	55576.17
737.65	55267.58
737.966	54882.63
738.282	54489.39
738.598	54083.61
738.914	53627.94
739.23	53143.16
739.545	52622.51
739.861	52063.94
740.177	51523.16
740.493	50928.36
740.808	50348.02
741.124	49739.28
741.439	49150.64
741.755	48586.34
742.07	48063.67
742.386	47504.24
742.701	47007.74
743.016	46505.73
743.331	46029.01
743.647	45604.46
743.962	45216.37
744.277	44870.95
744.592	44606.02
744.907	44398.02
745.222	44227.62
745.537	44139.73
745.851	44109.83
746.166	44130.37
746.481	44190.8
746.795	44304.03
747.11	44454.91
747.424	44629.29
747.739	44791.84
748.053	44973.46
748.368	45118.36
748.682	45225.97
748.996	45363.33
749.311	45450.16
749.625	45551.44
749.939	45653.01
750.253	45715.11
750.567	45779.31
750.881	45837.81
751.195	45889.05
751.509	45947.18
751.822	45997.64
752.136	46037.36
752.45	46086.15
752.763	46149.65
753.077	46204.82
753.39	46232.88
753.704	46256.61
754.017	46273.7
754.331	46313.25
754.644	46321.29
754.957	46335.59
755.27	46351.29
755.584	46354.88
755.897	46373.95
756.21	46364.07
756.523	46339.46
756.836	46318.08
757.149	46243.83
757.461	46173.18
757.774	46091.94
758.087	45958.88
758.4	45815.71
758.712	45663.23
759.025	45505.26
759.337	45348.12
759.65	45192.29
759.962	45040.17
760.275	44880.62
760.587	44735.75
760.899	44596.58
761.211	44500.9
761.523	44424.06
761.836	44411.97
762.148	44421.03
762.46	44448.41
762.772	44522.47
763.083	44659.72
763.395	44805.49
763.707	45027.11
764.019	45256.35
764.33	45486.38
764.642	45753.1
764.954	46026.61
765.265	46305.9
765.577	46574.99
765.888	46819.93
766.199	47061.1
766.511	47273.78
766.822	47494.66
767.133	47676.07
767.444	47847.06
767.755	47942.51
768.066	48005.47
768.377	47999.59
768.688	47938.87
768.999	47856.59
769.31	47726.57
769.621	47533.78
769.931	47315.91
770.242	47053.34
770.553	46753.23
770.863	46417.58
771.174	46059.57
771.484	45670.86
771.794	45267.95
772.105	44852.89
772.415	44425.71
772.725	43975.2
773.035	43542.91
773.345	43087.03
773.656	42618.05
773.966	42142.25
774.276	41701.06
774.585	41265.92
774.895	40836.72
775.205	40448.58
775.515	40051.18
775.824	39662.8
776.134	39271.5
776.444	38908.47
776.753	38548.22
777.063	38208.33
777.372	37888.34
777.681	37560.21
777.991	37262.4
778.3	36959.68
778.609	36662.04
778.918	36371.98
779.228	36109.31
779.537	35839.9
779.846	35580.88
780.154	35330.21
780.463	35094.81
780.772	34852.7
781.081	34619.53
781.39	34416.12
781.698	34203.49
782.007	33990.78
782.316	33782.77
782.624	33578.45
782.932	33370.15
783.241	33173.24
783.549	32976.77
783.858	32807.82
784.166	32640.73
784.474	32460.24
784.782	32297.14
785.09	32142.02
785.398	32003.53
785.706	31859.47
786.014	31723.32
786.322	31584.81
786.63	31456.51
786.937	31329.15
787.245	31209.31
787.553	31087.42
787.86	30976.52
788.168	30853.8
788.475	30754.58
788.783	30653.71
789.09	30552.26
789.398	30461.18
789.705	30361.4
790.012	30266.26
790.319	30161.34
790.626	30057.59
790.933	29966.72
791.24	29877.23
791.547	29785.79
791.854	29685.81
792.161	29590.24
792.468	29487.15
792.774	29388.38
793.081	29298.35
793.388	29213.27
793.694	29114.59
794.001	29025.8
794.307	28902.62
794.614	28799.23
794.92	28668.62
795.226	28537.85
795.533	28427.24
795.839	28325.59
796.145	28208.22
796.451	28090.36
796.757	27980.21
797.063	27873.56
797.369	27760.5
797.675	27650.48
797.98	27542.97
798.286	27428.05
798.592	27317.93
798.898	27212.69
799.203	27102.74
799.509	26984.52
799.814	26860.24
800.12	26758.35
800.425	26648.5
800.73	26539.8
801.035	26425.11
801.341	26320.58
801.646	26223.47
801.951	26122.97
802.256	26016.89
802.561	25922.29
802.866	25833.01
803.171	25741.15
803.476	25649.64
803.78	25561.85
804.085	25468.36
804.39	25358.52
804.694	25258.71
804.999	25161.38
805.303	25063.42
805.608	24983.07
805.912	24904.22
806.216	24838.15
806.521	24770.2
806.825	24694.68
807.129	24619.32
807.433	24543.44
807.737	24476.67
808.041	24419.71
808.345	24358.12
808.649	24301.19
808.953	24252.75
809.257	24197.54
809.561	24141.88
809.864	24089.06
810.168	24055.86
810.471	24022.07
810.775	23998.4
811.078	23971.7
811.382	23949.08
811.685	23945.95
811.988	23930.71
812.292	23919.48
812.595	23914.9
812.898	23908.55
813.201	23911.58
813.504	23937.7
813.807	23969.75
814.11	23997.82
814.413	24024.47
814.716	24055.31
815.018	24106.15
815.321	24165.05
815.624	24247.61
815.926	24347.48
816.229	24474.33
816.531	24611.45
816.834	24772.35
817.136	24965.65
817.438	25180.14
817.74	25449.58
818.043	25763.08
818.345	26139.77
818.647	26599.19
818.949	27143.28
819.251	27779.12
819.553	28535.37
819.855	29404.65
820.156	30373.87
820.458	31460.05
820.76	32622.8
821.062	33833.6
821.363	35097.25
821.665	36437.38
821.966	37864
822.268	39311.71
822.569	40766.38
822.87	42248.48
823.171	43738.62
823.473	45269.96
823.774	46860.39
824.075	48386.77
824.376	49874.42
824.677	51349.05
824.978	52724.91
825.279	54018.38
825.58	55189.26
825.88	56219.64
826.181	57102.09
826.482	57887.24
826.782	58509.43
827.083	59013.13
827.383	59400.77
827.684	59621.85
827.984	59704.42
828.284	59621.76
828.585	59402.63
828.885	59094.17
829.185	58641.25
829.485	58089.36
829.785	57416.08
830.085	56577.19
830.385	55703.2
830.685	54776.64
830.985	53724.93
831.285	52650.46
831.584	51527.87
831.884	50382.87
832.183	49219.39
832.483	48014.21
832.782	46734.11
833.082	45459.72
833.381	44185.61
833.681	42947.01
833.98	41773.91
834.279	40630.3
834.578	39520.86
834.877	38482.74
835.176	37476.29
835.475	36542.81
835.774	35650.65
836.073	34780.33
836.372	33964.32
836.671	33151.66
836.969	32347.04
837.268	31604.3
837.567	30894.89
837.865	30204.69
838.164	29522.54
838.462	28864
838.761	28249.9
839.059	27676.23
839.357	27124.46
839.655	26595.47
839.953	26051.35
840.252	25526.72
840.55	25004.14
840.848	24495.22
841.146	24002.69
841.443	23503.43
841.741	22995.8
842.039	22494.19
842.337	21994.55
842.634	21525.44
842.932	21084.96
843.229	20659.49
843.527	20242.85
843.824	19802.91
844.122	19359.21
844.419	18941.85
844.716	18514.03
845.013	18095.68
845.311	17705.07
845.608	17332.62
845.905	16961.49
846.202	16609.44
846.499	16238.98
846.796	15876.48
847.092	15508.45
847.389	15139.99
847.686	14798.91
847.982	14486.11
848.279	14173.14
848.576	13881.93
848.872	13592.64
849.168	13305.55
849.465	13025.06
849.761	12734.5
850.057	12461.58
850.354	12194.66
850.65	11940.8
850.946	11711.37
851.242	11494.24
851.538	11274.94
851.834	11053.58
852.13	10844.25
852.425	10649.2
852.721	10475.59
853.017	10308.4
853.312	10161.42
853.608	10021.06
853.903	9882.94
854.199	9734.19
854.494	9604.41
854.79	9477.01
855.085	9344.41
855.38	9214.22
855.675	9084.69
855.971	8968.33
856.266	8864.21
856.561	8769.86
856.856	8677.57
857.151	8585.03
857.445	8487.22
857.74	8392.2
858.035	8303.83
858.33	8208.97
858.624	8119.55
858.919	8039.84
859.213	7957.13
859.508	7873.28
859.802	7782.98
860.096	7701.12
860.391	7638.98
860.685	7576.17
860.979	7515.27
861.273	7462.36
861.567	7405.04
861.861	7340.4
862.155	7284.08
862.449	7217.11
862.743	7153.85
863.037	7093.27
863.33	7038.46
863.624	6982.81
863.918	6934.51
864.211	6890.66
864.505	6856.09
864.798	6816.55
865.092	6767.22
865.385	6722.5
865.678	6670.92
865.971	6637.38
866.264	6605.47
866.558	6574.81
866.851	6542.22
867.144	6510.64
867.437	6478.4
867.729	6451.19
868.022	6429.44
868.315	6407.89
868.608	6398.85
868.9	6393.39
869.193	6379.26
869.485	6351.79
869.778	6331
870.07	6303.65
870.363	6281.38
870.655	6262.26
870.947	6254.01
871.239	6246.71
871.532	6248.43
871.824	6252.99
872.116	6249.55
872.408	6248.12
872.699	6230.61
872.991	6223.52
873.283	6217.96
873.575	6217.46
873.867	6220.26
874.158	6227.29
874.45	6229.05
874.741	6222.5
875.033	6218.21
875.324	6228.15
875.615	6248.17
875.907	6267.59
876.198	6283.59
876.489	6295.03
876.78	6300.02
877.071	6299.59
877.362	6302.56
877.653	6302.07
877.944	6310.72
878.235	6320.26
878.526	6322.89
878.816	6343.77
