Data from 20250704_urea_0.5M_MAYP1162681_11-05-09-766.txt Node
Date: Fri Jul 04 11:05:09 BST 2025
User: adleo
Spectrometer: MAYP116268
Trigger mode: 0
Integration Time (sec): 1.000000E0
Scans to average: 1
Electric dark correction enabled: true
Nonlinearity correction enabled: true
Boxcar width: 10
XAxis mode: Wavelengths
Number of Pixels in Spectrum: 2068
>>>>>Begin Spectral Data<<<<<
179.565	1229.17
179.642	1285.9
179.718	1333.53
179.795	1373.85
179.871	1406.92
179.948	1426.64
180.024	1449.61
180.101	1473.19
180.177	1488.61
180.254	1513.27
180.33	1535.64
180.407	1591.81
180.483	1688.91
180.56	1781.33
180.636	1868.4
180.712	1855.7
180.789	1871.29
180.865	1881.94
180.942	1891.54
181.018	1904
181.095	1919.02
181.171	1924.4
181.248	1924.4
181.324	1940.47
181.4	1948.08
181.477	1959.87
181.553	1973.09
181.63	1993.92
181.706	2007.18
181.782	2015.5
181.859	2015.36
181.935	2020.45
182.011	2017.17
182.088	2033.15
182.164	2055.65
182.24	2069.15
182.317	2078.67
182.393	2077.86
182.469	2094.27
182.546	2107.96
182.622	2112.05
182.698	2104.92
182.775	2117.62
182.851	2132.74
182.927	2123.28
183.003	2117.76
183.08	2112.15
183.156	2118.19
183.232	2113.72
183.308	2104.87
183.385	2114.14
183.461	2130.51
183.537	2132.84
183.613	2146.49
183.69	2139.45
183.766	2129.12
183.842	2134.55
183.918	2137.88
183.995	2149.48
184.071	2150.91
184.147	2142.54
184.223	2130.41
184.299	2145.16
184.375	2134.75
184.452	2146.07
184.528	2196.18
184.604	2206.02
184.68	2219.48
184.756	2229.9
184.832	2234.71
184.908	2239.65
184.985	2237.09
185.061	2220.01
185.137	2230.48
185.213	2217.73
185.289	2220.2
185.365	2208.17
185.441	2210.21
185.517	2222.54
185.593	2218.87
185.669	2215.12
185.745	2229.29
185.822	2245.23
185.898	2236.42
185.974	2246.41
186.05	2234.46
186.126	2202.21
186.202	2198.11
186.278	2191.55
186.354	2181.79
186.43	2186.89
186.506	2186.98
186.582	2188.65
186.658	2195.92
186.734	2172.85
186.81	2176.94
186.886	2178.94
186.962	2194.02
187.038	2190.55
187.114	2183.93
187.19	2190.35
187.266	2183.08
187.341	2182.46
187.417	2176.18
187.493	2174.56
187.569	2177.56
187.645	2172.94
187.721	2158.72
187.797	2165.33
187.873	2172.51
187.949	2165.9
188.025	2160.86
188.101	2162
188.176	2165.28
188.252	2160.81
188.328	2170.03
188.404	2169.65
188.48	2164.8
188.556	2159.14
188.632	2156.9
188.707	2160.19
188.783	2155.95
188.859	2148.87
188.935	2138.78
189.011	2147.15
189.086	2146.11
189.162	2136.31
189.238	2132.36
189.314	2129.27
189.39	2124.99
189.465	2115.85
189.541	2130.84
189.617	2116.33
189.693	2112.1
189.768	2116
189.844	2142.17
189.92	2132.61
189.996	2139.18
190.071	2149.5
190.147	2147.12
190.223	2158.45
190.298	2150.88
190.374	2138.09
190.45	2152.12
190.526	2159.02
190.601	2153.21
190.677	2150.22
190.753	2180.21
190.828	2183.63
190.904	2200
190.98	2214.23
191.055	2224.69
191.131	2218.22
191.207	2235.63
191.282	2244.62
191.358	2237.01
191.433	2220.73
191.509	2235.38
191.585	2233.95
191.66	2238.14
191.736	2245.89
191.811	2233.62
191.887	2247.8
191.963	2274.83
192.038	2277.49
192.114	2280.06
192.189	2283.73
192.265	2280.02
192.34	2255.59
192.416	2255.78
192.491	2253.64
192.567	2255.12
192.642	2257.07
192.718	2259.16
192.793	2248.74
192.869	2245.94
192.944	2248.31
193.02	2259.21
193.095	2263.78
193.171	2269.92
193.246	2267.59
193.322	2265.45
193.397	2266.35
193.473	2254.74
193.548	2233.99
193.624	2241.7
193.699	2239.55
193.775	2256.17
193.85	2260.45
193.925	2266.87
194.001	2267.25
194.076	2257.54
194.152	2248.45
194.227	2240.17
194.302	2229.85
194.378	2236.7
194.453	2232.61
194.529	2243.89
194.604	2224.24
194.679	2216.43
194.755	2199.64
194.83	2212.35
194.905	2209.55
194.981	2219.87
195.056	2208.98
195.131	2214.5
195.207	2211.16
195.282	2200.55
195.357	2180.85
195.433	2196.03
195.508	2186.32
195.583	2190.56
195.659	2204.31
195.734	2212.54
195.809	2213.4
195.884	2221.72
195.96	2222.72
196.035	2239.76
196.11	2235.05
196.185	2252.17
196.261	2254.84
196.336	2283.44
196.411	2269.01
196.486	2274.06
196.561	2269.16
196.637	2280.34
196.712	2298.52
196.787	2303.52
196.862	2321.84
196.937	2332.93
197.013	2338.54
197.088	2349.87
197.163	2373.34
197.238	2393.59
197.313	2390.45
197.388	2405.06
197.464	2436.3
197.539	2444.1
197.614	2437.87
197.689	2451.67
197.764	2466.44
197.839	2490.62
197.914	2484.81
197.989	2505.48
198.065	2520.28
198.14	2568.89
198.215	2593.79
198.29	2606.08
198.365	2619.37
198.44	2627.51
198.515	2657.15
198.59	2672.1
198.665	2697.4
198.74	2708.55
198.815	2707.55
198.89	2732.94
198.965	2762.63
199.04	2757.1
199.115	2774.15
199.19	2819.18
199.265	2822.85
199.34	2831.76
199.415	2864.47
199.49	2884.43
199.565	2894.44
199.64	2915.64
199.715	2913.88
199.79	2926.22
199.865	2935.19
199.94	2934.38
200.015	2968.89
200.09	2971.23
200.165	2976.47
200.24	2983.24
200.315	3024.04
200.39	3039.97
200.464	3045.07
200.539	3049.79
200.614	3064.19
200.689	3089.75
200.764	3094.23
200.839	3112.49
200.914	3116.54
200.989	3105.23
201.063	3120.54
201.138	3104.48
201.213	3107.2
201.288	3087.32
201.363	3091.04
201.438	3088.56
201.512	3106.77
201.587	3086.26
201.662	3092.74
201.737	3110.2
201.812	3120.26
201.886	3085.66
201.961	3095.01
202.036	3085.57
202.111	3078.27
202.186	3053.16
202.26	3034.47
202.335	3013.96
202.41	3005.23
202.485	2989.13
202.559	2968.2
202.634	2943.84
202.709	2952.46
202.784	2934.78
202.858	2932.97
202.933	2909.37
203.008	2901.7
203.082	2879.92
203.157	2880.11
203.232	2835.85
203.306	2811.72
203.381	2779.78
203.456	2755.14
203.53	2733.16
203.605	2711.53
203.68	2690.66
203.754	2682.8
203.829	2668.65
203.904	2646.31
203.978	2636.59
204.053	2642.21
204.127	2631.49
204.202	2628.83
204.277	2613.78
204.351	2604.49
204.426	2599.1
204.5	2592.86
204.575	2558.06
204.65	2567.59
204.724	2558.68
204.799	2567.53
204.873	2563.81
204.948	2562.86
205.022	2553.24
205.097	2544.09
205.171	2557.71
205.246	2564.38
205.32	2563.43
205.395	2562.86
205.469	2551.67
205.544	2557.11
205.618	2538.77
205.693	2550.53
205.767	2538.15
205.842	2559.11
205.916	2549.88
205.991	2539.49
206.065	2547.07
206.14	2566.15
206.214	2562.91
206.289	2558.15
206.363	2574.1
206.438	2576.72
206.512	2584.11
206.586	2605.35
206.661	2616.5
206.735	2596.89
206.81	2600.55
206.884	2619.03
206.958	2610.74
207.033	2633.12
207.107	2644.61
207.181	2682.73
207.256	2681.92
207.33	2707.59
207.405	2727.67
207.479	2756.78
207.553	2773.54
207.628	2763.92
207.702	2783.7
207.776	2787.89
207.851	2803.14
207.925	2828.36
207.999	2837.37
208.073	2849.29
208.148	2864.92
208.222	2869.07
208.296	2922.63
208.371	2957.17
208.445	2991.65
208.519	3042.04
208.593	3083.1
208.668	3106.72
208.742	3137.75
208.816	3173.47
208.89	3225.3
208.965	3257.44
209.039	3311.2
209.113	3372
209.187	3444.18
209.261	3491.38
209.336	3565.68
209.41	3639.95
209.484	3698.72
209.558	3787.01
209.632	3866.83
209.707	3948.17
209.781	4041.85
209.855	4131.8
209.929	4228.36
210.003	4315.5
210.077	4403.76
210.151	4538.74
210.226	4668.19
210.3	4793.6
210.374	4915.45
210.448	5017.76
210.522	5140.56
210.596	5257.04
210.67	5384.23
210.744	5548.77
210.818	5707.58
210.892	5856.57
210.966	5977.8
211.041	6124.94
211.115	6254.88
211.189	6422.01
211.263	6586.73
211.337	6739.27
211.411	6901.04
211.485	7050.48
211.559	7220.64
211.633	7380.18
211.707	7514.05
211.781	7687.04
211.855	7821.16
211.929	7985.64
212.003	8141.58
212.077	8326.09
212.151	8518.17
212.225	8700.93
212.299	8863.55
212.373	9027.98
212.447	9196.73
212.52	9413.37
212.594	9606.18
212.668	9809.43
212.742	9987.26
212.816	10170.49
212.89	10360.14
212.964	10561.24
213.038	10759.36
213.112	10959.32
213.186	11174.69
213.26	11347.49
213.333	11494.19
213.407	11699.19
213.481	11891.23
213.555	12097.54
213.629	12277.37
213.703	12464.25
213.777	12658.98
213.85	12840.22
213.924	13068.32
213.998	13267.93
214.072	13456.84
214.146	13628.06
214.219	13816.54
214.293	13993.45
214.367	14180.53
214.441	14369.06
214.515	14532.85
214.588	14687.83
214.662	14838.37
214.736	14992.43
214.81	15176.95
214.883	15360.46
214.957	15523.33
215.031	15684.95
215.105	15837.6
215.178	15990.49
215.252	16142.66
215.326	16278.19
215.4	16414.83
215.473	16528
215.547	16657.6
215.621	16799.34
215.694	16957.37
215.768	17072.51
215.842	17209.24
215.915	17332.75
215.989	17454.06
216.063	17582.83
216.136	17716.42
216.21	17843.12
216.284	17987.55
216.357	18115.45
216.431	18230.39
216.504	18352.74
216.578	18510.09
216.652	18641.07
216.725	18764.44
216.799	18881.92
216.873	19008.28
216.946	19131.7
217.02	19241.62
217.093	19360.26
217.167	19435.92
217.24	19529.85
217.314	19637.02
217.387	19733.21
217.461	19835.76
217.535	19945.2
217.608	20028.33
217.682	20128.57
217.755	20247.85
217.829	20332.57
217.902	20416.67
217.976	20512.81
218.049	20593.34
218.123	20661.49
218.196	20745.93
218.27	20823.28
218.343	20890.8
218.417	20962.13
218.49	21036.16
218.563	21117.27
218.637	21175.83
218.71	21280.71
218.784	21358.7
218.857	21443.29
218.931	21515.49
219.004	21578.63
219.077	21645.77
219.151	21716.29
219.224	21777.51
219.298	21829.81
219.371	21894.01
219.444	21948.34
219.518	22002.76
219.591	22061.33
219.665	22133.45
219.738	22187.48
219.811	22229.57
219.885	22296.14
219.958	22352.88
220.031	22395.88
220.105	22445.68
220.178	22501.84
220.251	22539.01
220.325	22593.93
220.398	22635.25
220.471	22682.59
220.544	22732.05
220.618	22757.32
220.691	22800.32
220.764	22838.6
220.838	22885.33
220.911	22907.6
220.984	22958.76
221.057	22992.89
221.131	23026.16
221.204	23023.07
221.277	23064.3
221.35	23122.11
221.424	23141.45
221.497	23167.05
221.57	23198.39
221.643	23219.03
221.716	23245.45
221.79	23252.83
221.863	23264.11
221.936	23285.28
222.009	23294.73
222.082	23308.86
222.155	23327.33
222.229	23357.08
222.302	23376.81
222.375	23373.19
222.448	23395.71
222.521	23399.86
222.594	23420.98
222.667	23415.63
222.74	23438.82
222.814	23447.74
222.887	23443.45
222.96	23448.37
223.033	23468.19
223.106	23477.74
223.179	23491.19
223.252	23498.42
223.325	23507.63
223.398	23499.92
223.471	23494.66
223.544	23494.18
223.617	23502.38
223.69	23500.5
223.763	23479.04
223.837	23466.64
223.91	23469.83
223.983	23443.88
224.056	23428.74
224.129	23417.12
224.202	23427.97
224.275	23416.4
224.348	23387.37
224.42	23361.81
224.493	23337.22
224.566	23314.94
224.639	23306.89
224.712	23289.62
224.785	23274.53
224.858	23258.71
224.931	23243.33
225.004	23217.2
225.077	23205.86
225.15	23162.8
225.223	23147.23
225.296	23158.22
225.369	23134.69
225.442	23111.07
225.514	23110.97
225.587	23093.9
225.66	23080.5
225.733	23070.08
225.806	23056.15
225.879	23038.16
225.952	23017.33
226.025	23009.28
226.097	23004.12
226.17	22974.76
226.243	22933.87
226.316	22907.11
226.389	22886.72
226.461	22873.31
226.534	22867.14
226.607	22852.78
226.68	22856.92
226.753	22838.26
226.825	22792.99
226.898	22782.91
226.971	22765.12
227.044	22744.29
227.117	22734.89
227.189	22719.46
227.262	22707.6
227.335	22691.88
227.407	22671.06
227.48	22652.54
227.553	22638.18
227.626	22609.2
227.698	22587.89
227.771	22568.37
227.844	22542.77
227.916	22517.12
227.989	22477.59
228.062	22440.13
228.134	22427.02
228.207	22400.99
228.28	22377.7
228.352	22353.55
228.425	22322.36
228.498	22303.12
228.57	22269.43
228.643	22258.15
228.716	22224.35
228.788	22183.66
228.861	22151.99
228.934	22137.72
229.006	22107.26
229.079	22082.62
229.151	22052.93
229.224	22014.46
229.296	22004.77
229.369	22001.01
229.442	21989.15
229.514	21959.32
229.587	21943.36
229.659	21911.36
229.732	21875.49
229.804	21857.8
229.877	21855.2
229.949	21842.28
230.022	21833.99
230.094	21807.91
230.167	21774.51
230.239	21746.55
230.312	21703.7
230.384	21693.91
230.457	21672.56
230.529	21655.26
230.602	21626.24
230.674	21603.06
230.747	21595.34
230.819	21574.42
230.892	21520.92
230.964	21498.85
231.037	21476.72
231.109	21448.53
231.181	21408.04
231.254	21374.3
231.326	21334.64
231.399	21305.72
231.471	21272.7
231.544	21218.09
231.616	21192.98
231.688	21163.87
231.761	21131.24
231.833	21105.6
231.905	21043.91
231.978	21011.95
232.05	20983.66
232.122	20952
232.195	20914.6
232.267	20904.81
232.339	20874.98
232.412	20862.06
232.484	20822.49
232.556	20792.23
232.629	20788.13
232.701	20776.81
232.773	20747.55
232.846	20711.17
232.918	20678.78
232.99	20650.97
233.062	20632.75
233.135	20607.31
233.207	20561.33
233.279	20526.34
233.351	20508.08
233.424	20481.04
233.496	20442.3
233.568	20431.69
233.64	20391.74
233.713	20353.77
233.785	20305.38
233.857	20273.09
233.929	20224.71
234.001	20206.34
234.074	20187.84
234.146	20128.42
234.218	20092.47
234.29	20054.3
234.362	20018.54
234.434	19963.89
234.507	19918.5
234.579	19867.46
234.651	19831.17
234.723	19805.3
234.795	19778.89
234.867	19743.32
234.939	19724.14
235.012	19689.45
235.084	19650.03
235.156	19618.32
235.228	19593.11
235.3	19558.8
235.372	19539
235.444	19519.19
235.516	19467.05
235.588	19433.65
235.66	19411.63
235.732	19366.09
235.804	19397.94
235.876	19381.32
235.948	19362.38
236.02	19326.57
236.092	19291.68
236.164	19257.37
236.236	19229.47
236.308	19190.49
236.38	19160.61
236.452	19118.88
236.524	19086.35
236.596	19062.78
236.668	19051.22
236.74	19008.62
236.812	18973.78
236.884	18933.39
236.956	18900.05
237.028	18857.4
237.1	18818.85
237.172	18801.02
237.244	18787.57
237.316	18716.06
237.388	18668.2
237.46	18625.56
237.532	18613.8
237.604	18571.39
237.675	18550.91
237.747	18515.92
237.819	18482.72
237.891	18443.45
237.963	18406.24
238.035	18362.1
238.107	18287.45
238.178	18258.64
238.25	18220.47
238.322	18217.91
238.394	18163.22
238.466	18123.32
238.538	18094.5
238.609	18061.49
238.681	18002.79
238.753	17956.82
238.825	17924.63
238.897	17894.02
238.968	17881.88
239.04	17833.16
239.112	17832
239.184	17782.85
239.255	17750.12
239.327	17713.4
239.399	17684.44
239.471	17654.61
239.542	17638.99
239.614	17624.87
239.686	17562.7
239.758	17541.45
239.829	17489.21
239.901	17468.54
239.973	17434.61
240.044	17407.96
240.116	17379.96
240.188	17346.13
240.259	17317.55
240.331	17279.28
240.403	17257.16
240.474	17201.4
240.546	17164.05
240.618	17110.56
240.689	17080.29
240.761	17043.57
240.833	17030.41
240.904	16993.11
240.976	16960.14
241.048	16924.72
241.119	16899.95
241.191	16873.92
241.262	16856.33
241.334	16815.13
241.405	16777.15
241.477	16742.54
241.549	16707.02
241.62	16675.02
241.692	16648.51
241.763	16630.39
241.835	16590.1
241.906	16558.15
241.978	16514.82
242.049	16488.21
242.121	16470.48
242.192	16452.5
242.264	16415.15
242.335	16361.55
242.407	16340.44
242.478	16296.58
242.55	16263.61
242.621	16221.39
242.693	16187.03
242.764	16148.52
242.836	16114.01
242.907	16088.17
242.979	16060.27
243.05	16034.29
243.122	16000.98
243.193	15963.53
243.264	15904.82
243.336	15874.22
243.407	15851.56
243.479	15845.44
243.55	15826.5
243.622	15795.07
243.693	15753.91
243.764	15728.8
243.836	15693.56
243.907	15653.08
243.978	15625.7
244.05	15604.25
244.121	15561.35
244.192	15545.88
244.264	15488.57
244.335	15453.38
244.407	15398.67
244.478	15367.68
244.549	15334.71
244.62	15293.16
244.692	15265.1
244.763	15241.58
244.834	15207.74
244.906	15169.23
244.977	15126.42
245.048	15100.88
245.119	15054.7
245.191	15019.66
245.262	14972.56
245.333	14962.63
245.405	14932.02
245.476	14912.88
245.547	14877.55
245.618	14860.15
245.689	14818.98
245.761	14804.76
245.832	14777.96
245.903	14757.14
245.974	14731.83
246.045	14698.52
246.117	14690.47
246.188	14640.97
246.259	14595.56
246.33	14563.84
246.401	14522.04
246.473	14485.84
246.544	14450.03
246.615	14440.43
246.686	14407.12
246.757	14389
246.828	14348.17
246.899	14339.3
246.97	14294.03
247.042	14256.77
247.113	14232.38
247.184	14219.94
247.255	14186.34
247.326	14156.07
247.397	14133.41
247.468	14107.81
247.539	14082.8
247.61	14035.55
247.681	14029.62
247.752	14020.22
247.823	13982.72
247.894	13968.84
247.965	13933.6
248.037	13904.58
248.108	13856.08
248.179	13829.66
248.25	13807.2
248.321	13786.81
248.392	13743.33
248.463	13743.66
248.534	13716.81
248.605	13706.93
248.675	13686.93
248.746	13665.76
248.817	13655.69
248.888	13636.26
248.959	13587.43
249.03	13563.61
249.101	13534.98
249.172	13500.61
249.243	13455.87
249.314	13449.56
249.385	13423.62
249.456	13403.18
249.527	13371.75
249.598	13358.88
249.669	13330.73
249.739	13311.93
249.81	13294.09
249.881	13257.55
249.952	13228.05
250.023	13209.25
250.094	13160.17
250.165	13123.58
250.235	13096.3
250.306	13066.75
250.377	13032.52
250.448	13015.17
250.519	12971.06
250.59	12972.8
250.66	12949.32
250.731	12944.55
250.802	12911.67
250.873	12892.63
250.944	12877.25
251.014	12851.08
251.085	12845.15
251.156	12830.88
251.227	12819.69
251.297	12806.29
251.368	12801.47
251.439	12787.93
251.51	12780.45
251.58	12748.25
251.651	12724.15
251.722	12718.75
251.792	12679.61
251.863	12654.98
251.934	12658.25
252.005	12673.54
252.075	12647.99
252.146	12632.08
252.217	12623.79
252.287	12619.26
252.358	12591.15
252.429	12587.39
252.499	12565.94
252.57	12551.96
252.641	12537.89
252.711	12510.89
252.782	12477.73
252.852	12475.27
252.923	12457.67
252.994	12430.44
253.064	12433.19
253.135	12401.56
253.205	12373.51
253.276	12377.85
253.347	12374.67
253.417	12346.08
253.488	12320.63
253.558	12293.64
253.629	12279.32
253.699	12258.74
253.77	12244.37
253.841	12232.08
253.911	12219.6
253.982	12201.28
254.052	12189.9
254.123	12179.2
254.193	12159.05
254.264	12174.43
254.334	12141.7
254.405	12105.93
254.475	12076.73
254.546	12049.06
254.616	12048.14
254.687	12034.31
254.757	12017.44
254.827	11992.37
254.898	11971.65
254.968	11944.37
255.039	11916.17
255.109	11899.59
255.18	11872.93
255.25	11835.1
255.321	11818.61
255.391	11779.71
255.461	11782.8
255.532	11734.98
255.602	11706.6
255.673	11667.22
255.743	11636.75
255.813	11588.17
255.884	11580.32
255.954	11572.27
256.024	11575.69
256.095	11550.63
256.165	11520.94
256.235	11506.43
256.306	11486.14
256.376	11480.84
256.446	11477.03
256.517	11466.62
256.587	11470.09
256.657	11458.33
256.728	11441.8
256.798	11422.47
256.868	11399.73
256.938	11369.36
257.009	11365.17
257.079	11357.94
257.149	11378.9
257.219	11342.85
257.29	11337.65
257.36	11302.61
257.43	11297.84
257.5	11258.71
257.571	11235.96
257.641	11223.86
257.711	11196.92
257.781	11189.17
257.852	11176.83
257.922	11137.36
257.992	11118.03
258.062	11082.18
258.132	11074.42
258.202	11056.64
258.273	11048.83
258.343	11048.06
258.413	11027.14
258.483	11001.65
258.553	10962.23
258.623	10931.87
258.693	10916.69
258.764	10911.25
258.834	10906.43
258.904	10890.96
258.974	10866.29
259.044	10853.81
259.114	10840.27
259.184	10819.3
259.254	10801.62
259.324	10762.93
259.394	10753.82
259.464	10754.69
259.535	10745.87
259.605	10721.39
259.675	10695.8
259.745	10672.53
259.815	10649.3
259.885	10629.4
259.955	10646.42
260.025	10630.03
260.095	10614.37
260.165	10609.99
260.235	10610.38
260.305	10590.28
260.375	10560.31
260.445	10565.71
260.515	10566.48
260.585	10567.92
260.655	10549.09
260.725	10542.39
260.795	10538.34
260.865	10541.04
260.934	10519.12
261.004	10519.02
261.074	10497.97
261.144	10505.1
261.214	10504.66
261.284	10489.05
261.354	10490.5
261.424	10461.3
261.494	10469.05
261.564	10446.75
261.634	10430.94
261.703	10394.62
261.773	10388.45
261.843	10372.17
261.913	10351.45
261.983	10313.68
262.053	10300.28
262.123	10293.64
262.192	10266.85
262.262	10262.51
262.332	10232.07
262.402	10225.22
262.472	10195.84
262.541	10164.96
262.611	10160.05
262.681	10132.58
262.751	10129.26
262.821	10110.09
262.89	10086.05
262.96	10075.01
263.03	10085.18
263.1	10082.43
263.169	10080.7
263.239	10062.73
263.309	10070.54
263.379	10074
263.448	10066.15
263.518	10054.45
263.588	10038.84
263.657	10042.16
263.727	10036.09
263.797	10028.24
263.867	10013.31
263.936	9990.86
264.006	9992.93
264.076	9981.47
264.145	9966.63
264.215	9943.61
264.285	9938.21
264.354	9905.7
264.424	9886.39
264.494	9852.33
264.563	9825.45
264.633	9828.01
264.702	9824.64
264.772	9799.25
264.842	9776.71
264.911	9763.41
264.981	9737.6
265.05	9721.99
265.12	9702.15
265.19	9687.79
265.259	9680.95
265.329	9673.87
265.398	9666.65
265.468	9681.48
265.537	9655
265.607	9654.27
265.676	9654.18
265.746	9642.67
265.815	9645.22
265.885	9627.16
265.955	9608.28
266.024	9595.18
266.094	9563.11
266.163	9566.43
266.232	9562.48
266.302	9545.63
266.371	9541.1
266.441	9526.65
266.51	9527.81
266.58	9509.13
266.649	9490.39
266.719	9489.77
266.788	9480.81
266.858	9488.61
266.927	9453.84
266.996	9447.29
267.066	9433.47
267.135	9409.73
267.205	9406.31
267.274	9399.66
267.343	9407.27
267.413	9395.52
267.482	9401.06
267.552	9406.5
267.621	9377.47
267.69	9352.72
267.76	9344.67
267.829	9334.85
267.898	9327.49
267.968	9306.78
268.037	9302.54
268.106	9301.92
268.176	9279.43
268.245	9268.02
268.314	9246.15
268.384	9248.75
268.453	9240.67
268.522	9238.02
268.592	9235.13
268.661	9215.24
268.73	9204.46
268.799	9184.14
268.869	9195.31
268.938	9168.1
269.007	9145.04
269.076	9134.45
269.146	9134.06
269.215	9125.69
269.284	9140.57
269.353	9123.86
269.422	9113.32
269.492	9105.95
269.561	9062.77
269.63	9059.31
269.699	9040.87
269.768	9029.74
269.838	9020.64
269.907	9017.08
269.976	8987.91
270.045	8960.66
270.114	8948.2
270.183	8937.99
270.253	8933.03
270.322	8902.95
270.391	8889.9
270.46	8898.86
270.529	8899.34
270.598	8895.39
270.667	8888.8
270.736	8864
270.806	8859.38
270.875	8863.71
270.944	8848.36
271.013	8876.85
271.082	8864.58
271.151	8865.73
271.22	8842.44
271.289	8829.39
271.358	8814.61
271.427	8812.25
271.496	8805.23
271.565	8798.35
271.634	8794.88
271.703	8817.22
271.772	8823.09
271.841	8817.65
271.91	8792.05
271.979	8787.86
272.048	8768.94
272.117	8767.4
272.186	8753.59
272.255	8755.99
272.324	8751.08
272.393	8742.9
272.462	8722.83
272.531	8716.57
272.6	8704.54
272.669	8713.06
272.738	8701.17
272.807	8699.96
272.876	8681.05
272.945	8716.29
273.013	8720.04
273.082	8714.12
273.151	8674.45
273.22	8669.5
273.289	8657.03
273.358	8670.99
273.427	8653.18
273.496	8653.86
273.564	8647.6
273.633	8639.8
273.702	8621.95
273.771	8614.01
273.84	8620.31
273.909	8619.97
273.977	8622.38
274.046	8612.27
274.115	8616.51
274.184	8604.14
274.253	8596.3
274.322	8607.89
274.39	8570.35
274.459	8555.34
274.528	8529.26
274.597	8518.96
274.665	8512.61
274.734	8524.16
274.803	8514.1
274.872	8511.69
274.94	8494.8
275.009	8552.92
275.078	8546.13
275.147	8543.68
275.215	8540.21
275.284	8549.41
275.353	8539.06
275.421	8513.99
275.49	8531.46
275.559	8518.27
275.627	8511.97
275.696	8504.51
275.765	8501.19
275.833	8494.6
275.902	8494.94
275.971	8509.42
276.039	8526.07
276.108	8530.88
276.177	8529.63
276.245	8512.74
276.314	8505.33
276.383	8515.24
276.451	8450.96
276.52	8450.58
276.588	8460.2
276.657	8465.83
276.725	8450.29
276.794	8449.42
276.863	8461.55
276.931	8433.4
277	8443.45
277.068	8455.34
277.137	8473.34
277.205	8467.95
277.274	8486.14
277.342	8498.89
277.411	8480.7
277.48	8463.14
277.548	8454.91
277.617	8452.75
277.685	8445.43
277.754	8455.34
277.822	8443.36
277.89	8455.49
277.959	8450.25
278.027	8432.4
278.096	8419.07
278.164	8442.02
278.233	8433.7
278.301	8419.26
278.37	8424.08
278.438	8407.38
278.507	8402.28
278.575	8377.83
278.643	8377.98
278.712	8359.35
278.78	8340.88
278.849	8356.13
278.917	8373.88
278.985	8373.59
279.054	8381.78
279.122	8397.65
279.191	8393.37
279.259	8389.86
279.327	8366.95
279.396	8386.58
279.464	8386.78
279.532	8393.22
279.601	8390.87
279.669	8391.49
279.737	8404.43
279.806	8417.04
279.874	8424.36
279.942	8426.67
280.011	8423.88
280.079	8432.92
280.147	8444.23
280.215	8453.18
280.284	8445.34
280.352	8429.02
280.42	8430.32
280.488	8417.23
280.557	8405.73
280.625	8413.91
280.693	8419.78
280.761	8424.5
280.83	8409.29
280.898	8420.7
280.966	8401.11
281.034	8373.73
281.102	8358.09
281.171	8351.07
281.239	8349.72
281.307	8345.63
281.375	8337.02
281.443	8359.83
281.512	8358.48
281.58	8368.73
281.648	8350.83
281.716	8351.55
281.784	8344.82
281.852	8341.5
281.92	8345.64
281.989	8361.9
282.057	8338.9
282.125	8378.66
282.193	8377.69
282.261	8374.13
282.329	8366.87
282.397	8372.11
282.465	8373.41
282.533	8390.01
282.601	8380.87
282.67	8363.35
282.738	8356.76
282.806	8366.19
282.874	8355.75
282.942	8355.02
283.01	8346.07
283.078	8350.93
283.146	8343.91
283.214	8358.39
283.282	8359.6
283.35	8363.25
283.418	8359.31
283.486	8364.79
283.554	8326.96
283.622	8324.27
283.69	8325.9
283.758	8324.41
283.826	8333.02
283.894	8342.6
283.962	8362.91
284.03	8378.88
284.098	8384.27
284.165	8376.96
284.233	8378.16
284.301	8368.87
284.369	8364.35
284.437	8361.75
284.505	8359.2
284.573	8373.44
284.641	8361.56
284.709	8372.96
284.777	8355.01
284.845	8359.44
284.912	8364.4
284.98	8363.29
285.048	8356.17
285.116	8359.25
285.184	8367.57
285.252	8365.46
285.319	8348.47
285.387	8336.68
285.455	8317.96
285.523	8322.97
285.591	8318.11
285.659	8320.37
285.726	8329.56
285.794	8316.43
285.862	8311.52
285.93	8314.31
285.997	8313.44
286.065	8305.89
286.133	8294.78
286.201	8293.19
286.269	8277.6
286.336	8270.48
286.404	8268.89
286.472	8281.01
286.539	8263.7
286.607	8251.62
286.675	8248.15
286.743	8253.74
286.81	8247.86
286.878	8266.53
286.946	8256.67
287.013	8257.58
287.081	8258.06
287.149	8243.68
287.216	8264.22
287.284	8262.92
287.352	8258.74
287.419	8256.67
287.487	8279.38
287.555	8285.49
287.622	8289.44
287.69	8298.24
287.758	8310.22
287.825	8303.63
287.893	8295.5
287.96	8299.78
288.028	8310.65
288.096	8314.65
288.163	8320.9
288.231	8311.95
288.298	8310.89
288.366	8323.45
288.433	8328.07
288.501	8314.07
288.569	8318.45
288.636	8306.9
288.704	8319.84
288.771	8329.22
288.839	8324.32
288.906	8309.64
288.974	8309.74
289.041	8305.41
289.109	8293.09
289.176	8305.75
289.244	8316.86
289.311	8328.6
289.379	8343.27
289.446	8344.24
289.514	8344.14
289.581	8339.67
289.649	8343.85
289.716	8343.32
289.783	8332.69
289.851	8349.05
289.918	8352.46
289.986	8366.03
290.053	8374.88
290.121	8370.22
290.188	8374.69
290.255	8397.74
290.323	8397.6
290.39	8396.25
290.458	8401.2
290.525	8411.84
290.592	8406.45
290.66	8401.01
290.727	8392.88
290.794	8404.96
290.862	8412.46
290.929	8417.76
290.996	8419.39
291.064	8426.85
291.131	8434.6
291.198	8445.67
291.266	8445.18
291.333	8445.71
291.4	8447.83
291.468	8465.64
291.535	8460.63
291.602	8461.6
291.669	8455.44
291.737	8465.59
291.804	8467.47
291.871	8488.3
291.938	8498.74
292.006	8526.33
292.073	8538.79
292.14	8553.8
292.207	8542.45
292.275	8536.29
292.342	8543.12
292.409	8569.3
292.476	8598.18
292.543	8591.01
292.611	8593.8
292.678	8607.42
292.745	8636.05
292.812	8645.63
292.879	8638.94
292.946	8649.77
293.014	8666.61
293.081	8674.75
293.148	8681.53
293.215	8697.32
293.282	8691.93
293.349	8701.46
293.416	8676.71
293.484	8692.12
293.551	8702.8
293.618	8725.66
293.685	8758.1
293.752	8755.84
293.819	8748.81
293.886	8728.41
293.953	8737.5
294.02	8756.71
294.087	8767.49
294.154	8764.89
294.221	8779.96
294.288	8783.08
294.356	8795.84
294.423	8801.47
294.49	8793.34
294.557	8812.06
294.624	8804.02
294.691	8821.78
294.758	8822.51
294.825	8831.84
294.892	8826.07
294.959	8825.25
295.026	8829.97
295.093	8815.09
295.16	8812.16
295.226	8821.25
295.293	8848.6
295.36	8852.83
295.427	8859.14
295.494	8868.24
295.561	8871.03
295.628	8893.23
295.695	8903.96
295.762	8906.22
295.829	8914.7
295.896	8932.17
295.963	8943.39
296.03	8954.74
296.096	8962.93
296.163	8973.38
296.23	8985.75
296.297	8999.75
296.364	8998.65
296.431	9003.22
296.498	9000.38
296.564	9025.27
296.631	9023.1
296.698	9007.41
296.765	9035.9
296.832	9030.22
296.899	9021.85
296.965	9044.04
297.032	9026.27
297.099	9047.27
297.166	9060.89
297.233	9055.35
297.299	9050.25
297.366	9042.98
297.433	9050.39
297.5	9053.04
297.566	9057.28
297.633	9059.78
297.7	9063.92
297.767	9061.8
297.833	9066.81
297.9	9071.38
297.967	9057.67
298.033	9071
298.1	9105.48
298.167	9094.16
298.234	9090.84
298.3	9096.9
298.367	9090.84
298.434	9097
298.5	9083.71
298.567	9073.7
298.634	9070.91
298.7	9089.63
298.767	9099.02
298.834	9109.13
298.9	9105.42
298.967	9097.96
299.033	9111.69
299.1	9127.67
299.167	9147.17
299.233	9142.98
299.3	9159.88
299.366	9178.94
299.433	9192.42
299.5	9162.76
299.566	9164.21
299.633	9188.76
299.699	9202.58
299.766	9194.44
299.832	9199.16
299.899	9211.25
299.965	9226.32
300.032	9226.94
300.099	9232.39
300.165	9233.59
300.232	9231.47
300.298	9232.39
300.365	9246.06
300.431	9244.66
300.498	9230.17
300.564	9236
300.631	9247.21
300.697	9263.25
300.763	9261.61
300.83	9264.65
300.896	9277.93
300.963	9288
301.029	9283.23
301.096	9282.27
301.162	9299.17
301.229	9293.15
301.295	9283.13
301.361	9288.67
301.428	9292.52
301.494	9283.08
301.561	9283.95
301.627	9284.77
301.693	9288.43
301.76	9297.34
301.826	9290.74
301.892	9310.24
301.959	9312.79
302.025	9312.89
302.092	9298.3
302.158	9303.4
302.224	9299.69
302.291	9290.74
302.357	9288.23
302.423	9285.25
302.49	9281.01
302.556	9286.65
302.622	9285.15
302.688	9291.17
302.755	9299.41
302.821	9308.07
302.887	9318.81
302.954	9321.51
303.02	9325.74
303.086	9337.49
303.152	9328.97
303.219	9323.38
303.285	9322.71
303.351	9336
303.417	9335.47
303.483	9333.31
303.55	9327.38
303.616	9328.39
303.682	9329.45
303.748	9326.9
303.815	9350.11
303.881	9356.37
303.947	9351.27
304.013	9353.87
304.079	9348.38
304.145	9332.92
304.212	9331.62
304.278	9318.05
304.344	9312.22
304.41	9303.07
304.476	9291.9
304.542	9286.36
304.608	9296.67
304.674	9281.26
304.741	9265.13
304.807	9271.1
304.873	9275.09
304.939	9294.45
305.005	9276.97
305.071	9277.69
305.137	9276.97
305.203	9244.18
305.269	9245.33
305.335	9253.04
305.401	9246.92
305.467	9245.19
305.533	9254.19
305.599	9262.96
305.666	9274.18
305.732	9278.7
305.798	9295.46
305.864	9318.86
305.93	9325.94
305.996	9320.5
306.062	9321.8
306.128	9320.35
306.194	9310.1
306.259	9313.13
306.325	9299.07
306.391	9314.86
306.457	9328.88
306.523	9331.76
306.589	9361.38
306.655	9352.33
306.721	9336.34
306.787	9329.12
306.853	9343.47
306.919	9330.95
306.985	9322.33
307.051	9317.27
307.117	9305.09
307.183	9298.3
307.248	9270.18
307.314	9270.95
307.38	9277.07
307.446	9285.93
307.512	9282.03
307.578	9282.51
307.644	9274.95
307.709	9278.61
307.775	9270.85
307.841	9266.23
307.907	9268.83
307.973	9242.49
308.039	9233.78
308.104	9240.18
308.17	9245.72
308.236	9238.83
308.302	9237.43
308.368	9231.08
308.433	9225.88
308.499	9224.44
308.565	9209.37
308.631	9213.65
308.696	9189.48
308.762	9176.67
308.828	9170.51
308.894	9150.87
308.959	9130.02
309.025	9116.74
309.091	9107.44
309.156	9098.68
309.222	9093.19
309.288	9077.59
309.354	9056.99
309.419	9058.53
309.485	9039.66
309.551	9040.57
309.616	9022.23
309.682	9017.61
309.748	9013.03
309.813	9014.29
309.879	9000.81
309.945	8992.09
310.01	8984.73
310.076	8990.02
310.141	8982.61
310.207	8972.64
310.273	8972.06
310.338	8976.83
310.404	8964.84
310.469	8956.28
310.535	8946.5
310.601	8925.51
310.666	8930.71
310.732	8944.29
310.797	8937.11
310.863	8930.23
310.928	8918.48
310.994	8912.76
311.059	8911.36
311.125	8903.22
311.191	8907.22
311.256	8899.76
311.322	8904.53
311.387	8876.9
311.453	9318.44
311.518	9293.9
311.584	9287.93
311.649	9299.72
311.715	9288.79
311.78	9289.61
311.846	9276.14
311.911	9279.79
311.976	9281.19
312.042	9262.51
312.107	9249.03
312.173	9239.31
312.238	9231.56
312.304	9229.73
312.369	9226.56
312.434	9211.15
312.5	9204.75
312.565	9173.8
312.631	9178.9
312.696	9165.81
312.761	9170.48
312.827	8714.45
312.892	8749.15
312.958	8747.95
313.023	8744.38
313.088	8741.78
313.154	8727.44
313.219	8725.9
313.284	8718.92
313.35	8714.4
313.415	8705.01
313.48	8700.83
313.546	8703.81
313.611	8711.42
313.676	8704.49
313.741	8694.19
313.807	8701.79
313.872	8698.9
313.937	8708.1
314.003	8714.88
314.068	8721.04
314.133	8733.36
314.198	8734.09
314.264	8715.31
314.329	8702.89
314.394	8696.39
314.459	8697.07
314.525	8718.15
314.59	8710.83
314.655	8696.59
314.72	8700.92
314.785	8704.91
314.851	8695.58
314.916	8673.68
314.981	8660.54
315.046	8649.67
315.111	8644.52
315.176	8634.41
315.242	8639.03
315.307	8631.38
315.372	8610.92
315.437	8597.78
315.502	8587.39
315.567	8592.58
315.632	8573.96
315.698	8573.82
315.763	8565.35
315.828	8557.21
315.893	8550.43
315.958	8551.82
316.023	8545.76
316.088	8532.52
316.153	8509.91
316.218	8506.4
316.283	8489.7
316.348	8475.94
316.413	8472.62
316.479	8454.15
316.544	8426.24
316.609	8395.97
316.674	8361.82
316.739	8332.28
316.804	8302.64
316.869	8273.63
316.934	8235.24
316.999	8209.64
317.064	8159.38
317.129	8121.95
317.194	8083.7
317.259	8038.1
317.324	7985.29
317.389	7944.36
317.454	7903.61
317.518	7875.39
317.583	7846.72
317.648	7829.6
317.713	7793.38
317.778	7738.22
317.843	7709.85
317.908	7673.55
317.973	7640.8
318.038	7617.05
318.103	7582.1
318.168	7554.46
318.233	7522.77
318.297	7473.6
318.362	7440.47
318.427	7405.82
318.492	7380.77
318.557	7336.27
318.622	7309.11
318.687	7292.49
318.751	7252.32
318.816	7225.54
318.881	7193.59
318.946	7146.49
319.011	7098.29
319.075	7065.33
319.14	7031.22
319.205	6993.02
319.27	6963.57
319.335	6922.16
319.399	6882.76
319.464	6856.2
319.529	6802.84
319.594	6763.88
319.658	6738.77
319.723	6700.15
319.788	6669.85
319.853	6617.16
319.917	6588.79
319.982	6534.39
320.047	6497.36
320.112	6472.11
320.176	6420.98
320.241	6386.7
320.306	6357.84
320.37	6324.15
320.435	6289.68
320.5	6264.44
320.564	6226.23
320.629	6180.12
320.694	6145.95
320.758	6107.9
320.823	6061.74
320.888	6036.51
320.952	5987.24
321.017	5947.04
321.082	5908.37
321.146	5876.47
321.211	5840.26
321.275	5801.13
321.34	5764.55
321.405	5718.94
321.469	5677.7
321.534	5638.2
321.598	5585.17
321.663	5552.37
321.727	5526.23
321.792	5477.87
321.857	5432.04
321.921	5397.14
321.986	5353.3
322.05	5298.82
322.115	5264.8
322.179	5225.99
322.244	5174.02
322.308	5144.99
322.373	5102.93
322.437	5061.07
322.502	5040.75
322.566	4998.41
322.631	4966.71
322.695	4927.21
322.76	4885.7
322.824	4848.11
322.889	4802.98
322.953	4765.36
323.018	4700.21
323.082	4632.87
323.146	4583.64
323.211	4535.7
323.275	4490.47
323.34	4451.06
323.404	4415.67
323.468	4369.78
323.533	4328.51
323.597	4285.29
323.662	4238.56
323.726	4201.84
323.79	4160.14
323.855	4092.5
323.919	4046.09
323.983	4000.14
324.048	3935.23
324.112	4062.69
324.177	3940.1
324.241	3738.74
324.305	3537.19
324.37	3341.71
324.434	3153.2
324.498	3111.7
324.562	3062.46
324.627	3001.1
324.691	2946.04
324.755	2884.79
324.82	2807.22
324.884	2729.96
324.948	2656.55
325.012	2555.86
325.077	2434.5
