Data from 20250704_urea_0.1M_MAYP1162681_11-18-37-695.txt Node
Date: Fri Jul 04 11:18:37 BST 2025
User: adleo
Spectrometer: MAYP116268
Trigger mode: 0
Integration Time (sec): 1.000000E0
Scans to average: 1
Electric dark correction enabled: true
Nonlinearity correction enabled: true
Boxcar width: 10
XAxis mode: Wavelengths
Number of Pixels in Spectrum: 2068
>>>>>Begin Spectral Data<<<<<
179.565	1241.25
179.642	1301.79
179.718	1347.03
179.795	1384.8
179.871	1418.6
179.948	1436.7
180.024	1457.72
180.101	1477.68
180.177	1492.49
180.254	1519
180.33	1540.94
180.407	1594.82
180.483	1694.55
180.56	1787.53
180.636	1873.32
180.712	1863.43
180.789	1870.75
180.865	1886.19
180.942	1897.6
181.018	1906.25
181.095	1918.57
181.171	1922.61
181.248	1922.28
181.324	1939.16
181.4	1947.15
181.477	1959.23
181.553	1973.82
181.63	1995.18
181.706	2015.24
181.782	2026.08
181.859	2022.66
181.935	2030.6
182.011	2028.94
182.088	2044.11
182.164	2062.57
182.24	2075.93
182.317	2084.87
182.393	2086.25
182.469	2098.52
182.546	2112.55
182.622	2116.4
182.698	2112.17
182.775	2123.63
182.851	2138
182.927	2127.01
183.003	2124.35
183.08	2119.21
183.156	2126.92
183.232	2121.97
183.308	2110.79
183.385	2115.12
183.461	2131.81
183.537	2130.53
183.613	2144.28
183.69	2135.86
183.766	2126.1
183.842	2135.95
183.918	2140.9
183.995	2155.02
184.071	2158.97
184.147	2151.36
184.223	2141.23
184.299	2155.7
184.375	2146.71
184.452	2153.99
184.528	2207.38
184.604	2218.56
184.68	2227.55
184.756	2236.26
184.832	2243.3
184.908	2248.72
184.985	2249.53
185.061	2233.55
185.137	2246.77
185.213	2235.69
185.289	2236.26
185.365	2231.08
185.441	2228.22
185.517	2240.69
185.593	2234.22
185.669	2231.55
185.745	2245.59
185.822	2262.76
185.898	2252.01
185.974	2258
186.05	2248.96
186.126	2211.51
186.202	2204.37
186.278	2203.37
186.354	2193.57
186.43	2201.47
186.506	2196.86
186.582	2196.48
186.658	2203.32
186.734	2179.16
186.81	2180.82
186.886	2183.77
186.962	2196.76
187.038	2195.95
187.114	2186.53
187.19	2195.19
187.266	2186.2
187.341	2183.67
187.417	2177.58
187.493	2178.73
187.569	2182.96
187.645	2176.01
187.721	2167.78
187.797	2173.25
187.873	2174.68
187.949	2168.21
188.025	2159.26
188.101	2163.35
188.176	2169.49
188.252	2167.97
188.328	2178.33
188.404	2180.33
188.48	2176.34
188.556	2168.34
188.632	2166.82
188.707	2170.29
188.783	2168.39
188.859	2162.4
188.935	2149.93
189.011	2155.45
189.086	2148.55
189.162	2139.8
189.238	2137.47
189.314	2132.43
189.39	2126.81
189.465	2121.72
189.541	2140.57
189.617	2126.01
189.693	2122.54
189.768	2124.73
189.844	2148.24
189.92	2138.02
189.996	2146.44
190.071	2158.09
190.147	2155.91
190.223	2165.9
190.298	2159.43
190.374	2146.82
190.45	2159.9
190.526	2169.51
190.601	2164.75
190.677	2168.41
190.753	2197.55
190.828	2201.92
190.904	2219
190.98	2234.95
191.055	2246.98
191.131	2235.8
191.207	2254.88
191.282	2265.96
191.358	2257.35
191.433	2241.74
191.509	2256.91
191.585	2253.72
191.66	2253.1
191.736	2262.38
191.811	2252.77
191.887	2267.76
191.963	2290.41
192.038	2296.74
192.114	2297.36
192.189	2302.54
192.265	2295.27
192.34	2273.08
192.416	2270.08
192.491	2266.56
192.567	2267.47
192.642	2268.23
192.718	2268.8
192.793	2260.38
192.869	2253.71
192.944	2259.8
193.02	2268.61
193.095	2273.08
193.171	2278.94
193.246	2282.41
193.322	2279.13
193.397	2276.18
193.473	2264.23
193.548	2245.76
193.624	2249.48
193.699	2249.29
193.775	2263.71
193.85	2267.8
193.925	2275.75
194.001	2279.22
194.076	2272.08
194.152	2265.04
194.227	2254.95
194.302	2245.72
194.378	2246.86
194.453	2242.68
194.529	2250.72
194.604	2235.68
194.679	2230.26
194.755	2209.28
194.83	2218.09
194.905	2216.47
194.981	2227.55
195.056	2217.56
195.131	2223.56
195.207	2222.04
195.282	2213.66
195.357	2196.15
195.433	2208.99
195.508	2199.33
195.583	2205.09
195.659	2218.84
195.734	2224.56
195.809	2228.41
195.884	2238.97
195.96	2239.25
196.035	2256.19
196.11	2251.15
196.185	2264.23
196.261	2265.14
196.336	2301.74
196.411	2288.36
196.486	2291.55
196.561	2285.65
196.637	2296.54
196.712	2312.39
196.787	2318.87
196.862	2331.29
196.937	2343.42
197.013	2349.66
197.088	2361.03
197.163	2385.46
197.238	2399.04
197.313	2399.61
197.388	2409.65
197.464	2441.42
197.539	2452.7
197.614	2444.04
197.689	2458.03
197.764	2473.13
197.839	2493.84
197.914	2485.12
197.989	2507.55
198.065	2523.4
198.14	2574.67
198.215	2602.01
198.29	2616.21
198.365	2625.93
198.44	2639.4
198.515	2663.41
198.59	2682.85
198.665	2707.05
198.74	2713.72
198.815	2717.87
198.89	2741.4
198.965	2777.15
199.04	2771.76
199.115	2789.34
199.19	2832.88
199.265	2839.26
199.34	2851.65
199.415	2886.75
199.49	2903.66
199.565	2916.1
199.64	2938.4
199.715	2935.02
199.79	2942.6
199.865	2945.93
199.94	2946.93
200.015	2978.16
200.09	2985.98
200.165	2991.61
200.24	3001.67
200.315	3043.28
200.39	3059.63
200.464	3065.31
200.539	3062.73
200.614	3079.56
200.689	3106.22
200.764	3116.67
200.839	3133.59
200.914	3138.55
200.989	3129.48
201.063	3150.56
201.138	3132.16
201.213	3135.84
201.288	3118.1
201.363	3124.44
201.438	3128.64
201.512	3143.98
201.587	3128.15
201.662	3136.31
201.737	3149.52
201.812	3156.77
201.886	3123.79
201.961	3134.09
202.036	3123.27
202.111	3123.42
202.186	3096.06
202.26	3079.17
202.335	3056.18
202.41	3051.18
202.485	3034.64
202.559	3017
202.634	2990.3
202.709	3001.68
202.784	2986.81
202.858	2992.24
202.933	2974.7
203.008	2975.51
203.082	2960.16
203.157	2965.83
203.232	2928.42
203.306	2919.36
203.381	2897.47
203.456	2887.36
203.53	2878.15
203.605	2874.29
203.68	2865.13
203.754	2875.85
203.829	2878.19
203.904	2882.53
203.978	2895.79
204.053	2927.26
204.127	2934.03
204.202	2963.97
204.277	2978.32
204.351	3002.98
204.426	3030.6
204.5	3059.74
204.575	3060.6
204.65	3113.51
204.724	3149.12
204.799	3202.39
204.873	3246.21
204.948	3296.32
205.022	3338.74
205.097	3390.04
205.171	3464.27
205.246	3535.91
205.32	3603.7
205.395	3674.88
205.469	3736.81
205.544	3819.03
205.618	3882.98
205.693	3983.29
205.767	4061.03
205.842	4174.05
205.916	4264.86
205.991	4348.91
206.065	4459.29
206.14	4583.74
206.214	4691.87
206.289	4800.14
206.363	4929.57
206.438	5047.66
206.512	5181.68
206.586	5323.06
206.661	5458.42
206.735	5570.62
206.81	5712.03
206.884	5868.85
206.958	6000.04
207.033	6163.8
207.107	6317.34
207.181	6499.98
207.256	6652.05
207.33	6823.88
207.405	6995.4
207.479	7173.07
207.553	7344.59
207.628	7493.46
207.702	7675.94
207.776	7838.27
207.851	8014.33
207.925	8202.9
207.999	8380.9
208.073	8551.13
208.148	8734.18
208.222	8906.31
208.296	9120.47
208.371	9316.34
208.445	9511.4
208.519	9721.09
208.593	9921.53
208.668	10111.16
208.742	10306.43
208.816	10495.93
208.89	10703.49
208.965	10889.05
209.039	11090.52
209.113	11307.45
209.187	11523.22
209.261	11703.75
209.336	11918.79
209.41	12123.57
209.484	12316.85
209.558	12535.63
209.632	12745.88
209.707	12956.57
209.781	13170.34
209.855	13383.07
209.929	13594.25
210.003	13788.51
210.077	13983.45
210.151	14218.63
210.226	14444.84
210.3	14653.9
210.374	14865.13
210.448	15047.86
210.522	15247.95
210.596	15433.77
210.67	15617.75
210.744	15844.14
210.818	16063.89
210.892	16262.18
210.966	16436.61
211.041	16632.87
211.115	16803.43
211.189	16998.68
211.263	17176.42
211.337	17344.62
211.411	17527.18
211.485	17689.68
211.559	17859.04
211.633	18022.65
211.707	18151.37
211.781	18308.33
211.855	18429.77
211.929	18582.34
212.003	18727.21
212.077	18888.31
212.151	19061.07
212.225	19229.45
212.299	19365.88
212.373	19497.49
212.447	19634.31
212.52	19809.68
212.594	19945.72
212.668	20085.19
212.742	20207.45
212.816	20354.3
212.89	20485.14
212.964	20611.51
213.038	20746.22
213.112	20892.98
213.186	21043.69
213.26	21152.17
213.333	21228.85
213.407	21370.65
213.481	21487.77
213.555	21616.08
213.629	21723.86
213.703	21820.31
213.777	21926.79
213.85	22025.95
213.924	22169.42
213.998	22287.87
214.072	22390.03
214.146	22491.75
214.219	22603.74
214.293	22707.68
214.367	22804.06
214.441	22916.98
214.515	23007.68
214.588	23081.84
214.662	23142.39
214.736	23202.09
214.81	23302.38
214.883	23419.69
214.957	23483.44
215.031	23556.63
215.105	23618.59
215.178	23686.4
215.252	23766.41
215.326	23824.33
215.4	23884.13
215.473	23916.35
215.547	23967.04
215.621	24031.58
215.694	24101.29
215.768	24147.3
215.842	24203.83
215.915	24255.54
215.989	24301.71
216.063	24352.65
216.136	24415.85
216.21	24467.7
216.284	24545.61
216.357	24606.69
216.431	24648.61
216.504	24716.44
216.578	24806.23
216.652	24878.98
216.725	24938.04
216.799	24995.37
216.873	25046.75
216.946	25104.55
217.02	25158.3
217.093	25209.41
217.167	25226.49
217.24	25263.89
217.314	25303.17
217.387	25345.24
217.461	25384.19
217.535	25433.41
217.608	25468.84
217.682	25503.44
217.755	25574.72
217.829	25604.5
217.902	25639.54
217.976	25672.79
218.049	25703.49
218.123	25725.26
218.196	25766.09
218.27	25801.14
218.343	25823.54
218.417	25864.08
218.49	25893.58
218.563	25934.7
218.637	25973.08
218.71	26039.31
218.784	26079.72
218.857	26130.89
218.931	26168.21
219.004	26208.76
219.077	26247.58
219.151	26276.4
219.224	26322.65
219.298	26344.47
219.371	26394.06
219.444	26404.06
219.518	26434.9
219.591	26456.97
219.665	26502.26
219.738	26522.25
219.811	26529.45
219.885	26570.11
219.958	26602.89
220.031	26620.32
220.105	26658.67
220.178	26673.68
220.251	26681.27
220.325	26713.82
220.398	26737.82
220.471	26753.12
220.544	26775.34
220.618	26787.75
220.691	26808.13
220.764	26821.12
220.838	26848.5
220.911	26853.38
220.984	26900.32
221.057	26921.66
221.131	26949.14
221.204	26919.34
221.277	26945.57
221.35	26989.08
221.424	26983.77
221.497	26991.69
221.57	27004.29
221.643	26999.22
221.716	27025.59
221.79	27031.39
221.863	27029.94
221.936	27017.48
222.009	27018.45
222.082	27021.25
222.155	27025.4
222.229	27038.3
222.302	27030.81
222.375	27014.77
222.448	27022.36
222.521	27023.23
222.594	27021.15
222.667	27003.43
222.74	27033.9
222.814	27034.05
222.887	27035.35
222.96	27050.18
223.033	27056.89
223.106	27055.97
223.179	27055.15
223.252	27043.12
223.325	27039.36
223.398	27024.92
223.471	27030.81
223.544	27031.05
223.617	27020.81
223.69	27003.57
223.763	26997.58
223.837	27005.89
223.91	27013.47
223.983	26990.19
224.056	26966.14
224.129	26953.39
224.202	26954.45
224.275	26932.91
224.348	26902.1
224.42	26855.74
224.493	26818.6
224.566	26785.42
224.639	26783.49
224.712	26759.73
224.785	26729.89
224.858	26704.34
224.931	26687.73
225.004	26660.78
225.077	26641.13
225.15	26606.46
225.223	26598.45
225.296	26588.98
225.369	26543.2
225.442	26505.06
225.514	26488.11
225.587	26472.17
225.66	26466.33
225.733	26450.97
225.806	26428.28
225.879	26412.73
225.952	26393.91
226.025	26390.28
226.097	26387.24
226.17	26349.15
226.243	26308.26
226.316	26282.82
226.389	26256.65
226.461	26240.14
226.534	26214.84
226.607	26186.6
226.68	26172.84
226.753	26139.19
226.825	26093.76
226.898	26079.52
226.971	26055.34
227.044	26024.54
227.117	25990.99
227.189	25954.83
227.262	25931.46
227.335	25901.25
227.407	25858.19
227.48	25828.8
227.553	25791.24
227.626	25754.55
227.698	25732.69
227.771	25709.43
227.844	25674.05
227.916	25649.96
227.989	25608.26
228.062	25574.62
228.134	25566.27
228.207	25529.93
228.28	25491.47
228.352	25456.96
228.425	25425.16
228.498	25399.34
228.57	25354.55
228.643	25334.38
228.716	25303.69
228.788	25257.65
228.861	25219.19
228.934	25206.79
229.006	25179.57
229.079	25147.1
229.151	25106.95
229.224	25054.69
229.296	25032.88
229.369	25025.69
229.442	25009.48
229.514	24958.05
229.587	24933.59
229.659	24876.7
229.732	24846.5
229.804	24823.24
229.877	24807.51
229.949	24782.28
230.022	24773.16
230.094	24749.33
230.167	24714.15
230.239	24676.28
230.312	24648.93
230.384	24639.57
230.457	24603.24
230.529	24577.72
230.602	24550.12
230.674	24525.23
230.747	24511.77
230.819	24492.52
230.892	24436.08
230.964	24409.5
231.037	24389.48
231.109	24354.61
231.181	24327.69
231.254	24296.48
231.326	24261.37
231.399	24222.39
231.471	24179.99
231.544	24118.97
231.616	24081.5
231.688	24050.58
231.761	23995.02
231.833	23950.74
231.905	23889.01
231.978	23852.21
232.05	23815.5
232.122	23780.63
232.195	23734.38
232.267	23711.18
232.339	23660.45
232.412	23643.23
232.484	23588.2
232.556	23547.74
232.629	23543.01
232.701	23514.99
232.773	23470.34
232.846	23433.84
232.918	23397.19
232.99	23370.95
233.062	23340.09
233.135	23314.05
233.207	23264.82
233.279	23247.89
233.351	23223.25
233.424	23186.08
233.496	23141.96
233.568	23114.38
233.64	23059.36
233.713	23020.21
233.785	22973.54
233.857	22944.03
233.929	22885.79
234.001	22872.67
234.074	22857.58
234.146	22791.28
234.218	22747.21
234.29	22704.64
234.362	22654.75
234.434	22604.99
234.507	22541.98
234.579	22492.47
234.651	22455.64
234.723	22430.13
234.795	22388.53
234.867	22340.66
234.939	22325.47
235.012	22289.27
235.084	22258.99
235.156	22230.65
235.228	22185.24
235.3	22149.23
235.372	22107.72
235.444	22070.12
235.516	21997.18
235.588	21947.24
235.66	21908.39
235.732	21865.54
235.804	21888.1
235.876	21858.21
235.948	21835.94
236.02	21796.9
236.092	21751.16
236.164	21700.45
236.236	21647.91
236.308	21596.29
236.38	21550.7
236.452	21489.43
236.524	21439.16
236.596	21404.07
236.668	21372.55
236.74	21327.68
236.812	21284.92
236.884	21244.63
236.956	21216
237.028	21166.94
237.1	21113.05
237.172	21085.39
237.244	21067.07
237.316	20982.63
237.388	20932.36
237.46	20874.67
237.532	20850.43
237.604	20811.1
237.675	20778.66
237.747	20746.66
237.819	20701.7
237.891	20666.9
237.963	20618.04
238.035	20579.24
238.107	20495.24
238.178	20454.66
238.25	20411.14
238.322	20386.42
238.394	20327.19
238.466	20271.14
238.538	20232.01
238.609	20196.3
238.681	20133.94
238.753	20068.25
238.825	20032.4
238.897	19989.56
238.968	19963.72
239.04	19909.89
239.112	19887.58
239.184	19833.42
239.255	19780.36
239.327	19742.05
239.399	19701.28
239.471	19672.03
239.542	19634.29
239.614	19615.55
239.686	19551.5
239.758	19522.64
239.829	19464.32
239.901	19433.72
239.973	19396.52
240.044	19367.08
240.116	19324.19
240.188	19280.1
240.259	19238.03
240.331	19188.68
240.403	19151.52
240.474	19093.89
240.546	19038.95
240.618	18975.15
240.689	18936.55
240.761	18894.29
240.833	18876.02
240.904	18827.79
240.976	18779.93
241.048	18740.75
241.119	18697.43
241.191	18665.43
241.262	18647.22
241.334	18607.22
241.405	18566.07
241.477	18513.3
241.549	18472.34
241.62	18429.06
241.692	18390.89
241.763	18359.86
241.835	18316.54
241.906	18278.85
241.978	18229.75
242.049	18205.51
242.121	18175
242.192	18145.75
242.264	18089.32
242.335	18030.19
242.407	18004.74
242.478	17956.02
242.55	17911.3
242.621	17862.05
242.693	17821.86
242.764	17764.99
242.836	17711.93
242.907	17685.28
242.979	17655.11
243.05	17619.89
243.122	17585.19
243.193	17550.49
243.264	17487.98
243.336	17436.18
243.407	17403.36
243.479	17384.51
243.55	17357.43
243.622	17323.98
243.693	17279.36
243.764	17259.89
243.836	17206.73
243.907	17162.87
243.978	17125.23
244.05	17098.72
244.121	17045.85
244.192	17010.14
244.264	16954.77
244.335	16928.69
244.407	16867.63
244.478	16834.04
244.549	16789.17
244.62	16738.9
244.692	16693.02
244.763	16672.73
244.834	16635.52
244.906	16593.98
244.977	16559.08
245.048	16522.26
245.119	16474.84
245.191	16427.41
245.262	16371.02
245.333	16354.87
245.405	16313.14
245.476	16286.1
245.547	16246.72
245.618	16225.99
245.689	16194.23
245.761	16171.63
245.832	16128.39
245.903	16102.03
245.974	16059.57
246.045	16022.74
246.117	16004.52
246.188	15957.38
246.259	15906.68
246.33	15875.93
246.401	15841.22
246.473	15785.89
246.544	15743.91
246.615	15721.4
246.686	15683.18
246.757	15665.92
246.828	15616.32
246.899	15600.51
246.97	15542.14
247.042	15497.17
247.113	15472.34
247.184	15451.38
247.255	15406.45
247.326	15366.98
247.397	15329.24
247.468	15300.46
247.539	15264.5
247.61	15222.61
247.681	15208.1
247.752	15192.44
247.823	15150.31
247.894	15119.46
247.965	15077.76
248.037	15055.35
248.108	15006.81
248.179	14977.5
248.25	14941.11
248.321	14921.1
248.392	14876.71
248.463	14878.11
248.534	14848.22
248.605	14817.56
248.675	14788.59
248.746	14764.15
248.817	14743.81
248.888	14717.11
248.959	14677.38
249.03	14650.34
249.101	14618.96
249.172	14575.67
249.243	14526.17
249.314	14519.08
249.385	14485.87
249.456	14465.28
249.527	14425.47
249.598	14402.57
249.669	14370.46
249.739	14350.75
249.81	14322.59
249.881	14267.25
249.952	14227.97
250.023	14200.78
250.094	14152.96
250.165	14104.03
250.235	14073.08
250.306	14045.7
250.377	14001.79
250.448	13978.5
250.519	13928.61
250.59	13914.73
250.66	13889.75
250.731	13876.06
250.802	13839.28
250.873	13809.92
250.944	13784.62
251.014	13745.42
251.085	13740.17
251.156	13718.72
251.227	13693.65
251.297	13680.25
251.368	13679.57
251.439	13671.91
251.51	13657.78
251.58	13624.38
251.651	13593.62
251.722	13580.85
251.792	13543.44
251.863	13515.91
251.934	13509.89
252.005	13515.91
252.075	13485.4
252.146	13471.66
252.217	13457.82
252.287	13447.22
252.358	13419.16
252.429	13417.81
252.499	13388.65
252.57	13359.24
252.641	13338.46
252.711	13320.82
252.782	13277.92
252.852	13265.91
252.923	13240.32
252.994	13215.73
253.064	13209.66
253.135	13172.01
253.205	13137.3
253.276	13128.86
253.347	13131.08
253.417	13086.49
253.488	13051.78
253.558	13028.55
253.629	12993.69
253.699	12965.73
253.77	12944.23
253.841	12927.84
253.911	12898.68
253.982	12881.42
254.052	12865.9
254.123	12848.93
254.193	12820.92
254.264	12836.4
254.334	12804.73
254.405	12765.39
254.475	12733.38
254.546	12705.09
254.616	12710.29
254.687	12691.59
254.757	12668.98
254.827	12642.71
254.898	12634.71
254.968	12616.77
255.039	12587.51
255.109	12581.83
255.18	12554.93
255.25	12510.72
255.321	12488.16
255.391	12451.77
255.461	12459.63
255.532	12411.18
255.602	12390.31
255.673	12356.18
255.743	12328.17
255.813	12285.56
255.884	12278.77
255.954	12261.17
256.024	12254.18
256.095	12227.57
256.165	12197.26
256.235	12184.82
256.306	12148.14
256.376	12130.35
256.446	12116.81
256.517	12100.8
256.587	12090.54
256.657	12077.67
256.728	12060.7
256.798	12038.57
256.868	12019.87
256.938	11976.1
257.009	11966.66
257.079	11951.09
257.149	11951.23
257.219	11904.43
257.29	11891.03
257.36	11850.78
257.43	11844.13
257.5	11805.77
257.571	11782.97
257.641	11777.95
257.711	11742.72
257.781	11741.18
257.852	11727.87
257.922	11696.11
257.992	11676.54
258.062	11648.83
258.132	11636.05
258.202	11620.2
258.273	11605.98
258.343	11603.33
258.413	11582.17
258.483	11558.79
258.553	11525.73
258.623	11499.32
258.693	11485.15
258.764	11479.75
258.834	11478.45
258.904	11456.95
258.974	11432.13
259.044	11413
259.114	11394.06
259.184	11376.95
259.254	11355.26
259.324	11314.44
259.394	11296.9
259.464	11297.09
259.535	11279.12
259.605	11251.5
259.675	11216.71
259.745	11205.38
259.815	11169.23
259.885	11145.52
259.955	11158.68
260.025	11134.83
260.095	11118.35
260.165	11115.84
260.235	11117.09
260.305	11084.08
260.375	11055.84
260.445	11061.67
260.515	11056.71
260.585	11049.24
260.655	11030.98
260.725	11021
260.795	11011.22
260.865	11016.57
260.934	10990.5
261.004	10980.66
261.074	10969.82
261.144	10971.36
261.214	10962.98
261.284	10952.52
261.354	10947.32
261.424	10919.75
261.494	10922.3
261.564	10902.45
261.634	10884.62
261.703	10848
261.773	10842.94
261.843	10834.99
261.913	10812.58
261.983	10781.4
262.053	10770.66
262.123	10756.54
262.192	10721.9
262.262	10722.23
262.332	10692.89
262.402	10681.27
262.472	10668.65
262.541	10627.31
262.611	10616.47
262.681	10584.43
262.751	10574.6
262.821	10556.19
262.89	10523.38
262.96	10507.24
263.03	10509.65
263.1	10497.89
263.169	10479.1
263.239	10471.29
263.309	10472.84
263.379	10468.31
263.448	10451.21
263.518	10433.47
263.588	10420.03
263.657	10423.31
263.727	10411.94
263.797	10391.8
263.867	10369.83
263.936	10333.02
264.006	10336.73
264.076	10321.7
264.145	10308.26
264.215	10284.36
264.285	10279.16
264.354	10245.97
264.424	10223.28
264.494	10198.9
264.563	10175.63
264.633	10184.49
264.702	10170.43
264.772	10130.63
264.842	10108.81
264.911	10102.31
264.981	10075.95
265.05	10052.93
265.12	10038.33
265.19	10020.89
265.259	10025.18
265.329	10018.58
265.398	10012.17
265.468	10021.9
265.537	10002.4
265.607	9997.19
265.676	9999.75
265.746	9992.52
265.815	9993.87
265.885	9985.05
265.955	9963.81
266.024	9949.6
266.094	9913.76
266.163	9916.89
266.232	9923.78
266.302	9905.48
266.371	9899.75
266.441	9886.84
266.51	9892.23
266.58	9871.43
266.649	9857.6
266.719	9844.45
266.788	9836.65
266.858	9845.27
266.927	9805.77
266.996	9797.49
267.066	9790.75
267.135	9762.14
267.205	9756.12
267.274	9746.87
267.343	9750.1
267.413	9729.82
267.482	9732.04
267.552	9731.8
267.621	9701.07
267.69	9669.23
267.76	9669.52
267.829	9660.51
267.898	9652.18
267.968	9629.93
268.037	9630.99
268.106	9619.53
268.176	9594.2
268.245	9581.91
268.314	9558.55
268.384	9560.34
268.453	9556.39
268.522	9545.7
268.592	9545.55
268.661	9525.23
268.73	9521.33
268.799	9494.74
268.869	9504.9
268.938	9477.84
269.007	9459.06
269.076	9450.1
269.146	9456.7
269.215	9440.37
269.284	9442.16
269.353	9420.58
269.422	9402.05
269.492	9380.23
269.561	9346.19
269.63	9345.33
269.699	9330.16
269.768	9320.82
269.838	9316.72
269.907	9304.2
269.976	9281.38
270.045	9250.13
270.114	9244.74
270.183	9233.04
270.253	9229.76
270.322	9198.81
270.391	9179.74
270.46	9184.89
270.529	9184.32
270.598	9174.93
270.667	9169.1
270.736	9147.14
270.806	9145.75
270.875	9156.39
270.944	9149.98
271.013	9173.48
271.082	9157.01
271.151	9148.39
271.22	9122.78
271.289	9109.3
271.358	9102.27
271.427	9097.5
271.496	9092.16
271.565	9078.82
271.634	9066.36
271.703	9092.36
271.772	9100.69
271.841	9092.26
271.91	9071.9
271.979	9067.23
272.048	9046.43
272.117	9044.17
272.186	9029.68
272.255	9033.67
272.324	9025.87
272.393	9018.27
272.462	8996.36
272.531	8997.61
272.6	8990.01
272.669	8998.48
272.738	8990.39
272.807	8985.72
272.876	8962.47
272.945	8989.58
273.013	8984.14
273.082	8989
273.151	8946.05
273.22	8936.28
273.289	8932.14
273.358	8941.43
273.427	8919.67
273.496	8920.01
273.564	8913.36
273.633	8911.05
273.702	8889.58
273.771	8878.8
273.84	8872.21
273.909	8873.27
273.977	8867.01
274.046	8854.35
274.115	8859.69
274.184	8836.59
274.253	8831.97
274.322	8841.4
274.39	8804.72
274.459	8798.32
274.528	8771.27
274.597	8762.8
274.665	8763.76
274.734	8770.98
274.803	8760
274.872	8761.45
274.94	8747.25
275.009	8805.57
275.078	8793.73
275.147	8786.89
275.215	8779.72
275.284	8789.54
275.353	8776.88
275.421	8751.71
275.49	8767.6
275.559	8748.49
275.627	8750.46
275.696	8732.56
275.765	8734.1
275.833	8730.82
275.902	8729.57
275.971	8743.14
276.039	8757.54
276.108	8757.15
276.177	8760.66
276.245	8749.35
276.314	8742.09
276.383	8747.33
276.451	8680.73
276.52	8682.08
276.588	8697.1
276.657	8708.07
276.725	8694.11
276.794	8695.41
276.863	8708.94
276.931	8684.29
277	8694.64
277.068	8695.07
277.137	8718.51
277.205	8717.98
277.274	8736.51
277.342	8746.86
277.411	8728.96
277.48	8716.88
277.548	8711.54
277.617	8709.18
277.685	8702.1
277.754	8707.45
277.822	8697
277.89	8709.66
277.959	8700.18
278.027	8686.66
278.096	8667.84
278.164	8694.31
278.233	8691.33
278.301	8681.7
278.37	8687.05
278.438	8670.11
278.507	8676.27
278.575	8649.36
278.643	8644.79
278.712	8626.79
278.78	8606.62
278.849	8617.54
278.917	8626.06
278.985	8620.05
279.054	8622.02
279.122	8635.93
279.191	8627.89
279.259	8628.37
279.327	8605.22
279.396	8627.46
279.464	8621.1
279.532	8633.71
279.601	8626.93
279.669	8616.77
279.737	8628.27
279.806	8632.99
279.874	8641.75
279.942	8639.01
280.011	8634.82
280.079	8638.62
280.147	8654.26
280.215	8659.41
280.284	8655.13
280.352	8636.07
280.42	8638.77
280.488	8627.46
280.557	8616.92
280.625	8621.63
280.693	8624.52
280.761	8630.92
280.83	8613.35
280.898	8628.32
280.966	8609.6
281.034	8580.24
281.102	8570.52
281.171	8567.54
281.239	8576.25
281.307	8568.55
281.375	8560.95
281.443	8589.82
281.512	8587.99
281.58	8595.5
281.648	8585.35
281.716	8579
281.784	8580.49
281.852	8577.22
281.92	8574.38
281.989	8581.84
282.057	8562.92
282.125	8603.41
282.193	8598.02
282.261	8601.29
282.329	8593.01
282.397	8601.68
282.465	8604.42
282.533	8619.53
282.601	8607.59
282.67	8583.53
282.738	8577.13
282.806	8591.32
282.874	8577.08
282.942	8581.07
283.01	8574.57
283.078	8579.05
283.146	8581.79
283.214	8593.68
283.282	8598.92
283.35	8613.07
283.418	8611.01
283.486	8620.92
283.554	8583.13
283.622	8586.64
283.69	8579.13
283.758	8575.72
283.826	8577.79
283.894	8591.02
283.962	8609.21
284.03	8625.14
284.098	8624.61
284.165	8627.93
284.233	8619.85
284.301	8612.25
284.369	8603.77
284.437	8593.52
284.505	8587.17
284.573	8603.34
284.641	8589.53
284.709	8595.59
284.777	8581.4
284.845	8585.44
284.912	8585.68
284.98	8588.71
285.048	8586.74
285.116	8595.59
285.184	8607
285.252	8603.15
285.319	8584.09
285.387	8575.24
285.455	8560.46
285.523	8568.59
285.591	8560.65
285.659	8569.08
285.726	8581.83
285.794	8566.82
285.862	8570.38
285.93	8572.74
285.997	8562.68
286.065	8562.87
286.133	8553.77
286.201	8553.15
286.269	8539.72
286.336	8536.3
286.404	8525.77
286.472	8529.76
286.539	8508.35
286.607	8492.47
286.675	8492.8
286.743	8500.65
286.81	8494.44
286.878	8505.84
286.946	8499.35
287.013	8501.75
287.081	8495.35
287.149	8482.55
287.216	8502.81
287.284	8491.6
287.352	8491.26
287.419	8490.44
287.487	8502.62
287.555	8504.16
287.622	8499.15
287.69	8506.27
287.758	8516.67
287.825	8509.84
287.893	8498.58
287.96	8509.21
288.028	8519.03
288.096	8521.29
288.163	8526.87
288.231	8512.63
288.298	8508.54
288.366	8519.99
288.433	8515.27
288.501	8506.9
288.569	8508.39
288.636	8505.12
288.704	8523.65
288.771	8529.62
288.839	8520.91
288.906	8520.14
288.974	8530.48
289.041	8530.48
289.109	8518.84
289.176	8522.69
289.244	8534.91
289.311	8547.42
289.379	8556.71
289.446	8558.54
289.514	8562.1
289.581	8562.53
289.649	8573.94
289.716	8576.25
289.783	8575.72
289.851	8602.33
289.918	8608.39
289.986	8614.65
290.053	8616.33
290.121	8613.69
290.188	8619.08
290.255	8655.8
290.323	8643.24
290.39	8635.01
290.458	8644.15
290.525	8663.64
290.592	8662.2
290.66	8665.81
290.727	8664.17
290.794	8679.48
290.862	8682.56
290.929	8685.4
290.996	8688.96
291.064	8699.21
291.131	8715.05
291.198	8724.82
291.266	8716.88
291.333	8717.26
291.4	8717.74
291.468	8735.02
291.535	8731.51
291.602	8738.1
291.669	8720.63
291.737	8731.84
291.804	8735.98
291.871	8747.34
291.938	8752.97
292.006	8783.83
292.073	8796.3
292.14	8808.96
292.207	8798.94
292.275	8797.26
292.342	8811.65
292.409	8836.88
292.476	8855.12
292.543	8853.63
292.611	8857.82
292.678	8876.98
292.745	8901.72
292.812	8921.36
292.879	8920.2
292.946	8925.98
293.014	8939.07
293.081	8953.8
293.148	8966.56
293.215	8981.53
293.282	8979.6
293.349	8994.67
293.416	8974.64
293.484	8983.93
293.551	8995.05
293.618	9014.36
293.685	9045.75
293.752	9033.9
293.819	9030.73
293.886	9022.59
293.953	9022.06
294.02	9032.03
294.087	9037.95
294.154	9031.4
294.221	9047.72
294.288	9046.66
294.356	9063.32
294.423	9066.31
294.49	9058.41
294.557	9073.33
294.624	9064.24
294.691	9086.96
294.758	9084.31
294.825	9088.26
294.892	9085.23
294.959	9086.77
295.026	9096.06
295.093	9088.84
295.16	9090.95
295.226	9092.45
295.293	9119.7
295.36	9128.65
295.427	9141.94
295.494	9152.58
295.561	9165.2
295.628	9191.78
295.695	9205.84
295.762	9205.75
295.829	9219.18
295.896	9231.99
295.963	9245.32
296.03	9262.66
296.096	9267.52
296.163	9277.63
296.23	9296.36
296.297	9308.2
296.364	9306.04
296.431	9310.18
296.498	9304.26
296.564	9331.07
296.631	9333.91
296.698	9321.63
296.765	9339.69
296.832	9329.72
296.899	9321.59
296.965	9337.67
297.032	9311.03
297.099	9333.96
297.166	9347.15
297.233	9337.71
297.299	9334.63
297.366	9331.12
297.433	9325.43
297.5	9338.24
297.566	9338.48
297.633	9342.48
297.7	9348.74
297.767	9347.39
297.833	9356.49
297.9	9359.53
297.967	9342.82
298.033	9356.93
298.1	9379.37
298.167	9370.85
298.234	9370.94
298.3	9379.42
298.367	9377.01
298.434	9387.7
298.5	9377.4
298.567	9373.21
298.634	9373.78
298.7	9394.49
298.767	9395.07
298.834	9411.82
298.9	9400.89
298.967	9395.69
299.033	9402.34
299.1	9417.89
299.167	9430.8
299.233	9422.76
299.3	9438.65
299.366	9458.1
299.433	9472.64
299.5	9449.86
299.566	9458.24
299.633	9483.04
299.699	9493.49
299.766	9489.35
299.832	9493.64
299.899	9498.65
299.965	9514.64
300.032	9515.69
300.099	9520.61
300.165	9532.12
300.232	9531.15
300.298	9539.2
300.365	9551.81
300.431	9551.19
300.498	9547.96
300.564	9561.35
300.631	9579.89
300.697	9595.59
300.763	9596.84
300.83	9594.67
300.896	9613.17
300.963	9626.89
301.029	9630.5
301.096	9644.28
301.162	9660.94
301.229	9656.37
301.295	9649.58
301.361	9650.68
301.428	9657.62
301.494	9651.65
301.561	9646.3
301.627	9649.33
301.693	9653.28
301.76	9666.34
301.826	9663.35
301.892	9668.5
301.959	9672.98
302.025	9664.79
302.092	9653.28
302.158	9665.56
302.224	9671.39
302.291	9664.36
302.357	9657.43
302.423	9650.97
302.49	9633.3
302.556	9639.51
302.622	9635.37
302.688	9646.93
302.755	9661.91
302.821	9664.36
302.887	9667.15
302.954	9669.47
303.02	9679.44
303.086	9685.84
303.152	9680.69
303.219	9680.06
303.285	9688.2
303.351	9689.65
303.417	9696.53
303.483	9697.26
303.55	9689.26
303.616	9686.9
303.682	9683.43
303.748	9681.56
303.815	9695.04
303.881	9705.78
303.947	9700.15
304.013	9708.43
304.079	9702.65
304.145	9685.94
304.212	9694.17
304.278	9688.78
304.344	9689.55
304.41	9678.43
304.476	9665.95
304.542	9657.47
304.608	9664.7
304.674	9650.59
304.741	9656.27
304.807	9656.13
304.873	9657.09
304.939	9675.1
305.005	9656.75
305.071	9657.43
305.137	9657.96
305.203	9637.29
305.269	9632.72
305.335	9643.41
305.401	9643.46
305.467	9638.5
305.533	9643.32
305.599	9650.4
305.666	9667.97
305.732	9668.41
305.798	9674.67
305.864	9705.3
305.93	9710.21
305.996	9711.08
306.062	9711.23
306.128	9704.58
306.194	9689.75
306.259	9688.93
306.325	9678.43
306.391	9692.88
306.457	9694.99
306.523	9702.22
306.589	9724.13
306.655	9721.05
306.721	9707.95
306.787	9691.62
306.853	9709.4
306.919	9693.99
306.985	9682.47
307.051	9663.69
307.117	9659.02
307.183	9658.49
307.248	9631.61
307.314	9640.47
307.38	9643.56
307.446	9650.4
307.512	9640.62
307.578	9646.45
307.644	9644.42
307.709	9642.88
307.775	9638.79
307.841	9642.02
307.907	9633.54
307.973	9613.55
308.039	9618.03
308.104	9618.46
308.17	9619.86
308.236	9608.54
308.302	9619.33
308.368	9609.84
308.433	9618.32
308.499	9610.71
308.565	9599.49
308.631	9596.98
308.696	9571.7
308.762	9559.71
308.828	9554.12
308.894	9535.34
308.959	9517.77
309.025	9509.48
309.091	9505.58
309.156	9490.75
309.222	9488.2
309.288	9479.24
309.354	9458
309.419	9457.81
309.485	9437.25
309.551	9442.02
309.616	9424.05
309.682	9417.65
309.748	9413.03
309.813	9410.18
309.879	9399.83
309.945	9390.01
310.01	9385.39
310.076	9383.32
310.141	9378.55
310.207	9368.1
310.273	9374.89
310.338	9381.24
310.404	9367.57
310.469	9355.38
310.535	9344.65
310.601	9328.85
310.666	9333.38
310.732	9346.09
310.797	9325.67
310.863	9315.42
310.928	9308.87
310.994	9308.63
311.059	9301.26
311.125	9296.78
311.191	9305.98
311.256	9302.08
311.322	9307.91
311.387	9287.92
311.453	9681.29
311.518	9649.52
311.584	9644.99
311.649	9647.98
311.715	9634.11
311.78	9633.87
311.846	9621.11
311.911	9629.54
311.976	9628.19
312.042	9612.68
312.107	9590.92
312.173	9586.83
312.238	9588.51
312.304	9582.78
312.369	9574.41
312.434	9561.45
312.5	9559.77
312.565	9524.23
312.631	9524.76
312.696	9515.95
312.761	9512.63
312.827	9115.31
312.892	9160.91
312.958	9158.26
313.023	9157.3
313.088	9160.43
313.154	9151.81
313.219	9150.8
313.284	9144.88
313.35	9143.19
313.415	9136.55
313.48	9138.52
313.546	9137.99
313.611	9150.13
313.676	9141.8
313.741	9138.91
313.807	9148.78
313.872	9148.78
313.937	9155.52
314.003	9167.03
314.068	9170.25
314.133	9182.91
314.198	9174.83
314.264	9147.23
314.329	9133.46
314.394	9126.39
314.459	9119.16
314.525	9132.21
314.59	9126.53
314.655	9113.68
314.72	9119.69
314.785	9123.02
314.851	9119.12
314.916	9103.66
314.981	9080.31
315.046	9073.24
315.111	9066.74
315.176	9055.62
315.242	9058.65
315.307	9055.37
315.372	9037.51
315.437	9024.8
315.502	9010.79
315.567	9017.29
315.632	9005.3
315.698	9007.9
315.763	9002.08
315.828	8991.78
315.893	8989.66
315.958	8986
316.023	8976.47
316.088	8955.48
316.153	8931.41
316.218	8920.73
316.283	8901
316.348	8885.74
316.413	8883.48
316.479	8859.75
316.544	8824.66
316.609	8789.04
316.674	8752.75
316.739	8712.52
316.804	8683.93
316.869	8651.79
316.934	8612.18
316.999	8581.04
317.064	8525.8
317.129	8478.73
317.194	8447.26
317.259	8395.58
317.324	8345.3
317.389	8296.99
317.454	8254.8
317.518	8226.41
317.583	8200.38
317.648	8178.68
317.713	8141.74
317.778	8081.6
317.843	8057.69
317.908	8023.35
317.973	7985.01
318.038	7953.17
318.103	7916.48
318.168	7883.72
318.233	7857.22
318.297	7810.48
318.362	7771.53
318.427	7733.93
318.492	7713.88
318.557	7661.91
318.622	7634.59
318.687	7606.37
318.751	7571.09
318.816	7540.18
318.881	7499.12
318.946	7443.02
319.011	7394.32
319.075	7354.81
319.14	7321.03
319.205	7275.17
319.27	7238.74
319.335	7193.28
319.399	7150.75
319.464	7122.16
319.529	7069.02
319.594	7022.88
319.658	6995.26
319.723	6954.66
319.788	6930.88
319.853	6873.61
319.917	6850.7
319.982	6798.05
320.047	6757.32
320.112	6729.37
320.176	6677.59
320.241	6646.8
320.306	6624.47
320.37	6586.35
320.435	6556.53
320.5	6525.27
320.564	6488.01
320.629	6443.8
320.694	6410.92
320.758	6370.65
320.823	6329.13
320.888	6298.27
320.952	6251.62
321.017	6208.13
321.082	6172.67
321.146	6136.15
321.211	6099.78
321.275	6054.1
321.34	6011.79
321.405	5968.43
321.469	5924.3
321.534	5885.06
321.598	5828.56
321.663	5792.86
321.727	5759.53
321.792	5703.76
321.857	5657.82
321.921	5614.13
321.986	5575.64
322.05	5521.58
322.115	5486.44
322.179	5440.38
322.244	5384.03
322.308	5347.84
322.373	5299.4
322.437	5255.84
322.502	5227.41
322.566	5183.62
322.631	5148.02
322.695	5109.8
322.76	5064.69
322.824	5027.56
322.889	4979.54
322.953	4940.14
323.018	4868.5
323.082	4805.5
323.146	4759.22
323.211	4704.32
323.275	4661.52
323.34	4614.86
323.404	4579.22
323.468	4530.45
323.533	4490.69
323.597	4444.89
323.662	4393.22
323.726	4360.11
323.79	4309.03
323.855	4242.76
323.919	4192.94
323.983	4148.84
324.048	4078.55
324.112	4211.17
324.177	4079.9
324.241	3871
324.305	3660.16
324.37	3458.89
324.434	3262.26
324.498	3217.64
324.562	3169.22
324.627	3105.21
324.691	3045.78
324.755	2977.98
324.82	2901.6
324.884	2816.83
324.948	2744.8
325.012	2647.8
325.077	2514.82
