Data from 20250704_urea_0.1M_MAYP1162681_11-18-49-694.txt Node
Date: Fri Jul 04 11:18:49 BST 2025
User: adleo
Spectrometer: MAYP116268
Trigger mode: 0
Integration Time (sec): 1.000000E0
Scans to average: 1
Electric dark correction enabled: true
Nonlinearity correction enabled: true
Boxcar width: 10
XAxis mode: Wavelengths
Number of Pixels in Spectrum: 2068
>>>>>Begin Spectral Data<<<<<
179.565	1247.06
179.642	1303.37
179.718	1349.1
179.795	1389.57
179.871	1423.59
179.948	1444.12
180.024	1465.7
180.101	1489.54
180.177	1506.72
180.254	1529.77
180.33	1550.82
180.407	1607.89
180.483	1705.05
180.56	1799.41
180.636	1885.01
180.712	1873.55
180.789	1883.2
180.865	1894.8
180.942	1904.4
181.018	1914.95
181.095	1926.79
181.171	1931.07
181.248	1935.12
181.324	1949.86
181.4	1957.47
181.477	1969.4
181.553	1982.9
181.63	2004.88
181.706	2019.52
181.782	2024.94
181.859	2025.23
181.935	2032.89
182.011	2029.56
182.088	2049.53
182.164	2069.95
182.24	2084.59
182.317	2095.95
182.393	2097.76
182.469	2112.79
182.546	2126.82
182.622	2131.25
182.698	2125.3
182.775	2133.67
182.851	2146.94
182.927	2139.81
183.003	2134.34
183.08	2127.35
183.156	2134.96
183.232	2130.06
183.308	2117.98
183.385	2125.82
183.461	2143.38
183.537	2145.47
183.613	2156.79
183.69	2144.38
183.766	2132.14
183.842	2140.76
183.918	2143.04
183.995	2154.46
184.071	2157.36
184.147	2149.84
184.223	2137.76
184.299	2150.47
184.375	2143.76
184.452	2150.66
184.528	2200.05
184.604	2210.37
184.68	2222.36
184.756	2232.35
184.832	2237.25
184.908	2244.53
184.985	2243.77
185.061	2226.83
185.137	2235.49
185.213	2225.41
185.289	2226.74
185.365	2220.79
185.441	2219.99
185.517	2233.45
185.593	2228.7
185.669	2227.17
185.745	2240.5
185.822	2262.28
185.898	2255.38
185.974	2262.04
186.05	2253.66
186.126	2221.36
186.202	2214.7
186.278	2209.89
186.354	2199.47
186.43	2204.94
186.506	2204.66
186.582	2206.51
186.658	2214.26
186.734	2192.38
186.81	2194.9
186.886	2200.18
186.962	2211.51
187.038	2206.18
187.114	2199.7
187.19	2206.84
187.266	2195.14
187.341	2195.09
187.417	2183.48
187.493	2182.25
187.569	2186.48
187.645	2182.39
187.721	2168.49
187.797	2179.01
187.873	2186.67
187.949	2182.58
188.025	2176.72
188.101	2178.39
188.176	2181.91
188.252	2178.05
188.328	2185.47
188.404	2184.33
188.48	2178.19
188.556	2171.1
188.632	2171.01
188.707	2169.53
188.783	2168.06
188.859	2163.87
188.935	2153.26
189.011	2164.49
189.086	2160.92
189.162	2151.31
189.238	2142.56
189.314	2139.19
189.39	2132.43
189.465	2121.15
189.541	2135.76
189.617	2119.64
189.693	2113.93
189.768	2116.83
189.844	2142.44
189.92	2135.45
189.996	2147.44
190.071	2160
190.147	2158.81
190.223	2169.66
190.298	2164.05
190.374	2150.06
190.45	2163.14
190.526	2171.47
190.601	2160.05
190.677	2157.24
190.753	2187.18
190.828	2196.41
190.904	2212.54
190.98	2227.05
191.055	2238.38
191.131	2227.34
191.207	2249.41
191.282	2259.78
191.358	2254.31
191.433	2236.98
191.509	2252.06
191.585	2245.63
191.66	2245.92
191.736	2256.05
191.811	2244.49
191.887	2261.39
191.963	2286.99
192.038	2292.37
192.114	2290.27
192.189	2298.55
192.265	2299.12
192.34	2273.65
192.416	2272.79
192.491	2270.7
192.567	2270.79
192.642	2276.55
192.718	2277.13
192.793	2266.18
192.869	2261.47
192.944	2260.8
193.02	2270.32
193.095	2273.8
193.171	2283.65
193.246	2281.36
193.322	2278.51
193.397	2279.89
193.473	2265.8
193.548	2248.23
193.624	2250.57
193.699	2251.23
193.775	2266.28
193.85	2268.51
193.925	2279.65
194.001	2276.27
194.076	2268.23
194.152	2259.47
194.227	2249.62
194.302	2241.44
194.378	2243.43
194.453	2241.15
194.529	2253.05
194.604	2235.2
194.679	2227.02
194.755	2205.56
194.83	2220.32
194.905	2216.9
194.981	2225.84
195.056	2219.99
195.131	2221.51
195.207	2223.61
195.282	2213.57
195.357	2190.44
195.433	2206.38
195.508	2195.2
195.583	2203.47
195.659	2218.75
195.734	2227.89
195.809	2229.41
195.884	2238.5
195.96	2240.07
196.035	2256.63
196.11	2252.73
196.185	2265.95
196.261	2272.19
196.336	2302.45
196.411	2286.22
196.486	2291.55
196.561	2285.93
196.637	2292.64
196.712	2313.82
196.787	2317.82
196.862	2335.48
196.937	2352.37
197.013	2355.32
197.088	2364.98
197.163	2387.27
197.238	2401.56
197.313	2398.13
197.388	2411.79
197.464	2443.03
197.539	2456.22
197.614	2448.03
197.689	2464.36
197.764	2483.98
197.839	2506.46
197.914	2500.46
197.989	2523.74
198.065	2535.26
198.14	2588.78
198.215	2616.68
198.29	2623.02
198.365	2633.88
198.44	2645.98
198.515	2669.75
198.59	2686.56
198.665	2713.19
198.74	2720.48
198.815	2723.3
198.89	2751.97
198.965	2784.15
199.04	2779.19
199.115	2793.53
199.19	2834.55
199.265	2833.88
199.34	2845.32
199.415	2875.27
199.49	2900.33
199.565	2910.57
199.64	2938.17
199.715	2933.45
199.79	2942.22
199.865	2951.08
199.94	2953.42
200.015	2985.41
200.09	2995
200.165	3002.24
200.24	3011.68
200.315	3057.97
200.39	3073.33
200.464	3077.28
200.539	3077.43
200.614	3092.16
200.689	3115.24
200.764	3126.69
200.839	3144.89
200.914	3147.09
200.989	3138.64
201.063	3151.14
201.138	3133.84
201.213	3134.41
201.288	3115.77
201.363	3119.01
201.438	3116.39
201.512	3131.97
201.587	3114.18
201.662	3118.71
201.737	3133.17
201.812	3141.37
201.886	3106.81
201.961	3121.56
202.036	3110.5
202.111	3107.3
202.186	3080.71
202.26	3066.88
202.335	3045.8
202.41	3041.65
202.485	3026.87
202.559	3007.23
202.634	2985.58
202.709	2999.97
202.784	2984.86
202.858	2989.19
202.933	2977.47
203.008	2982.85
203.082	2968.65
203.157	2976.56
203.232	2939.91
203.306	2927.75
203.381	2903.19
203.456	2890.42
203.53	2878.82
203.605	2873.24
203.68	2866.42
203.754	2876.52
203.829	2875.81
203.904	2873.57
203.978	2889.49
204.053	2919.58
204.127	2933.55
204.202	2957.3
204.277	2967.07
204.351	2991.54
204.426	3017.58
204.5	3045.58
204.575	3046.3
204.65	3096.92
204.724	3127.62
204.799	3183.84
204.873	3225.6
204.948	3278.48
205.022	3321.18
205.097	3366.65
205.171	3447.24
205.246	3522.05
205.32	3590.78
205.395	3663.14
205.469	3730.27
205.544	3812.35
205.618	3878.12
205.693	3975.1
205.767	4051.15
205.842	4168.22
205.916	4257.07
205.991	4345.18
206.065	4455.14
206.14	4582.02
206.214	4687.51
206.289	4795.54
206.363	4920.66
206.438	5048.67
206.512	5176.44
206.586	5326.61
206.661	5467.57
206.735	5571.39
206.81	5705.9
206.884	5858
206.958	5988.8
207.033	6153.33
207.107	6310.19
207.181	6492.07
207.256	6642.18
207.33	6817.88
207.405	6990.65
207.479	7168.84
207.553	7340.56
207.628	7490.26
207.702	7669.7
207.776	7838.29
207.851	8010.63
207.925	8204.35
207.999	8372.63
208.073	8552.72
208.148	8730.6
208.222	8899.64
208.296	9112.39
208.371	9312.17
208.445	9516.46
208.519	9735.16
208.593	9934.53
208.668	10114.97
208.742	10301.7
208.816	10501.04
208.89	10706.67
208.965	10894.31
209.039	11096.15
209.113	11308.99
209.187	11519.37
209.261	11703.6
209.336	11915.42
209.41	12132.63
209.484	12319.41
209.558	12536.74
209.632	12748.87
209.707	12955.27
209.781	13173.14
209.855	13382.63
209.929	13595.06
210.003	13776.79
210.077	13963.15
210.151	14192.79
210.226	14419.2
210.3	14640.89
210.374	14841.75
210.448	15028.68
210.522	15217.39
210.596	15406.53
210.67	15591.87
210.744	15819.61
210.818	16037.57
210.892	16244.68
210.966	16418
211.041	16606.94
211.115	16772.25
211.189	16962.58
211.263	17144.71
211.337	17311.51
211.411	17494.55
211.485	17646.41
211.559	17824.39
211.633	17989.98
211.707	18124.43
211.781	18281.63
211.855	18396.18
211.929	18547.12
212.003	18684.9
212.077	18850.09
212.151	19015.1
212.225	19177.46
212.299	19317.6
212.373	19449.88
212.447	19578.45
212.52	19747.08
212.594	19895.75
212.668	20052.9
212.742	20171.75
212.816	20298.73
212.89	20429.82
212.964	20563.13
213.038	20707.13
213.112	20852.93
213.186	21000.31
213.26	21107.64
213.333	21184.56
213.407	21311.32
213.481	21438.22
213.555	21571.25
213.629	21671.65
213.703	21775.43
213.777	21888.04
213.85	21981.65
213.924	22129.17
213.998	22238.6
214.072	22342.44
214.146	22440.02
214.219	22538.18
214.293	22632.38
214.367	22732.65
214.441	22852.81
214.515	22945.43
214.588	23012.89
214.662	23083.04
214.736	23144.23
214.81	23243.99
214.883	23351.41
214.957	23434.78
215.031	23502.62
215.105	23561.4
215.178	23640.39
215.252	23721.27
215.326	23791.39
215.4	23853.7
215.473	23881.24
215.547	23937.82
215.621	24006.42
215.694	24082.15
215.768	24132.5
215.842	24193.32
215.915	24261.63
215.989	24290.13
216.063	24345.9
216.136	24402.53
216.21	24460.28
216.284	24545.57
216.357	24601.82
216.431	24655.61
216.504	24723.87
216.578	24815.31
216.652	24893.32
216.725	24958.6
216.799	25016.55
216.873	25049.17
216.946	25109.34
217.02	25161.11
217.093	25201.01
217.167	25237.83
217.24	25266.02
217.314	25305.87
217.387	25350.7
217.461	25389.4
217.535	25445.33
217.608	25470.38
217.682	25521.49
217.755	25570.76
217.829	25593.3
217.902	25640.7
217.976	25686.6
218.049	25718.79
218.123	25728.93
218.196	25768.85
218.27	25790.71
218.343	25810.75
218.417	25851.87
218.49	25886.67
218.563	25933.11
218.637	25973.42
218.71	26012.67
218.784	26060.22
218.857	26105.11
218.931	26155.51
219.004	26189.06
219.077	26238.11
219.151	26278.47
219.224	26304.3
219.298	26333.56
219.371	26377.25
219.444	26388.41
219.518	26421.67
219.591	26448.23
219.665	26505.79
219.738	26518.97
219.811	26533.7
219.885	26571.46
219.958	26609.12
220.031	26629.4
220.105	26651.95
220.178	26679.42
220.251	26696.47
220.325	26727.82
220.398	26751.48
220.471	26765.82
220.544	26794.75
220.618	26801.03
220.691	26813.58
220.764	26838.69
220.838	26859.36
220.911	26871.19
220.984	26903.11
221.057	26914.51
221.131	26929.29
221.204	26911.22
221.277	26952.66
221.35	27002.41
221.424	26996.9
221.497	27007.19
221.57	27010.86
221.643	27019.99
221.716	27036.7
221.79	27038.39
221.863	27035.83
221.936	27047.04
222.009	27045.49
222.082	27036.51
222.155	27036.41
222.229	27067.37
222.302	27066.89
222.375	27071.86
222.448	27079.35
222.521	27078.05
222.594	27072.78
222.667	27059.94
222.74	27074.14
222.814	27060.42
222.887	27048.73
222.96	27059.83
223.033	27054.47
223.106	27059.3
223.179	27058.82
223.252	27053.41
223.325	27043.51
223.398	27035.06
223.471	27020.57
223.544	27020.18
223.617	27018.11
223.69	27017.09
223.763	26984.54
223.837	26982.6
223.91	26971.3
223.983	26937.3
224.056	26920.5
224.129	26910.5
224.202	26900.17
224.275	26876.07
224.348	26848.11
224.42	26811.5
224.493	26781.61
224.566	26760.65
224.639	26742.3
224.712	26720.47
224.785	26698.11
224.858	26671.99
224.931	26651.27
225.004	26631.52
225.077	26611.19
225.15	26572.66
225.223	26540.93
225.296	26544.89
225.369	26500.76
225.442	26466.81
225.514	26454.99
225.587	26434.03
225.66	26415.54
225.733	26413.03
225.806	26394.34
225.879	26376.72
225.952	26348.19
226.025	26334.19
226.097	26327.86
226.17	26297.25
226.243	26247.67
226.316	26215.9
226.389	26194.95
226.461	26167.53
226.534	26138.37
226.607	26112.35
226.68	26100.57
226.753	26075.33
226.825	26017.34
226.898	26017.53
226.971	25992.19
227.044	25968.68
227.117	25942.38
227.189	25919.73
227.262	25885.8
227.335	25856.26
227.407	25820.63
227.48	25802.53
227.553	25773.72
227.626	25744.51
227.698	25722.21
227.771	25705.85
227.844	25670.52
227.916	25645.38
227.989	25598.76
228.062	25566.08
228.134	25547.89
228.207	25521.83
228.28	25483.7
228.352	25448.13
228.425	25414.93
228.498	25402.81
228.57	25363.19
228.643	25343.5
228.716	25308.08
228.788	25268.75
228.861	25238.25
228.934	25218.56
229.006	25188.07
229.079	25149.46
229.151	25098.55
229.224	25053.73
229.296	25017.78
229.369	25011.99
229.442	24997.03
229.514	24966.73
229.587	24943.33
229.659	24895.71
229.732	24863.72
229.804	24844.71
229.877	24846.5
229.949	24819.77
230.022	24796.36
230.094	24768.33
230.167	24743.39
230.239	24701.9
230.312	24671.21
230.384	24660.36
230.457	24634.4
230.529	24603.87
230.602	24580.57
230.674	24554.52
230.747	24544.92
230.819	24531.46
230.892	24470.82
230.964	24434.64
231.037	24412.83
231.109	24379.84
231.181	24357.84
231.254	24318.72
231.326	24285.2
231.399	24246.22
231.471	24200.15
231.544	24142.65
231.616	24110.97
231.688	24070.3
231.761	24028.39
231.833	23986.82
231.905	23917.36
231.978	23867.64
232.05	23821.15
232.122	23784.88
232.195	23739.25
232.267	23706.26
232.339	23657.26
232.412	23632.67
232.484	23589.65
232.556	23534.87
232.629	23524.02
232.701	23490.79
232.773	23454.33
232.846	23407.37
232.918	23364.01
232.99	23328.9
233.062	23302.86
233.135	23275.23
233.207	23236.8
233.279	23210.66
233.351	23193.6
233.424	23162.3
233.496	23121.85
233.568	23118.14
233.64	23068.14
233.713	23034.97
233.785	22987.04
233.857	22958.98
233.929	22907.97
234.001	22886.22
234.074	22867.56
234.146	22798.61
234.218	22747.07
234.29	22709.18
234.362	22663.81
234.434	22615.46
234.507	22559.15
234.579	22494.55
234.651	22443.15
234.723	22407.28
234.795	22374.74
234.867	22315.11
234.939	22289.41
235.012	22255.09
235.084	22214.01
235.156	22181.19
235.228	22140.02
235.3	22095.67
235.372	22060.57
235.444	22033.92
235.516	21973.03
235.588	21929.79
235.66	21897.79
235.732	21851.37
235.804	21863.9
235.876	21834.26
235.948	21801.19
236.02	21756.94
236.092	21731.06
236.164	21692.16
236.236	21632.73
236.308	21583.47
236.38	21554.89
236.452	21500.37
236.524	21458.34
236.596	21422.43
236.668	21388.74
236.74	21348.79
236.812	21297.94
236.884	21250.7
236.956	21204.68
237.028	21148.43
237.1	21103.03
237.172	21071.85
237.244	21048.37
237.316	20967.35
237.388	20919.01
237.46	20860.55
237.532	20835.2
237.604	20778.52
237.675	20743.19
237.747	20712.11
237.819	20658.57
237.891	20605.5
237.963	20545.22
238.035	20491.72
238.107	20406.95
238.178	20371.33
238.25	20316.59
238.322	20311.28
238.394	20253.36
238.466	20213.31
238.538	20180.54
238.609	20144.11
238.681	20084.4
238.753	20034.71
238.825	19988.49
238.897	19945.89
238.968	19927
239.04	19879.63
239.112	19870.52
239.184	19826.76
239.255	19776.65
239.327	19741.03
239.399	19710.77
239.471	19699.06
239.542	19669.47
239.614	19651.35
239.686	19584.32
239.758	19556.75
239.829	19499.46
239.901	19470.83
239.973	19425.24
240.044	19387.51
240.116	19338.02
240.188	19290.26
240.259	19248.24
240.331	19200.15
240.403	19161.79
240.474	19105.46
240.546	19049.02
240.618	18977.27
240.689	18920.98
240.761	18881.23
240.833	18854.92
240.904	18810.73
240.976	18754.97
241.048	18713.96
241.119	18664.81
241.191	18639.31
241.262	18615.32
241.334	18562.21
241.405	18514.31
241.477	18461.4
241.549	18413.35
241.62	18381.45
241.692	18345.21
241.763	18316.2
241.835	18275.24
241.906	18239.29
241.978	18177.99
242.049	18155.29
242.121	18124.64
242.192	18101.8
242.264	18044.45
242.335	17983.59
242.407	17947.49
242.478	17902.77
242.55	17860.31
242.621	17818.19
242.693	17770.34
242.764	17731.45
242.836	17693.96
242.907	17664.7
242.979	17635.02
243.05	17606.29
243.122	17567.93
243.193	17529.81
243.264	17472.47
243.336	17428.71
243.407	17398.78
243.479	17385.53
243.55	17353.81
243.622	17324.08
243.693	17276.75
243.764	17260.27
243.836	17219.45
243.907	17178.63
243.978	17145.86
244.05	17115.69
244.121	17066.39
244.192	17035.54
244.264	16974.82
244.335	16937.27
244.407	16882.67
244.478	16848.4
244.549	16808.83
244.62	16755.34
244.692	16716.49
244.763	16677.69
244.834	16639.33
244.906	16583.66
244.977	16551.18
245.048	16527.23
245.119	16475.51
245.191	16431.8
245.262	16369.19
245.333	16350.34
245.405	16305.57
245.476	16267.15
245.547	16233.42
245.618	16213.27
245.689	16174.18
245.761	16143.14
245.832	16103.72
245.903	16079.67
245.974	16049.25
246.045	16008.04
246.117	15983.51
246.188	15932.51
246.259	15891.01
246.33	15851.78
246.401	15815.05
246.473	15764.15
246.544	15714.41
246.615	15686.98
246.686	15648.76
246.757	15638.54
246.828	15582.29
246.899	15569.04
246.97	15519.68
247.042	15478.47
247.113	15438.17
247.184	15424.92
247.255	15381.63
247.326	15352.04
247.397	15315.88
247.468	15283.59
247.539	15247.44
247.61	15209.5
247.681	15191.91
247.752	15169.49
247.823	15125.1
247.894	15096.66
247.965	15047.63
248.037	15017.6
248.108	14976.87
248.179	14940.38
248.25	14903.17
248.321	14875.55
248.392	14826.19
248.463	14826.29
248.534	14787.53
248.605	14767.09
248.675	14731.86
248.746	14713.59
248.817	14692.38
248.888	14665.82
248.959	14626.38
249.03	14605.08
249.101	14573.41
249.172	14535.86
249.243	14488.52
249.314	14482.97
249.385	14459.45
249.456	14447.49
249.527	14406.09
249.598	14386.56
249.669	14362.36
249.739	14332.62
249.81	14314.11
249.881	14272.12
249.952	14235.63
250.023	14212.44
250.094	14165.2
250.165	14123.6
250.235	14085.09
250.306	14052.6
250.377	14010.61
250.448	13976.57
250.519	13930.73
250.59	13924.37
250.66	13892.31
250.731	13886.86
250.802	13851.19
250.873	13829.98
250.944	13804.53
251.014	13773.43
251.085	13767.65
251.156	13744.17
251.227	13731.83
251.297	13721.8
251.368	13711.44
251.439	13685.89
251.51	13668.73
251.58	13635.75
251.651	13609.1
251.722	13603.5
251.792	13564.36
251.863	13540.84
251.934	13530.76
252.005	13536.93
252.075	13507.86
252.146	13498.94
252.217	13486.12
252.287	13472.82
252.358	13439.94
252.429	13429.43
252.499	13402.19
252.57	13374.28
252.641	13362.37
252.711	13337.16
252.782	13291.85
252.852	13286.06
252.923	13266.73
252.994	13246.29
253.064	13241.81
253.135	13211.3
253.205	13177.31
253.276	13171.81
253.347	13161.55
253.417	13125.63
253.488	13092.23
253.558	13060.75
253.629	13035.44
253.699	13008.78
253.77	12990.51
253.841	12966.26
253.911	12946.31
253.982	12925.29
254.052	12907.11
254.123	12887.83
254.193	12862.33
254.264	12882.48
254.334	12844.45
254.405	12810.85
254.475	12772.72
254.546	12742.11
254.616	12736.18
254.687	12717.18
254.757	12698.91
254.827	12674.33
254.898	12660.11
254.968	12636.54
255.039	12606.6
255.109	12593.2
255.18	12562.21
255.25	12516.56
255.321	12503.54
255.391	12466.18
255.461	12467.73
255.532	12420.53
255.602	12392.53
255.673	12347.17
255.743	12311.64
255.813	12274.19
255.884	12268.74
255.954	12259.82
256.024	12257.7
256.095	12232.01
256.165	12191.33
256.235	12175.03
256.306	12145.1
256.376	12131.65
256.446	12116.71
256.517	12105.04
256.587	12091.98
256.657	12072.36
256.728	12062.63
256.798	12047.01
256.868	12019.49
256.938	11983.87
257.009	11976.35
257.079	11959.77
257.149	11972.25
257.219	11928.77
257.29	11913.93
257.36	11869.49
257.43	11857.72
257.5	11818.49
257.571	11793.33
257.641	11786.53
257.711	11751.59
257.781	11747.11
257.852	11737.08
257.922	11693.03
257.992	11673.8
258.062	11650.23
258.132	11643.29
258.202	11617.79
258.273	11593.26
258.343	11597.5
258.413	11576.48
258.483	11559.81
258.553	11530.26
258.623	11500.86
258.693	11493.73
258.764	11493.05
258.834	11491.51
258.904	11471.36
258.974	11442.74
259.044	11425.68
259.114	11411.12
259.184	11397.43
259.254	11369.48
259.324	11326.54
259.394	11324.13
259.464	11324.56
259.535	11305.82
259.605	11276.42
259.675	11246.88
259.745	11232.51
259.815	11197.81
259.885	11178.06
259.955	11181.57
260.025	11154.83
260.095	11137.48
260.165	11121.58
260.235	11113.58
260.305	11080.42
260.375	11051.17
260.445	11065.77
260.515	11068.04
260.585	11061.87
260.655	11037.82
260.725	11030.3
260.795	11024.91
260.865	11028.28
260.934	10995.75
261.004	10981.73
261.074	10970.93
261.144	10975.85
261.214	10969.48
261.284	10963.85
261.354	10954.5
261.424	10926.45
261.494	10933.68
261.564	10914.4
261.634	10903.7
261.703	10867.85
261.773	10864.82
261.843	10849.64
261.913	10822.99
261.983	10781.69
262.053	10770.75
262.123	10761.36
262.192	10732.3
262.262	10724.98
262.332	10691.1
262.402	10683.68
262.472	10672.99
262.541	10631.89
262.611	10621.05
262.681	10594.83
262.751	10576.96
262.821	10556.53
262.89	10524.39
262.96	10513.07
263.03	10523.43
263.1	10506.66
263.169	10490.08
263.239	10479.15
263.309	10488.3
263.379	10475.53
263.448	10460.84
263.518	10446.24
263.588	10424.85
263.657	10425.96
263.727	10417.77
263.797	10404.95
263.867	10390.35
263.936	10356
264.006	10352.24
264.076	10340.15
264.145	10324.73
264.215	10308.88
264.285	10309.66
264.354	10273.38
264.424	10241.35
264.494	10204.01
264.563	10183.77
264.633	10190.08
264.702	10177.61
264.772	10141.18
264.842	10123.89
264.911	10115.75
264.981	10086.12
265.05	10079.86
265.12	10062.32
265.19	10050.61
265.259	10048.06
265.329	10038.33
265.398	10030.09
265.468	10050.52
265.537	10025.37
265.607	10017.14
265.676	10008.75
265.746	9993
265.815	10001.67
265.885	9995.94
265.955	9974.02
266.024	9962.42
266.094	9928.26
266.163	9930.24
266.232	9931.2
266.302	9916.75
266.371	9906.45
266.441	9894.74
266.51	9884.67
266.58	9871.19
266.649	9842.67
266.719	9840.84
266.788	9823.45
266.858	9830.34
266.927	9789.73
266.996	9785.59
267.066	9773.98
267.135	9746.92
267.205	9744.03
267.274	9734.01
267.343	9738.58
267.413	9725.82
267.482	9724.62
267.552	9729
267.621	9698.37
267.69	9667.4
267.76	9655.89
267.829	9654.21
267.898	9645.78
267.968	9623.34
268.037	9617.41
268.106	9621.99
268.176	9582.11
268.245	9572.67
268.314	9551.48
268.384	9547.48
268.453	9533.85
268.522	9520.08
268.592	9531.2
268.661	9509.39
268.73	9504.04
268.799	9479.91
268.869	9490.89
268.938	9458.19
269.007	9435.27
269.076	9431.42
269.146	9433.63
269.215	9422.94
269.284	9423.52
269.353	9404.5
269.422	9395.98
269.492	9381
269.561	9338.05
269.63	9342.1
269.699	9327.6
269.768	9322.69
269.838	9316.1
269.907	9311.38
269.976	9294.19
270.045	9257.93
270.114	9251.62
270.183	9235.35
270.253	9229.28
270.322	9198.32
270.391	9192.31
270.46	9197.36
270.529	9191.92
270.598	9189.08
270.667	9183.93
270.736	9161.34
270.806	9158.07
270.875	9162.69
270.944	9150.61
271.013	9174.53
271.082	9164.23
271.151	9159.27
271.22	9125.86
271.289	9115.37
271.358	9106.12
271.427	9100.1
271.496	9093.89
271.565	9078.63
271.634	9069.87
271.703	9092.12
271.772	9095.73
271.841	9082.25
271.91	9061.16
271.979	9051.24
272.048	9025.78
272.117	9023.61
272.186	9003.92
272.255	9004.74
272.324	9000.41
272.393	8990.78
272.462	8973.35
272.531	8967.53
272.6	8958.28
272.669	8973.68
272.738	8963.19
272.807	8957.51
272.876	8938.07
272.945	8969.26
273.013	8978.55
273.082	8983.94
273.151	8939.79
273.22	8934.02
273.289	8932
273.358	8942.25
273.427	8935.85
273.496	8944.8
273.564	8941.72
273.633	8944.22
273.702	8924.25
273.771	8907.54
273.84	8907.16
273.909	8899.74
273.977	8897.62
274.046	8885.69
274.115	8886.51
274.184	8873.7
274.253	8868.74
274.322	8879.81
274.39	8842.99
274.459	8822.91
274.528	8793.74
274.597	8787.44
274.665	8783.88
274.734	8784.84
274.803	8772.08
274.872	8757.64
274.94	8736.32
275.009	8790.79
275.078	8771.49
275.147	8768.6
275.215	8762.3
275.284	8766.34
275.353	8765.18
275.421	8741.79
275.49	8760.37
275.559	8743.62
275.627	8736.5
275.696	8724.28
275.765	8725.82
275.833	8720.52
275.902	8719.7
275.971	8734.38
276.039	8744.49
276.108	8745.6
276.177	8746.08
276.245	8735.54
276.314	8735.01
276.383	8743.19
276.451	8680.15
276.52	8689.78
276.588	8699.02
276.657	8704.51
276.725	8693.2
276.794	8692.47
276.863	8706.29
276.931	8686.12
277	8696.42
277.068	8705.42
277.137	8726.5
277.205	8721.88
277.274	8740.02
277.342	8751.43
277.411	8733.53
277.48	8725.59
277.548	8720.39
277.617	8724.67
277.685	8718.46
277.754	8720.25
277.822	8708.02
277.89	8716.06
277.959	8710.91
278.027	8694.74
278.096	8690.94
278.164	8717.41
278.233	8706.49
278.301	8691.95
278.37	8693.16
278.438	8678.19
278.507	8683.53
278.575	8654.6
278.643	8652.29
278.712	8633.14
278.78	8620.29
278.849	8627.51
278.917	8639.97
278.985	8636.55
279.054	8635.64
279.122	8645.41
279.191	8642.57
279.259	8642.47
279.327	8623.85
279.396	8637.13
279.464	8634.63
279.532	8639.68
279.601	8639.92
279.669	8636.51
279.737	8652.34
279.806	8656.43
279.874	8661.92
279.942	8653.01
280.011	8647.14
280.079	8648.64
280.147	8660.04
280.215	8660.57
280.284	8659.46
280.352	8644.35
280.42	8646.37
280.488	8635.54
280.557	8631.79
280.625	8633.33
280.693	8643.63
280.761	8645.02
280.83	8627.89
280.898	8640.16
280.966	8617.11
281.034	8585.34
281.102	8571.24
281.171	8562.87
281.239	8562.92
281.307	8553.05
281.375	8546.94
281.443	8574.08
281.512	8573.17
281.58	8582.99
281.648	8569.46
281.716	8568.6
281.784	8565.04
281.852	8559.89
281.92	8562.15
281.989	8570.57
282.057	8553.1
282.125	8584.35
282.193	8583.48
282.261	8591.57
282.329	8586.46
282.397	8590.75
282.465	8588.97
282.533	8608.36
282.601	8599.12
282.67	8582.08
282.738	8579.82
282.806	8590.45
282.874	8582.51
282.942	8584.34
283.01	8578.52
283.078	8587.56
283.146	8585.06
283.214	8595.6
283.282	8598.54
283.35	8608.02
283.418	8600.85
283.486	8608.64
283.554	8567.49
283.622	8568.5
283.69	8562.19
283.758	8556.56
283.826	8564.26
283.894	8575.81
283.962	8590.11
284.03	8602.76
284.098	8605.84
284.165	8600.07
284.233	8594.15
284.301	8586.16
284.369	8577.5
284.437	8566.38
284.505	8562.34
284.573	8572.35
284.641	8559.07
284.709	8567.63
284.777	8549.44
284.845	8556.47
284.912	8561.57
284.98	8569.08
285.048	8561.23
285.116	8568.31
285.184	8584.28
285.252	8580.92
285.319	8569.37
285.387	8558.92
285.455	8539.48
285.523	8541.74
285.591	8538.85
285.659	8545.64
285.726	8560.08
285.794	8547.18
285.862	8547.14
285.93	8542.18
285.997	8535.35
286.065	8530.29
286.133	8516.67
286.201	8517.97
286.269	8509.74
286.336	8503.77
286.404	8487.61
286.472	8496.75
286.539	8470.09
286.607	8450.51
286.675	8454.17
286.743	8464.32
286.81	8464.85
286.878	8484.72
286.946	8480.01
287.013	8479.81
287.081	8474.81
287.149	8462.73
287.216	8485.63
287.284	8480.87
287.352	8485.1
287.419	8482.31
287.487	8506.04
287.555	8511.77
287.622	8516.1
287.69	8519.08
287.758	8533.66
287.825	8542.71
287.893	8529.86
287.96	8545.11
288.028	8559.74
288.096	8566
288.163	8562.58
288.231	8544.97
288.298	8541.69
288.366	8557.53
288.433	8560.56
288.501	8558.2
288.569	8556.28
288.636	8553.29
288.704	8566.48
288.771	8578.12
288.839	8573.07
288.906	8562.29
288.974	8572.74
289.041	8564.94
289.109	8557.63
289.176	8567.69
289.244	8567.88
289.311	8584
289.379	8594.63
289.446	8595.45
289.514	8593
289.581	8592.95
289.649	8597.81
289.716	8599.59
289.783	8589
289.851	8606.47
289.918	8601.75
289.986	8609.26
290.053	8611.96
290.121	8607.05
290.188	8606.23
290.255	8636.26
290.323	8629.38
290.39	8623.6
290.458	8636.84
290.525	8644.83
290.592	8634.86
290.66	8645.4
290.727	8641.6
290.794	8651.52
290.862	8652.86
290.929	8657
290.996	8663.07
291.064	8675.82
291.131	8687.27
291.198	8705.23
291.266	8704.07
291.333	8712.64
291.4	8721.4
291.468	8739.4
291.535	8740.65
291.602	8745.61
291.669	8736.18
291.737	8745.17
291.804	8745.85
291.871	8760.58
291.938	8771.55
292.006	8800.15
292.073	8809.97
292.14	8825.56
292.207	8823.88
292.275	8825.42
292.342	8832.64
292.409	8853.34
292.476	8880.54
292.543	8874.18
292.611	8877.7
292.678	8896.23
292.745	8920.63
292.812	8930.5
292.879	8927.42
292.946	8933
293.014	8944.99
293.081	8955.2
293.148	8965.54
293.215	8987.79
293.282	8980.18
293.349	8997.13
293.416	8973.68
293.484	8984.08
293.551	8988.94
293.618	9004.97
293.685	9030.77
293.752	9024.37
293.819	9024.57
293.886	9009.79
293.953	9019.99
294.02	9027.74
294.087	9035.73
294.154	9023.22
294.221	9038.58
294.288	9041.03
294.356	9062.17
294.423	9069.53
294.49	9056.92
294.557	9072.76
294.624	9062.17
294.691	9084.31
294.758	9081.18
294.825	9092.3
294.892	9081.62
294.959	9087.97
295.026	9094.9
295.093	9088.21
295.16	9092.83
295.226	9097.41
295.293	9123.74
295.36	9127.69
295.427	9141.7
295.494	9155.86
295.561	9165.87
295.628	9183.36
295.695	9199.15
295.762	9196.36
295.829	9208.78
295.896	9231.26
295.963	9244.12
296.03	9252.49
296.096	9257.74
296.163	9272.33
296.23	9297.52
296.297	9320.48
296.364	9320.19
296.431	9324.62
296.498	9323.32
296.564	9352.31
296.631	9353.99
296.698	9341.52
296.765	9363.33
296.832	9348.12
296.899	9337.09
296.965	9355.34
297.032	9339.06
297.099	9348.16
297.166	9361.07
297.233	9358.13
297.299	9353.46
297.366	9349.99
297.433	9356.49
297.5	9367.28
297.566	9363.91
297.633	9352.64
297.7	9355.14
297.767	9354.04
297.833	9362.22
297.9	9369.25
297.967	9345.66
298.033	9359.58
298.1	9390.64
298.167	9388.13
298.234	9399.3
298.3	9405.42
298.367	9404.51
298.434	9412.93
298.5	9409.42
298.567	9407.3
298.634	9404.55
298.7	9420.35
298.767	9424.3
298.834	9435.08
298.9	9427.96
298.967	9423.04
299.033	9437.59
299.1	9450.64
299.167	9464.07
299.233	9456.8
299.3	9469.66
299.366	9496.62
299.433	9509.58
299.5	9484.92
299.566	9485.69
299.633	9500.52
299.699	9514.63
299.766	9509.53
299.832	9510.64
299.899	9516.13
299.965	9530.48
300.032	9526.77
300.099	9530.43
300.165	9538.42
300.232	9540.54
300.298	9546.27
300.365	9557.83
300.431	9556.72
300.498	9551.38
300.564	9561.83
300.631	9581.24
300.697	9598.33
300.763	9594.1
300.83	9593.57
300.896	9607.39
300.963	9615.38
301.029	9620.05
301.096	9627.66
301.162	9648.71
301.229	9646.49
301.295	9640.81
301.361	9644.57
301.428	9658.73
301.494	9650.06
301.561	9653
301.627	9661.23
301.693	9656.13
301.76	9664.51
301.826	9661.13
301.892	9674.43
301.959	9687.38
302.025	9679.15
302.092	9674.14
302.158	9681.94
302.224	9684.49
302.291	9674.57
302.357	9672.98
302.423	9667.35
302.49	9655.69
302.556	9661.52
302.622	9664.03
302.688	9673.37
302.755	9685.75
302.821	9687.96
302.887	9704.19
302.954	9701.74
303.02	9700.82
303.086	9712.23
303.152	9707.85
303.219	9703.66
303.285	9707.13
303.351	9708.72
303.417	9714.26
303.483	9701.59
303.55	9691.05
303.616	9689.6
303.682	9691.14
303.748	9692.44
303.815	9709.68
303.881	9722.01
303.947	9710.26
304.013	9710.79
304.079	9699.57
304.145	9680.64
304.212	9681.03
304.278	9673.13
304.344	9666.19
304.41	9659.74
304.476	9655.36
304.542	9650.64
304.608	9660.51
304.674	9644.62
304.741	9637.49
304.807	9640.52
304.873	9652.23
304.939	9672.12
305.005	9652.27
305.071	9652.13
305.137	9649
305.203	9620.63
305.269	9613.16
305.335	9627.61
305.401	9625.64
305.467	9629.01
305.533	9636.28
305.599	9642.45
305.666	9650.44
305.732	9652.22
305.798	9661.52
305.864	9685.7
305.93	9689.07
305.996	9687.96
306.062	9694.03
306.128	9689.41
306.194	9673.18
306.259	9669.71
306.325	9662.68
306.391	9677.37
306.457	9684.11
306.523	9688.35
306.589	9714.07
306.655	9713.01
306.721	9695.62
306.787	9689.36
306.853	9707.52
306.919	9688.2
306.985	9679.68
307.051	9673.71
307.117	9666.63
307.183	9665.52
307.248	9635.66
307.314	9645.1
307.38	9649.63
307.446	9651.65
307.512	9640.72
307.578	9647.17
307.644	9638.02
307.709	9638.21
307.775	9633.97
307.841	9633.83
307.907	9629.88
307.973	9611.14
308.039	9609.46
308.104	9616.49
308.17	9617.69
308.236	9605.99
308.302	9612.44
308.368	9600.64
308.433	9602.04
308.499	9600.4
308.565	9583.4
308.631	9587.88
308.696	9557.3
308.762	9542.13
308.828	9540.2
308.894	9524.75
308.959	9501.35
309.025	9496.29
309.091	9492.68
309.156	9478.47
309.222	9472.84
309.288	9462.67
309.354	9439.13
309.419	9431.66
309.485	9409.51
309.551	9408.93
309.616	9391.74
309.682	9394.29
309.748	9396.22
309.813	9384.86
309.879	9371.52
309.945	9363.67
310.01	9356.49
310.076	9367.71
310.141	9363.81
310.207	9346.86
310.273	9351.68
310.338	9357.74
310.404	9348.83
310.469	9335.16
310.535	9332.17
310.601	9313.39
310.666	9313.68
310.732	9326.3
310.797	9313.68
310.863	9308.14
310.928	9302.46
310.994	9306.51
311.059	9294.81
311.125	9286.86
311.191	9298.47
311.256	9292.11
311.322	9298.03
311.387	9275.4
311.453	9528.72
311.518	9508.11
311.584	9504.79
311.649	9509.89
311.715	9502.96
311.78	9497.18
311.846	9490.25
311.911	9492.8
311.976	9495.49
312.042	9483.99
312.107	9470.75
312.173	9465.93
312.238	9463.67
312.304	9457.79
312.369	9448.84
312.434	9437.91
312.5	9431.22
312.565	9402.52
312.631	9406.32
312.696	9400.93
312.761	9409.16
312.827	9142.95
312.892	9176.51
312.958	9174.2
313.023	9170.05
313.088	9167.31
313.154	9156.67
313.219	9141.27
313.284	9135.25
313.35	9132.74
313.415	9126.63
313.48	9120.23
313.546	9123.4
313.611	9135.1
313.676	9126.15
313.741	9110.79
313.807	9125.72
313.872	9130.97
313.937	9139.44
314.003	9155.23
314.068	9149.5
314.133	9156.58
314.198	9148.97
314.264	9126.05
314.329	9116.09
314.394	9112.67
314.459	9110.69
314.525	9129.08
314.59	9126
314.655	9108.38
314.72	9114.93
314.785	9116.33
314.851	9110.07
314.916	9088.7
314.981	9067.37
315.046	9055.38
315.111	9047.97
315.176	9031.79
315.242	9038.29
315.307	9035.4
315.372	9013.11
315.437	9002.95
315.502	8992.65
315.567	9003.58
315.632	8988.46
315.698	8992.89
315.763	8990.24
315.828	8981.58
315.893	8978.74
315.958	8982.35
316.023	8970.7
316.088	8948.94
316.153	8925.16
316.218	8921.65
316.283	8909.57
316.348	8892.63
316.413	8896.72
316.479	8883.53
316.544	8850.95
316.609	8812.25
316.674	8772.44
316.739	8733.08
316.804	8709.01
316.869	8672.24
316.934	8631.33
316.999	8597.89
317.064	8545.14
317.129	8495.72
317.194	8456.31
317.259	8402.22
317.324	8351.21
317.389	8317.25
317.454	8276.45
317.518	8240.85
317.583	8214.43
317.648	8189.46
317.713	8158.53
317.778	8095.26
317.843	8066.83
317.908	8023.88
317.973	7983.28
318.038	7957.21
318.103	7925.96
318.168	7890.27
318.233	7858.38
318.297	7806.63
318.362	7773.26
318.427	7732.2
318.492	7708.3
318.557	7663.3
318.622	7641.66
318.687	7618.53
318.751	7580.46
318.816	7549.45
318.881	7512.77
318.946	7452.63
319.011	7406.43
319.075	7366.63
319.14	7336.06
319.205	7294.2
319.27	7261.52
319.335	7217.16
319.399	7175.06
319.464	7146.52
319.529	7089.78
319.594	7046.81
319.658	7017.46
319.723	6977.82
319.788	6953.42
319.853	6898.69
319.917	6870.26
319.982	6811.65
320.047	6771.68
320.112	6743.49
320.176	6692.53
320.241	6659.63
320.306	6637.06
320.37	6595.67
320.435	6560.42
320.5	6529.78
320.564	6484.46
320.629	6441.64
320.694	6412.65
320.758	6372.32
320.823	6325.57
320.888	6300.14
320.952	6253.68
321.017	6209.67
321.082	6171.14
321.146	6134.04
321.211	6099.87
321.275	6057.27
321.34	6016.11
321.405	5970.2
321.469	5918.87
321.534	5875.99
321.598	5825.54
321.663	5787.97
321.727	5754.93
321.792	5706.64
321.857	5659.16
321.921	5618.69
321.986	5576.32
322.05	5513.2
322.115	5474.12
322.179	5432.86
322.244	5375.78
322.308	5342.14
322.373	5297.05
322.437	5255.02
322.502	5228.8
322.566	5181.79
322.631	5145.82
322.695	5103.14
322.76	5059.8
322.824	5025.98
322.889	4984.18
322.953	4940.52
323.018	4875.63
323.082	4814.21
323.146	4761.37
323.211	4710.2
323.275	4670.9
323.34	4628.84
323.404	4598.46
323.468	4552.94
323.533	4506.15
323.597	4460.96
323.662	4409.05
323.726	4377.53
323.79	4329.64
323.855	4260.21
323.919	4212.58
323.983	4169.73
324.048	4106.84
324.112	4233.81
324.177	4101.93
324.241	3889.95
324.305	3682.46
324.37	3478.47
324.434	3280.55
324.498	3236.7
324.562	3185.05
324.627	3119.75
324.691	3061.76
324.755	2994.33
324.82	2912.89
324.884	2834.95
324.948	2762.76
325.012	2664.42
325.077	2532.23
