Data from 20250704_urea_2M_MAYP1162681_11-59-38-532.txt Node
Date: Fri Jul 04 11:59:38 BST 2025
User: adleo
Spectrometer: MAYP116268
Trigger mode: 0
Integration Time (sec): 1.000000E0
Scans to average: 1
Electric dark correction enabled: true
Nonlinearity correction enabled: true
Boxcar width: 10
XAxis mode: Wavelengths
Number of Pixels in Spectrum: 2068
>>>>>Begin Spectral Data<<<<<
179.565	1270.63
179.642	1332.08
179.718	1380.77
179.795	1424.36
179.871	1458.87
179.948	1479.65
180.024	1500.57
180.101	1525.54
180.177	1538.9
180.254	1565.9
180.33	1587
180.407	1644.65
180.483	1745.51
180.56	1841.15
180.636	1929.23
180.712	1915.29
180.789	1926.13
180.865	1937.63
180.942	1945.38
181.018	1957.93
181.095	1971.68
181.171	1975.34
181.248	1975.25
181.324	1990.09
181.4	1997.6
181.477	2006.45
181.553	2020.66
181.63	2042.59
181.706	2059.76
181.782	2069.98
181.859	2065.08
181.935	2071.12
182.011	2067.89
182.088	2086.39
182.164	2107.57
182.24	2119.55
182.317	2130.63
182.393	2129.87
182.469	2143.52
182.546	2158.99
182.622	2166.07
182.698	2161.13
182.775	2174.45
182.851	2189.48
182.927	2179.25
183.003	2173.07
183.08	2170.17
183.156	2175.45
183.232	2171.12
183.308	2160.27
183.385	2167.36
183.461	2188.34
183.537	2191.81
183.613	2204.56
183.69	2194
183.766	2180.72
183.842	2190.14
183.918	2198.61
183.995	2216.16
184.071	2220.73
184.147	2212.64
184.223	2199.85
184.299	2215.41
184.375	2204.9
184.452	2212.56
184.528	2265.29
184.604	2278.56
184.68	2291.31
184.756	2302.54
184.832	2308.21
184.908	2310.44
184.985	2311.77
185.061	2294.22
185.137	2301.69
185.213	2292.22
185.289	2292.17
185.365	2283.66
185.441	2283.32
185.517	2293.18
185.593	2288.37
185.669	2286.99
185.745	2297.75
185.822	2312.59
185.898	2300.26
185.974	2307.16
186.05	2298.87
186.126	2263.56
186.202	2255
186.278	2254
186.354	2243.48
186.43	2250.34
186.506	2250.14
186.582	2251.19
186.658	2256.38
186.734	2236.21
186.81	2239.06
186.886	2242.72
186.962	2258.8
187.038	2254.9
187.114	2247.76
187.19	2255.33
187.266	2241.01
187.341	2240.63
187.417	2233.78
187.493	2235.21
187.569	2239.11
187.645	2230.83
187.721	2219.98
187.797	2226.45
187.873	2224.88
187.949	2220.45
188.025	2211.55
188.101	2212.79
188.176	2214.07
188.252	2210.5
188.328	2222.06
188.404	2221.59
188.48	2216.97
188.556	2209.74
188.632	2210.98
188.707	2212.55
188.783	2207.83
188.859	2204.79
188.935	2195.32
189.011	2205.12
189.086	2201.22
189.162	2190.28
189.238	2190.66
189.314	2187.61
189.39	2183.24
189.465	2178.57
189.541	2193.85
189.617	2180.62
189.693	2178.58
189.768	2182.48
189.844	2211.23
189.92	2197.63
189.996	2208.58
190.071	2218.09
190.147	2214.67
190.223	2222.52
190.298	2215.52
190.374	2203.25
190.45	2217.09
190.526	2227.8
190.601	2223.7
190.677	2221.9
190.753	2251.74
190.828	2253.31
190.904	2268.73
190.98	2285.58
191.055	2296.96
191.131	2288.91
191.207	2310.8
191.282	2319.41
191.358	2311.61
191.433	2295.61
191.509	2311.87
191.585	2308.49
191.66	2310.92
191.736	2321.68
191.811	2315.06
191.887	2329.91
191.963	2348.38
192.038	2353.18
192.114	2350.61
192.189	2352.8
192.265	2351.42
192.34	2332.04
192.416	2332.09
192.491	2327.28
192.567	2326.14
192.642	2326.95
192.718	2325.86
192.793	2311.34
192.869	2305.82
192.944	2305.63
193.02	2311.91
193.095	2314.91
193.171	2320.67
193.246	2320.34
193.322	2315.96
193.397	2312.01
193.473	2296.87
193.548	2283.54
193.624	2288.5
193.699	2288.12
193.775	2304.83
193.85	2307.01
193.925	2313.92
194.001	2312.01
194.076	2304.49
194.152	2294.74
194.227	2286.36
194.302	2278.84
194.378	2284.17
194.453	2284.03
194.529	2296.35
194.604	2282.31
194.679	2277.65
194.755	2256.48
194.83	2270.76
194.905	2267.38
194.981	2281.14
195.056	2275.71
195.131	2282.28
195.207	2282.52
195.282	2272.38
195.357	2254.01
195.433	2269.38
195.508	2257.29
195.583	2266.04
195.659	2279.61
195.734	2286.8
195.809	2286.46
195.884	2295.31
195.96	2295.03
196.035	2307.31
196.11	2307.02
196.185	2317.92
196.261	2322.25
196.336	2352.28
196.411	2334.47
196.486	2344.23
196.561	2335.66
196.637	2345.75
196.712	2363.46
196.787	2362.37
196.862	2378.45
196.937	2387.31
197.013	2392.5
197.088	2402.54
197.163	2427.92
197.238	2447.5
197.313	2447.12
197.388	2462.79
197.464	2491.84
197.539	2505.88
197.614	2502.17
197.689	2514.17
197.764	2530.46
197.839	2551.03
197.914	2546.51
197.989	2574.27
198.065	2585.37
198.14	2637.17
198.215	2665.03
198.29	2675.71
198.365	2692.9
198.44	2705
198.515	2735.74
198.59	2747.64
198.665	2777.71
198.74	2781.52
198.815	2782.71
198.89	2808.54
198.965	2839.81
199.04	2836.99
199.115	2853.77
199.19	2897.8
199.265	2900.37
199.34	2912.43
199.415	2946.48
199.49	2969.93
199.565	2975.45
199.64	2999.05
199.715	2994.37
199.79	3001.57
199.865	3004.1
199.94	3004.34
200.015	3034.14
200.09	3040.15
200.165	3051.02
200.24	3058.17
200.315	3103.66
200.39	3119.25
200.464	3123.97
200.539	3125.31
200.614	3139.9
200.689	3160.5
200.764	3166.99
200.839	3185.44
200.914	3189.3
200.989	3177.04
201.063	3190.44
201.138	3175.95
201.213	3178.72
201.288	3163.98
201.363	3166.79
201.438	3168.03
201.512	3184.29
201.587	3168.65
201.662	3170.22
201.737	3182.34
201.812	3188.25
201.886	3150.73
201.961	3166.05
202.036	3156.09
202.111	3152.08
202.186	3121.86
202.26	3103.88
202.335	3080.27
202.41	3074.79
202.485	3058.29
202.559	3040.32
202.634	3014.48
202.709	3024.2
202.784	3005.17
202.858	3004.6
202.933	2986.91
203.008	2983.86
203.082	2960.27
203.157	2957.31
203.232	2914.76
203.306	2895.54
203.381	2861.03
203.456	2837.58
203.53	2808.62
203.605	2787.8
203.68	2765.39
203.754	2760.3
203.829	2746.38
203.904	2725.9
203.978	2711.93
204.053	2714.89
204.127	2701.64
204.202	2698.31
204.277	2680.59
204.351	2672.44
204.426	2662.62
204.5	2650.38
204.575	2614.38
204.65	2624.1
204.724	2617.28
204.799	2625.13
204.873	2618.8
204.948	2620.75
205.022	2608.42
205.097	2598.65
205.171	2614.08
205.246	2621.04
205.32	2621.75
205.395	2623.51
205.469	2615.56
205.544	2621.28
205.618	2600.66
205.693	2609.47
205.767	2597.51
205.842	2620.34
205.916	2613.24
205.991	2601.29
206.065	2609.24
206.14	2625.33
206.214	2621.8
206.289	2618.13
206.363	2632.9
206.438	2632.28
206.512	2638.09
206.586	2658.71
206.661	2668.77
206.735	2643.3
206.81	2644.82
206.884	2659.06
206.958	2645.39
207.033	2662.73
207.107	2671.73
207.181	2708.38
207.256	2702.61
207.33	2720.19
207.405	2732.11
207.479	2753.88
207.553	2760.55
207.628	2744.93
207.702	2757.37
207.776	2753.22
207.851	2753.03
207.925	2766.62
207.999	2766.9
208.073	2764.81
208.148	2770.72
208.222	2755.85
208.296	2790.28
208.371	2805.92
208.445	2816.84
208.519	2847.47
208.593	2861.96
208.668	2855.96
208.742	2855.15
208.816	2858.29
208.89	2872.73
208.965	2869.78
209.039	2876.21
209.113	2898.57
209.187	2918.95
209.261	2915.61
209.336	2933.78
209.41	2954.89
209.484	2951.56
209.558	2972.72
209.632	2990.98
209.707	2999.04
209.781	3025.92
209.855	3040.85
209.929	3058.13
210.003	3065.42
210.077	3066.19
210.151	3110.72
210.226	3149.99
210.3	3180.82
210.374	3210
210.448	3216.49
210.522	3227.7
210.596	3241.06
210.67	3250.45
210.744	3300.12
210.818	3333.79
210.892	3360.42
210.966	3353.41
211.041	3376.74
211.115	3376.26
211.189	3399.21
211.263	3421.02
211.337	3429.61
211.411	3447.89
211.485	3446.03
211.559	3463.35
211.633	3468.83
211.707	3443.9
211.781	3457.42
211.855	3431.07
211.929	3427.83
212.003	3418.34
212.077	3440.4
212.151	3462.55
212.225	3485.61
212.299	3487.28
212.373	3491.15
212.447	3497.65
212.52	3548.35
212.594	3570.18
212.668	3608.81
212.742	3615.25
212.816	3633.64
212.89	3655.08
212.964	3683.47
213.038	3718.87
213.112	3764.32
213.186	3816.81
213.26	3834.19
213.333	3820.24
213.407	3864.51
213.481	3911.17
213.555	3972.64
213.629	4008.69
213.703	4044.6
213.777	4096.4
213.85	4136.57
213.924	4228.75
213.998	4295.63
214.072	4354.94
214.146	4404.55
214.219	4466.81
214.293	4538.33
214.367	4615.25
214.441	4707.45
214.515	4776.6
214.588	4835.88
214.662	4886.4
214.736	4951.2
214.81	5051.49
214.883	5162.89
214.957	5254.67
215.031	5345.2
215.105	5423.57
215.178	5517.06
215.252	5618.65
215.326	5703.1
215.4	5790.07
215.473	5856.53
215.547	5950.44
215.621	6055.14
215.694	6183.39
215.768	6285.78
215.842	6399.73
215.915	6510.62
215.989	6607.4
216.063	6731.24
216.136	6866.85
216.21	7004.62
216.284	7154.98
216.357	7295.65
216.431	7431.53
216.504	7576.38
216.578	7740.88
216.652	7895.87
216.725	8043.63
216.799	8200.47
216.873	8352.34
216.946	8515.22
217.02	8668.56
217.093	8819.82
217.167	8949.59
217.24	9082.02
217.314	9231
217.387	9381.01
217.461	9527.34
217.535	9692.56
217.608	9830.78
217.682	9985.73
217.755	10144.39
217.829	10283.03
217.902	10434.74
217.976	10580.81
218.049	10717.16
218.123	10850.44
218.196	11012.39
218.27	11147.99
218.343	11276.48
218.417	11425.68
218.49	11573.97
218.563	11732.73
218.637	11877.56
218.71	12043.03
218.784	12199.43
218.857	12351.75
218.931	12491.09
219.004	12632.71
219.077	12781.85
219.151	12923.09
219.224	13053
219.298	13190.63
219.371	13331.43
219.444	13444.09
219.518	13589.14
219.591	13732.74
219.665	13887.91
219.738	14010.45
219.811	14127.88
219.885	14265.7
219.958	14395.52
220.031	14521.04
220.105	14636.97
220.178	14763.75
220.251	14877.07
220.325	14999.6
220.398	15117.17
220.471	15237.97
220.544	15363.2
220.618	15461.19
220.691	15585.79
220.764	15697.52
220.838	15807.13
220.911	15913.41
220.984	16040.03
221.057	16149.92
221.131	16251.28
221.204	16316.54
221.277	16432.02
221.35	16561.77
221.424	16653.34
221.497	16746.55
221.57	16841.98
221.643	16937.26
221.716	17032.69
221.79	17107.05
221.863	17190.77
221.936	17269.52
222.009	17360.26
222.082	17443.35
222.155	17521.52
222.229	17605.13
222.302	17684.12
222.375	17748.6
222.448	17825.71
222.521	17892.17
222.594	17942.33
222.667	17993.71
222.74	18080.02
222.814	18132.06
222.887	18192.35
222.96	18268.49
223.033	18335.09
223.106	18376.05
223.179	18444.53
223.252	18495.51
223.325	18542.79
223.398	18585.92
223.471	18639.07
223.544	18684.13
223.617	18738.15
223.69	18786.39
223.763	18817.95
223.837	18857.13
223.91	18919.2
223.983	18950.52
224.056	18986.38
224.129	19041.46
224.202	19094.9
224.275	19124.88
224.348	19157.07
224.42	19177.11
224.493	19186.37
224.566	19206.03
224.639	19259.61
224.712	19271.37
224.785	19290.94
224.858	19329.34
224.931	19345.05
225.004	19364.52
225.077	19381.2
225.15	19365.25
225.223	19388.81
225.296	19428.95
225.369	19434.35
225.442	19433.82
225.514	19450.98
225.587	19479.02
225.66	19496.61
225.733	19519.74
225.806	19534.3
225.879	19552.95
225.952	19554.2
226.025	19581.43
226.097	19612.65
226.17	19617.28
226.243	19610.29
226.316	19626.05
226.389	19637.28
226.461	19663.83
226.534	19670.72
226.607	19681.08
226.68	19724.55
226.753	19730.14
226.825	19709.42
226.898	19739.64
226.971	19742.62
227.044	19755.92
227.117	19753.42
227.189	19766.77
227.262	19769.75
227.335	19777.32
227.407	19767.97
227.48	19783.39
227.553	19783.58
227.626	19779.54
227.698	19781.99
227.771	19795.39
227.844	19781.32
227.916	19788.6
227.989	19777.56
228.062	19782.04
228.134	19811.05
228.207	19804.07
228.28	19797.51
228.352	19813.08
228.425	19804.4
228.498	19820.88
228.57	19804.89
228.643	19821.22
228.716	19807.54
228.788	19811.44
228.861	19806.81
228.934	19824.88
229.006	19824.02
229.079	19823.68
229.151	19819.2
229.224	19803.29
229.296	19802.67
229.369	19838.67
229.442	19837.17
229.514	19829.17
229.587	19846.62
229.659	19819.82
229.732	19820.69
229.804	19830.52
229.877	19846.86
229.949	19864.98
230.022	19880.64
230.094	19884.5
230.167	19885.51
230.239	19869.94
230.312	19857.12
230.384	19877.56
230.457	19870.43
230.529	19870.91
230.602	19870.14
230.674	19865.22
230.747	19880.88
230.819	19892.26
230.892	19837.27
230.964	19846.86
231.037	19841.99
231.109	19817.32
231.181	19817.75
231.254	19809.32
231.326	19795.06
231.399	19787.44
231.471	19756.79
231.544	19714.91
231.616	19712.75
231.688	19685.86
231.761	19669.57
231.833	19661.9
231.905	19620.41
231.978	19610.1
232.05	19590.15
232.122	19575.93
232.195	19556.32
232.267	19548.42
232.339	19524.32
232.412	19541.77
232.484	19517.96
232.556	19505.09
232.629	19520.51
232.701	19517.57
232.773	19497.91
232.846	19480.76
232.918	19453.19
232.99	19442.59
233.062	19440.23
233.135	19430.93
233.207	19406.06
233.279	19404.04
233.351	19387.85
233.424	19370.64
233.496	19339.08
233.568	19350.6
233.64	19319.56
233.713	19303.42
233.785	19284.24
233.857	19273.83
233.929	19236.68
234.001	19231.47
234.074	19228.68
234.146	19175.33
234.218	19151.91
234.29	19124.97
234.362	19097.36
234.434	19068.49
234.507	19043.15
234.579	19006.38
234.651	18973.7
234.723	18968.31
234.795	18957.51
234.867	18936.74
234.939	18934.09
235.012	18916.02
235.084	18884.31
235.156	18870.96
235.228	18843.06
235.3	18812.22
235.372	18795.88
235.444	18794.2
235.516	18751.36
235.588	18733.82
235.66	18725.67
235.732	18691.31
235.804	18732.42
235.876	18733.57
235.948	18729.38
236.02	18701.53
236.092	18685
236.164	18671.75
236.236	18643.46
236.308	18608.28
236.38	18584.52
236.452	18544.38
236.524	18531.51
236.596	18528.96
236.668	18513.92
236.74	18497.78
236.812	18472.58
236.884	18456.29
236.956	18431.76
237.028	18397.21
237.1	18360.39
237.172	18345.4
237.244	18342.03
237.316	18278.71
237.388	18241.07
237.46	18207.48
237.532	18202.23
237.604	18169.65
237.675	18154.14
237.747	18146.62
237.819	18114.86
237.891	18091.73
237.963	18065.9
238.035	18028.98
238.107	17962
238.178	17950.58
238.25	17914.77
238.322	17921.47
238.394	17872.65
238.466	17843.3
238.538	17835.54
238.609	17820.03
238.681	17774.48
238.753	17741.52
238.825	17715.16
238.897	17684.8
238.968	17673.14
239.04	17634.15
239.112	17637.96
239.184	17602.1
239.255	17561.04
239.327	17543.93
239.399	17513.81
239.471	17499.21
239.542	17482.78
239.614	17468.13
239.686	17419.21
239.758	17410.73
239.829	17362.83
239.901	17347.07
239.973	17324.71
240.044	17299.31
240.116	17264.51
240.188	17241.23
240.259	17205.19
240.331	17173.52
240.403	17159.45
240.474	17111.16
240.546	17081.57
240.618	17040.22
240.689	17002.19
240.761	16971.98
240.833	16966.63
240.904	16932.7
240.976	16897.61
241.048	16868.79
241.119	16862.28
241.191	16840.6
241.262	16831.34
241.334	16794.47
241.405	16760.5
241.477	16727.14
241.549	16694.61
241.62	16675.38
241.692	16655.62
241.763	16642.51
241.835	16601.74
241.906	16574.12
241.978	16525.49
242.049	16504
242.121	16480.33
242.192	16473.73
242.264	16437.34
242.335	16380.71
242.407	16373.86
242.478	16344.13
242.55	16315.4
242.621	16269.56
242.693	16226.72
242.764	16181.89
242.836	16153.51
242.907	16134.95
242.979	16108.05
243.05	16082.32
243.122	16056
243.193	16023.8
243.264	15968.04
243.336	15954.35
243.407	15938.4
243.479	15940.03
243.55	15921.72
243.622	15890.34
243.693	15850.72
243.764	15838.57
243.836	15800.74
243.907	15756.44
243.978	15730.56
244.05	15712.92
244.121	15671.66
244.192	15669.29
244.264	15620.85
244.335	15597.76
244.407	15543.63
244.478	15519.78
244.549	15488.35
244.62	15442.89
244.692	15417.11
244.763	15400.77
244.834	15360.66
244.906	15318.92
244.977	15293.13
245.048	15278.67
245.119	15244.3
245.191	15209.36
245.262	15163.23
245.333	15160.53
245.405	15136.52
245.476	15117.39
245.547	15088.71
245.618	15076.08
245.689	15049.47
245.761	15041.18
245.832	15009.27
245.903	15002.37
245.974	14977.98
246.045	14949.59
246.117	14936.96
246.188	14898.16
246.259	14864.08
246.33	14834.67
246.401	14805.46
246.473	14755.38
246.544	14716.82
246.615	14698.06
246.686	14672.27
246.757	14652.51
246.828	14610.14
246.899	14603.15
246.97	14554.32
247.042	14518.36
247.113	14494.64
247.184	14475.41
247.255	14430.43
247.326	14409.99
247.397	14378.85
247.468	14346.41
247.539	14318.79
247.61	14282.87
247.681	14260.94
247.752	14246.72
247.823	14216.93
247.894	14190.99
247.965	14156.91
248.037	14123.46
248.108	14089.33
248.179	14060.79
248.25	14031.58
248.321	14018.42
248.392	13972.23
248.463	13971.95
248.534	13948.66
248.605	13929.67
248.675	13898.82
248.746	13884.31
248.817	13864.78
248.888	13844.01
248.959	13797.73
249.03	13778.78
249.101	13752.32
249.172	13721.61
249.243	13666.41
249.314	13655.28
249.385	13633.34
249.456	13621.49
249.527	13596.8
249.598	13572.22
249.669	13544.98
249.739	13533.8
249.81	13505.6
249.881	13468.86
249.952	13450.06
250.023	13423.36
250.094	13378.86
250.165	13340.25
250.235	13312.77
250.306	13284.14
250.377	13250.2
250.448	13244.12
250.519	13201.22
250.59	13198.23
250.66	13173.69
250.731	13184.11
250.802	13160.49
250.873	13143.42
250.944	13126.4
251.014	13094.88
251.085	13098.64
251.156	13088.85
251.227	13077.81
251.297	13069.81
251.368	13066.97
251.439	13048.12
251.51	13036.5
251.58	13005.89
251.651	12982.85
251.722	12974.94
251.792	12940.28
251.863	12917.82
251.934	12907.5
252.005	12912.08
252.075	12881.23
252.146	12872.84
252.217	12856.21
252.287	12839.87
252.358	12815.86
252.429	12802.17
252.499	12776.72
252.57	12758.59
252.641	12745.77
252.711	12726.73
252.782	12686.04
252.852	12683.49
252.923	12658.81
252.994	12643.53
253.064	12643.77
253.135	12618.51
253.205	12598.65
253.276	12598.02
253.347	12601.97
253.417	12574.79
253.488	12549.86
253.558	12530.2
253.629	12507.16
253.699	12492.98
253.77	12481.08
253.841	12454.18
253.911	12449.7
253.982	12437.98
254.052	12423.81
254.123	12402.07
254.193	12379.13
254.264	12400.82
254.334	12373.34
254.405	12345.48
254.475	12309.91
254.546	12275.25
254.616	12267.34
254.687	12243.68
254.757	12227.09
254.827	12196.77
254.898	12182.99
254.968	12162.26
255.039	12131.41
255.109	12125.44
255.18	12093.91
255.25	12052.84
255.321	12043.35
255.391	12003.63
255.461	12002.62
255.532	11949.98
255.602	11928.92
255.673	11892.53
255.743	11865.87
255.813	11820.9
255.884	11809.14
255.954	11801.81
256.024	11806.58
256.095	11791.83
256.165	11766.14
256.235	11747.88
256.306	11730.33
256.376	11716.93
256.446	11709.61
256.517	11701.22
256.587	11690.18
256.657	11671.72
256.728	11658.8
256.798	11642.51
256.868	11621.6
256.938	11597.79
257.009	11594.12
257.079	11583.81
257.149	11595.42
257.219	11554.36
257.29	11540.96
257.36	11506.41
257.43	11493.34
257.5	11457.58
257.571	11431.94
257.641	11423.7
257.711	11402.54
257.781	11389.05
257.852	11378.16
257.922	11343.31
257.992	11328.37
258.062	11306.73
258.132	11299.93
258.202	11284.08
258.273	11265.28
258.343	11268.66
258.413	11241.48
258.483	11229.04
258.553	11200.32
258.623	11170
258.693	11158.2
258.764	11161.81
258.834	11160.08
258.904	11148.7
258.974	11125.28
259.044	11109.52
259.114	11092.27
259.184	11075.45
259.254	11050.73
259.324	11013.87
259.394	11001.14
259.464	10999.07
259.535	10978.11
259.605	10953.48
259.675	10925.92
259.745	10917.01
259.815	10884.57
259.885	10864.77
259.955	10874.79
260.025	10851.18
260.095	10835.91
260.165	10822.95
260.235	10819.57
260.305	10794.61
260.375	10761.7
260.445	10770.71
260.515	10769.94
260.585	10767.1
260.655	10744.74
260.725	10744.4
260.795	10742.81
260.865	10747.48
260.934	10721.56
261.004	10718.91
261.074	10702.09
261.144	10704.07
261.214	10698.82
261.284	10686.58
261.354	10680.31
261.424	10654.92
261.494	10660.02
261.564	10640.9
261.634	10638.05
261.703	10598.59
261.773	10595.27
261.843	10588.76
261.913	10570.16
261.983	10533.74
262.053	10518.99
262.123	10507.38
262.192	10477.08
262.262	10465.13
262.332	10439.93
262.402	10437.09
262.472	10427.55
262.541	10397.15
262.611	10394.31
262.681	10367.23
262.751	10359.62
262.821	10350.85
262.89	10319.67
262.96	10309.84
263.03	10318.28
263.1	10303.48
263.169	10294.43
263.239	10280.02
263.309	10284.89
263.379	10274.68
263.448	10267.31
263.518	10261.67
263.588	10247.41
263.657	10253.38
263.727	10254.35
263.797	10235.56
263.867	10210.89
263.936	10174.86
264.006	10174.09
264.076	10156.6
264.145	10139.93
264.215	10114.31
264.285	10107.99
264.354	10076.16
264.424	10053.18
264.494	10020.8
264.563	10000.91
264.633	10006.54
264.702	9995.42
264.772	9962.27
264.842	9949.46
264.911	9943.87
264.981	9916.75
265.05	9908.32
265.12	9886.21
265.19	9874.65
265.259	9873.16
265.329	9868.96
265.398	9861.26
265.468	9875.85
265.537	9853.46
265.607	9847.48
265.676	9852.49
265.746	9840.45
265.815	9847.1
265.885	9837.99
265.955	9818.2
266.024	9803.32
266.094	9768.49
266.163	9771.43
266.232	9775.33
266.302	9757.42
266.371	9746.29
266.441	9730.11
266.51	9726.21
266.58	9715.03
266.649	9691.09
266.719	9691.48
266.788	9689.46
266.858	9697.45
266.927	9661.38
266.996	9653.82
267.066	9643.41
267.135	9617.6
267.205	9616.83
267.274	9602.09
267.343	9599.69
267.413	9592.27
267.482	9593.52
267.552	9604.74
267.621	9579.12
267.69	9551.91
267.76	9546.04
267.829	9539.25
267.898	9534.82
267.968	9505.78
268.037	9497.69
268.106	9493.5
268.176	9466
268.245	9456.03
268.314	9432.05
268.384	9429.83
268.453	9419.43
268.522	9416.73
268.592	9420.83
268.661	9393.76
268.73	9390.01
268.799	9372.67
268.869	9376.62
268.938	9346.14
269.007	9323.22
269.076	9312.53
269.146	9317.1
269.215	9308.34
269.284	9315.52
269.353	9297.7
269.422	9293.42
269.492	9281.43
269.561	9243.49
269.63	9240.89
269.699	9219.41
269.768	9215.85
269.838	9209.73
269.907	9210.31
269.976	9182.82
270.045	9155.95
270.114	9157.88
270.183	9142.47
270.253	9130.58
270.322	9105.45
270.391	9099.29
270.46	9096.59
270.529	9093.41
270.598	9086.09
270.667	9077.33
270.736	9054.75
270.806	9050.75
270.875	9053.02
270.944	9041.37
271.013	9063.13
271.082	9050.46
271.151	9043.96
271.22	9015.08
271.289	9005.07
271.358	8990.43
271.427	8984.08
271.496	8970.31
271.565	8955.77
271.634	8947.06
271.703	8977.73
271.772	8975.13
271.841	8959.2
271.91	8941.25
271.979	8935.57
272.048	8911.54
272.117	8907.02
272.186	8882.76
272.255	8884.49
272.324	8883.48
272.393	8873.61
272.462	8856.67
272.531	8855.75
272.6	8848.82
272.669	8859.07
272.738	8853.44
272.807	8850.65
272.876	8839.92
272.945	8870.19
273.013	8874.72
273.082	8878.57
273.151	8831.48
273.22	8825.13
273.289	8824.5
273.358	8837.41
273.427	8822.87
273.496	8819.07
273.564	8815.99
273.633	8828.84
273.702	8808.04
273.771	8793.55
273.84	8791.68
273.909	8793.17
273.977	8787.63
274.046	8777.04
274.115	8784.02
274.184	8766.02
274.253	8757.46
274.322	8761.79
274.39	8730.6
274.459	8711.44
274.528	8681.89
274.597	8676.89
274.665	8678.04
274.734	8685.12
274.803	8670.58
274.872	8668.75
274.94	8663.31
275.009	8694.37
275.078	8678.15
275.147	8675.79
275.215	8672.37
275.284	8687.2
275.353	8678
275.421	8657.02
275.49	8673.38
275.559	8662.17
275.627	8654.47
275.696	8645.57
275.765	8643.74
275.833	8635.94
275.902	8632.91
275.971	8649.22
276.039	8663.42
276.108	8667.37
276.177	8665.06
276.245	8653.27
276.314	8647.59
276.383	8650.57
276.451	8611.33
276.52	8613.55
276.588	8626.4
276.657	8627.99
276.725	8608.73
276.794	8597.18
276.863	8605.46
276.931	8579.04
277	8582.84
277.068	8597.47
277.137	8619.08
277.205	8617.49
277.274	8633.66
277.342	8643.43
277.411	8625.67
277.48	8612.49
277.548	8597.9
277.617	8598.19
277.685	8597.57
277.754	8606.71
277.822	8600.6
277.89	8616.05
277.959	8609.41
278.027	8596.56
278.096	8589.25
278.164	8618.75
278.233	8621.25
278.301	8611.39
278.37	8618.61
278.438	8601.14
278.507	8604.31
278.575	8580.83
278.643	8575.63
278.712	8558.64
278.78	8543
278.849	8553.3
278.917	8562.44
278.985	8569.23
279.054	8573.75
279.122	8583.86
279.191	8575.72
279.259	8566.53
279.327	8543.82
279.396	8561.09
279.464	8552.43
279.532	8558.54
279.601	8554.6
279.669	8549.98
279.737	8564.7
279.806	8567.11
279.874	8576.93
279.942	8573.03
280.011	8566.1
280.079	8571.25
280.147	8591.36
280.215	8606.14
280.284	8598.49
280.352	8584.92
280.42	8584.53
280.488	8574.38
280.557	8569.27
280.625	8578.8
280.693	8581.11
280.761	8585.83
280.83	8570.09
280.898	8582.03
280.966	8569.71
281.034	8535.58
281.102	8524.32
281.171	8515.85
281.239	8522.98
281.307	8513.06
281.375	8499.64
281.443	8525.67
281.512	8524.62
281.58	8532.41
281.648	8514.85
281.716	8519.47
281.784	8520.81
281.852	8513.31
281.92	8516.77
281.989	8525.39
282.057	8506.52
282.125	8555.19
282.193	8552.49
282.261	8553.36
282.329	8554.22
282.397	8552.01
282.465	8552.3
282.533	8565.39
282.601	8556.29
282.67	8535.02
282.738	8531.94
282.806	8546.52
282.874	8531.17
282.942	8538.97
283.01	8529.34
283.078	8530.83
283.146	8531.17
283.214	8541.51
283.282	8544.98
283.35	8549.07
283.418	8539.25
283.486	8547.24
283.554	8502.95
283.622	8502.23
283.69	8499.25
283.758	8490.06
283.826	8494
283.894	8510.7
283.962	8529.76
284.03	8545.98
284.098	8548.19
284.165	8539.58
284.233	8540.3
284.301	8538.66
284.369	8530.72
284.437	8520.18
284.505	8523.21
284.573	8537.12
284.641	8526.77
284.709	8535
284.777	8523.02
284.845	8530.91
284.912	8530.87
284.98	8531.4
285.048	8523.89
285.116	8526.49
285.184	8541.02
285.252	8543.67
285.319	8527.84
285.387	8525.62
285.455	8505.99
285.523	8511.23
285.591	8511.04
285.659	8504.3
285.726	8516.14
285.794	8498.72
285.862	8497.57
285.93	8497.38
285.997	8492.52
286.065	8486.21
286.133	8473.27
286.201	8474.18
286.269	8462.63
286.336	8455.61
286.404	8452.19
286.472	8463.98
286.539	8449.16
286.607	8432.8
286.675	8431.5
286.743	8434.72
286.81	8424.71
286.878	8439.48
286.946	8437.61
287.013	8441.36
287.081	8440.49
287.149	8426.06
287.216	8447.9
287.284	8436.98
287.352	8429.62
287.419	8420.47
287.487	8436.35
287.555	8439.24
287.622	8434.91
287.69	8439.24
287.758	8458.25
287.825	8458.15
287.893	8444.78
287.96	8447.86
288.028	8457.67
288.096	8465.81
288.163	8477.31
288.231	8462.44
288.298	8460.46
288.366	8475.67
288.433	8475.14
288.501	8471.63
288.569	8473.56
288.636	8466.14
288.704	8486.26
288.771	8502.67
288.839	8490.3
288.906	8488.52
288.974	8504.69
289.041	8502.05
289.109	8494.54
289.176	8490.4
289.244	8491.03
289.311	8506.38
289.379	8518.7
289.446	8527.55
289.514	8523.51
289.581	8517.49
289.649	8524.86
289.716	8520.48
289.783	8509.74
289.851	8526.83
289.918	8526.63
289.986	8533.71
290.053	8542.23
290.121	8535.25
290.188	8532.7
290.255	8567.92
290.323	8558.35
290.39	8549.92
290.458	8559.11
290.525	8573.74
290.592	8570.81
290.66	8573.84
290.727	8561.52
290.794	8573.65
290.862	8570.08
290.929	8573.26
290.996	8573.41
291.064	8582.79
291.131	8605.12
291.198	8614.31
291.266	8612.29
291.333	8618.64
291.4	8627.07
291.468	8641.46
291.535	8645.5
291.602	8650.65
291.669	8651.13
291.737	8658.21
291.804	8658.69
291.871	8675.92
291.938	8685.16
292.006	8715.63
292.073	8726.17
292.14	8738.87
292.207	8732.47
292.275	8732.81
292.342	8744.7
292.409	8774.01
292.476	8798.61
292.543	8786.58
292.611	8786.68
292.678	8806.89
292.745	8827.88
292.812	8842.8
292.879	8839
292.946	8842.94
293.014	8855.17
293.081	8856.66
293.148	8876.54
293.215	8892.38
293.282	8883.67
293.349	8895.51
293.416	8877.41
293.484	8897.72
293.551	8917.07
293.618	8936.13
293.685	8963.33
293.752	8955.34
293.819	8952.84
293.886	8940.51
293.953	8952.11
294.02	8969.3
294.087	8979.12
294.154	8976.42
294.221	8987.98
294.288	8985.33
294.356	8998.62
294.423	9000.83
294.49	8990.48
294.557	9002.13
294.624	8994.67
294.691	9019.37
294.758	9018.89
294.825	9025.14
294.892	9010.75
294.959	9007.91
295.026	9014.99
295.093	9006.03
295.16	9009.26
295.226	9010.36
295.293	9040.27
295.36	9046.48
295.427	9054.42
295.494	9061.21
295.561	9067.66
295.628	9087.36
295.695	9108.68
295.762	9112.73
295.829	9126.88
295.896	9140.7
295.963	9142.72
296.03	9155.67
296.096	9159.23
296.163	9167.42
296.23	9182.05
296.297	9202.85
296.364	9200.68
296.431	9205.35
296.498	9206.8
296.564	9229.14
296.631	9229.28
296.698	9209.35
296.765	9232.89
296.832	9225.81
296.899	9212.81
296.965	9231.06
297.032	9213.92
297.099	9229.71
297.166	9247.86
297.233	9247.62
297.299	9245.17
297.366	9245.94
297.433	9251.04
297.5	9263.56
297.566	9264.53
297.633	9261.35
297.7	9266.26
297.767	9263.56
297.833	9273.63
297.9	9275.36
297.967	9267.08
298.033	9282.87
298.1	9314.99
298.167	9306.18
298.234	9312.44
298.3	9321.78
298.367	9315.76
298.434	9325.1
298.5	9311.86
298.567	9301.75
298.634	9299.05
298.7	9324.72
298.767	9329.77
298.834	9342.53
298.9	9330.44
298.967	9325.97
299.033	9343.74
299.1	9355.73
299.167	9376.33
299.233	9369.35
299.3	9380.57
299.366	9396.75
299.433	9412.74
299.5	9386.64
299.566	9392.75
299.633	9407.25
299.699	9423.28
299.766	9422.56
299.832	9422.27
299.899	9427.57
299.965	9437.01
300.032	9435.08
300.099	9440.33
300.165	9447.17
300.232	9441.58
300.298	9446.97
300.365	9461.18
300.431	9459.3
300.498	9455.54
300.564	9461.95
300.631	9476.59
300.697	9488.77
300.763	9488.77
300.83	9484.82
300.896	9499.27
300.963	9500.95
301.029	9504.42
301.096	9504.09
301.162	9516.65
301.229	9510.15
301.295	9510.59
301.361	9518.96
301.428	9522.91
301.494	9503.84
301.561	9498.6
301.627	9500.95
301.693	9503.07
301.76	9507.55
301.826	9508.37
301.892	9521.66
301.959	9529.22
302.025	9527.64
302.092	9525.71
302.158	9530.72
302.224	9529.08
302.291	9520.27
302.357	9521.28
302.423	9513.48
302.49	9501.39
302.556	9511.07
302.622	9511.41
302.688	9517.47
302.755	9526.19
302.821	9536.83
302.887	9549.64
302.954	9553.45
303.02	9566.11
303.086	9571.46
303.152	9570.11
303.219	9562.79
303.285	9560
303.351	9566.31
303.417	9563.08
303.483	9557.93
303.55	9554.27
303.616	9558.22
303.682	9560.24
303.748	9549.74
303.815	9564.57
303.881	9578.49
303.947	9569.05
304.013	9576.37
304.079	9566.64
304.145	9545.55
304.212	9542.9
304.278	9542.23
304.344	9543.24
304.41	9528.17
304.476	9520.89
304.542	9513.91
304.608	9526.05
304.674	9510.73
304.741	9506.4
304.807	9513
304.873	9512.27
304.939	9528.26
305.005	9510.11
305.071	9505.05
305.137	9506.54
305.203	9483.81
305.269	9481.07
305.335	9493.73
305.401	9485.64
305.467	9491.71
305.533	9505.68
305.599	9513.38
305.666	9516.85
305.732	9515.45
305.798	9531.3
305.864	9555.67
305.93	9556.82
305.996	9549.31
306.062	9554.03
306.128	9550.46
306.194	9537.75
306.259	9539.34
306.325	9526.48
306.391	9537.46
306.457	9545.89
306.523	9553.35
306.589	9581.38
306.655	9575.46
306.721	9556.58
306.787	9546.76
306.853	9559.81
306.919	9540.26
306.985	9530.24
307.051	9524.7
307.117	9517.96
307.183	9509.53
307.248	9483.62
307.314	9495.81
307.38	9501.39
307.446	9508.57
307.512	9497.44
307.578	9499.75
307.644	9493.54
307.709	9498.02
307.775	9488.82
307.841	9486.37
307.907	9488.29
307.973	9461.61
308.039	9461.28
308.104	9469.12
308.17	9468.4
308.236	9453.76
308.302	9461.27
308.368	9455.59
308.433	9455.74
308.499	9454.29
308.565	9441.77
308.631	9444.61
308.696	9420.29
308.762	9398.43
308.828	9393.33
308.894	9374.12
308.959	9357.36
309.025	9352.45
309.091	9342.72
309.156	9341.18
309.222	9341.47
309.288	9331.93
309.354	9314.41
309.419	9311.9
309.485	9294.33
309.551	9303.67
309.616	9287.35
309.682	9284.99
309.748	9276.13
309.813	9269.96
309.879	9259.71
309.945	9246.52
310.01	9234.48
310.076	9228.8
310.141	9227.59
310.207	9214.93
310.273	9219.55
310.338	9220.13
310.404	9198.46
310.469	9189.17
310.535	9176.51
310.601	9159.27
310.666	9162.45
310.732	9175.35
310.797	9162.59
310.863	9152.77
310.928	9139.87
310.994	9145.6
311.059	9143.77
311.125	9140.83
311.191	9153.11
311.256	9141.75
311.322	9148.63
311.387	9132.07
311.453	9455.59
311.518	9433.79
311.584	9429.6
311.649	9436.77
311.715	9427.82
311.78	9433.69
311.846	9421.03
311.911	9421.17
311.976	9420.84
312.042	9405.81
312.107	9384.73
312.173	9382.75
312.238	9375.63
312.304	9373.08
312.369	9365.33
312.434	9351.36
312.5	9341.3
312.565	9306.78
312.631	9307.94
312.696	9306.25
312.761	9310.3
312.827	8984.7
312.892	9021.58
312.958	9015.8
313.023	9007.95
313.088	9003.91
313.154	8986.78
313.219	8983.07
313.284	8983.5
313.35	8975.42
313.415	8966.8
313.48	8968.53
313.546	8968.19
313.611	8978.83
313.676	8972.04
313.741	8965.74
313.807	8972.19
313.872	8977.58
313.937	8985.76
314.003	9007.96
314.068	9008.73
314.133	9014.51
314.198	9003.92
314.264	8984.46
314.329	8975.65
314.394	8971.66
314.459	8979.89
314.525	9009.35
314.59	9001.84
314.655	8985.62
314.72	8994.43
314.785	8991.44
314.851	8988.6
314.916	8970.41
314.981	8951.92
315.046	8941.28
315.111	8927.13
315.176	8912.79
315.242	8921.89
315.307	8915.97
315.372	8889.15
315.437	8874.13
315.502	8868.59
315.567	8877.31
315.632	8862.43
315.698	8868.79
315.763	8864.5
315.828	8852.13
315.893	8844.33
315.958	8842.89
316.023	8838.46
316.088	8819.2
316.153	8799.67
316.218	8788.98
316.283	8770.65
316.348	8759
316.413	8759
316.479	8746.44
316.544	8720.02
316.609	8683.2
316.674	8656.01
316.739	8618.04
316.804	8585.76
316.869	8550.91
316.934	8512.7
316.999	8484.31
317.064	8430.9
317.129	8387.45
317.194	8343.91
317.259	8291.89
317.324	8236.47
317.389	8192.36
317.454	8152.09
317.518	8113.03
317.583	8090.32
317.648	8069.01
317.713	8032.16
317.778	7966.79
317.843	7933.03
317.908	7889.65
317.973	7854.15
318.038	7819.14
318.103	7788.41
318.168	7762.25
318.233	7723.93
318.297	7678.39
318.362	7635.88
318.427	7596.7
318.492	7572.85
318.557	7532.43
318.622	7504.11
318.687	7490.07
318.751	7446.33
318.816	7414.8
318.881	7384.81
318.946	7327.31
319.011	7283.14
319.075	7240.17
319.14	7212.59
319.205	7170.11
319.27	7140.13
319.335	7095.34
319.399	7056.03
319.464	7025.62
319.529	6969.51
319.594	6937.55
319.658	6905.32
319.723	6870.01
319.788	6842.59
319.853	6789.74
319.917	6761.31
319.982	6710.59
320.047	6666.45
320.112	6642.3
320.176	6593.41
320.241	6560.76
320.306	6534.35
320.37	6493.05
320.435	6464.82
320.5	6438.03
320.564	6404.04
320.629	6364.83
320.694	6333.24
320.758	6292.59
320.823	6251.55
320.888	6233.79
320.952	6185.8
321.017	6145.25
321.082	6102.65
321.146	6068.15
321.211	6033.7
321.275	5990.24
321.34	5948.08
321.405	5907.88
321.469	5865.58
321.534	5825.1
321.598	5777.58
321.663	5741.84
321.727	5709.52
321.792	5660.18
321.857	5612.32
321.921	5570.65
321.986	5526.27
322.05	5469.95
322.115	5435.34
322.179	5389
322.244	5328.56
322.308	5298.71
322.373	5254.96
322.437	5217.11
322.502	5188.78
322.566	5144.08
322.631	5111.03
322.695	5075.01
322.76	5030.72
322.824	4994.17
322.889	4952.47
322.953	4907.32
323.018	4846.51
323.082	4781.94
323.146	4732.41
323.211	4685.36
323.275	4641.8
323.34	4598.07
323.404	4563.86
323.468	4517.44
323.533	4475.91
323.597	4430.1
323.662	4370.78
323.726	4334.86
323.79	4285.07
323.855	4224.3
323.919	4173.19
323.983	4124.42
324.048	4056.95
324.112	4206.68
324.177	4076.9
324.241	3865.84
324.305	3659.4
324.37	3455.08
324.434	3262.51
324.498	3220.64
324.562	3167.82
324.627	3105.95
324.691	3049.55
324.755	2982.78
324.82	2904.3
324.884	2824.78
324.948	2750.63
325.012	2660.7
325.077	2535.44
