Data from 20250704_urea_0.1M_MAYP1162681_11-18-50-695.txt Node
Date: Fri Jul 04 11:18:50 BST 2025
User: adleo
Spectrometer: MAYP116268
Trigger mode: 0
Integration Time (sec): 1.000000E0
Scans to average: 1
Electric dark correction enabled: true
Nonlinearity correction enabled: true
Boxcar width: 10
XAxis mode: Wavelengths
Number of Pixels in Spectrum: 2068
>>>>>Begin Spectral Data<<<<<
179.565	1241.95
179.642	1299.63
179.718	1346.21
179.795	1387.91
179.871	1422.66
179.948	1439.53
180.024	1460.76
180.101	1485.28
180.177	1497.61
180.254	1521.03
180.33	1545.88
180.407	1601.39
180.483	1698.49
180.56	1792.86
180.636	1879.36
180.712	1867.19
180.789	1879.5
180.865	1892.14
180.942	1899.31
181.018	1906.3
181.095	1921.76
181.171	1926.56
181.248	1929.27
181.324	1942.49
181.4	1949.63
181.477	1960.9
181.553	1976.3
181.63	1994.79
181.706	2010.2
181.782	2021.42
181.859	2018.71
181.935	2023.52
182.011	2019.47
182.088	2037.74
182.164	2053.1
182.24	2067.37
182.317	2075.4
182.393	2076.16
182.469	2093.14
182.546	2107.94
182.622	2113.98
182.698	2107.13
182.775	2118.73
182.851	2131.53
182.927	2126.3
183.003	2120.3
183.08	2115.31
183.156	2122.16
183.232	2122.4
183.308	2113.03
183.385	2121.54
183.461	2141.37
183.537	2139.61
183.613	2153.12
183.69	2145.42
183.766	2136.61
183.842	2143.7
183.918	2151.55
183.995	2163.3
184.071	2166.3
184.147	2157.97
184.223	2146.42
184.299	2160.83
184.375	2148.52
184.452	2154.99
184.528	2203.28
184.604	2215.36
184.68	2227.26
184.756	2237.3
184.832	2243.34
184.908	2245.91
184.985	2243.58
185.061	2226.59
185.137	2237.68
185.213	2229.55
185.289	2227.6
185.365	2219.84
185.441	2219.7
185.517	2229.12
185.593	2224.99
185.669	2220.56
185.745	2234.07
185.822	2250.62
185.898	2243.44
185.974	2254.19
186.05	2247.67
186.126	2212.7
186.202	2208.7
186.278	2204.23
186.354	2193.9
186.43	2198.52
186.506	2198.42
186.582	2198.8
186.658	2209.41
186.734	2188.76
186.81	2189.38
186.886	2194.71
186.962	2207.46
187.038	2202.37
187.114	2198.99
187.19	2209.79
187.266	2202.04
187.341	2199.56
187.417	2192.47
187.493	2190.43
187.569	2192.52
187.645	2185.29
187.721	2175.2
187.797	2180.25
187.873	2183.62
187.949	2180.48
188.025	2174.11
188.101	2175.2
188.176	2179.05
188.252	2173.35
188.328	2183.81
188.404	2182.48
188.48	2178.72
188.556	2173.53
188.632	2173.91
188.707	2175.01
188.783	2169.49
188.859	2165.06
188.935	2156.12
189.011	2165.82
189.086	2160.02
189.162	2152.17
189.238	2151.31
189.314	2148.75
189.39	2140.94
189.465	2132.57
189.541	2148.18
189.617	2130.86
189.693	2127.3
189.768	2133.2
189.844	2157.9
189.92	2146.53
189.996	2156.72
190.071	2166.8
190.147	2166.18
190.223	2175.08
190.298	2165.18
190.374	2151.82
190.45	2164.56
190.526	2173.46
190.601	2165.99
190.677	2169.27
190.753	2197.5
190.828	2200.59
190.904	2216.87
190.98	2235.47
191.055	2244.94
191.131	2234.09
191.207	2256.07
191.282	2265.39
191.358	2255.35
191.433	2239.45
191.509	2253.29
191.585	2249.77
191.66	2251.29
191.736	2257.72
191.811	2246.53
191.887	2261.86
191.963	2282.27
192.038	2286.65
192.114	2285.13
192.189	2291.03
192.265	2284.7
192.34	2262.75
192.416	2260.42
192.491	2256.23
192.567	2255.61
192.642	2260.09
192.718	2258.99
192.793	2246.53
192.869	2242.39
192.944	2245.53
193.02	2254
193.095	2258.95
193.171	2263.47
193.246	2262.23
193.322	2259.85
193.397	2262.18
193.473	2248.81
193.548	2232.63
193.624	2236.48
193.699	2234.44
193.775	2250.91
193.85	2255.9
193.925	2263.37
194.001	2262.66
194.076	2255
194.152	2243.58
194.227	2235.11
194.302	2227.69
194.378	2234.25
194.453	2228.31
194.529	2240.16
194.604	2223.69
194.679	2219.07
194.755	2203.28
194.83	2216.42
194.905	2215.61
194.981	2225.75
195.056	2218.61
195.131	2226.08
195.207	2226.61
195.282	2217.66
195.357	2197.91
195.433	2212.28
195.508	2198.86
195.583	2206.76
195.659	2221.99
195.734	2231.89
195.809	2231.74
195.884	2241.69
195.96	2239.45
196.035	2257.58
196.11	2254.63
196.185	2269.14
196.261	2271.23
196.336	2303.6
196.411	2287.36
196.486	2294.26
196.561	2288.03
196.637	2297.69
196.712	2315.73
196.787	2317.78
196.862	2333.81
196.937	2345
197.013	2351.76
197.088	2366.7
197.163	2391.27
197.238	2407.66
197.313	2405.71
197.388	2423.03
197.464	2455.27
197.539	2467.03
197.614	2459.94
197.689	2469.18
197.764	2484.03
197.839	2505.13
197.914	2494.27
197.989	2518.93
198.065	2531.55
198.14	2581.77
198.215	2608.16
198.29	2616.73
198.365	2631.64
198.44	2643.55
198.515	2667.98
198.59	2682.99
198.665	2707.48
198.74	2714.15
198.815	2710.77
198.89	2735.68
198.965	2763.23
199.04	2756.46
199.115	2773.75
199.19	2818.11
199.265	2824.16
199.34	2836.55
199.415	2870.88
199.49	2895.36
199.565	2904.99
199.64	2927.49
199.715	2924.67
199.79	2934.78
199.865	2944.27
199.94	2942.17
200.015	2975.73
200.09	2987.18
200.165	2993.61
200.24	3005.49
200.315	3047.91
200.39	3069.65
200.464	3076.71
200.539	3079.62
200.614	3101.98
200.689	3127.49
200.764	3135.6
200.839	3151.86
200.914	3157.1
200.989	3145.75
201.063	3157.72
201.138	3140.8
201.213	3140.46
201.288	3122.39
201.363	3125.68
201.438	3126.35
201.512	3142.94
201.587	3124.62
201.662	3124.34
201.737	3140.03
201.812	3144.61
201.886	3110.24
201.961	3119.35
202.036	3107.63
202.111	3105.05
202.186	3073.26
202.26	3053.94
202.335	3032.96
202.41	3030.81
202.485	3016.27
202.559	2997.63
202.634	2976.75
202.709	2990.47
202.784	2976.36
202.858	2980.03
202.933	2967.87
203.008	2967.92
203.082	2954.77
203.157	2962.39
203.232	2929.46
203.306	2914.96
203.381	2894.36
203.456	2881.16
203.53	2871.52
203.605	2868.9
203.68	2861.46
203.754	2874.32
203.829	2878.81
203.904	2879.19
203.978	2891.73
204.053	2917.81
204.127	2934.88
204.202	2963.59
204.277	2974.36
204.351	3000.92
204.426	3025.2
204.5	3055.01
204.575	3056.97
204.65	3106.54
204.724	3141.96
204.799	3196.61
204.873	3243.44
204.948	3294.45
205.022	3339.64
205.097	3387.69
205.171	3461.11
205.246	3536.87
205.32	3600.64
205.395	3672.44
205.469	3738.24
205.544	3820.26
205.618	3882.05
205.693	3979.72
205.767	4053.1
205.842	4164.66
205.916	4256.87
205.991	4348.42
206.065	4453.64
206.14	4576.7
206.214	4682.61
206.289	4789.35
206.363	4919.12
206.438	5041.25
206.512	5175.03
206.586	5320.06
206.661	5455.88
206.735	5564.24
206.81	5699.04
206.884	5851.53
206.958	5981.22
207.033	6149.94
207.107	6301.22
207.181	6483.4
207.256	6631.16
207.33	6808.5
207.405	6986.27
207.479	7163.22
207.553	7330.89
207.628	7484
207.702	7662.48
207.776	7827.21
207.851	8000.18
207.925	8191.65
207.999	8371.2
208.073	8547.93
208.148	8730.56
208.222	8905.33
208.296	9123.77
208.371	9325.76
208.445	9524.9
208.519	9743.64
208.593	9938.36
208.668	10130.35
208.742	10323.14
208.816	10508.21
208.89	10713.89
208.965	10890.35
209.039	11092.44
209.113	11299.88
209.187	11514.98
209.261	11706.49
209.336	11922.88
209.41	12151.33
209.484	12340.75
209.558	12552.16
209.632	12750.46
209.707	12954.88
209.781	13166.54
209.855	13374.77
209.929	13582.15
210.003	13781.04
210.077	13967.44
210.151	14191.4
210.226	14404.6
210.3	14620.5
210.374	14831.24
210.448	15014.9
210.522	15214.12
210.596	15400.7
210.67	15591.44
210.744	15813.4
210.818	16028.13
210.892	16225.45
210.966	16388.8
211.041	16579.85
211.115	16741.26
211.189	16936.02
211.263	17119.21
211.337	17294.02
211.411	17471.9
211.485	17624.05
211.559	17800.43
211.633	17961.54
211.707	18104.58
211.781	18272.62
211.855	18399.31
211.929	18557.14
212.003	18695.93
212.077	18860.74
212.151	19023.58
212.225	19187.24
212.299	19322.08
212.373	19453.49
212.447	19586.11
212.52	19750.4
212.594	19892.47
212.668	20052.47
212.742	20175.89
212.816	20303.74
212.89	20429.19
212.964	20569.58
213.038	20708.72
213.112	20847.82
213.186	20999.54
213.26	21102.53
213.333	21186.05
213.407	21306.35
213.481	21426.08
213.555	21566
213.629	21673.44
213.703	21780.01
213.777	21901.49
213.85	22001.27
213.924	22146.48
213.998	22263.14
214.072	22365.01
214.146	22462.63
214.219	22555.82
214.293	22659.61
214.367	22766.6
214.441	22881.05
214.515	22957.14
214.588	23035.83
214.662	23095.62
214.736	23165.73
214.81	23262.45
214.883	23363.31
214.957	23452.52
215.031	23533.1
215.105	23598.97
215.178	23672.03
215.252	23745.38
215.326	23798.19
215.4	23855.34
215.473	23894.94
215.547	23950.21
215.621	24019.39
215.694	24096.51
215.768	24149.96
215.842	24213.29
215.915	24270.02
215.989	24308.36
216.063	24373.64
216.136	24438.08
216.21	24495.78
216.284	24569.68
216.357	24639.44
216.431	24691.64
216.504	24753.54
216.578	24827.65
216.652	24890.23
216.725	24954.5
216.799	25014.81
216.873	25071.02
216.946	25123.71
217.02	25151.79
217.093	25210.52
217.167	25232.38
217.24	25264.13
217.314	25307.7
217.387	25341.67
217.461	25380.76
217.535	25439.68
217.608	25465.17
217.682	25506.62
217.755	25567.19
217.829	25588.72
217.902	25627.33
217.976	25668.16
218.049	25700.69
218.123	25718.26
218.196	25753.02
218.27	25775.46
218.343	25805.29
218.417	25842.32
218.49	25878.52
218.563	25942.38
218.637	25973.61
218.71	26029.51
218.784	26070.31
218.857	26116.75
218.931	26154.06
219.004	26189.35
219.077	26222.08
219.151	26260.61
219.224	26279.63
219.298	26300.58
219.371	26342.2
219.444	26352.53
219.518	26383.19
219.591	26406.03
219.665	26467.31
219.738	26498.69
219.811	26513.12
219.885	26541.9
219.958	26577.44
220.031	26599.99
220.105	26625.88
220.178	26638.77
220.251	26648.72
220.325	26671.22
220.398	26695.46
220.471	26717.19
220.544	26742.45
220.618	26752.44
220.691	26769.1
220.764	26790.21
220.838	26813.05
220.911	26822.22
220.984	26859.26
221.057	26880.75
221.131	26908.81
221.204	26887.03
221.277	26913.74
221.35	26956.96
221.424	26965.65
221.497	26967.01
221.57	26983.04
221.643	26985.21
221.716	27004.97
221.79	27006.37
221.863	27018.63
221.936	27009.85
222.009	27011.15
222.082	27018.83
222.155	27009.07
222.229	27035.01
222.302	27037.96
222.375	27039.21
222.448	27042.69
222.521	27035.2
222.594	27025.3
222.667	27006.66
222.74	27014.87
222.814	27008.21
222.887	26989.32
222.96	26983.04
223.033	26986.13
223.106	26974.69
223.179	26980.68
223.252	26978.79
223.325	26977.97
223.398	26966.09
223.471	26971.69
223.544	26973.43
223.617	26959.28
223.69	26964.11
223.763	26924.65
223.837	26919.1
223.91	26920.06
223.983	26907.6
224.056	26890.84
224.129	26888.82
224.202	26882.97
224.275	26859.74
224.348	26834.24
224.42	26813.24
224.493	26791.6
224.566	26780.54
224.639	26788.22
224.712	26753.69
224.785	26734.95
224.858	26706.08
224.931	26690.53
225.004	26655.57
225.077	26626.31
225.15	26594.97
225.223	26587.2
225.296	26603.81
225.369	26564.12
225.442	26533.79
225.514	26513.13
225.587	26492.7
225.66	26467.93
225.733	26457.21
225.806	26444.08
225.879	26410.86
225.952	26382.43
226.025	26373.35
226.097	26350.7
226.17	26313.43
226.243	26275.19
226.316	26234.45
226.389	26208.86
226.461	26179.75
226.534	26165.84
226.607	26141.47
226.68	26120.08
226.753	26092.76
226.825	26030.18
226.898	26032.65
226.971	25997.89
227.044	25967.72
227.117	25936.44
227.189	25915.44
227.262	25890.87
227.335	25866.01
227.407	25838.74
227.48	25816.97
227.553	25791.72
227.626	25754.36
227.698	25725.59
227.771	25704.36
227.844	25667.87
227.916	25648.03
227.989	25605.18
228.062	25575.88
228.134	25581.33
228.207	25554.69
228.28	25511.35
228.352	25487.61
228.425	25453
228.498	25428.25
228.57	25387.33
228.643	25376.61
228.716	25338.34
228.788	25289.55
228.861	25251.96
228.934	25234.1
229.006	25199.12
229.079	25154.53
229.151	25115.15
229.224	25067.92
229.296	25038.53
229.369	25049.73
229.442	25042.83
229.514	25009.49
229.587	24984.93
229.659	24920.8
229.732	24904.01
229.804	24883.65
229.877	24873.9
229.949	24847.55
230.022	24840.99
230.094	24819.86
230.167	24786.13
230.239	24740.26
230.312	24715.89
230.384	24700.31
230.457	24670.54
230.529	24648.3
230.602	24627.56
230.674	24602.04
230.747	24586.84
230.819	24568.03
230.892	24484.28
230.964	24444.43
231.037	24407.78
231.109	24363.59
231.181	24340.97
231.254	24285.93
231.326	24243.53
231.399	24198.52
231.471	24156.55
231.544	24093.41
231.616	24066.83
231.688	24030.37
231.761	23993.23
231.833	23945.2
231.905	23891.7
231.978	23856.88
232.05	23806.82
232.122	23767.27
232.195	23726.32
232.267	23700.81
232.339	23658.66
232.412	23653.88
232.484	23604.26
232.556	23562.5
232.629	23548.37
232.701	23518.32
232.773	23487.8
232.846	23445.89
232.918	23418.07
232.99	23381.61
233.062	23359.28
233.135	23323.69
233.207	23273.45
233.279	23247.17
233.351	23220.65
233.424	23179.71
233.496	23131.59
233.568	23121.56
233.64	23074.7
233.713	23028.55
233.785	22986.6
233.857	22951.69
233.929	22891.57
234.001	22873.39
234.074	22863.8
234.146	22805.7
234.218	22757.82
234.29	22712.89
234.362	22667.57
234.434	22608.56
234.507	22550.56
234.579	22483.17
234.651	22439.29
234.723	22407.72
234.795	22367.32
234.867	22314.68
234.939	22289.56
235.012	22242.12
235.084	22192.08
235.156	22154.14
235.228	22113.75
235.3	22059.52
235.372	22012.28
235.444	21984.27
235.516	21915.19
235.588	21869.88
235.66	21826.64
235.732	21779.11
235.804	21793.77
235.876	21766.82
235.948	21745.56
236.02	21717.7
236.092	21685.17
236.164	21640.68
236.236	21593.25
236.308	21542.16
236.38	21511.99
236.452	21459.11
236.524	21426.77
236.596	21399.1
236.668	21362.76
236.74	21313.12
236.812	21278.27
236.884	21249.93
236.956	21212.92
237.028	21168.09
237.1	21108.38
237.172	21082.21
237.244	21060.57
237.316	20983.69
237.388	20935.83
237.46	20878.23
237.532	20843.87
237.604	20788.11
237.675	20761.41
237.747	20724.25
237.819	20687.29
237.891	20641.46
237.963	20583.87
238.035	20533.65
238.107	20457.65
238.178	20427.96
238.25	20391.09
238.322	20375.57
238.394	20313.45
238.466	20260.2
238.538	20220.54
238.609	20189.79
238.681	20132.25
238.753	20071.29
238.825	20020.35
238.897	19974.13
238.968	19949.27
239.04	19895.05
239.112	19880.79
239.184	19816.6
239.255	19771.39
239.327	19735.44
239.399	19700.07
239.471	19669.91
239.542	19629.62
239.614	19603.74
239.686	19529.96
239.758	19503.7
239.829	19443.02
239.901	19404.52
239.973	19361.87
240.044	19326.41
240.116	19285.06
240.188	19240.24
240.259	19202.61
240.331	19162.66
240.403	19131.28
240.474	19068.98
240.546	19018.91
240.618	18955.05
240.689	18904.12
240.761	18859.59
240.833	18830.77
240.904	18780.22
240.976	18739.02
241.048	18698.35
241.119	18664.81
241.191	18642.06
241.262	18612.67
241.334	18560.86
241.405	18519.37
241.477	18481.25
241.549	18435.52
241.62	18397.74
241.692	18357.45
241.763	18333.4
241.835	18285.07
241.906	18243.87
241.978	18191.96
242.049	18169.6
242.121	18139
242.192	18118.18
242.264	18065.51
242.335	18006.14
242.407	17978.77
242.478	17942.53
242.55	17912.46
242.621	17859.35
242.693	17811.93
242.764	17768.75
242.836	17728.17
242.907	17705.19
242.979	17666.39
243.05	17634.73
243.122	17594.73
243.193	17560.51
243.264	17493.62
243.336	17461.04
243.407	17426.06
243.479	17406.25
243.55	17367.79
243.622	17331.98
243.693	17300.71
243.764	17287.5
243.836	17238.25
243.907	17195.55
243.978	17152.32
244.05	17125.38
244.121	17078.1
244.192	17053.33
244.264	16991.01
244.335	16960.55
244.407	16896.69
244.478	16865.37
244.549	16814.67
244.62	16756.54
244.692	16717.55
244.763	16682.66
244.834	16637.45
244.906	16595.47
244.977	16557.16
245.048	16536.53
245.119	16496.43
245.191	16438.88
245.262	16369.28
245.333	16347.16
245.405	16301.86
245.476	16272.79
245.547	16236.74
245.618	16215.68
245.689	16176.4
245.761	16155.19
245.832	16122.47
245.903	16103.57
245.974	16067.81
246.045	16037.06
246.117	16028.82
246.188	15973.53
246.259	15933.09
246.33	15896.65
246.401	15854.43
246.473	15813.84
246.544	15761.21
246.615	15734.51
246.686	15699.8
246.757	15683.03
246.828	15643.55
246.899	15633.09
246.97	15573.81
247.042	15520.3
247.113	15486.18
247.184	15466.51
247.255	15423.23
247.326	15381.29
247.397	15338.83
247.468	15306.68
247.539	15282.53
247.61	15231.92
247.681	15216.49
247.752	15204.44
247.823	15159.27
247.894	15130.3
247.965	15084.8
248.037	15049.95
248.108	15004.3
248.179	14972.63
248.25	14946.99
248.321	14916.47
248.392	14865.19
248.463	14857.86
248.534	14821.22
248.605	14799.68
248.675	14758.99
248.746	14727.61
248.817	14712
248.888	14684.23
248.959	14634.82
249.03	14609.8
249.101	14585.22
249.172	14541.78
249.243	14486.11
249.314	14476.51
249.385	14446.87
249.456	14424.69
249.527	14394.13
249.598	14370.85
249.669	14335.27
249.739	14305.63
249.81	14283.55
249.881	14242.24
249.952	14215.29
250.023	14195.67
250.094	14147.66
250.165	14113.29
250.235	14088.41
250.306	14049.51
250.377	14011.38
250.448	13995.37
250.519	13941.19
250.59	13921.76
250.66	13897.66
250.731	13886.91
250.802	13850.95
250.873	13820.58
250.944	13796.86
251.014	13759.07
251.085	13754.29
251.156	13738.92
251.227	13721.95
251.297	13710.62
251.368	13692.25
251.439	13671.96
251.51	13658.6
251.58	13626.35
251.651	13594.44
251.722	13583.79
251.792	13542.09
251.863	13519.91
251.934	13502.61
252.005	13506.9
252.075	13476.38
252.146	13461.92
252.217	13448.18
252.287	13434.93
252.358	13414.29
252.429	13405.13
252.499	13379.92
252.57	13360.83
252.641	13348.15
252.711	13318.65
252.782	13270.83
252.852	13270.01
252.923	13245.47
252.994	13217.95
253.064	13202.09
253.135	13163.91
253.205	13128.04
253.276	13121.92
253.347	13117.49
253.417	13081.96
253.488	13047.73
253.558	13022.42
253.629	12997.74
253.699	12973.78
253.77	12962.31
253.841	12942.26
253.911	12920.18
253.982	12895.59
254.052	12869.71
254.123	12846.66
254.193	12829.5
254.264	12845.85
254.334	12811.38
254.405	12769.29
254.475	12728.8
254.546	12707.45
254.616	12701.9
254.687	12683.92
254.757	12667.73
254.827	12638.03
254.898	12623.91
254.968	12607.23
255.039	12576.96
255.109	12570.11
255.18	12540.23
255.25	12489.47
255.321	12469.37
255.391	12438.22
255.461	12441.02
255.532	12396.72
255.602	12360.95
255.673	12314.15
255.743	12281.18
255.813	12239.38
255.884	12234.66
255.954	12233.46
256.024	12229.12
256.095	12209.02
256.165	12171.08
256.235	12159.22
256.306	12133.82
256.376	12116.81
256.446	12101.72
256.517	12092.42
256.587	12076.03
256.657	12055.78
256.728	12044.17
256.798	12018.86
256.868	11993.51
256.938	11965.98
257.009	11958.03
257.079	11949.93
257.149	11963.04
257.219	11920.62
257.29	11904.72
257.36	11867.51
257.43	11857.1
257.5	11814.39
257.571	11790.68
257.641	11786.39
257.711	11749.52
257.781	11733.56
257.852	11721.51
257.922	11675.19
257.992	11649.31
258.062	11623.14
258.132	11612.29
258.202	11590.41
258.273	11579.95
258.343	11577.98
258.413	11552.14
258.483	11528.77
258.553	11501.34
258.623	11471.22
258.693	11460.23
258.764	11458.35
258.834	11449.2
258.904	11428.52
258.974	11399.6
259.044	11379.55
259.114	11363.07
259.184	11344.95
259.254	11323.36
259.324	11284.32
259.394	11275.65
259.464	11275.07
259.535	11252.42
259.605	11228.22
259.675	11198.3
259.745	11185.86
259.815	11148.9
259.885	11127.12
259.955	11136.32
260.025	11107.51
260.095	11086.98
260.165	11077.34
260.235	11079.75
260.305	11061.68
260.375	11027.65
260.445	11037.67
260.515	11035.46
260.585	11026.35
260.655	11012.57
260.725	11006.69
260.795	11001.29
260.865	11009.87
260.934	10987.07
261.004	10981.15
261.074	10963.7
261.144	10968.52
261.214	10955.94
261.284	10948.18
261.354	10940.33
261.424	10911.37
261.494	10924.18
261.564	10907.75
261.634	10895.03
261.703	10855.85
261.773	10849.78
261.843	10841.73
261.913	10824.72
261.983	10790.85
262.053	10778.08
262.123	10762.03
262.192	10735.15
262.262	10725.03
262.332	10691.54
262.402	10684.07
262.472	10666.38
262.541	10636.18
262.611	10631.36
262.681	10609.1
262.751	10601.63
262.821	10584.81
262.89	10556.91
262.96	10543.18
263.03	10543.76
263.1	10528.92
263.169	10517.06
263.239	10502.66
263.309	10510.46
263.379	10505.12
263.448	10495.19
263.518	10479
263.588	10459.97
263.657	10460.6
263.727	10454.57
263.797	10441.23
263.867	10418.29
263.936	10392.86
264.006	10390.06
264.076	10370.36
264.145	10350.03
264.215	10326.47
264.285	10319.29
264.354	10285.57
264.424	10266.87
264.494	10240.04
264.563	10224.19
264.633	10226.79
264.702	10216.77
264.772	10179.19
264.842	10153.22
264.911	10150.28
264.981	10127.3
265.05	10112.9
265.12	10094.11
265.19	10085.87
265.259	10075.71
265.329	10072.05
265.398	10055.67
265.468	10065.02
265.537	10043.34
265.607	10036.79
265.676	10033.22
265.746	10026.19
265.815	10030.43
265.885	10010.49
265.955	9983.95
266.024	9959.86
266.094	9925.28
266.163	9921.81
266.232	9916.75
266.302	9905.19
266.371	9891.27
266.441	9883.66
266.51	9878.99
266.58	9856.83
266.649	9830.87
266.719	9834.29
266.788	9826.29
266.858	9830.34
266.927	9791.52
266.996	9788.48
267.066	9775.04
267.135	9745.71
267.205	9738.54
267.274	9723.89
267.343	9723.51
267.413	9717.44
267.482	9726.26
267.552	9728.95
267.621	9697.36
267.69	9674.91
267.76	9663.02
267.829	9658.83
267.898	9642.69
267.968	9623.09
268.037	9624.44
268.106	9620.25
268.176	9590.25
268.245	9571.94
268.314	9560.1
268.384	9563.71
268.453	9547.91
268.522	9547.38
268.592	9553.83
268.661	9530.19
268.73	9527.59
268.799	9505.43
268.869	9514.63
268.938	9480.83
269.007	9460.94
269.076	9455.93
269.146	9451.35
269.215	9447.55
269.284	9446.25
269.353	9440.71
269.422	9430.79
269.492	9411.24
269.561	9372.77
269.63	9371.76
269.699	9356.59
269.768	9343.74
269.838	9341.04
269.907	9338.34
269.976	9308.92
270.045	9272.96
270.114	9270.45
270.183	9250.9
270.253	9250.04
270.322	9215.66
270.391	9215.9
270.46	9220.96
270.529	9223.51
270.598	9219.66
270.667	9206.37
270.736	9184.89
270.806	9168.95
270.875	9170.01
270.944	9158.51
271.013	9183.73
271.082	9172.47
271.151	9166.5
271.22	9137.8
271.289	9122.2
271.358	9107.38
271.427	9099.91
271.496	9097.41
271.565	9085.86
271.634	9077.86
271.703	9098.86
271.772	9103.24
271.841	9089.09
271.91	9068.48
271.979	9053.89
272.048	9032.9
272.117	9036.66
272.186	9022.26
272.255	9028.42
272.324	9020.63
272.393	9017.59
272.462	8997.56
272.531	8989.09
272.6	8981.82
272.669	8991.3
272.738	8976.38
272.807	8970.7
272.876	8956.89
272.945	8978.36
273.013	8972.63
273.082	8984.13
273.151	8934.25
273.22	8937.62
273.289	8925.93
273.358	8927.23
273.427	8918.8
273.496	8921.79
273.564	8909.32
273.633	8912.25
273.702	8888.38
273.771	8883.28
273.84	8879.23
273.909	8873.07
273.977	8876.34
274.046	8868.06
274.115	8870.66
274.184	8858.3
274.253	8848.33
274.322	8857.24
274.39	8827.58
274.459	8813.72
274.528	8780.51
274.597	8777.04
274.665	8768.19
274.734	8778.05
274.803	8774.68
274.872	8763.61
274.94	8748.64
275.009	8808.65
275.078	8786.85
275.147	8783.53
275.215	8778.13
275.284	8781.98
275.353	8778.37
275.421	8754.21
275.49	8761.34
275.559	8748.39
275.627	8739.92
275.696	8732.65
275.765	8732.32
275.833	8722.88
275.902	8725
275.971	8736.07
276.039	8752.53
276.108	8757.39
276.177	8754.36
276.245	8747.33
276.314	8740.16
276.383	8742.81
276.451	8675.01
276.52	8678.23
276.588	8690.5
276.657	8697.53
276.725	8691.42
276.794	8688.39
276.863	8693.83
276.931	8674.77
277	8685.21
277.068	8693.39
277.137	8711.82
277.205	8710.91
277.274	8730.45
277.342	8744.5
277.411	8722.22
277.48	8707.3
277.548	8696.23
277.617	8689.69
277.685	8675.83
277.754	8685.26
277.822	8680.3
277.89	8696.28
277.959	8695.95
278.027	8680.55
278.096	8666.06
278.164	8695.14
278.233	8690.51
278.301	8687.77
278.37	8692.54
278.438	8675.79
278.507	8679.59
278.575	8651.53
278.643	8643.97
278.712	8625.93
278.78	8604.7
278.849	8618.17
278.917	8627.8
278.985	8621.59
279.054	8624.82
279.122	8636.65
279.191	8633.91
279.259	8628.23
279.327	8602.24
279.396	8615.91
279.464	8610.33
279.532	8620
279.601	8610.23
279.669	8602.62
279.737	8610.08
279.806	8617.45
279.874	8629.77
279.942	8627.99
280.011	8630.44
280.079	8645.41
280.147	8661.97
280.215	8672.41
280.284	8668.75
280.352	8656.48
280.42	8662.25
280.488	8657.73
280.557	8655.32
280.625	8660.43
280.693	8661.34
280.761	8663.79
280.83	8645.99
280.898	8663.12
280.966	8639.54
281.034	8608.25
281.102	8596.13
281.171	8591.94
281.239	8597.24
281.307	8590.26
281.375	8586.79
281.443	8613.31
281.512	8604.36
281.58	8613.6
281.648	8592.71
281.716	8594.69
281.784	8598.68
281.852	8594.45
281.92	8594.88
281.989	8604.12
282.057	8582.03
282.125	8624.06
282.193	8626.65
282.261	8625.5
282.329	8612.36
282.397	8620.3
282.465	8628.63
282.533	8641.76
282.601	8624.87
282.67	8599.94
282.738	8592.29
282.806	8592.58
282.874	8581.89
282.942	8581.7
283.01	8576.21
283.078	8590.36
283.146	8588.43
283.214	8591.22
283.282	8592.86
283.35	8603.59
283.418	8593.68
283.486	8605.37
283.554	8565.56
283.622	8565.42
283.69	8567.2
283.758	8568.45
283.826	8574.75
283.894	8575.04
283.962	8602.05
284.03	8623.65
284.098	8631.5
284.165	8627.12
284.233	8633.76
284.301	8620.86
284.369	8618.55
284.437	8604.59
284.505	8594.58
284.573	8610.9
284.641	8600.7
284.709	8608.64
284.777	8592.85
284.845	8599.69
284.912	8601.61
284.98	8602.96
285.048	8595.16
285.116	8603.78
285.184	8615.42
285.252	8615.52
285.319	8602.33
285.387	8585.1
285.455	8567.68
285.523	8568.88
285.591	8569.8
285.659	8567.58
285.726	8578.7
285.794	8563.16
285.862	8564.46
285.93	8567.2
285.997	8560.94
286.065	8561.86
286.133	8553.72
286.201	8554.44
286.269	8542.75
286.336	8535.24
286.404	8535.92
286.472	8548.77
286.539	8522.73
286.607	8510.65
286.675	8505.51
286.743	8515.32
286.81	8514.94
286.878	8529.76
286.946	8522.64
287.013	8520.47
287.081	8521.15
287.149	8508.49
287.216	8528.8
287.284	8521.34
287.352	8523.36
287.419	8519.61
287.487	8531.44
287.555	8536.06
287.622	8529.81
287.69	8531.97
287.758	8549.06
287.825	8540.93
287.893	8525.29
287.96	8535.34
288.028	8545.74
288.096	8557.96
288.163	8557.53
288.231	8547.85
288.298	8540.78
288.366	8555.22
288.433	8551.99
288.501	8541.99
288.569	8544.54
288.636	8536.31
288.704	8553.78
288.771	8555.27
288.839	8550.7
288.906	8543.72
288.974	8548.67
289.041	8548.77
289.109	8542.08
289.176	8548
289.244	8557.96
289.311	8572.98
289.379	8582.99
289.446	8582.55
289.514	8575.38
289.581	8581.49
289.649	8581.78
289.716	8585.83
289.783	8583.47
289.851	8604.06
289.918	8607.05
289.986	8623.84
290.053	8630.68
290.121	8625.05
290.188	8629.86
290.255	8658.64
290.323	8654.98
290.39	8648.05
290.458	8655.03
290.525	8667.83
290.592	8662.2
290.66	8658.98
290.727	8653.63
290.794	8668.55
290.862	8668.65
290.929	8671.44
290.996	8668.22
291.064	8680.54
291.131	8692.71
291.198	8701.43
291.266	8700.27
291.333	8709.22
291.4	8710.76
291.468	8732.71
291.535	8731.17
291.602	8739.69
291.669	8726.12
291.737	8729.53
291.804	8731.99
291.871	8747.73
291.938	8760.34
292.006	8787.93
292.073	8805.16
292.14	8813.24
292.207	8804.1
292.275	8808.14
292.342	8820.46
292.409	8848.48
292.476	8877.89
292.543	8873.51
292.611	8876.21
292.678	8892.09
292.745	8915.39
292.812	8927.19
292.879	8913.71
292.946	8924.05
293.014	8937.53
293.081	8954.53
293.148	8972.53
293.215	8990.44
293.282	8985.62
293.349	8988.12
293.416	8964.39
293.484	8979.41
293.551	8990.87
293.618	9010.75
293.685	9035.16
293.752	9024.52
293.819	9024.61
293.886	9006.99
293.953	9013.92
294.02	9026.73
294.087	9038.48
294.154	9030.49
294.221	9046.18
294.288	9055.62
294.356	9072.81
294.423	9076.13
294.49	9061.54
294.557	9077.19
294.624	9068.09
294.691	9089.32
294.758	9092.5
294.825	9108.82
294.892	9099.57
294.959	9104
295.026	9111.08
295.093	9103.52
295.16	9112.38
295.226	9108.43
295.293	9135.01
295.36	9141.07
295.427	9150.22
295.494	9159.23
295.561	9166.06
295.628	9188.27
295.695	9198.62
295.762	9195.49
295.829	9204.93
295.896	9229.33
295.963	9234.01
296.03	9240.6
296.096	9247.44
296.163	9266.79
296.23	9279.75
296.297	9292.46
296.364	9293.28
296.431	9303.05
296.498	9302.57
296.564	9326.16
296.631	9329.87
296.698	9316.53
296.765	9333.77
296.832	9323.8
296.899	9312.82
296.965	9336.42
297.032	9309.88
297.099	9332.95
297.166	9347.44
297.233	9345.76
297.299	9335.89
297.366	9344.89
297.433	9356.78
297.5	9368.63
297.566	9363.33
297.633	9354.04
297.7	9365.02
297.767	9361.55
297.833	9369.06
297.9	9373.35
297.967	9354.81
298.033	9374.99
298.1	9402.05
298.167	9398.78
298.234	9405.76
298.3	9415.73
298.367	9410.91
298.434	9423.19
298.5	9412.11
298.567	9408.94
298.634	9410.14
298.7	9424.39
298.767	9422.76
298.834	9432.19
298.9	9421.7
298.967	9416.16
299.033	9433.21
299.1	9444.96
299.167	9459.79
299.233	9447.99
299.3	9461.37
299.366	9481.31
299.433	9493.3
299.5	9461.9
299.566	9465.95
299.633	9481.89
299.699	9491.9
299.766	9486.37
299.832	9484.1
299.899	9494.84
299.965	9505.92
300.032	9499.08
300.099	9508.62
300.165	9513.77
300.232	9516.08
300.298	9522.29
300.365	9540.11
300.431	9551.77
300.498	9541.41
300.564	9547.96
300.631	9563.81
300.697	9573.68
300.763	9578.78
300.83	9571.51
300.896	9591.93
300.963	9601.7
301.029	9605.75
301.096	9611.72
301.162	9630.12
301.229	9633.3
301.295	9618.51
301.361	9619.19
301.428	9627.71
301.494	9616.15
301.561	9616.54
301.627	9618.61
301.693	9622.03
301.76	9623.38
301.826	9609.5
301.892	9623.13
301.959	9636.19
302.025	9637.87
302.092	9638.16
302.158	9644.13
302.224	9656.32
302.291	9651.6
302.357	9651.02
302.423	9648.66
302.49	9639.7
302.556	9646.88
302.622	9644.95
302.688	9658.39
302.755	9673.9
302.821	9677.8
302.887	9686.32
302.954	9686.13
303.02	9691.67
303.086	9700.92
303.152	9699.04
303.219	9699.95
303.285	9714.5
303.351	9723.41
303.417	9727.02
303.483	9714.21
303.55	9709.44
303.616	9708.39
303.682	9712.09
303.748	9706.41
303.815	9724.62
303.881	9726.4
303.947	9709.45
304.013	9715.8
304.079	9707.18
304.145	9683.97
304.212	9692.11
304.278	9692.83
304.344	9684.06
304.41	9671.88
304.476	9656.47
304.542	9655.79
304.608	9657.91
304.674	9630.41
304.741	9620.05
304.807	9617.84
304.873	9627.71
304.939	9648.57
305.005	9625.11
305.071	9613.99
305.137	9616.44
305.203	9583.6
305.269	9589.38
305.335	9610.38
305.401	9603.34
305.467	9600.26
305.533	9611.82
305.599	9619.05
305.666	9620.1
305.732	9626.7
305.798	9639.95
305.864	9671.64
305.93	9678.48
305.996	9683.82
306.062	9683.05
306.128	9676.07
306.194	9668.46
306.259	9669.47
306.325	9652.08
306.391	9668.56
306.457	9682.76
306.523	9682.81
306.589	9711.71
306.655	9702.51
306.721	9677.66
306.787	9671.25
306.853	9692.44
306.919	9677.18
306.985	9664.37
307.051	9663.35
307.117	9656.71
307.183	9652.23
307.248	9621.02
307.314	9621.79
307.38	9619.96
307.446	9629.83
307.512	9622.27
307.578	9624.73
307.644	9617.45
307.709	9622.22
307.775	9614.9
307.841	9612.93
307.907	9614.18
307.973	9590.24
308.039	9588.46
308.104	9596.26
308.17	9599.3
308.236	9580.46
308.302	9587.4
308.368	9582.29
308.433	9584.22
308.499	9582.73
308.565	9571.55
308.631	9576.03
308.696	9549.83
308.762	9535.53
308.828	9536.11
308.894	9519.11
308.959	9497.92
309.025	9488.63
309.091	9482.8
309.156	9474.9
309.222	9473.32
309.288	9466.72
309.354	9444.18
309.419	9446.69
309.485	9430.99
309.551	9433.83
309.616	9418.57
309.682	9414.95
309.748	9407.54
309.813	9399.21
309.879	9383.85
309.945	9379.42
310.01	9369.21
310.076	9375.66
310.141	9369.3
310.207	9349.22
310.273	9359.67
310.338	9364.24
310.404	9345.42
310.469	9332.42
310.535	9321
310.601	9300.92
310.666	9299.48
310.732	9317.2
310.797	9308.19
310.863	9299.14
310.928	9288.69
310.994	9293.51
311.059	9288.16
311.125	9283.35
311.191	9292.55
311.256	9280.56
311.322	9281.76
311.387	9264.28
311.453	9528.24
311.518	9508.12
311.584	9509.76
311.649	9514.19
311.715	9506.29
311.78	9516.64
311.846	9510.58
311.911	9517.8
311.976	9518.04
312.042	9502.68
312.107	9486.02
312.173	9475.96
312.238	9470.18
312.304	9470.08
312.369	9463.29
312.434	9454.48
312.5	9448.66
312.565	9411.92
312.631	9426.6
312.696	9416.3
312.761	9425.21
312.827	9152.58
312.892	9192.98
312.958	9196.3
313.023	9190.52
313.088	9191.72
313.154	9174.87
313.219	9162.69
313.284	9152.73
313.35	9151.62
313.415	9144.64
313.48	9141.17
313.546	9142.57
313.611	9152.73
313.676	9140.26
313.741	9133.61
313.807	9142.28
313.872	9145.55
313.937	9158.46
314.003	9168.42
314.068	9173.33
314.133	9174.49
314.198	9163.51
314.264	9137.61
314.329	9124.56
314.394	9119.16
314.459	9113.63
314.525	9133.03
314.59	9129.66
314.655	9117.53
314.72	9121.04
314.785	9122.58
314.851	9116.61
314.916	9096.15
314.981	9081.9
315.046	9074.3
315.111	9061.54
315.176	9044.69
315.242	9049.99
315.307	9044.06
315.372	9022.25
315.437	9012.91
315.502	9002.8
315.567	9015.32
315.632	8999.43
315.698	8997.12
315.763	8990.62
315.828	8986.92
315.893	8983.02
315.958	8981.86
316.023	8971.66
316.088	8952.4
316.153	8934.06
316.218	8928
316.283	8912.98
316.348	8894.55
316.413	8896.18
316.479	8877.03
316.544	8849.88
316.609	8815.27
316.674	8776.92
316.739	8737.03
316.804	8698.67
316.869	8663.54
316.934	8622.53
316.999	8597.74
317.064	8541.97
317.129	8499.62
317.194	8453.47
317.259	8401.83
317.324	8351.8
317.389	8311.14
317.454	8271.44
317.518	8234.4
317.583	8208.7
317.648	8188.02
317.713	8147.56
317.778	8081.89
317.843	8057.93
317.908	8015.03
317.973	7974.24
318.038	7952.21
318.103	7917.73
318.168	7887.53
318.233	7854.01
318.297	7802.89
318.362	7761.29
318.427	7722.92
318.492	7700.13
318.557	7656.67
318.622	7628.15
318.687	7606.04
318.751	7564.65
318.816	7534.93
318.881	7503.64
318.946	7447.05
319.011	7399.55
319.075	7363.17
319.14	7324.53
319.205	7276.51
319.27	7242.49
319.335	7198.9
319.399	7154.4
319.464	7127.16
319.529	7079.44
319.594	7042.54
319.658	7015.2
319.723	6971.62
319.788	6942.76
319.853	6880.97
319.917	6849.13
319.982	6793.31
320.047	6749.69
320.112	6724.76
320.176	6672.07
320.241	6635.04
320.306	6600.9
320.37	6557.88
320.435	6524.6
320.5	6505.11
320.564	6465.64
320.629	6421.96
320.694	6386.63
320.758	6347.7
320.823	6303.83
320.888	6270.52
320.952	6217.97
321.017	6180.82
321.082	6145.07
321.146	6115.75
321.211	6083.26
321.275	6046.99
321.34	6005.93
321.405	5961.85
321.469	5912.58
321.534	5868.7
321.598	5820.16
321.663	5794.11
321.727	5761.64
321.792	5711.19
321.857	5667.78
321.921	5631.92
321.986	5591.85
322.05	5536.63
322.115	5495.21
322.179	5447.15
322.244	5393.19
322.308	5364.29
322.373	5312.86
322.437	5267.39
322.502	5237.81
322.566	5190.38
322.631	5149.18
322.695	5108.13
322.76	5064.07
322.824	5030.64
322.889	4992.14
322.953	4940.96
323.018	4869.89
323.082	4808.42
323.146	4763.24
323.211	4704.45
323.275	4656.77
323.34	4612.08
323.404	4582.94
323.468	4538.15
323.533	4497.68
323.597	4451.34
323.662	4398.61
323.726	4360.39
323.79	4315.57
323.855	4251.69
323.919	4204.17
323.983	4157.25
324.048	4091.75
324.112	4216.88
324.177	4085.14
324.241	3870.59
324.305	3665.88
324.37	3463.7
324.434	3265.5
324.498	3218.11
324.562	3167.05
324.627	3104.69
324.691	3046.51
324.755	2973.09
324.82	2893.29
324.884	2812.41
324.948	2737.62
325.012	2635.98
325.077	2508.56
