Data from 20250704_urea_0.1M_MAYP1162681_11-18-35-695.txt Node
Date: Fri Jul 04 11:18:35 BST 2025
User: adleo
Spectrometer: MAYP116268
Trigger mode: 0
Integration Time (sec): 1.000000E0
Scans to average: 1
Electric dark correction enabled: true
Nonlinearity correction enabled: true
Boxcar width: 10
XAxis mode: Wavelengths
Number of Pixels in Spectrum: 2068
>>>>>Begin Spectral Data<<<<<
179.565	1253.32
179.642	1310.44
179.718	1354.93
179.795	1394
179.871	1425.39
179.948	1440.26
180.024	1461.72
180.101	1485.61
180.177	1500.9
180.254	1526.93
180.33	1551.73
180.407	1609.94
180.483	1707.82
180.56	1801.46
180.636	1888.63
180.712	1874.22
180.789	1885.72
180.865	1895.28
180.942	1903.55
181.018	1913.48
181.095	1923.99
181.171	1931.17
181.248	1933.5
181.324	1948.39
181.4	1956.47
181.477	1968.5
181.553	1984.62
181.63	2006.11
181.706	2019.28
181.782	2027.22
181.859	2024.65
181.935	2026.27
182.011	2022.61
182.088	2039.35
182.164	2058.57
182.24	2071.12
182.317	2080.97
182.393	2080.68
182.469	2098.47
182.546	2112.31
182.622	2116.02
182.698	2111.88
182.775	2121.02
182.851	2134.95
182.927	2126.34
183.003	2122.16
183.08	2118.07
183.156	2125.39
183.232	2120.16
183.308	2113.12
183.385	2122.16
183.461	2139.71
183.537	2142.42
183.613	2153.17
183.69	2143.94
183.766	2133.66
183.842	2143.75
183.918	2149.84
183.995	2161.78
184.071	2161.4
184.147	2154.98
184.223	2142.66
184.299	2158.79
184.375	2149.56
184.452	2160.42
184.528	2215.05
184.604	2224.13
184.68	2235.5
184.756	2244.5
184.832	2250.25
184.908	2250.25
184.985	2250.97
185.061	2234.79
185.137	2244.69
185.213	2231.99
185.289	2236.55
185.365	2229.51
185.441	2226.42
185.517	2239.56
185.593	2233.28
185.669	2233.14
185.745	2243.46
185.822	2260.49
185.898	2250.49
185.974	2259.15
186.05	2244.92
186.126	2205.32
186.202	2198.9
186.278	2195.57
186.354	2184.81
186.43	2192.38
186.506	2196.28
186.582	2193.38
186.658	2200.32
186.734	2181.44
186.81	2187.24
186.886	2187.76
186.962	2198.13
187.038	2194.99
187.114	2184.66
187.19	2194.13
187.266	2186.38
187.341	2186.09
187.417	2180.62
187.493	2178.91
187.569	2183.15
187.645	2179.29
187.721	2169.39
187.797	2176.58
187.873	2181.43
187.949	2177.63
188.025	2169.87
188.101	2171.29
188.176	2179.1
188.252	2174.39
188.328	2179.95
188.404	2180.9
188.48	2175.05
188.556	2171.77
188.632	2169.34
188.707	2170.15
188.783	2168.34
188.859	2159.36
188.935	2149.6
189.011	2157.83
189.086	2151.6
189.162	2140.61
189.238	2134.52
189.314	2132.77
189.39	2129.1
189.465	2121.92
189.541	2137.62
189.617	2122.21
189.693	2117.83
189.768	2119.35
189.844	2142.72
189.92	2134.73
189.996	2143.34
190.071	2155.38
190.147	2153.91
190.223	2164.37
190.298	2159.19
190.374	2147.96
190.45	2160.56
190.526	2167.7
190.601	2161.8
190.677	2164.79
190.753	2193.88
190.828	2200.06
190.904	2214.57
190.98	2227.18
191.055	2235.32
191.131	2229.42
191.207	2250.35
191.282	2258.72
191.358	2246.35
191.433	2233.93
191.509	2249.53
191.585	2244.63
191.66	2247.29
191.736	2254.29
191.811	2246.1
191.887	2260.1
191.963	2282.51
192.038	2290.41
192.114	2288.7
192.189	2293.69
192.265	2290.89
192.34	2269.03
192.416	2269.13
192.491	2264.99
192.567	2270.08
192.642	2272.46
192.718	2269.66
192.793	2260.66
192.869	2258.9
192.944	2263.75
193.02	2272.56
193.095	2273.41
193.171	2277.03
193.246	2274.89
193.322	2272.32
193.397	2271.51
193.473	2259.94
193.548	2240.95
193.624	2244.48
193.699	2246.33
193.775	2259.71
193.85	2260.37
193.925	2269.46
194.001	2266.23
194.076	2261.71
194.152	2251.71
194.227	2247.67
194.302	2239.44
194.378	2240.06
194.453	2234.97
194.529	2247.62
194.604	2232.25
194.679	2227.78
194.755	2211.51
194.83	2223.6
194.905	2220.51
194.981	2232.65
195.056	2223.23
195.131	2227.79
195.207	2228.51
195.282	2219.42
195.357	2203.38
195.433	2220.18
195.508	2208.66
195.583	2214.75
195.659	2225.93
195.734	2232.45
195.809	2228.89
195.884	2236.59
195.96	2237.49
196.035	2254.96
196.11	2251.72
196.185	2261.33
196.261	2264.47
196.336	2296.26
196.411	2282.79
196.486	2288.55
196.561	2281.55
196.637	2291.73
196.712	2309.97
196.787	2312.01
196.862	2326
196.937	2334.43
197.013	2340.42
197.088	2350.66
197.163	2377.37
197.238	2398.14
197.313	2397.8
197.388	2411.89
197.464	2444.94
197.539	2455.32
197.614	2445.75
197.689	2458.13
197.764	2476.18
197.839	2498.55
197.914	2492.03
197.989	2515.79
198.065	2530.89
198.14	2579.44
198.215	2605.16
198.29	2617.07
198.365	2631.69
198.44	2642.17
198.515	2672.32
198.59	2685.61
198.665	2711.38
198.74	2719.2
198.815	2719.15
198.89	2742.83
198.965	2773.8
199.04	2769.99
199.115	2787.14
199.19	2830.49
199.265	2834.4
199.34	2844.17
199.415	2875.78
199.49	2897.27
199.565	2905.89
199.64	2928.34
199.715	2926.96
199.79	2937.78
199.865	2943.26
199.94	2940.98
200.015	2977.4
200.09	2982.55
200.165	2992.51
200.24	3000.81
200.315	3046
200.39	3059.12
200.464	3067.84
200.539	3069.7
200.614	3086.25
200.689	3110.57
200.764	3119.06
200.839	3138.65
200.914	3143.41
200.989	3135.45
201.063	3148.13
201.138	3132.31
201.213	3134.46
201.288	3117.53
201.363	3122.11
201.438	3124.25
201.512	3139.55
201.587	3119.71
201.662	3120.95
201.737	3132.63
201.812	3141.55
201.886	3105.32
201.961	3121.36
202.036	3109.15
202.111	3107.62
202.186	3080.98
202.26	3067.34
202.335	3050.12
202.41	3044.88
202.485	3032.44
202.559	3016.61
202.634	2996.3
202.709	3007.59
202.784	2994.05
202.858	2999.67
202.933	2985.7
203.008	2986.13
203.082	2974.41
203.157	2977.93
203.232	2944.72
203.306	2933.27
203.381	2909.91
203.456	2898.37
203.53	2880.24
203.605	2873.14
203.68	2864.6
203.754	2872.37
203.829	2873.51
203.904	2869.65
203.978	2882.58
204.053	2910.66
204.127	2921.68
204.202	2947.47
204.277	2960.78
204.351	2985.38
204.426	3007.95
204.5	3035.66
204.575	3039.33
204.65	3093.54
204.724	3134.4
204.799	3188.28
204.873	3233.96
204.948	3291.47
205.022	3332.79
205.097	3388.81
205.171	3465.52
205.246	3538.46
205.32	3608.82
205.395	3679.23
205.469	3745.69
205.544	3826.9
205.618	3889.7
205.693	3987.51
205.767	4061.17
205.842	4176.91
205.916	4264.42
205.991	4357.89
206.065	4466.31
206.14	4588.71
206.214	4692.01
206.289	4800.57
206.363	4929.08
206.438	5052.22
206.512	5177.71
206.586	5329.59
206.661	5466.01
206.735	5574.85
206.81	5714.11
206.884	5869.78
206.958	6003.08
207.033	6170.93
207.107	6326.44
207.181	6514.7
207.256	6661.25
207.33	6839.78
207.405	7008.56
207.479	7188
207.553	7360.51
207.628	7508.37
207.702	7687.48
207.776	7851.59
207.851	8022.79
207.925	8211.26
207.999	8381.46
208.073	8558.67
208.148	8744.59
208.222	8913.77
208.296	9128.22
208.371	9329.78
208.445	9525.75
208.519	9745.66
208.593	9940.37
208.668	10129.24
208.742	10316.7
208.816	10514.15
208.89	10717.22
208.965	10909.44
209.039	11111.19
209.113	11317.1
209.187	11536.58
209.261	11726.02
209.336	11932.33
209.41	12150.32
209.484	12351.22
209.558	12569.13
209.632	12779.04
209.707	12977.92
209.781	13190.06
209.855	13399.16
209.929	13605.91
210.003	13803.84
210.077	13983.88
210.151	14224.8
210.226	14443.54
210.3	14654.96
210.374	14852.69
210.448	15036.73
210.522	15221.97
210.596	15417.52
210.67	15612.64
210.744	15841.78
210.818	16057.77
210.892	16271.81
210.966	16440.32
211.041	16627.27
211.115	16795.53
211.189	16986.58
211.263	17171.21
211.337	17351.17
211.411	17537.63
211.485	17693.06
211.559	17852.96
211.633	18018.51
211.707	18141.63
211.781	18306.3
211.855	18437.62
211.929	18594.83
212.003	18732.99
212.077	18901.8
212.151	19060.83
212.225	19214.71
212.299	19347.09
212.373	19472.53
212.447	19597.15
212.52	19765.1
212.594	19915.17
212.668	20071.65
212.742	20192.56
212.816	20321.91
212.89	20447.51
212.964	20567.66
213.038	20702.17
213.112	20857.21
213.186	20995.68
213.26	21112.46
213.333	21192.9
213.407	21304.42
213.481	21428.24
213.555	21567.78
213.629	21676.67
213.703	21790.14
213.777	21905.2
213.85	22007.73
213.924	22157.42
213.998	22279.96
214.072	22383.28
214.146	22470.15
214.219	22562.04
214.293	22656.53
214.367	22756.67
214.441	22864.33
214.515	22968.28
214.588	23043.45
214.662	23108.11
214.736	23193.5
214.81	23282.36
214.883	23379.81
214.957	23462.55
215.031	23542.98
215.105	23597.13
215.178	23671.45
215.252	23746.35
215.326	23797.9
215.4	23847
215.473	23881.82
215.547	23926.63
215.621	23989.92
215.694	24067
215.768	24124.01
215.842	24190.18
215.915	24242.42
215.989	24289.55
216.063	24337.41
216.136	24405.81
216.21	24459.55
216.284	24531.72
216.357	24603.27
216.431	24668.83
216.504	24742.65
216.578	24817.96
216.652	24893.12
216.725	24943.83
216.799	24996.91
216.873	25057.76
216.946	25116.91
217.02	25155.7
217.093	25207.47
217.167	25234.74
217.24	25262.2
217.314	25303.93
217.387	25345.87
217.461	25391.42
217.535	25446.2
217.608	25469.51
217.682	25515.36
217.755	25559.18
217.829	25580.94
217.902	25618.64
217.976	25656.87
218.049	25679.46
218.123	25704.89
218.196	25751.62
218.27	25779.23
218.343	25795.93
218.417	25823.15
218.49	25857.66
218.563	25912.26
218.637	25956.24
218.71	26014.26
218.784	26065.87
218.857	26107.62
218.931	26146.58
219.004	26183.03
219.077	26221.27
219.151	26254.96
219.224	26271.57
219.298	26317.58
219.371	26359.44
219.444	26364.41
219.518	26390.1
219.591	26420.9
219.665	26471.99
219.738	26488.17
219.811	26514.19
219.885	26548.71
219.958	26581.6
220.031	26609.07
220.105	26638.82
220.178	26663.59
220.251	26672.48
220.325	26698.6
220.398	26723.57
220.471	26742.83
220.544	26762.39
220.618	26769.49
220.691	26790.59
220.764	26810.49
220.838	26828.79
220.911	26847.43
220.984	26883.84
221.057	26900.26
221.131	26915.43
221.204	26890.41
221.277	26926.44
221.35	26970.29
221.424	26978.07
221.497	26992.07
221.57	26990.53
221.643	26995.31
221.716	27003.43
221.79	27014.34
221.863	27009.27
221.936	27021.97
222.009	27025.98
222.082	27033.42
222.155	27023.76
222.229	27051.63
222.302	27056.7
222.375	27040.47
222.448	27036.95
222.521	27045.06
222.594	27034.19
222.667	27013.33
222.74	27023.52
222.814	27007.05
222.887	26977.83
222.96	26983.14
223.033	26985.65
223.106	26989.42
223.179	26995.31
223.252	26991.16
223.325	26982.46
223.398	26982.9
223.471	26969.38
223.544	26964.16
223.617	26959.57
223.69	26963.97
223.763	26937.16
223.837	26933.39
223.91	26943.34
223.983	26930.35
224.056	26903.84
224.129	26894.76
224.202	26908.52
224.275	26893.11
224.348	26867.95
224.42	26848.59
224.493	26813.63
224.566	26796.63
224.639	26795.61
224.712	26758.86
224.785	26725.93
224.858	26694.49
224.931	26658.03
225.004	26626.6
225.077	26603.47
225.15	26560.78
225.223	26541.32
225.296	26544.8
225.369	26499.7
225.442	26459.82
225.514	26433.16
225.587	26409.94
225.66	26395.02
225.733	26365.42
225.806	26345.63
225.879	26327.52
225.952	26299.62
226.025	26290.73
226.097	26274.03
226.17	26237.86
226.243	26202.62
226.316	26189.83
226.389	26174.38
226.461	26173.51
226.534	26149.28
226.607	26120.7
226.68	26110.66
226.753	26073.15
226.825	26011.4
226.898	26015.7
226.971	25996.05
227.044	25975.3
227.117	25955.94
227.189	25938.41
227.262	25918.82
227.335	25892.22
227.407	25858.29
227.48	25829.91
227.553	25808.28
227.626	25775.21
227.698	25737.42
227.771	25715.22
227.844	25665.99
227.916	25627.43
227.989	25568.45
228.062	25537.85
228.134	25528.68
228.207	25499.05
228.28	25468.94
228.352	25444.66
228.425	25408.9
228.498	25391.91
228.57	25356.82
228.643	25338.24
228.716	25302.14
228.788	25270.58
228.861	25225.94
228.934	25206.16
229.006	25177.26
229.079	25132.28
229.151	25098.12
229.224	25064.82
229.296	25040.46
229.369	25056.91
229.442	25054.5
229.514	25027.05
229.587	25008.86
229.659	24962.05
229.732	24931.66
229.804	24917.52
229.877	24915.49
229.949	24889.44
230.022	24866.52
230.094	24822.37
230.167	24782.09
230.239	24737.89
230.312	24710.25
230.384	24720.96
230.457	24693.41
230.529	24669.44
230.602	24644.54
230.674	24618.39
230.747	24599.53
230.819	24570.93
230.892	24497.98
230.964	24455.91
231.037	24429.77
231.109	24396.68
231.181	24374.49
231.254	24321.19
231.326	24278.79
231.399	24237.88
231.471	24193.45
231.544	24124.62
231.616	24104.8
231.688	24074.6
231.761	24032.69
231.833	23989.86
231.905	23919.39
231.978	23882.68
232.05	23835.03
232.122	23801.47
232.195	23743.93
232.267	23714.36
232.339	23674.77
232.412	23641.54
232.484	23598.47
232.556	23552.13
232.629	23531.83
232.701	23504.14
232.773	23482.11
232.846	23446.13
232.918	23406.01
232.99	23366.8
233.062	23347.13
233.135	23308.51
233.207	23255.03
233.279	23222.43
233.351	23187.23
233.424	23144.18
233.496	23093.6
233.568	23081.2
233.64	23032.7
233.713	23012.59
233.785	22967.46
233.857	22937.04
233.929	22896.44
234.001	22879.18
234.074	22858.3
234.146	22801.31
234.218	22752.76
234.29	22714.19
234.362	22667.13
234.434	22610.29
234.507	22562.03
234.579	22506.59
234.651	22462.24
234.723	22433.46
234.795	22396.97
234.867	22347.7
234.939	22321.52
235.012	22292.98
235.084	22253.98
235.156	22221.73
235.228	22175.5
235.3	22134.33
235.372	22090.51
235.444	22051.22
235.516	21983.69
235.588	21939.82
235.66	21899.28
235.732	21848.43
235.804	21861.92
235.876	21830.59
235.948	21804.03
236.02	21772.9
236.092	21728.12
236.164	21697.41
236.236	21646.08
236.308	21601.69
236.38	21569.78
236.452	21519.17
236.524	21466.06
236.596	21430.87
236.668	21385.37
236.74	21330.62
236.812	21284.15
236.884	21239.67
236.956	21196.63
237.028	21146.45
237.1	21090.55
237.172	21062.11
237.244	21032.04
237.316	20943.3
237.388	20894.86
237.46	20844.11
237.532	20813.12
237.604	20765.07
237.675	20725.89
237.747	20688.54
237.819	20638.85
237.891	20603.57
237.963	20547.33
238.035	20510.61
238.107	20430.22
238.178	20410.85
238.25	20364.25
238.322	20354.95
238.394	20297.12
238.466	20258.08
238.538	20224.59
238.609	20192.73
238.681	20126.85
238.753	20075.14
238.825	20038.66
238.897	19991
238.968	19967.68
239.04	19909.99
239.112	19895.63
239.184	19843.92
239.255	19798.57
239.327	19764.31
239.399	19717.04
239.471	19691.01
239.542	19644.99
239.614	19624.9
239.686	19539.74
239.758	19506.01
239.829	19437.82
239.901	19414.98
239.973	19377.2
240.044	19333.25
240.116	19292.62
240.188	19250.55
240.259	19208.58
240.331	19155.28
240.403	19121.41
240.474	19062.37
240.546	19011.29
240.618	18955.63
240.689	18912.17
240.761	18874.14
240.833	18840.12
240.904	18795.5
240.976	18747.12
241.048	18712.18
241.119	18672.28
241.191	18651.12
241.262	18639.07
241.334	18601.1
241.405	18554.26
241.477	18497.59
241.549	18461.16
241.62	18416.39
241.692	18381.26
241.763	18353.74
241.835	18312.87
241.906	18280.83
241.978	18225.36
242.049	18202.95
242.121	18169.41
242.192	18135.73
242.264	18077.94
242.335	18021.46
242.407	17989.9
242.478	17952.98
242.55	17908.75
242.621	17866.77
242.693	17815.16
242.764	17752.61
242.836	17698.49
242.907	17659.26
242.979	17631.88
243.05	17604.13
243.122	17575.21
243.193	17533.91
243.264	17468.9
243.336	17433.96
243.407	17402.44
243.479	17384.71
243.55	17348.32
243.622	17312.85
243.693	17268.9
243.764	17253.28
243.836	17210.44
243.907	17170.29
243.978	17122.53
244.05	17096.51
244.121	17045.37
244.192	17018.1
244.264	16974.67
244.335	16953.95
244.407	16903.68
244.478	16865.03
244.549	16814.52
244.62	16759.14
244.692	16720.92
244.763	16705.98
244.834	16656.29
244.906	16607.91
244.977	16578.27
245.048	16554.02
245.119	16510.89
245.191	16468.72
245.262	16405.67
245.333	16384.32
245.405	16334.97
245.476	16304.6
245.547	16265.37
245.618	16235.73
245.689	16206.09
245.761	16174.9
245.832	16120.78
245.903	16091.38
245.974	16062.22
246.045	16019.42
246.117	15994.35
246.188	15940.85
246.259	15882.14
246.33	15853.03
246.401	15812.21
246.473	15755.23
246.544	15709.78
246.615	15686.7
246.686	15650.93
246.757	15637.29
246.828	15592.85
246.899	15579.83
246.97	15541.32
247.042	15499.58
247.113	15472.68
247.184	15454.13
247.255	15409.44
247.326	15382.84
247.397	15353.39
247.468	15325.28
247.539	15298.48
247.61	15248.64
247.681	15231.14
247.752	15211.96
247.823	15163.27
247.894	15134.21
247.965	15090.05
248.037	15049.18
248.108	14993.21
248.179	14954.02
248.25	14915.9
248.321	14898.3
248.392	14854.24
248.463	14843.4
248.534	14803.73
248.605	14774.18
248.675	14743.95
248.746	14716.53
248.817	14696.38
248.888	14663.98
248.959	14608.93
249.03	14584.06
249.101	14559.91
249.172	14526.21
249.243	14475.89
249.314	14466.87
249.385	14438.91
249.456	14418.14
249.527	14385.65
249.598	14361.45
249.669	14330.02
249.739	14308.71
249.81	14281.91
249.881	14244.07
249.952	14205.21
250.023	14178.27
250.094	14136.57
250.165	14095.4
250.235	14069.8
250.306	14042.18
250.377	14000.82
250.448	13980.24
250.519	13936.71
250.59	13927.98
250.66	13898.14
250.731	13892.6
250.802	13858.66
250.873	13835.38
250.944	13805.34
251.014	13772.61
251.085	13772.56
251.156	13758.01
251.227	13741.42
251.297	13725.66
251.368	13704.06
251.439	13686.9
251.51	13673.89
251.58	13638.5
251.651	13598.97
251.722	13584.61
251.792	13544.07
251.863	13524.83
251.934	13515
252.005	13511.96
252.075	13483.28
252.146	13472.53
252.217	13454.79
252.287	13443.12
252.358	13409.23
252.429	13413.76
252.499	13379.87
252.57	13355.34
252.641	13335.48
252.711	13308.38
252.782	13262.97
252.852	13261.77
252.923	13241.28
252.994	13216.5
253.064	13202.09
253.135	13175.43
253.205	13142.6
253.276	13132.57
253.347	13120.81
253.417	13081.43
253.488	13047.88
253.558	13018.62
253.629	12989.84
253.699	12971.57
253.77	12955.18
253.841	12931.89
253.911	12899.21
253.982	12886.53
254.052	12874.19
254.123	12854.57
254.193	12833.55
254.264	12848.4
254.334	12806.51
254.405	12767.37
254.475	12732.22
254.546	12714.73
254.616	12703.64
254.687	12684.41
254.757	12659.97
254.827	12636.01
254.898	12619.86
254.968	12601.69
255.039	12572.14
255.109	12555.31
255.18	12514
255.25	12467.73
255.321	12452.59
255.391	12421.88
255.461	12421.06
255.532	12366.93
255.602	12341.48
255.673	12298
255.743	12267.29
255.813	12227.38
255.884	12219.77
255.954	12208.34
256.024	12204.15
256.095	12191.42
256.165	12162.89
256.235	12150.79
256.306	12123.07
256.376	12119.26
256.446	12115.65
256.517	12103.84
256.587	12093.86
256.657	12075.88
256.728	12059.25
256.798	12035.3
256.868	12014.33
256.938	11993.17
257.009	11983.62
257.079	11967.67
257.149	11976.59
257.219	11937.59
257.29	11929.83
257.36	11887.95
257.43	11881.01
257.5	11833.58
257.571	11806.49
257.641	11798.39
257.711	11765.52
257.781	11749.18
257.852	11730.14
257.922	11681.17
257.992	11659.63
258.062	11636.49
258.132	11634.51
258.202	11608.54
258.273	11594.22
258.343	11592.34
258.413	11559.33
258.483	11541.93
258.553	11513.39
258.623	11481.82
258.693	11464.04
258.764	11456.62
258.834	11459.27
258.904	11440.76
258.974	11420.23
259.044	11399.51
259.114	11382.11
259.184	11370.64
259.254	11353.82
259.324	11315.6
259.394	11299.21
259.464	11300.22
259.535	11278.25
259.605	11244.27
259.675	11225.91
259.745	11207.12
259.815	11181.91
259.885	11154.78
259.955	11159.45
260.025	11135.31
260.095	11117
260.165	11103.94
260.235	11099.41
260.305	11066.59
260.375	11031.02
260.445	11033.96
260.515	11032.71
260.585	11024.23
260.655	11002.64
260.725	10992.47
260.795	10982.3
260.865	10987.46
260.934	10951.8
261.004	10944.86
261.074	10936.43
261.144	10939.27
261.214	10938.69
261.284	10916.52
261.354	10910.69
261.424	10881.25
261.494	10883.66
261.564	10863.42
261.634	10859.03
261.703	10831.37
261.773	10823.95
261.843	10817.06
261.913	10800.58
261.983	10762.66
262.053	10749.89
262.123	10738.23
262.192	10711.39
262.262	10704.84
262.332	10678.43
262.402	10677.56
262.472	10662.24
262.541	10624.32
262.611	10617
262.681	10589.39
262.751	10582.06
262.821	10568.91
262.89	10540.96
262.96	10527.62
263.03	10540.05
263.1	10525.64
263.169	10506.71
263.239	10501.94
263.309	10509.12
263.379	10497.07
263.448	10488.93
263.518	10480.93
263.588	10459.92
263.657	10459.88
263.727	10450.67
263.797	10428.56
263.867	10409.77
263.936	10381.2
264.006	10383.66
264.076	10364.67
264.145	10345.74
264.215	10318.86
264.285	10313.85
264.354	10282.92
264.424	10265.29
264.494	10231.76
264.563	10207.71
264.633	10208.44
264.702	10199.04
264.772	10157.8
264.842	10135.88
264.911	10120.47
264.981	10086.89
265.05	10080.96
265.12	10065.21
265.19	10058.08
265.259	10059.33
265.329	10051.24
265.398	10038.28
265.468	10052.06
265.537	10034.28
265.607	10029.23
265.676	10031.63
265.746	10022.87
265.815	10026.53
265.885	10008.18
265.955	9985.34
266.024	9968.44
266.094	9934.53
266.163	9929.08
266.232	9932.21
266.302	9919.45
266.371	9917.91
266.441	9909.19
266.51	9903.7
266.58	9885.01
266.649	9862.71
266.719	9854.71
266.788	9846.38
266.858	9849.89
266.927	9808.42
266.996	9792.14
267.066	9781.06
267.135	9755.97
267.205	9742.87
267.274	9731.12
267.343	9735.65
267.413	9725.97
267.482	9726.54
267.552	9732.32
267.621	9701.74
267.69	9675.3
267.76	9667.93
267.829	9654.49
267.898	9644.23
267.968	9621.79
268.037	9622.42
268.106	9611.63
268.176	9590.34
268.245	9571.7
268.314	9554.07
268.384	9555.52
268.453	9545.21
268.522	9538.18
268.592	9539.77
268.661	9521.37
268.73	9516.08
268.799	9490.65
268.869	9494.02
268.938	9466.67
269.007	9442.2
269.076	9435.99
269.146	9434.11
269.215	9427.08
269.284	9432.81
269.353	9415.24
269.422	9400.17
269.492	9375.8
269.561	9339.93
269.63	9338.05
269.699	9322.84
269.768	9315.9
269.838	9305.02
269.907	9304.4
269.976	9273.96
270.045	9240.17
270.114	9236.55
270.183	9224.81
270.253	9215.99
270.322	9190.96
270.391	9179.69
270.46	9188.17
270.529	9185.81
270.598	9180.7
270.667	9168.57
270.736	9144.73
270.806	9139.73
270.875	9145.6
270.944	9134
271.013	9157.73
271.082	9148.3
271.151	9146.56
271.22	9118.01
271.289	9106.46
271.358	9098.76
271.427	9097.65
271.496	9093.27
271.565	9080.22
271.634	9070.59
271.703	9097.36
271.772	9093.37
271.841	9080.9
271.91	9054.42
271.979	9043.11
272.048	9022.17
272.117	9019.76
272.186	9006.76
272.255	9008.69
272.324	8999.25
272.393	8999.49
272.462	8984.76
272.531	8978.98
272.6	8964.97
272.669	8967.43
272.738	8959.39
272.807	8946.2
272.876	8926.9
272.945	8952.36
273.013	8954.62
273.082	8958.38
273.151	8914.18
273.22	8916.49
273.289	8915.05
273.358	8927.23
273.427	8922.7
273.496	8921.69
273.564	8919.96
273.633	8921.64
273.702	8895.51
273.771	8891.61
273.84	8890.88
273.909	8884.77
273.977	8879.57
274.046	8870.09
274.115	8878.46
274.184	8860.51
274.253	8855.46
274.322	8866.24
274.39	8837.21
274.459	8822.1
274.528	8785.47
274.597	8785.66
274.665	8779.31
274.734	8781.43
274.803	8766.12
274.872	8757.21
274.94	8748.5
275.009	8802.01
275.078	8783.23
275.147	8785.45
275.215	8778.85
275.284	8780.64
275.353	8768.51
275.421	8739.44
275.49	8762.11
275.559	8747.91
275.627	8746.18
275.696	8736.65
275.765	8732.75
275.833	8718.26
275.902	8717.83
275.971	8735.15
276.039	8748.05
276.108	8748.97
276.177	8755.13
276.245	8749.88
276.314	8741.12
276.383	8747.09
276.451	8683.24
276.52	8691.9
276.588	8704.18
276.657	8708.36
276.725	8700.86
276.794	8702.11
276.863	8716.98
276.931	8685.83
277	8693.68
277.068	8706.53
277.137	8721.55
277.205	8725.2
277.274	8745.75
277.342	8752.83
277.411	8737.86
277.48	8722.12
277.548	8713.51
277.617	8706.91
277.685	8701.62
277.754	8704.65
277.822	8689.2
277.89	8705.76
277.959	8696.33
278.027	8678.76
278.096	8665.19
278.164	8689.16
278.233	8679.73
278.301	8674.24
278.37	8685.12
278.438	8673.28
278.507	8669.91
278.575	8644.89
278.643	8639.3
278.712	8628.28
278.78	8608.5
278.849	8616.15
278.917	8628.81
278.985	8624.33
279.054	8623.13
279.122	8630.54
279.191	8627.7
279.259	8625.3
279.327	8605.08
279.396	8620.86
279.464	8614.18
279.532	8620.14
279.601	8613.84
279.669	8616.44
279.737	8625.53
279.806	8625.24
279.874	8632.03
279.942	8636.79
280.011	8637.52
280.079	8643.82
280.147	8653.93
280.215	8666.15
280.284	8664.66
280.352	8643.68
280.42	8655.71
280.488	8649.84
280.557	8647.33
280.625	8646.9
280.693	8648.63
280.761	8645.7
280.83	8629.24
280.898	8644.3
280.966	8623.94
281.034	8591.89
281.102	8572.79
281.171	8571.15
281.239	8577.46
281.307	8571.82
281.375	8557.15
281.443	8579.91
281.512	8573.36
281.58	8580.87
281.648	8564.17
281.716	8562.88
281.784	8568.36
281.852	8555.94
281.92	8552.19
281.989	8564.42
282.057	8549.35
282.125	8594.12
282.193	8591.67
282.261	8596.19
282.329	8592.39
282.397	8603.74
282.465	8607.3
282.533	8625.01
282.601	8610.04
282.67	8592.81
282.738	8584.73
282.806	8597.82
282.874	8585.5
282.942	8591.08
283.01	8581.79
283.078	8587.18
283.146	8583.52
283.214	8593.87
283.282	8603.4
283.35	8619.14
283.418	8610.38
283.486	8617.16
283.554	8578.7
283.622	8581.73
283.69	8577.59
283.758	8570.04
283.826	8576.63
283.894	8590.68
283.962	8613.45
284.03	8626.4
284.098	8627.41
284.165	8627.26
284.233	8624.04
284.301	8617.88
284.369	8605.12
284.437	8596.8
284.505	8591.94
284.573	8613.74
284.641	8601.27
284.709	8607.63
284.777	8590.11
284.845	8595.89
284.912	8606.28
284.98	8613.64
285.048	8606.62
285.116	8607.72
285.184	8622.11
285.252	8618.7
285.319	8597.91
285.387	8590.11
285.455	8578.75
285.523	8586.55
285.591	8582.07
285.659	8582.46
285.726	8595.31
285.794	8586.98
285.862	8588.14
285.93	8590.21
285.997	8576.92
286.065	8569.42
286.133	8552.09
286.201	8552.86
286.269	8537.75
286.336	8531.3
286.404	8517.2
286.472	8523.84
286.539	8508.39
286.607	8495.16
286.675	8496.6
286.743	8512.05
286.81	8499.59
286.878	8515.42
286.946	8505.5
287.013	8507.33
287.081	8504.3
287.149	8488.85
287.216	8504.64
287.284	8496.46
287.352	8500.55
287.419	8504.25
287.487	8523.07
287.555	8531.25
287.622	8529.28
287.69	8536.35
287.758	8541.4
287.825	8544.44
287.893	8535.92
287.96	8543.38
288.028	8556.03
288.096	8556.95
288.163	8556.32
288.231	8547.08
288.298	8542.65
288.366	8558.2
288.433	8553.63
288.501	8549.83
288.569	8559.45
288.636	8554.06
288.704	8570.23
288.771	8574.9
288.839	8564.46
288.906	8554.83
288.974	8561.76
289.041	8550.26
289.109	8540.88
289.176	8554.12
289.244	8553.54
289.311	8567.98
289.379	8576.49
289.446	8576.35
289.514	8576.01
289.581	8576.97
289.649	8582.84
289.716	8584.63
289.783	8573.89
289.851	8592.32
289.918	8589.58
289.986	8594.83
290.053	8606.67
290.121	8600.94
290.188	8603.06
290.255	8630.63
290.323	8623.56
290.39	8620.82
290.458	8640.59
290.525	8653.83
290.592	8651.9
290.66	8660.47
290.727	8652.91
290.794	8664.51
290.862	8662.15
290.929	8667.16
290.996	8669.13
291.064	8674.28
291.131	8686.27
291.198	8699.5
291.266	8696.95
291.333	8701.38
291.4	8710.52
291.468	8725.45
291.535	8721.69
291.602	8725.16
291.669	8720.49
291.737	8730.79
291.804	8728.76
291.871	8747.54
291.938	8753.12
292.006	8782.25
292.073	8792.11
292.14	8799.33
292.207	8796.93
292.275	8801.98
292.342	8808.34
292.409	8835.78
292.476	8862.35
292.543	8856.04
292.611	8859.7
292.678	8881.89
292.745	8903.84
292.812	8912.98
292.879	8909.95
292.946	8921.41
293.014	8941.67
293.081	8953.42
293.148	8969.11
293.215	8983.7
293.282	8970.8
293.349	8985.14
293.416	8957.22
293.484	8965.5
293.551	8980.66
293.618	8998.09
293.685	9024.23
293.752	9024.37
293.819	9017.15
293.886	9011.08
293.953	9013.44
294.02	9024.85
294.087	9032.22
294.154	9031.54
294.221	9047.77
294.288	9044.31
294.356	9066.11
294.423	9069.68
294.49	9062.02
294.557	9076.61
294.624	9071.27
294.691	9097.94
294.758	9096.25
294.825	9108.38
294.892	9108.82
294.959	9108.05
295.026	9117.92
295.093	9115.07
295.16	9117.82
295.226	9120.51
295.293	9145.02
295.36	9153.5
295.427	9165.87
295.494	9179.02
295.561	9190.62
295.628	9213.64
295.695	9232.61
295.762	9229.62
295.829	9240.7
295.896	9252.21
295.963	9260.06
296.03	9274.88
296.096	9279.55
296.163	9297.76
296.23	9312.3
296.297	9329.1
296.364	9336.23
296.431	9341.81
296.498	9333.48
296.564	9358.33
296.631	9361.74
296.698	9355.24
296.765	9374.74
296.832	9367.91
296.899	9351.29
296.965	9364.54
297.032	9341.37
297.099	9359.04
297.166	9367.52
297.233	9361.16
297.299	9362.61
297.366	9362.22
297.433	9364.77
297.5	9368.24
297.566	9365.16
297.633	9364.63
297.7	9363.62
297.767	9363.04
297.833	9364.63
297.9	9368.62
297.967	9348.98
298.033	9358.61
298.1	9375.56
298.167	9366.9
298.234	9370.46
298.3	9382.11
298.367	9378.07
298.434	9385
298.5	9376.09
298.567	9375.85
298.634	9376.43
298.7	9392.56
298.767	9395.4
298.834	9407.34
298.9	9407.78
298.967	9399.69
299.033	9412.83
299.1	9425.07
299.167	9443.8
299.233	9440.43
299.3	9460.99
299.366	9485.06
299.433	9502.93
299.5	9483.96
299.566	9495.32
299.633	9512.32
299.699	9528.98
299.766	9535.82
299.832	9540.45
299.899	9548.87
299.965	9560.91
300.032	9558.26
300.099	9563.27
300.165	9568.76
300.232	9562.74
300.298	9567.51
300.365	9585.62
300.431	9584.56
300.498	9586.24
300.564	9584.85
300.631	9597.99
300.697	9613.79
300.763	9613.12
300.83	9614.32
300.896	9627.76
300.963	9636.57
301.029	9637.2
301.096	9636.14
301.162	9642.83
301.229	9637.73
301.295	9628.19
301.361	9633.2
301.428	9640.38
301.494	9627.28
301.561	9634.07
301.627	9641.39
301.693	9637.68
301.76	9642.16
301.826	9636.23
301.892	9643.12
301.959	9654.15
302.025	9652.95
302.092	9642.88
302.158	9648.08
302.224	9651.89
302.291	9638.31
302.357	9638.31
302.423	9637.73
302.49	9629.16
302.556	9640.28
302.622	9642.02
302.688	9655.6
302.755	9671.44
302.821	9676.21
302.887	9685.7
302.954	9685.55
303.02	9695.76
303.086	9705.06
303.152	9704.53
303.219	9701.83
303.285	9712.43
303.351	9724.71
303.417	9721.39
303.483	9709.98
303.55	9703.57
303.616	9698.37
303.682	9707.52
303.748	9697.36
303.815	9709.64
303.881	9724.81
303.947	9710.65
304.013	9710.26
304.079	9704.63
304.145	9682.91
304.212	9683.53
304.278	9678.86
304.344	9668.8
304.41	9658.39
304.476	9652.04
304.542	9646.3
304.608	9658.83
304.674	9636.57
304.741	9627.85
304.807	9638.74
304.873	9647.02
304.939	9665.71
305.005	9643.12
305.071	9634.79
305.137	9642.02
305.203	9620.49
305.269	9616.34
305.335	9628.58
305.401	9634.89
305.467	9628.87
305.533	9639.66
305.599	9651.5
305.666	9664.03
305.732	9666.05
305.798	9677.08
305.864	9704.2
305.93	9707.86
305.996	9702.61
306.062	9702.99
306.128	9696.63
306.194	9680.98
306.259	9675.92
306.325	9670.58
306.391	9683.39
306.457	9695.04
306.523	9692.34
306.589	9718.06
306.655	9711.56
306.721	9693.5
306.787	9675.59
306.853	9690.66
306.919	9670.24
306.985	9661.38
307.051	9653.63
307.117	9649.48
307.183	9639.66
307.248	9606.95
307.314	9615.87
307.38	9620.1
307.446	9629.35
307.512	9622.42
307.578	9630.41
307.644	9630.65
307.709	9622.17
307.775	9622.8
307.841	9616.44
307.907	9615.53
307.973	9592.89
308.039	9597.27
308.104	9603.15
308.17	9612.15
308.236	9600.83
308.302	9606.95
308.368	9595.25
308.433	9591.2
308.499	9588.99
308.565	9579.93
308.631	9590.82
308.696	9562.02
308.762	9549.98
308.828	9551.66
308.894	9532.02
308.959	9513
309.025	9501.63
309.091	9500.43
309.156	9488.44
309.222	9499.18
309.288	9490.32
309.354	9469.03
309.419	9462.58
309.485	9453
309.551	9446.88
309.616	9435.18
309.682	9431.76
309.748	9419.67
309.813	9414.91
309.879	9406.82
309.945	9395.02
310.01	9385.34
310.076	9390.35
310.141	9384.47
310.207	9366.27
310.273	9372.33
310.338	9377.44
310.404	9366.32
310.469	9356.4
310.535	9352.83
310.601	9320.81
310.666	9327.36
310.732	9336.8
310.797	9317.39
310.863	9300.06
310.928	9302.18
310.994	9301.26
311.059	9303.33
311.125	9306.41
311.191	9315.56
311.256	9304.73
311.322	9310.89
311.387	9290.14
311.453	9678.21
311.518	9652.98
311.584	9655.97
311.649	9656.45
311.715	9645.09
311.78	9644.94
311.846	9633.87
311.911	9638.15
311.976	9645.52
312.042	9626.31
312.107	9615.33
312.173	9616.63
312.238	9617.4
312.304	9610.03
312.369	9600.4
312.434	9582.01
312.5	9580.9
312.565	9547.2
312.631	9553.84
312.696	9542.72
312.761	9550.28
312.827	9155.47
312.892	9196.78
312.958	9185.13
313.023	9179.64
313.088	9169.82
313.154	9156.96
313.219	9146.18
313.284	9135.2
313.35	9131.59
313.415	9121.43
313.48	9114.98
313.546	9106.36
313.611	9114.93
313.676	9106.51
313.741	9100.2
313.807	9114.84
313.872	9111.37
313.937	9116.67
314.003	9123.7
314.068	9130.63
314.133	9131.59
314.198	9118.74
314.264	9096.39
314.329	9085.75
314.394	9087.01
314.459	9093.84
314.525	9114.3
314.59	9112.86
314.655	9100.82
314.72	9103.23
314.785	9111.61
314.851	9102.36
314.916	9089.37
314.981	9076.32
315.046	9063.8
315.111	9053.69
315.176	9034.77
315.242	9033.18
315.307	9036.75
315.372	9015.66
315.437	9002.52
315.502	8991.39
315.567	9003.48
315.632	8988.84
315.698	8998.04
315.763	8993.8
315.828	8980.13
315.893	8973.77
315.958	8970.41
316.023	8959.86
316.088	8942.05
316.153	8913.17
316.218	8911.54
316.283	8899.46
316.348	8883.81
316.413	8883.43
316.479	8865.62
316.544	8833.23
316.609	8805.55
316.674	8768.11
316.739	8739.86
316.804	8708.24
316.869	8672.87
316.934	8631.86
316.999	8604
317.064	8548.94
317.129	8501.87
317.194	8471.75
317.259	8422.66
317.324	8373.34
317.389	8331.87
317.454	8296.02
317.518	8264.71
317.583	8232.71
317.648	8209.38
317.713	8170.6
317.778	8110.61
317.843	8086.12
317.908	8048.32
317.973	8012.14
318.038	7980.25
318.103	7940.09
318.168	7913.69
318.233	7888.29
318.297	7836.6
318.362	7794.56
318.427	7753.99
318.492	7722.58
318.557	7670.85
318.622	7641.9
318.687	7617.29
318.751	7574.31
318.816	7539.93
318.881	7505.9
318.946	7453.93
319.011	7405.95
319.075	7368.46
319.14	7330.3
319.205	7280.94
319.27	7249.46
319.335	7202.36
319.399	7162.67
319.464	7130.13
319.529	7066.14
319.594	7022.21
319.658	6999.25
319.723	6953.99
319.788	6928.87
319.853	6880.53
319.917	6853.01
319.982	6796.09
320.047	6754.4
320.112	6728.03
320.176	6673.33
320.241	6638.79
320.306	6608.88
320.37	6565.13
320.435	6530.84
320.5	6507.75
320.564	6468.19
320.629	6423.21
320.694	6395.56
320.758	6351.3
320.823	6308.92
320.888	6287.13
320.952	6241.2
321.017	6191.38
321.082	6157.07
321.146	6114.17
321.211	6078.42
321.275	6038.79
321.34	5999.79
321.405	5961.13
321.469	5914.5
321.534	5873.59
321.598	5820.74
321.663	5789.7
321.727	5760.59
321.792	5712.58
321.857	5664.43
321.921	5627.89
321.986	5582.69
322.05	5519.47
322.115	5485.09
322.179	5443.64
322.244	5388.14
322.308	5352.82
322.373	5311.47
322.437	5269.97
322.502	5246.19
322.566	5197.56
322.631	5160.57
322.695	5121.15
322.76	5075.22
322.824	5043.03
322.889	4998.69
322.953	4957
323.018	4888.28
323.082	4822.69
323.146	4768.94
323.211	4718.05
323.275	4668.89
323.34	4627.74
323.404	4598.36
323.468	4549.02
323.533	4504.67
323.597	4458.23
323.662	4403.41
323.726	4366.72
323.79	4321.37
323.855	4255.24
323.919	4210.25
323.983	4164.14
324.048	4098.57
324.112	4222.51
324.177	4090.77
324.241	3880.19
324.305	3671.98
324.37	3469.81
324.434	3274.28
324.498	3228.9
324.562	3175.74
324.627	3116.05
324.691	3058.26
324.755	2985.97
324.82	2910.53
324.884	2828.26
324.948	2755.72
325.012	2660.63
325.077	2531.38
