Data from 20250704_urea_0.1M_MAYP1162681_11-18-33-696.txt Node
Date: Fri Jul 04 11:18:33 BST 2025
User: adleo
Spectrometer: MAYP116268
Trigger mode: 0
Integration Time (sec): 1.000000E0
Scans to average: 1
Electric dark correction enabled: true
Nonlinearity correction enabled: true
Boxcar width: 10
XAxis mode: Wavelengths
Number of Pixels in Spectrum: 2068
>>>>>Begin Spectral Data<<<<<
179.565	1248.56
179.642	1307.87
179.718	1353.52
179.795	1393.36
179.871	1426.69
179.948	1447.93
180.024	1469.44
180.101	1493.38
180.177	1507.54
180.254	1531.88
180.33	1555.27
180.407	1611.77
180.483	1709.31
180.56	1801.19
180.636	1887.41
180.712	1873.53
180.789	1884.46
180.865	1893.87
180.942	1902.24
181.018	1909.46
181.095	1922.87
181.171	1930.62
181.248	1929.82
181.324	1945.27
181.4	1954.55
181.477	1966.86
181.553	1977.56
181.63	1998.58
181.706	2013.99
181.782	2023.49
181.859	2020.5
181.935	2023.83
182.011	2019.79
182.088	2036.05
182.164	2058.13
182.24	2070.39
182.317	2080.57
182.393	2080.14
182.469	2098.5
182.546	2113.29
182.622	2119.14
182.698	2113.62
182.775	2123.75
182.851	2138.98
182.927	2130.41
183.003	2124.9
183.08	2119.05
183.156	2128.8
183.232	2125.61
183.308	2113.34
183.385	2121.28
183.461	2141.12
183.537	2142.35
183.613	2154.96
183.69	2146.3
183.766	2134.93
183.842	2146.68
183.918	2151.58
183.995	2161.28
184.071	2162.85
184.147	2158.24
184.223	2146.3
184.299	2158.58
184.375	2146.16
184.452	2152.49
184.528	2203.6
184.604	2216.2
184.68	2227.95
184.756	2234.52
184.832	2237.33
184.908	2244.51
184.985	2242.65
185.061	2226.52
185.137	2237.85
185.213	2227.62
185.289	2231
185.365	2223.86
185.441	2221.53
185.517	2236.33
185.593	2235.33
185.669	2233.19
185.745	2243.47
185.822	2258.88
185.898	2250.79
185.974	2260.63
186.05	2252.59
186.126	2218.28
186.202	2209.48
186.278	2205.96
186.354	2196.16
186.43	2204.01
186.506	2200.11
186.582	2203.2
186.658	2209.67
186.734	2188.55
186.81	2192.83
186.886	2196.07
186.962	2208.48
187.038	2203.01
187.114	2194.16
187.19	2198.82
187.266	2186.17
187.341	2188.26
187.417	2182.13
187.493	2183.46
187.569	2187.65
187.645	2182.41
187.721	2171.85
187.797	2178.27
187.873	2181.74
187.949	2176.89
188.025	2170.61
188.101	2175.94
188.176	2180.88
188.252	2176.79
188.328	2185.88
188.404	2185.4
188.48	2180.17
188.556	2173.46
188.632	2175.31
188.707	2176.5
188.783	2174.17
188.859	2171.18
188.935	2157.28
189.011	2166.08
189.086	2160.33
189.162	2152.48
189.238	2149.58
189.314	2145.25
189.39	2140.97
189.465	2135.45
189.541	2153.38
189.617	2138.35
189.693	2131.31
189.768	2130.17
189.844	2154.35
189.92	2143.37
189.996	2151.98
190.071	2163.78
190.147	2162.97
190.223	2173.01
190.298	2167.11
190.374	2153.12
190.45	2165.06
190.526	2176.86
190.601	2170.25
190.677	2169.72
190.753	2197.86
190.828	2202.47
190.904	2217.89
190.98	2233.74
191.055	2243.11
191.131	2233.64
191.207	2252.81
191.282	2262.37
191.358	2256.05
191.433	2239.86
191.509	2256.74
191.585	2253.32
191.66	2253.27
191.736	2260.69
191.811	2247.51
191.887	2261.93
191.963	2288.01
192.038	2293.58
192.114	2291.86
192.189	2299.33
192.265	2299.57
192.34	2275.77
192.416	2276.05
192.491	2270.58
192.567	2270.91
192.642	2271.34
192.718	2272.01
192.793	2259.44
192.869	2255.92
192.944	2258.11
193.02	2265.2
193.095	2267.44
193.171	2271.29
193.246	2269.82
193.322	2267.15
193.397	2270.2
193.473	2256.68
193.548	2238.83
193.624	2244.92
193.699	2244.16
193.775	2259.21
193.85	2258.49
193.925	2268.96
194.001	2266.87
194.076	2261.02
194.152	2251.4
194.227	2246.55
194.302	2235.94
194.378	2243.08
194.453	2242.03
194.529	2253.83
194.604	2240.18
194.679	2232.28
194.755	2212.3
194.83	2227.3
194.905	2224.87
194.981	2236.68
195.056	2230.78
195.131	2238.91
195.207	2236.68
195.282	2227.54
195.357	2206.83
195.433	2221.11
195.508	2205.4
195.583	2212.54
195.659	2226.53
195.734	2233.34
195.809	2233.53
195.884	2243.76
195.96	2244.99
196.035	2259.7
196.11	2256.89
196.185	2270.78
196.261	2277.83
196.336	2313.99
196.411	2300.09
196.486	2307.32
196.561	2297.99
196.637	2305.89
196.712	2321.6
196.787	2326.32
196.862	2343.45
196.937	2353.63
197.013	2360.49
197.088	2374.86
197.163	2397.29
197.238	2413.34
197.313	2412.2
197.388	2423.14
197.464	2455
197.539	2464
197.614	2454.77
197.689	2465
197.764	2480.62
197.839	2501.43
197.914	2493.14
197.989	2513.29
198.065	2528.76
198.14	2580.51
198.215	2607.85
198.29	2618.19
198.365	2630.52
198.44	2637.95
198.515	2666.92
198.59	2681.87
198.665	2708.46
198.74	2717.94
198.815	2720.75
198.89	2746.52
198.965	2779.89
199.04	2774.45
199.115	2791.08
199.19	2834.38
199.265	2837.91
199.34	2848.72
199.415	2880.58
199.49	2901.01
199.565	2911.83
199.64	2933.71
199.715	2930.42
199.79	2942.43
199.865	2947.96
199.94	2947.53
200.015	2978.47
200.09	2983.53
200.165	2991.68
200.24	2996.92
200.315	3039.78
200.39	3055.23
200.464	3060.09
200.539	3060.66
200.614	3079.06
200.689	3105.15
200.764	3114.6
200.839	3136.33
200.914	3144.72
200.989	3135.37
201.063	3149.72
201.138	3133.05
201.213	3135.14
201.288	3118.12
201.363	3118.84
201.438	3121.32
201.512	3136.14
201.587	3122.79
201.662	3129.51
201.737	3142.86
201.812	3153.5
201.886	3119.32
201.961	3131.06
202.036	3121.1
202.111	3118.86
202.186	3087.12
202.26	3070.8
202.335	3052.97
202.41	3049.63
202.485	3033.18
202.559	3018.16
202.634	2995.99
202.709	3012.19
202.784	2994.03
202.858	2997.94
202.933	2985.59
203.008	2981.39
203.082	2968.95
203.157	2975.58
203.232	2941.36
203.306	2927.86
203.381	2907.07
203.456	2894.53
203.53	2880.69
203.605	2873.07
203.68	2866.2
203.754	2879.4
203.829	2882.4
203.904	2880.59
203.978	2890.56
204.053	2918.46
204.127	2928.56
204.202	2955.79
204.277	2964.28
204.351	2991.7
204.426	3020.13
204.5	3046.65
204.575	3053.42
204.65	3107.53
204.724	3142.67
204.799	3194.84
204.873	3239.18
204.948	3286.08
205.022	3329.65
205.097	3386.25
205.171	3467.26
205.246	3539.29
205.32	3607.07
205.395	3676.58
205.469	3739.6
205.544	3821.87
205.618	3883.95
205.693	3981.37
205.767	4055.03
205.842	4170.23
205.916	4257.27
205.991	4347.36
206.065	4458.46
206.14	4585.31
206.214	4686.59
206.289	4792.85
206.363	4920.84
206.438	5046.16
206.512	5181.17
206.586	5323.9
206.661	5459.79
206.735	5569.32
206.81	5708.72
206.884	5864.53
206.958	6002.68
207.033	6174.47
207.107	6333.06
207.181	6522.8
207.256	6672.24
207.33	6851.88
207.405	7020.17
207.479	7205.63
207.553	7374.82
207.628	7523.74
207.702	7697.47
207.776	7865.04
207.851	8038.97
207.925	8232.93
207.999	8408.1
208.073	8579.29
208.148	8766.11
208.222	8935.05
208.296	9160.74
208.371	9365.53
208.445	9562.85
208.519	9771.83
208.593	9970.21
208.668	10148.48
208.742	10340.28
208.816	10537.35
208.89	10743.12
208.965	10935.63
209.039	11136.95
209.113	11344.73
209.187	11559.25
209.261	11754.57
209.336	11962
209.41	12180.47
209.484	12368.06
209.558	12584.09
209.632	12796.13
209.707	13003.3
209.781	13217.03
209.855	13413.22
209.929	13611.29
210.003	13804.92
210.077	13996.49
210.151	14228.01
210.226	14446.03
210.3	14654.02
210.374	14857.3
210.448	15047.45
210.522	15236.74
210.596	15426.22
210.67	15619.8
210.744	15848.99
210.818	16055.67
210.892	16261.53
210.966	16432.05
211.041	16627.4
211.115	16796.71
211.189	16985.83
211.263	17170.9
211.337	17339.1
211.411	17518.09
211.485	17683.2
211.559	17862.19
211.633	18032.89
211.707	18162.48
211.781	18332.98
211.855	18452.25
211.929	18595.62
212.003	18728.82
212.077	18899.47
212.151	19055.94
212.225	19216.08
212.299	19354.1
212.373	19487.49
212.447	19632.36
212.52	19800.74
212.594	19944.3
212.668	20099.43
212.742	20223.67
212.816	20345.79
212.89	20469.5
212.964	20599.97
213.038	20724.65
213.112	20860.22
213.186	20994.93
213.26	21104.43
213.333	21186.99
213.407	21310.28
213.481	21435.64
213.555	21562.49
213.629	21665.36
213.703	21766.44
213.777	21870.32
213.85	21966.63
213.924	22118.34
213.998	22220.93
214.072	22324.39
214.146	22411.65
214.219	22502.48
214.293	22605.36
214.367	22708.82
214.441	22841.41
214.515	22936.3
214.588	23024.97
214.662	23084.32
214.736	23160.07
214.81	23260.36
214.883	23359.64
214.957	23442.57
215.031	23526.96
215.105	23595.33
215.178	23659.95
215.252	23749.7
215.326	23811.33
215.4	23872.2
215.473	23889.61
215.547	23948.84
215.621	24005.52
215.694	24086.41
215.768	24146.41
215.842	24208.68
215.915	24272.11
215.989	24301.78
216.063	24342.59
216.136	24398.7
216.21	24472.16
216.284	24544.72
216.357	24601.6
216.431	24656.69
216.504	24719.36
216.578	24796.85
216.652	24863.9
216.725	24924.36
216.799	24979.27
216.873	25046.54
216.946	25101.11
217.02	25156.98
217.093	25200.21
217.167	25234.91
217.24	25261.59
217.314	25290.98
217.387	25329.53
217.461	25363.99
217.535	25427.36
217.608	25471.51
217.682	25515.67
217.755	25567.22
217.829	25595.26
217.902	25640.2
217.976	25678.86
218.049	25708.97
218.123	25729.05
218.196	25769.5
218.27	25810.29
218.343	25838.09
218.417	25877.92
218.49	25904.71
218.563	25951.82
218.637	25984.11
218.71	26031.08
218.784	26085.54
218.857	26132.31
218.931	26170.16
219.004	26206.75
219.077	26237.65
219.151	26273.62
219.224	26298.92
219.298	26318.66
219.371	26371.49
219.444	26376.56
219.518	26407.8
219.591	26449.22
219.665	26504.08
219.738	26527.11
219.811	26533.38
219.885	26565.59
219.958	26585.87
220.031	26615.62
220.105	26652.75
220.178	26672.55
220.251	26689.64
220.325	26708.72
220.398	26736.82
220.471	26760.2
220.544	26785.93
220.618	26786.22
220.691	26810.9
220.764	26826.35
220.838	26848.62
220.911	26830.07
220.984	26869.96
221.057	26886.28
221.131	26900.48
221.204	26886.52
221.277	26925.55
221.35	26984.95
221.424	26988.14
221.497	26990.32
221.57	26997.37
221.643	26993.7
221.716	27018.33
221.79	27017.31
221.863	27015.96
221.936	27016.06
222.009	27022.53
222.082	27025.47
222.155	27027.6
222.229	27035.86
222.302	27043.49
222.375	27039.72
222.448	27062.66
222.521	27056.48
222.594	27052.57
222.667	27033.35
222.74	27041.66
222.814	27032.24
222.887	27005.14
222.96	27009.87
223.033	27020.45
223.106	27019.34
223.179	27022.04
223.252	27022.04
223.325	27024.99
223.398	27014.12
223.471	27004.41
223.544	26992.05
223.617	26983.65
223.69	26987.12
223.763	26967.08
223.837	26964.95
223.91	26968.87
223.983	26934.53
224.056	26918.5
224.129	26917.29
224.202	26920.28
224.275	26897.58
224.348	26871.5
224.42	26843.11
224.493	26808.68
224.566	26782.93
224.639	26770.91
224.712	26748.89
224.785	26722.13
224.858	26702.19
224.931	26684.32
225.004	26657.38
225.077	26631.26
225.15	26584.23
225.223	26568.15
225.296	26569.74
225.369	26527.59
225.442	26486.88
225.514	26476.21
225.587	26452.94
225.66	26426.33
225.733	26401.03
225.806	26374.96
225.879	26345.65
225.952	26310.22
226.025	26299.98
226.097	26284.82
226.17	26256.1
226.243	26213.32
226.316	26187.2
226.389	26160.65
226.461	26135.74
226.534	26117.06
226.607	26094.71
226.68	26097.6
226.753	26061.59
226.825	26002.83
226.898	25994.82
226.971	25964.17
227.044	25931.83
227.117	25908.61
227.189	25879.31
227.262	25855.85
227.335	25841.17
227.407	25809.17
227.48	25793.05
227.553	25753.33
227.626	25724.75
227.698	25701.68
227.771	25674.55
227.844	25628.46
227.916	25606.4
227.989	25566.88
228.062	25526.34
228.134	25522.57
228.207	25487.92
228.28	25457.85
228.352	25436.14
228.425	25399.31
228.498	25380.73
228.57	25342.08
228.643	25322.49
228.716	25290.64
228.788	25258.5
228.861	25209.23
228.934	25187.51
229.006	25155.81
229.079	25136.22
229.151	25093.8
229.224	25044.29
229.296	25013.03
229.369	25008.78
229.442	24990.2
229.514	24952.33
229.587	24935.69
229.659	24878.12
229.732	24856.55
229.804	24835.47
229.877	24827.31
229.949	24807.1
230.022	24799.72
230.094	24774.58
230.167	24744.67
230.239	24706.84
230.312	24673.12
230.384	24675.73
230.457	24654.93
230.529	24631.54
230.602	24599.07
230.674	24568
230.747	24549.04
230.819	24530.47
230.892	24473.5
230.964	24436.54
231.037	24408.14
231.109	24371.28
231.181	24354.83
231.254	24299.46
231.326	24263.62
231.399	24214.03
231.471	24168.49
231.544	24085.14
231.616	24066.28
231.688	24021.96
231.761	23980.82
231.833	23946.09
231.905	23874.85
231.978	23820.59
232.05	23771.78
232.122	23734.26
232.195	23693.31
232.267	23666.88
232.339	23629.65
232.412	23612.2
232.484	23560.11
232.556	23516.52
232.629	23507.89
232.701	23470.85
232.773	23436.8
232.846	23381.73
232.918	23345.08
232.99	23305.64
233.062	23292.62
233.135	23250.23
233.207	23205.53
233.279	23177.86
233.351	23146.37
233.424	23114.3
233.496	23076.99
233.568	23062.18
233.64	23010.16
233.713	22980.6
233.785	22942.07
233.857	22909.82
233.929	22852.59
234.001	22839.76
234.074	22820.57
234.146	22761.36
234.218	22717.44
234.29	22672.07
234.362	22633.17
234.434	22586.16
234.507	22542.63
234.579	22497.94
234.651	22446.98
234.723	22419.46
234.795	22375.25
234.867	22330.03
234.939	22304.14
235.012	22266.35
235.084	22230.43
235.156	22201.89
235.228	22144.91
235.3	22096.85
235.372	22046.52
235.444	22026.9
235.516	21957.78
235.588	21924.18
235.66	21879.44
235.732	21830.66
235.804	21845.51
235.876	21819.63
235.948	21789.11
236.02	21745.64
236.092	21703.17
236.164	21662.64
236.236	21611.74
236.308	21575.06
236.38	21526.67
236.452	21462.13
236.524	21420.48
236.596	21385.97
236.668	21347.51
236.74	21305.19
236.812	21258.1
236.884	21221.81
236.956	21163.68
237.028	21114.28
237.1	21058.66
237.172	21030.61
237.244	21000.68
237.316	20929.49
237.388	20882.55
237.46	20829.87
237.532	20802.74
237.604	20747.89
237.675	20723.79
237.747	20688.42
237.819	20635.41
237.891	20604.23
237.963	20566.83
238.035	20518.35
238.107	20432.56
238.178	20404.95
238.25	20368.85
238.322	20358.39
238.394	20306.15
238.466	20270.73
238.538	20245.09
238.609	20214.88
238.681	20153.77
238.753	20098.97
238.825	20057.72
238.897	20010.49
238.968	19990.88
239.04	19943.12
239.112	19926.06
239.184	19868.38
239.255	19826.11
239.327	19786.36
239.399	19739.52
239.471	19709.98
239.542	19675.66
239.614	19656.63
239.686	19585.89
239.758	19556.59
239.829	19492.59
239.901	19460.35
239.973	19408.74
240.044	19369.95
240.116	19319.1
240.188	19275.3
240.259	19236.8
240.331	19177.76
240.403	19138.39
240.474	19067.51
240.546	19017.39
240.618	18957.34
240.689	18909.2
240.761	18862.99
240.833	18843.76
240.904	18803.28
240.976	18761.6
241.048	18728.44
241.119	18698.66
241.191	18661.12
241.262	18638.81
241.334	18598.67
241.405	18557.99
241.477	18517.95
241.549	18464.17
241.62	18426.68
241.692	18397.23
241.763	18370.1
241.835	18336.13
241.906	18298.01
241.978	18251.36
242.049	18221.14
242.121	18199.55
242.192	18175.51
242.264	18123.17
242.335	18059.94
242.407	18020.96
242.478	17959.85
242.55	17912.62
242.621	17860.58
242.693	17827.13
242.764	17771.67
242.836	17723.96
242.907	17685.88
242.979	17644.25
243.05	17601.16
243.122	17569.11
243.193	17519.14
243.264	17457.45
243.336	17419.57
243.407	17394.66
243.479	17386.37
243.55	17350.75
243.622	17305.98
243.693	17264.54
243.764	17241.93
243.836	17190.56
243.907	17149.11
243.978	17117.59
244.05	17087.33
244.121	17033.73
244.192	17001.83
244.264	16944.86
244.335	16912.77
244.407	16860.72
244.478	16829.63
244.549	16801.68
244.62	16745.77
244.692	16714.2
244.763	16689.14
244.834	16635.55
244.906	16579.59
244.977	16535.73
245.048	16514.77
245.119	16473.66
245.191	16440.16
245.262	16386.95
245.333	16373.74
245.405	16335.43
245.476	16313.3
245.547	16276.48
245.618	16247.03
245.689	16213.97
245.761	16183.46
245.832	16141.24
245.903	16118.3
245.974	16084.65
246.045	16046.91
246.117	16030.33
246.188	15985.65
246.259	15934.61
246.33	15907.18
246.401	15872.19
246.473	15825.77
246.544	15777.58
246.615	15752.08
246.686	15710.05
246.757	15693.66
246.828	15645.46
246.899	15632.54
246.97	15568.96
247.042	15529.68
247.113	15505.34
247.184	15485.53
247.255	15447.11
247.326	15416.17
247.397	15372.11
247.468	15333.02
247.539	15301.93
247.61	15249.58
247.681	15227.02
247.752	15210.44
247.823	15167.01
247.894	15140.59
247.965	15095.57
248.037	15059.37
248.108	15013.63
248.179	14973.52
248.25	14925.85
248.321	14900.2
248.392	14853.45
248.463	14851.66
248.534	14820.96
248.605	14796.81
248.675	14758.97
248.746	14733.13
248.817	14710.53
248.888	14688.74
248.959	14648.97
249.03	14621.68
249.101	14602.88
249.172	14568.47
249.243	14516.6
249.314	14510.81
249.385	14485.65
249.456	14460.87
249.527	14435.76
249.598	14406.26
249.669	14378.1
249.739	14356.84
249.81	14340.74
249.881	14301.36
249.952	14272.44
250.023	14236.04
250.094	14187.88
250.165	14145.7
250.235	14120.49
250.306	14083.66
250.377	14037.43
250.448	14014.49
250.519	13962.42
250.59	13948.25
250.66	13912.72
250.731	13899.08
250.802	13864.66
250.873	13832.89
250.944	13812.79
251.014	13770.71
251.085	13767.29
251.156	13748.73
251.227	13737.11
251.297	13716.28
251.368	13698.69
251.439	13679.74
251.51	13666.25
251.58	13629.13
251.651	13594.37
251.722	13566.79
251.792	13533.73
251.863	13510.44
251.934	13502.15
252.005	13504.32
252.075	13473.9
252.146	13466.48
252.217	13456.84
252.287	13442.76
252.358	13415.72
252.429	13406.89
252.499	13371.12
252.57	13352.66
252.641	13337.72
252.711	13311.59
252.782	13268.54
252.852	13265.7
252.923	13240.05
252.994	13213.59
253.064	13206.88
253.135	13169.81
253.205	13144.36
253.276	13134.09
253.347	13124.98
253.417	13098.08
253.488	13067.52
253.558	13037.87
253.629	13011.31
253.699	12989.86
253.77	12970.58
253.841	12945.51
253.911	12930.08
253.982	12919.43
254.052	12897.4
254.123	12871.85
254.193	12849.34
254.264	12870.36
254.334	12831.99
254.405	12790.87
254.475	12763.39
254.546	12739.62
254.616	12732.01
254.687	12717.64
254.757	12706.7
254.827	12678.69
254.898	12657.1
254.968	12638.88
255.039	12605.04
255.109	12586.19
255.18	12552.93
255.25	12505.25
255.321	12497.54
255.391	12456.76
255.461	12457
255.532	12405.52
255.602	12377.32
255.673	12334.61
255.743	12292.24
255.813	12244.42
255.884	12241.72
255.954	12227.6
256.024	12225.09
256.095	12216.18
256.165	12180.89
256.235	12157.17
256.306	12136.93
256.376	12123.34
256.446	12109.98
256.517	12101.55
256.587	12089.02
256.657	12069.01
256.728	12057.01
256.798	12027.17
256.868	11991.07
256.938	11957.76
257.009	11948.46
257.079	11940.22
257.149	11949.43
257.219	11909.56
257.29	11896.55
257.36	11852.69
257.43	11845.56
257.5	11804.3
257.571	11780.68
257.641	11768.19
257.711	11737.06
257.781	11727.37
257.852	11714.45
257.922	11672.37
257.992	11654.64
258.062	11634.1
258.132	11624.61
258.202	11599.84
258.273	11585.28
258.343	11595.88
258.413	11571.06
258.483	11554.87
258.553	11516.6
258.623	11482.96
258.693	11476.06
258.764	11475.05
258.834	11475.68
258.904	11452.74
258.974	11421.32
259.044	11394.9
259.114	11379.34
259.184	11365.99
259.254	11338.61
259.324	11293.84
259.394	11285.98
259.464	11283
259.535	11260.3
259.605	11236.01
259.675	11210.56
259.745	11190.47
259.815	11157.21
259.885	11132.87
259.955	11137.6
260.025	11121.5
260.095	11106.52
260.165	11089.55
260.235	11089.65
260.305	11053.84
260.375	11019.29
260.445	11027.29
260.515	11028.4
260.585	11029.41
260.655	11006.37
260.725	11003.58
260.795	10998.71
260.865	10998.38
260.934	10968.35
261.004	10955.87
261.074	10937.94
261.144	10935.53
261.214	10930.52
261.284	10911.78
261.354	10907.73
261.424	10884.84
261.494	10886.24
261.564	10870.33
261.634	10861.95
261.703	10822.82
261.773	10817.91
261.843	10814.87
261.913	10793.48
261.983	10757.48
262.053	10743.12
262.123	10731.89
262.192	10699.08
262.262	10695.51
262.332	10668
262.402	10663.37
262.472	10648.15
262.541	10611.53
262.611	10610.86
262.681	10589.37
262.751	10579.63
262.821	10560.84
262.89	10530.15
262.96	10519.6
263.03	10522.58
263.1	10513.48
263.169	10506.83
263.239	10498.25
263.309	10496.85
263.379	10489.43
263.448	10477.78
263.518	10460.62
263.588	10442.31
263.657	10445.73
263.727	10434.17
263.797	10417.16
263.867	10393.99
263.936	10368.99
264.006	10372.94
264.076	10346.44
264.145	10329.82
264.215	10311.89
264.285	10302.6
264.354	10272.83
264.424	10250.86
264.494	10217.42
264.563	10188.75
264.633	10190.49
264.702	10179.31
264.772	10149.3
264.842	10133.69
264.911	10124.54
264.981	10095.87
265.05	10083.64
265.12	10061.43
265.19	10048.8
265.259	10039.46
265.329	10027.46
265.398	10005.45
265.468	10012
265.537	9990.76
265.607	9981.32
265.676	9982.77
265.746	9974.24
265.815	9974.82
265.885	9953.58
265.955	9932.24
266.024	9919.67
266.094	9886.96
266.163	9890.19
266.232	9888.74
266.302	9873.09
266.371	9860.13
266.441	9849.58
266.51	9845.3
266.58	9831.42
266.649	9808.59
266.719	9812.01
266.788	9808.69
266.858	9826.99
266.927	9792.94
266.996	9789.81
267.066	9781.38
267.135	9753.39
267.205	9748.38
267.274	9735.28
267.343	9740.92
267.413	9733.26
267.482	9736.92
267.552	9735.62
267.621	9700.41
267.69	9673.06
267.76	9663.76
267.829	9657.74
267.898	9645.03
267.968	9625.33
268.037	9619.7
268.106	9619.5
268.176	9598.22
268.245	9587.19
268.314	9561.18
268.384	9561.76
268.453	9558.58
268.522	9549.19
268.592	9546.92
268.661	9529.25
268.73	9525.15
268.799	9497.99
268.869	9502.42
268.938	9473.67
269.007	9456.92
269.076	9447
269.146	9445.41
269.215	9438.23
269.284	9444.35
269.353	9430.82
269.422	9412.76
269.492	9399.62
269.561	9359.6
269.63	9351.9
269.699	9339.04
269.768	9328.35
269.838	9321.42
269.907	9312.27
269.976	9295.37
270.045	9265.08
270.114	9254.2
270.183	9233.98
270.253	9232.68
270.322	9203.31
270.391	9190.79
270.46	9195.7
270.529	9197.34
270.598	9195.07
270.667	9176.63
270.736	9154.92
270.806	9152.94
270.875	9158.14
270.944	9148.47
271.013	9176.78
271.082	9168.4
271.151	9155.83
271.22	9135.37
271.289	9123.38
271.358	9109.85
271.427	9095.55
271.496	9090.6
271.565	9080.82
271.634	9077.98
271.703	9101.34
271.772	9099.61
271.841	9086.75
271.91	9059.45
271.979	9049.87
272.048	9021.42
272.117	9018.92
272.186	9002.65
272.255	9000
272.324	8992.54
272.393	8984.02
272.462	8963.26
272.531	8955.51
272.6	8942.8
272.669	8948.43
272.738	8937.17
272.807	8932.02
272.876	8915.41
272.945	8943.62
273.013	8947.33
273.082	8956.09
273.151	8913.53
273.22	8915.26
273.289	8910.98
273.358	8920.22
273.427	8910.64
273.496	8913.58
273.564	8919.07
273.633	8923.45
273.702	8906.94
273.771	8903.76
273.84	8898.27
273.909	8897.55
273.977	8897.5
274.046	8895.1
274.115	8900.44
274.184	8881.48
274.253	8873.39
274.322	8888.02
274.39	8851.49
274.459	8840.17
274.528	8807.63
274.597	8803.59
274.665	8798.54
274.734	8808.31
274.803	8802.05
274.872	8797.48
274.94	8788.19
275.009	8840.73
275.078	8825.81
275.147	8823.83
275.215	8812.91
275.284	8819.65
275.353	8802.46
275.421	8774.69
275.49	8785.38
275.559	8770.46
275.627	8767.81
275.696	8759.1
275.765	8759.24
275.833	8750.39
275.902	8743.12
275.971	8755.58
276.039	8765.31
276.108	8765.36
276.177	8761.99
276.245	8748.41
276.314	8739.22
276.383	8740.86
276.451	8680.28
276.52	8678.69
276.588	8687.74
276.657	8693.75
276.725	8684.13
276.794	8683.31
276.863	8689.95
276.931	8660.49
277	8671.23
277.068	8678.16
277.137	8697.12
277.205	8694.76
277.274	8716.8
277.342	8727.83
277.411	8705.98
277.48	8690.24
277.548	8683.94
277.617	8681.77
277.685	8672.29
277.754	8677.73
277.822	8670.65
277.89	8678.16
277.959	8671.43
278.027	8655.64
278.096	8646.59
278.164	8675.96
278.233	8670.61
278.301	8662.1
278.37	8673.26
278.438	8657.57
278.507	8656.27
278.575	8633.22
278.643	8625.95
278.712	8609.01
278.78	8595.58
278.849	8610.59
278.917	8623.63
278.985	8618.24
279.054	8619.88
279.122	8635.42
279.191	8633.79
279.259	8631.67
279.327	8614.82
279.396	8638.26
279.464	8633.6
279.532	8639.42
279.601	8634.46
279.669	8631.57
279.737	8648.22
279.806	8655.4
279.874	8660.93
279.942	8667.76
280.011	8659.05
280.079	8666.47
280.147	8682.44
280.215	8684.71
280.284	8674.26
280.352	8659.83
280.42	8666.32
280.488	8655.3
280.557	8651.26
280.625	8651.79
280.693	8651.35
280.761	8648.9
280.83	8626.71
280.898	8636.63
280.966	8617.42
281.034	8578.68
281.102	8566.79
281.171	8557.65
281.239	8561.26
281.307	8562.42
281.375	8550.29
281.443	8579.69
281.512	8573.44
281.58	8582.25
281.648	8569.49
281.716	8576.42
281.784	8575.75
281.852	8569.92
281.92	8568.96
281.989	8573.15
282.057	8557.9
282.125	8599.97
282.193	8595.64
282.261	8600.35
282.329	8598.71
282.397	8604.73
282.465	8613.92
282.533	8630.91
282.601	8620.85
282.67	8596.21
282.738	8586.1
282.806	8590.48
282.874	8576.47
282.942	8579.17
283.01	8573.2
283.078	8576.18
283.146	8567.86
283.214	8582.44
283.282	8586.58
283.35	8605.78
283.418	8601.36
283.486	8606.41
283.554	8567.99
283.622	8571.22
283.69	8567.37
283.758	8559.57
283.826	8565.93
283.894	8579.69
283.962	8596.87
284.03	8612.08
284.098	8612.32
284.165	8603.28
284.233	8610.49
284.301	8603.47
284.369	8595.14
284.437	8581.76
284.505	8583.01
284.573	8599.71
284.641	8589.36
284.709	8594.51
284.777	8570.06
284.845	8575.5
284.912	8585.95
284.98	8583.83
285.048	8577.81
285.116	8584.21
285.184	8598.36
285.252	8595.72
285.319	8574.64
285.387	8563.57
285.455	8550.28
285.523	8563.23
285.591	8561.16
285.659	8555.62
285.726	8568.04
285.794	8557.17
285.862	8560.63
285.93	8559.57
285.997	8556.4
286.065	8548.89
286.133	8539.7
286.201	8541.33
286.269	8532.24
286.336	8521.6
286.404	8522.61
286.472	8533.3
286.539	8512.27
286.607	8494.22
286.675	8498.17
286.743	8506.49
286.81	8504.18
286.878	8517.22
286.946	8510
287.013	8508.66
287.081	8516.31
287.149	8503.36
287.216	8525.79
287.284	8518.48
287.352	8517.46
287.419	8516.36
287.487	8527.57
287.555	8531.08
287.622	8531.61
287.69	8531.32
287.758	8548.07
287.825	8543.21
287.893	8537.97
287.96	8550.81
288.028	8561.59
288.096	8562.36
288.163	8562.75
288.231	8549.99
288.298	8550.04
288.366	8561.16
288.433	8562.84
288.501	8551.68
288.569	8554.71
288.636	8543.16
288.704	8555.19
288.771	8565.54
288.839	8550.19
288.906	8547.25
288.974	8558.71
289.041	8553.03
289.109	8547.93
289.176	8555.58
289.244	8561.5
289.311	8569.54
289.379	8577.48
289.446	8583.16
289.514	8586.09
289.581	8590.47
289.649	8595.19
289.716	8593.65
289.783	8584.79
289.851	8608.04
289.918	8609.29
289.986	8621.85
290.053	8622.23
290.121	8622.71
290.188	8623.15
290.255	8656.4
290.323	8651.59
290.39	8647.16
290.458	8659.48
290.525	8672.86
290.592	8658.13
290.66	8657.41
290.727	8654.71
290.794	8669.15
290.862	8667.42
290.929	8670.41
290.996	8673.25
291.064	8682.44
291.131	8692.88
291.198	8712.62
291.266	8707.18
291.333	8709.44
291.4	8714.06
291.468	8739.52
291.535	8738.71
291.602	8744.53
291.669	8736.3
291.737	8746.07
291.804	8743.08
291.871	8755.74
291.938	8763.64
292.006	8801.86
292.073	8815.14
292.14	8823.66
292.207	8813.75
292.275	8818.42
292.342	8831.03
292.409	8855.34
292.476	8887.26
292.543	8882.15
292.611	8880.47
292.678	8903.14
292.745	8930.39
292.812	8940.93
292.879	8934.86
292.946	8942.37
293.014	8960.52
293.081	8971.93
293.148	8984.44
293.215	9005.63
293.282	9006.06
293.349	9017.61
293.416	8994.45
293.484	9009.86
293.551	9025.31
293.618	9045.43
293.685	9075.72
293.752	9065.66
293.819	9064.89
293.886	9044.38
293.953	9051.07
294.02	9061.03
294.087	9068.4
294.154	9059.88
294.221	9074.18
294.288	9079.47
294.356	9095.65
294.423	9096.18
294.49	9085.4
294.557	9104.7
294.624	9091.7
294.691	9104.41
294.758	9102.97
294.825	9111.35
294.892	9107.16
294.959	9100.61
295.026	9103.98
295.093	9094.78
295.16	9099.36
295.226	9098.01
295.293	9130.65
295.36	9137.68
295.427	9153.62
295.494	9161.52
295.561	9176.2
295.628	9198.69
295.695	9209.43
295.762	9209.96
295.829	9225.95
295.896	9248.24
295.963	9251.56
296.03	9260.99
296.096	9269.76
296.163	9281.75
296.23	9303.99
296.297	9313.62
296.364	9315.31
296.431	9325.95
296.498	9322.1
296.564	9351.13
296.631	9352.04
296.698	9336.83
296.765	9357.63
296.832	9342.41
296.899	9330.9
296.965	9344.53
297.032	9326.66
297.099	9344.05
297.166	9352.28
297.233	9346.12
297.299	9340.63
297.366	9342.75
297.433	9353.92
297.5	9362.34
297.566	9365.04
297.633	9357.82
297.7	9364.99
297.767	9368.36
297.833	9372.55
297.9	9372.26
297.967	9354.16
298.033	9371.54
298.1	9394.61
298.167	9384.26
298.234	9393.69
298.3	9405.78
298.367	9404.29
298.434	9408.81
298.5	9402.41
298.567	9396.34
298.634	9389.79
298.7	9407.75
298.767	9406.4
298.834	9416.76
298.9	9418.49
298.967	9413.87
299.033	9423.31
299.1	9438
299.167	9459.62
299.233	9458.85
299.3	9475.41
299.366	9492.22
299.433	9510.47
299.5	9487.16
299.566	9493.76
299.633	9513.55
299.699	9521.21
299.766	9514.85
299.832	9524.44
299.899	9530.99
299.965	9552.9
300.032	9552.42
300.099	9559.3
300.165	9571.34
300.232	9567.15
300.298	9568.6
300.365	9581.17
300.431	9581.31
300.498	9576.59
300.564	9580.54
300.631	9586.85
300.697	9604.72
300.763	9609.73
300.83	9600.48
300.896	9616.03
300.963	9635.87
301.029	9636.79
301.096	9644.11
301.162	9662.6
301.229	9650.8
301.295	9641.32
301.361	9638.47
301.428	9645.12
301.494	9628.65
301.561	9624.7
301.627	9628.55
301.693	9632.84
301.76	9636.16
301.826	9637.22
301.892	9645.46
301.959	9653.02
302.025	9651.38
302.092	9646.23
302.158	9649.41
302.224	9654.8
302.291	9643.29
302.357	9637.37
302.423	9633.95
302.49	9622.58
302.556	9635.83
302.622	9635.64
302.688	9648.45
302.755	9660.54
302.821	9673.68
302.887	9685.63
302.954	9690.3
303.02	9706.29
303.086	9711.06
303.152	9712.31
303.219	9707.4
303.285	9716.02
303.351	9721.8
303.417	9729.55
303.483	9721.94
303.55	9712.65
303.616	9712.65
303.682	9718.71
303.748	9710.91
303.815	9724.16
303.881	9742.7
303.947	9720.3
304.013	9725.75
304.079	9717.22
304.145	9695.07
304.212	9691.55
304.278	9687.55
304.344	9684.76
304.41	9664.92
304.476	9651.96
304.542	9644.79
304.608	9651.24
304.674	9630.43
304.741	9622.63
304.807	9623.31
304.873	9627.69
304.939	9651
305.005	9625.67
305.071	9619.31
305.137	9621.48
305.203	9598.65
305.269	9586.37
305.335	9602.45
305.401	9601.44
305.467	9597.64
305.533	9613.96
305.599	9624.03
305.666	9628.51
305.732	9625.91
305.798	9644.74
305.864	9674.74
305.93	9681.1
305.996	9682.11
306.062	9688.42
306.128	9682.02
306.194	9670.12
306.259	9669.21
306.325	9659.19
306.391	9678.64
306.457	9690.54
306.523	9694.97
306.589	9721.56
306.655	9724.88
306.721	9711.01
306.787	9694.15
306.853	9713.66
306.919	9696.13
306.985	9691.36
307.051	9687.41
307.117	9681.87
307.183	9670.12
307.248	9641.7
307.314	9648.45
307.38	9651.38
307.446	9653.98
307.512	9645.99
307.578	9653.41
307.644	9650.9
307.709	9654.47
307.775	9646.38
307.841	9646.28
307.907	9644.55
307.973	9619.64
308.039	9613.38
308.104	9620.66
308.17	9632.5
308.236	9619.16
308.302	9626.38
308.368	9616.85
308.433	9617.67
308.499	9617.86
308.565	9608.52
308.631	9608.9
308.696	9584.29
308.762	9572.2
308.828	9574.8
308.894	9562.91
308.959	9543.21
309.025	9536.04
309.091	9521.69
309.156	9516.68
309.222	9520.15
309.288	9510.27
309.354	9490.48
309.419	9489.62
309.485	9466.98
309.551	9462.84
309.616	9446.03
309.682	9438.23
309.748	9426.29
309.813	9422.29
309.879	9413.05
309.945	9403.27
310.01	9394.37
310.076	9402.31
310.141	9395.18
310.207	9377.03
310.273	9378.71
310.338	9378.47
310.404	9364.22
310.469	9360.37
310.535	9352.47
310.601	9325.5
310.666	9325.46
310.732	9336.77
310.797	9320.16
310.863	9318.47
310.928	9315.05
310.994	9322.23
311.059	9318.13
311.125	9315.87
311.191	9324.64
311.256	9310.34
311.322	9316.84
311.387	9303.21
311.453	9689.31
311.518	9664.23
311.584	9665.91
311.649	9671.06
311.715	9658.59
311.78	9656.81
311.846	9643.38
311.911	9649.78
311.976	9651.47
312.042	9638.8
312.107	9627.01
312.173	9621.57
312.238	9612.03
312.304	9607.46
312.369	9594.32
312.434	9585.12
312.5	9580.26
312.565	9547.32
312.631	9552.42
312.696	9540.44
312.761	9538.22
312.827	9141.48
312.892	9179.37
312.958	9166.85
313.023	9164.16
313.088	9167.38
313.154	9154.19
313.219	9139.22
313.284	9125.21
313.35	9119.91
313.415	9106.53
313.48	9103.4
313.546	9111.78
313.611	9120.64
313.676	9106.96
313.741	9101.67
313.807	9111.97
313.872	9116.16
313.937	9127.86
314.003	9139.46
314.068	9144.61
314.133	9156.36
314.198	9143.89
314.264	9122.56
314.329	9118.28
314.394	9109.99
314.459	9105.52
314.525	9124.58
314.59	9123.14
314.655	9111.73
314.72	9122.42
314.785	9125.4
314.851	9111.97
314.916	9090.35
314.981	9075.24
315.046	9073.65
315.111	9062.87
315.176	9048.57
315.242	9050.01
315.307	9045.48
315.372	9026.95
315.437	9015.73
315.502	9004.56
315.567	9015.06
315.632	9003.36
315.698	9007.93
315.763	9003.21
315.828	8997.73
315.893	8994.98
315.958	8995.46
316.023	8988.68
316.088	8964.8
316.153	8945.64
316.218	8941.12
316.283	8927.01
316.348	8904.49
316.413	8900.93
316.479	8881.77
316.544	8843.95
316.609	8815.98
316.674	8773.48
316.739	8732.77
316.804	8705.05
316.869	8666.83
316.934	8625.87
316.999	8596.23
317.064	8544.54
317.129	8501.32
317.194	8462.54
317.259	8414.27
317.324	8362.11
317.389	8321.12
317.454	8285.32
317.518	8251.16
317.583	8228.4
317.648	8195.59
317.713	8166.49
317.778	8103.03
317.843	8077.68
317.908	8045.99
317.973	8002.21
318.038	7971.96
318.103	7939.64
318.168	7899.77
318.233	7872.31
318.297	7824.22
318.362	7779.15
318.427	7736.89
318.492	7707.46
318.557	7657.61
318.622	7627.64
318.687	7610.34
318.751	7561.98
318.816	7524.19
318.881	7488.95
318.946	7429.63
319.011	7389.58
319.075	7347.72
319.14	7314.22
319.205	7270.34
319.27	7234.77
319.335	7187
319.399	7149.04
319.464	7120.69
319.529	7071.59
319.594	7027.76
319.658	6996.63
319.723	6960.88
319.788	6934.12
319.853	6879.02
319.917	6850.68
319.982	6792.89
320.047	6754.55
320.112	6730.4
320.176	6680.98
320.241	6649.33
320.306	6623.3
320.37	6580.95
320.435	6553.43
320.5	6522.94
320.564	6486.55
320.629	6442.53
320.694	6414.16
320.758	6376.81
320.823	6331.83
320.888	6304.52
320.952	6260.8
321.017	6219.09
321.082	6178.25
321.146	6145.52
321.211	6117.26
321.275	6074.71
321.34	6034.03
321.405	5985.09
321.469	5942.4
321.534	5900.58
321.598	5846.96
321.663	5815.19
321.727	5783.63
321.792	5729.39
321.857	5685.99
321.921	5639.34
321.986	5597.73
322.05	5537
322.115	5493.23
322.179	5446.6
322.244	5385.88
322.308	5349.89
322.373	5303.55
322.437	5260.81
322.502	5227.83
322.566	5179.91
322.631	5144.7
322.695	5104.89
322.76	5059.78
322.824	5017.92
322.889	4979.08
322.953	4936.09
323.018	4867.46
323.082	4805.27
323.146	4758.36
323.211	4706.33
323.275	4666.88
323.34	4621
323.404	4587.46
323.468	4544.82
323.533	4497.65
323.597	4454
323.662	4400.89
323.726	4364.68
323.79	4316.9
323.855	4253.74
323.919	4205.29
323.983	4159.43
324.048	4092.15
324.112	4212.1
324.177	4086.39
324.241	3871.25
324.305	3661.95
324.37	3458.19
324.434	3259.7
324.498	3211.11
324.562	3158.25
324.627	3090.76
324.691	3032.69
324.755	2964.11
324.82	2883.56
324.884	2809.01
324.948	2736.64
325.012	2637.75
325.077	2508.38
