Data from 20250704_urea_1M_MAYP1162681_11-32-12-656.txt Node
Date: Fri Jul 04 11:32:12 BST 2025
User: adleo
Spectrometer: MAYP116268
Trigger mode: 0
Integration Time (sec): 1.000000E0
Scans to average: 1
Electric dark correction enabled: true
Nonlinearity correction enabled: true
Boxcar width: 10
XAxis mode: Wavelengths
Number of Pixels in Spectrum: 2068
>>>>>Begin Spectral Data<<<<<
179.565	1255.75
179.642	1318.27
179.718	1364.95
179.795	1402.82
179.871	1438.24
179.948	1455.88
180.024	1475.32
180.101	1500.2
180.177	1515
180.254	1540.8
180.33	1564.28
180.407	1621.59
180.483	1719.98
180.56	1813.2
180.636	1902.56
180.712	1888.72
180.789	1896.89
180.865	1907.35
180.942	1916.38
181.018	1926.6
181.095	1940.73
181.171	1947.1
181.248	1945.53
181.324	1958.75
181.4	1966.5
181.477	1974.35
181.553	1990.37
181.63	2013.05
181.706	2027.27
181.782	2036.3
181.859	2031.45
181.935	2035.69
182.011	2034.4
182.088	2050.72
182.164	2071.37
182.24	2082.78
182.317	2092.72
182.393	2092.05
182.469	2107.51
182.546	2121.16
182.622	2127.06
182.698	2120.78
182.775	2132.01
182.851	2145.71
182.927	2138.28
183.003	2135.72
183.08	2131.53
183.156	2136.29
183.232	2133.2
183.308	2122.3
183.385	2129.2
183.461	2152.22
183.537	2151.13
183.613	2162.79
183.69	2155.08
183.766	2144.66
183.842	2154.74
183.918	2160.55
183.995	2173.44
184.071	2178.25
184.147	2172.25
184.223	2161.41
184.299	2176.4
184.375	2165.6
184.452	2174.45
184.528	2224.36
184.604	2234.54
184.68	2247.15
184.756	2257.33
184.832	2263.71
184.908	2269.8
184.985	2268.27
185.061	2249.95
185.137	2260.66
185.213	2248.43
185.289	2250.38
185.365	2242.15
185.441	2237.87
185.517	2249.63
185.593	2246.96
185.669	2243.97
185.745	2252.96
185.822	2269.32
185.898	2260.99
185.974	2271.36
186.05	2261.84
186.126	2227.63
186.202	2221.16
186.278	2217.07
186.354	2206.98
186.43	2212.08
186.506	2208.79
186.582	2211.98
186.658	2218.74
186.734	2200.42
186.81	2204.23
186.886	2208.56
186.962	2221.07
187.038	2217.83
187.114	2212.02
187.19	2217.92
187.266	2208.51
187.341	2212.03
187.417	2206.32
187.493	2206.08
187.569	2209.27
187.645	2204.65
187.721	2195.71
187.797	2203.41
187.873	2208.46
187.949	2204.08
188.025	2194.61
188.101	2197.7
188.176	2205.98
188.252	2200.42
188.328	2207.6
188.404	2205.03
188.48	2197.37
188.556	2191.66
188.632	2192.56
188.707	2193.13
188.783	2190.61
188.859	2183.67
188.935	2172.53
189.011	2178.58
189.086	2172.92
189.162	2161.5
189.238	2158.21
189.314	2154.27
189.39	2146.84
189.465	2138.33
189.541	2154.41
189.617	2142.8
189.693	2138.86
189.768	2136.57
189.844	2163.7
189.92	2154.48
189.996	2164.8
190.071	2176.27
190.147	2176.46
190.223	2185.4
190.298	2177.93
190.374	2165.37
190.45	2178.4
190.526	2186.26
190.601	2182.35
190.677	2181.74
190.753	2211.3
190.828	2214.29
190.904	2230.43
190.98	2247.08
191.055	2260.02
191.131	2252.17
191.207	2270.96
191.282	2282.29
191.358	2275.15
191.433	2259.87
191.509	2273.28
191.585	2270.14
191.66	2268.8
191.736	2274.99
191.811	2266.14
191.887	2281.37
191.963	2308.4
192.038	2312.07
192.114	2312.3
192.189	2315.21
192.265	2314.16
192.34	2290.55
192.416	2289.64
192.491	2284.36
192.567	2283.5
192.642	2284.07
192.718	2280.5
192.793	2269.56
192.869	2263.85
192.944	2266.89
193.02	2273.13
193.095	2279.03
193.171	2285.69
193.246	2288.31
193.322	2283.55
193.397	2283.69
193.473	2268.56
193.548	2250.37
193.624	2257.75
193.699	2254.32
193.775	2269.27
193.85	2272.22
193.925	2283.17
194.001	2283.07
194.076	2274.75
194.152	2267.89
194.227	2259.8
194.302	2254.24
194.378	2259.23
194.453	2256.23
194.529	2266.18
194.604	2251.62
194.679	2245.15
194.755	2224.26
194.83	2239.5
194.905	2240.97
194.981	2251.16
195.056	2246.78
195.131	2251.73
195.207	2250.87
195.282	2243.36
195.357	2222.7
195.433	2235.36
195.508	2222.51
195.583	2226.27
195.659	2241.11
195.734	2248.3
195.809	2247.92
195.884	2254.82
195.96	2257.2
196.035	2273.09
196.11	2269.9
196.185	2282.13
196.261	2286.03
196.336	2319.63
196.411	2301.4
196.486	2304.78
196.561	2297.54
196.637	2306.58
196.712	2323.34
196.787	2326.53
196.862	2342.28
196.937	2355.13
197.013	2360.94
197.088	2374.22
197.163	2400.79
197.238	2419.18
197.313	2420.84
197.388	2437.27
197.464	2466.79
197.539	2473.45
197.614	2465.17
197.689	2477.6
197.764	2494.84
197.839	2515.31
197.914	2510.31
197.989	2535.41
198.065	2550.02
198.14	2602.92
198.215	2629.3
198.29	2636.74
198.365	2648.83
198.44	2659.69
198.515	2687.8
198.59	2705.38
198.665	2729.3
198.74	2736.02
198.815	2733.92
198.89	2752.45
198.965	2781.62
199.04	2780.43
199.115	2799.67
199.19	2845.27
199.265	2848.13
199.34	2858.42
199.415	2894.38
199.49	2915.06
199.565	2923.16
199.64	2946.9
199.715	2943.17
199.79	2951.33
199.865	2959.72
199.94	2958.76
200.015	2990.42
200.09	2994.52
200.165	3000.67
200.24	3010.26
200.315	3053.87
200.39	3075.62
200.464	3086.25
200.539	3087.87
200.614	3105.08
200.689	3126.45
200.764	3133.46
200.839	3152.19
200.914	3158.63
200.989	3143.6
201.063	3157
201.138	3142.42
201.213	3145.61
201.288	3124.96
201.363	3128.92
201.438	3136.08
201.512	3153.43
201.587	3136.11
201.662	3142.46
201.737	3153.9
201.812	3160.96
201.886	3125.4
201.961	3131.8
202.036	3118.59
202.111	3114.59
202.186	3082.23
202.26	3065.39
202.335	3042.93
202.41	3035.54
202.485	3016.28
202.559	2997.83
202.634	2971.61
202.709	2980.85
202.784	2959.35
202.858	2963.26
202.933	2943.58
203.008	2932.04
203.082	2910.73
203.157	2909.3
203.232	2866.99
203.306	2846.68
203.381	2814.16
203.456	2790.29
203.53	2767.25
203.605	2746.86
203.68	2723.6
203.754	2718.03
203.829	2703.26
203.904	2682.82
203.978	2675.49
204.053	2679.01
204.127	2668.58
204.202	2668.06
204.277	2649.72
204.351	2644.71
204.426	2634.9
204.5	2626.18
204.575	2590.37
204.65	2599.33
204.724	2590.75
204.799	2597.32
204.873	2591.74
204.948	2591.27
205.022	2580.03
205.097	2571.12
205.171	2584.07
205.246	2591.07
205.32	2592.69
205.395	2590.22
205.469	2578.89
205.544	2581.37
205.618	2564.08
205.693	2574.6
205.767	2559.79
205.842	2582.38
205.916	2574.09
205.991	2565.32
206.065	2571.61
206.14	2588.36
206.214	2584.17
206.289	2576.26
206.363	2590.65
206.438	2594.6
206.512	2601.51
206.586	2621.85
206.661	2630.19
206.735	2609.19
206.81	2611
206.884	2625.96
206.958	2616.67
207.033	2635.9
207.107	2640.95
207.181	2672.78
207.256	2666.64
207.33	2688.74
207.405	2698.23
207.479	2719.95
207.553	2728.62
207.628	2713.14
207.702	2723.05
207.776	2718.24
207.851	2723.15
207.925	2736.35
207.999	2732.11
208.073	2731.16
208.148	2732.21
208.222	2719.77
208.296	2754.49
208.371	2772.03
208.445	2784.95
208.519	2812.87
208.593	2826.35
208.668	2824.73
208.742	2828.21
208.816	2833.17
208.89	2846.99
208.965	2853.15
209.039	2860.49
209.113	2876.46
209.187	2898.46
209.261	2901.46
209.336	2928.68
209.41	2953.47
209.484	2960.05
209.558	2989.42
209.632	3008.39
209.707	3026.22
209.781	3058.6
209.855	3081.92
209.929	3107.22
210.003	3123.15
210.077	3135.55
210.151	3196.95
210.226	3248.73
210.3	3294
210.374	3336.4
210.448	3361.12
210.522	3387.28
210.596	3421.17
210.67	3456.73
210.744	3532.36
210.818	3591.15
210.892	3637.62
210.966	3661.54
211.041	3711.16
211.115	3743.97
211.189	3808.22
211.263	3868.69
211.337	3915.17
211.411	3973.82
211.485	4023.69
211.559	4086.82
211.633	4143.01
211.707	4171.38
211.781	4237.9
211.855	4268.13
211.929	4325.7
212.003	4372.26
212.077	4458.23
212.151	4547.06
212.225	4638.15
212.299	4711.73
212.373	4787.41
212.447	4875.6
212.52	5002.27
212.594	5102.31
212.668	5214.74
212.742	5303.12
212.816	5401.56
212.89	5508.73
212.964	5626.05
213.038	5742.48
213.112	5874.59
213.186	6015.22
213.26	6117.62
213.333	6204.82
213.407	6344.17
213.481	6482.15
213.555	6635.71
213.629	6762
213.703	6891.7
213.777	7038.37
213.85	7168.12
213.924	7351.59
213.998	7503.7
214.072	7652.16
214.146	7797.53
214.219	7955.18
214.293	8114.99
214.367	8282.78
214.441	8463.97
214.515	8618.51
214.588	8759.32
214.662	8896.06
214.736	9036.61
214.81	9211.83
214.883	9386.51
214.957	9550.02
215.031	9717.97
215.105	9866.85
215.178	10029.41
215.252	10203.06
215.326	10347.97
215.4	10505.45
215.473	10634.24
215.547	10790.51
215.621	10949.87
215.694	11127.92
215.768	11273.51
215.842	11434.13
215.915	11588.16
215.989	11724.56
216.063	11880.96
216.136	12051.05
216.21	12210.73
216.284	12394.66
216.357	12563.8
216.431	12724.12
216.504	12884.54
216.578	13068.82
216.652	13247.12
216.725	13403.55
216.799	13562.96
216.873	13719
216.946	13879.67
217.02	14034.41
217.093	14185.24
217.167	14315.1
217.24	14443.57
217.314	14593.1
217.387	14731.88
217.461	14872.78
217.535	15029.34
217.608	15159.2
217.682	15301.73
217.755	15455.88
217.829	15582.89
217.902	15713.47
217.976	15856.04
218.049	15988.5
218.123	16091.21
218.196	16221.49
218.27	16342.71
218.343	16444.45
218.417	16566.82
218.49	16686.16
218.563	16818.89
218.637	16947.76
218.71	17081.74
218.784	17201.7
218.857	17323.15
218.931	17437.56
219.004	17551.54
219.077	17668.5
219.151	17778.47
219.224	17883.39
219.298	17985.51
219.371	18108.01
219.444	18200.34
219.518	18295.9
219.591	18379.95
219.665	18502.35
219.738	18595.6
219.811	18676.51
219.885	18783.35
219.958	18893.56
220.031	18975.05
220.105	19058.62
220.178	19136.2
220.251	19203.23
220.325	19292.43
220.398	19370.31
220.471	19455.56
220.544	19537.24
220.618	19602.92
220.691	19684.03
220.764	19753.95
220.838	19827.54
220.911	19880.16
220.984	19976.45
221.057	20041.99
221.131	20116.83
221.204	20151.29
221.277	20230.47
221.35	20321.55
221.424	20370.47
221.497	20414.32
221.57	20463.48
221.643	20519.14
221.716	20575.82
221.79	20632.44
221.863	20672.59
221.936	20723.29
222.009	20757.6
222.082	20800.69
222.155	20832.83
222.229	20886.57
222.302	20928.79
222.375	20962.29
222.448	21004.22
222.521	21033.38
222.594	21063.4
222.667	21094.58
222.74	21139.79
222.814	21165.43
222.887	21191.08
222.96	21239.03
223.033	21269.59
223.106	21308.34
223.179	21340.01
223.252	21361.98
223.325	21387.24
223.398	21415.97
223.471	21447.54
223.544	21469.76
223.617	21489.81
223.69	21520.56
223.763	21526.63
223.837	21554.54
223.91	21574.3
223.983	21575.36
224.056	21581.82
224.129	21599.36
224.202	21620.67
224.275	21623.17
224.348	21617.49
224.42	21612.62
224.493	21602.35
224.566	21611.03
224.639	21629.49
224.712	21629.15
224.785	21637.73
224.858	21643.8
224.931	21637.78
225.004	21619.22
225.077	21630.31
225.15	21614.98
225.223	21611.46
225.296	21629.1
225.369	21600.67
225.442	21587.65
225.514	21586.98
225.587	21588.33
225.66	21589.39
225.733	21586.69
225.806	21587.03
225.879	21589.24
225.952	21575.51
226.025	21576.66
226.097	21592.04
226.17	21583.22
226.243	21551.46
226.316	21543.79
226.389	21537.43
226.461	21537.48
226.534	21534.97
226.607	21510.2
226.68	21516.51
226.753	21510.73
226.825	21478.77
226.898	21494.43
226.971	21490
227.044	21490.96
227.117	21475.78
227.189	21474.19
227.262	21473.52
227.335	21468.79
227.407	21454.72
227.48	21445.46
227.553	21431.92
227.626	21407.82
227.698	21394.13
227.771	21394.61
227.844	21370.32
227.916	21359.19
227.989	21342.22
228.062	21335.38
228.134	21354.85
228.207	21344.1
228.28	21322.03
228.352	21309.78
228.425	21294.99
228.498	21301.54
228.57	21277.97
228.643	21282.26
228.716	21252.52
228.788	21227.65
228.861	21210.16
228.934	21206.06
229.006	21193.29
229.079	21182.78
229.151	21154.63
229.224	21118.58
229.296	21111.93
229.369	21122.83
229.442	21119.07
229.514	21092.46
229.587	21095.64
229.659	21056.07
229.732	21047.83
229.804	21040.07
229.877	21053.62
229.949	21047.21
230.022	21039.35
230.094	21022.53
230.167	21005.37
230.239	20987.73
230.312	20974.24
230.384	20982.14
230.457	20964.21
230.529	20958.91
230.602	20949.76
230.674	20945.95
230.747	20946.38
230.819	20932.69
230.892	20880.11
230.964	20861.32
231.037	20855.77
231.109	20824.64
231.181	20817.6
231.254	20786.66
231.326	20772.11
231.399	20742.95
231.471	20712.78
231.544	20662.95
231.616	20650.37
231.688	20626.03
231.761	20603.86
231.833	20569.16
231.905	20515.91
231.978	20495.23
232.05	20465.06
232.122	20434.8
232.195	20399.52
232.267	20386.32
232.339	20359.91
232.412	20353.83
232.484	20326.12
232.556	20281.21
232.629	20275.52
232.701	20260.53
232.773	20234.99
232.846	20199.91
232.918	20167.38
232.99	20142.08
233.062	20131.09
233.135	20110.66
233.207	20082.85
233.279	20066.71
233.351	20056.64
233.424	20033.7
233.496	19995.72
233.568	19990.52
233.64	19950.37
233.713	19935.39
233.785	19907.39
233.857	19888.83
233.929	19850.09
234.001	19841.7
234.074	19845.27
234.146	19804.74
234.218	19773.18
234.29	19752.41
234.362	19724.21
234.434	19682.63
234.507	19644.27
234.579	19592.03
234.651	19562.44
234.723	19531.65
234.795	19505.96
234.867	19471.99
234.939	19453.1
235.012	19429.68
235.084	19411.08
235.156	19399.99
235.228	19354.02
235.3	19312.19
235.372	19282.65
235.444	19271.42
235.516	19221.98
235.588	19187.86
235.66	19152.54
235.732	19121.26
235.804	19153.11
235.876	19131.57
235.948	19130.66
236.02	19107.86
236.092	19090.32
236.164	19059.48
236.236	19027.58
236.308	18994.09
236.38	18964.07
236.452	18922.33
236.524	18900.41
236.596	18886.24
236.668	18860.12
236.74	18832.41
236.812	18809.62
236.884	18787.35
236.956	18763.93
237.028	18726.01
237.1	18690.59
237.172	18677.63
237.244	18662.06
237.316	18581.82
237.388	18549.49
237.46	18504.62
237.532	18487.18
237.604	18449.4
237.675	18433.88
237.747	18410.8
237.819	18376.63
237.891	18341.02
237.963	18314.37
238.035	18281.41
238.107	18209.79
238.178	18186.71
238.25	18151.53
238.322	18147.58
238.394	18097.17
238.466	18054.67
238.538	18034.91
238.609	18006.43
238.681	17955.78
238.753	17913.52
238.825	17884.12
238.897	17855.21
238.968	17844.8
239.04	17799.64
239.112	17803.3
239.184	17764.27
239.255	17729.72
239.327	17705.04
239.399	17684.46
239.471	17664.61
239.542	17637.14
239.614	17615.79
239.686	17560.27
239.758	17553.33
239.829	17508.42
239.901	17503.41
239.973	17466.54
240.044	17430.1
240.116	17401.04
240.188	17379.98
240.259	17339.07
240.331	17302.78
240.403	17277.23
240.474	17222.54
240.546	17186.63
240.618	17124.17
240.689	17085.71
240.761	17058.97
240.833	17043.21
240.904	17014.92
240.976	16982.39
241.048	16954.19
241.119	16939.73
241.191	16921.37
241.262	16903.15
241.334	16860.98
241.405	16817.37
241.477	16780.93
241.549	16749.03
241.62	16720.83
241.692	16690.76
241.763	16684.73
241.835	16653.6
241.906	16617.88
241.978	16574.46
242.049	16559.86
242.121	16548.19
242.192	16528.91
242.264	16486.02
242.335	16438.69
242.407	16409.29
242.478	16368.56
242.55	16332.56
242.621	16279.64
242.693	16241.37
242.764	16198.04
242.836	16167.24
242.907	16139.62
242.979	16115.91
243.05	16091.91
243.122	16072.29
243.193	16036.58
243.264	15981.1
243.336	15947.36
243.407	15931.07
243.479	15931.6
243.55	15905.19
243.622	15878.39
243.693	15845.42
243.764	15827.15
243.836	15783.92
243.907	15757.21
243.978	15731.38
244.05	15709.3
244.121	15667.95
244.192	15648.81
244.264	15609.86
244.335	15589.91
244.407	15544.31
244.478	15524.89
244.549	15487.24
244.62	15437.83
244.692	15400.24
244.763	15380.91
244.834	15351.31
244.906	15311.5
244.977	15279.39
245.048	15252.98
245.119	15212.68
245.191	15175.33
245.262	15123.65
245.333	15120.09
245.405	15078.39
245.476	15052.26
245.547	15021.46
245.618	15004.88
245.689	14975.91
245.761	14943.66
245.832	14909.68
245.903	14892.09
245.974	14873.05
246.045	14850.24
246.117	14838.68
246.188	14800.35
246.259	14762.75
246.33	14734.51
246.401	14701.2
246.473	14657.14
246.544	14627.97
246.615	14611.06
246.686	14577.7
246.757	14564.97
246.828	14513.3
246.899	14507.66
246.97	14463.31
247.042	14427.97
247.113	14409.94
247.184	14409.12
247.255	14376.2
247.326	14349.73
247.397	14316.33
247.468	14276.37
247.539	14248.74
247.61	14208.3
247.681	14196.63
247.752	14180.63
247.823	14139.99
247.894	14118.01
247.965	14079.11
248.037	14046.28
248.108	14001.11
248.179	13975.42
248.25	13945.34
248.321	13941
248.392	13904.41
248.463	13896.5
248.534	13859
248.605	13836.97
248.675	13802.79
248.746	13784.86
248.817	13767.45
248.888	13743.3
248.959	13704.55
249.03	13690.28
249.101	13673.64
249.172	13644.67
249.243	13596.51
249.314	13592.9
249.385	13569.13
249.456	13554.82
249.527	13528.21
249.598	13513.41
249.669	13490.56
249.739	13475.13
249.81	13447.12
249.881	13409.38
249.952	13386.91
250.023	13375.54
250.094	13332.53
250.165	13289.92
250.235	13266.64
250.306	13245.04
250.377	13216.98
250.448	13198.23
250.519	13147.13
250.59	13142.46
250.66	13113.2
250.731	13112.18
250.802	13088.8
250.873	13072.03
250.944	13051.54
251.014	13021.6
251.085	13021.89
251.156	13006.61
251.227	12998.9
251.297	12993.69
251.368	12981.59
251.439	12973.59
251.51	12965.49
251.58	12944.43
251.651	12928.23
251.722	12926.64
251.792	12886.77
251.863	12858.38
251.934	12854.62
252.005	12865.85
252.075	12830.37
252.146	12826.76
252.217	12815.48
252.287	12805.26
252.358	12779.56
252.429	12781.2
252.499	12756.23
252.57	12744.52
252.641	12735.89
252.711	12713.91
252.782	12676.26
252.852	12672.21
252.923	12647.05
252.994	12627.67
253.064	12623.96
253.135	12591.18
253.205	12555.51
253.276	12554.11
253.347	12555.89
253.417	12520.61
253.488	12490.43
253.558	12468.83
253.629	12447.96
253.699	12432.92
253.77	12414.31
253.841	12390.21
253.911	12369.15
253.982	12354.3
254.052	12331.5
254.123	12311.54
254.193	12284.21
254.264	12302.63
254.334	12273.9
254.405	12245.84
254.475	12216.73
254.546	12192.72
254.616	12197.16
254.687	12182.5
254.757	12166.65
254.827	12144.96
254.898	12142.79
254.968	12123.6
255.039	12103.41
255.109	12090.92
255.18	12065.33
255.25	12025.66
255.321	12022.33
255.391	11987.77
255.461	11988.97
255.532	11945.74
255.602	11921.54
255.673	11886.84
255.743	11859.7
255.813	11816.03
255.884	11805.48
255.954	11792.9
256.024	11796.8
256.095	11770.43
256.165	11743.93
256.235	11730.48
256.306	11708.93
256.376	11693.75
256.446	11694.38
256.517	11680.3
256.587	11674.18
256.657	11652.93
256.728	11639.09
256.798	11621.12
256.868	11603.38
256.938	11573.06
257.009	11570.12
257.079	11561.69
257.149	11575.76
257.219	11533.59
257.29	11525.88
257.36	11487.23
257.43	11478.02
257.5	11429.05
257.571	11407.94
257.641	11399.07
257.711	11371.12
257.781	11367.75
257.852	11359.89
257.922	11318.73
257.992	11292.9
258.062	11270.73
258.132	11265.28
258.202	11245.67
258.273	11227.55
258.343	11228.51
258.413	11209.19
258.483	11192.18
258.553	11160.46
258.623	11132.17
258.693	11120.46
258.764	11124.66
258.834	11129.62
258.904	11114.53
258.974	11096.47
259.044	11073.43
259.114	11064.85
259.184	11047.89
259.254	11024.9
259.324	10981.53
259.394	10968.04
259.464	10973.77
259.535	10954.88
259.605	10932.76
259.675	10916.43
259.745	10905.68
259.815	10878.12
259.885	10852.63
259.955	10857.4
260.025	10836.29
260.095	10820.68
260.165	10806.85
260.235	10810.51
260.305	10784.25
260.375	10755.15
260.445	10761.27
260.515	10767.82
260.585	10761.99
260.655	10750.42
260.725	10742.09
260.795	10741.56
260.865	10743.73
260.934	10720.16
261.004	10711.05
261.074	10696.21
261.144	10695.64
261.214	10685.23
261.284	10666.77
261.354	10670.87
261.424	10642.34
261.494	10643.11
261.564	10629.72
261.634	10625.72
261.703	10584.23
261.773	10576.14
261.843	10571.85
261.913	10556.28
261.983	10520.29
262.053	10507.23
262.123	10487.77
262.192	10459.25
262.262	10452.41
262.332	10426.2
262.402	10419.21
262.472	10407.02
262.541	10377.58
262.611	10374.5
262.681	10351.18
262.751	10343.57
262.821	10326.66
262.89	10303.63
262.96	10300.93
263.03	10306.13
263.1	10288.21
263.169	10279.83
263.239	10277.04
263.309	10277.71
263.379	10275.11
263.448	10262.73
263.518	10250.01
263.588	10239.65
263.657	10243.5
263.727	10238.88
263.797	10222.12
263.867	10203.71
263.936	10173.08
264.006	10171.1
264.076	10146.58
264.145	10133.33
264.215	10120.57
264.285	10112.18
264.354	10084.01
264.424	10059.92
264.494	10027.74
264.563	10005.19
264.633	10002.69
264.702	9985.3
264.772	9955
264.842	9930.53
264.911	9926.72
264.981	9897.91
265.05	9883.46
265.12	9864.97
265.19	9852.78
265.259	9856.44
265.329	9857.74
265.398	9848.69
265.468	9865.98
265.537	9850.37
265.607	9847.29
265.676	9837.75
265.746	9828.6
265.815	9826.15
265.885	9812.42
265.955	9790.55
266.024	9777.84
266.094	9750.53
266.163	9754.62
266.232	9753.81
266.302	9734.16
266.371	9732.04
266.441	9731.03
266.51	9730.74
266.58	9711.28
266.649	9685.56
266.719	9684.69
266.788	9668.41
266.858	9676.94
266.927	9636.58
266.996	9626.51
267.066	9615
267.135	9592.75
267.205	9590.01
267.274	9583.79
267.343	9585.91
267.413	9576.28
267.482	9583.17
267.552	9584.32
267.621	9555.81
267.69	9529.76
267.76	9523.98
267.829	9510.54
267.898	9491.96
267.968	9466.29
268.037	9467.97
268.106	9469.37
268.176	9442.69
268.245	9435.32
268.314	9411.53
268.384	9407.87
268.453	9400.02
268.522	9387.45
268.592	9392.41
268.661	9369.49
268.73	9360.78
268.799	9336.99
268.869	9343.3
268.938	9312.48
269.007	9296.64
269.076	9291.44
269.146	9289.32
269.215	9283.11
269.284	9291.54
269.353	9276.37
269.422	9268.52
269.492	9247.87
269.561	9210.31
269.63	9201.36
269.699	9178.92
269.768	9168.61
269.838	9163.03
269.907	9164.43
269.976	9145.55
270.045	9110.84
270.114	9115.47
270.183	9098.71
270.253	9094.86
270.322	9067.95
270.391	9060.53
270.46	9059.48
270.529	9052.78
270.598	9049.65
270.667	9034.63
270.736	9006.18
270.806	9003.24
270.875	9008.78
270.944	8997.08
271.013	9025.29
271.082	9023.27
271.151	9026.2
271.22	9005.8
271.289	8999.34
271.358	8985.04
271.427	8977.2
271.496	8971.76
271.565	8952.41
271.634	8950.24
271.703	8954.57
271.772	8955.97
271.841	8950.19
271.91	8930.26
271.979	8926.94
272.048	8909.8
272.117	8917.02
272.186	8901.62
272.255	8898.25
272.324	8890.89
272.393	8888.33
272.462	8864.79
272.531	8856.61
272.6	8843.47
272.669	8846.88
272.738	8827.97
272.807	8818.43
272.876	8797.79
272.945	8831
273.013	8830.76
273.082	8831.82
273.151	8812.42
273.22	8811.8
273.289	8797.5
273.358	8810.55
273.427	8797.7
273.496	8795.96
273.564	8791.15
273.633	8793.12
273.702	8777.96
273.771	8764.29
273.84	8761.55
273.909	8758.71
273.977	8756.49
274.046	8748.65
274.115	8750.53
274.184	8739.84
274.253	8738.21
274.322	8752.11
274.39	8716.64
274.459	8701.67
274.528	8675.34
274.597	8665.43
274.665	8664.37
274.734	8675.78
274.803	8659.84
274.872	8647.57
274.94	8640.54
275.009	8668.47
275.078	8657.02
275.147	8659.95
275.215	8661.44
275.284	8671.31
275.353	8658.6
275.421	8640.84
275.49	8655.72
275.559	8649.89
275.627	8644.41
275.696	8631.85
275.765	8629.15
275.833	8625.54
275.902	8627.32
275.971	8640.75
276.039	8661.69
276.108	8658.56
276.177	8658.75
276.245	8650.95
276.314	8652.64
276.383	8652.93
276.451	8619.9
276.52	8621.54
276.588	8630.73
276.657	8634.77
276.725	8619.9
276.794	8627.26
276.863	8627.99
276.931	8600.65
277	8607.19
277.068	8617.92
277.137	8636.5
277.205	8640.3
277.274	8658.11
277.342	8666.15
277.411	8646.32
277.48	8622.93
277.548	8613.02
277.617	8608.98
277.685	8601.18
277.754	8607.77
277.822	8601.76
277.89	8610.09
277.959	8603.73
278.027	8578.37
278.096	8570.19
278.164	8601.77
278.233	8594.02
278.301	8585.93
278.37	8589.88
278.438	8579
278.507	8578.28
278.575	8555.28
278.643	8546.13
278.712	8520.92
278.78	8508.98
278.849	8524.81
278.917	8538.19
278.985	8538.72
279.054	8541.51
279.122	8554.74
279.191	8550.22
279.259	8539.97
279.327	8517.49
279.396	8541.36
279.464	8544.88
279.532	8551.13
279.601	8544.63
279.669	8541.41
279.737	8557.29
279.806	8563.4
279.874	8573.46
279.942	8574.23
280.011	8566
280.079	8575.1
280.147	8592.18
280.215	8595.89
280.284	8593.72
280.352	8584.91
280.42	8590.79
280.488	8583.42
280.557	8572.02
280.625	8575.92
280.693	8583.9
280.761	8594.25
280.83	8573.65
280.898	8582.65
280.966	8558.97
281.034	8527.35
281.102	8515.95
281.171	8506.9
281.239	8515.52
281.307	8502.14
281.375	8492.32
281.443	8522.83
281.512	8524.04
281.58	8530.73
281.648	8519.95
281.716	8511.53
281.784	8504.6
281.852	8493.29
281.92	8492.13
281.989	8504.16
282.057	8483.76
282.125	8524.39
282.193	8520.01
282.261	8520.15
282.329	8517.27
282.397	8525.69
282.465	8527.37
282.533	8539.78
282.601	8537.76
282.67	8516.25
282.738	8508.55
282.806	8515.29
282.874	8493.63
282.942	8489.44
283.01	8487.08
283.078	8496.66
283.146	8494.54
283.214	8506.43
283.282	8516.87
283.35	8524.04
283.418	8522.21
283.486	8528.08
283.554	8483.85
283.622	8478.65
283.69	8471.29
283.758	8460.41
283.826	8460.94
283.894	8471.82
283.962	8494.54
284.03	8501.18
284.098	8498.72
284.165	8492.76
284.233	8494.39
284.301	8490.02
284.369	8489.92
284.437	8477.26
284.505	8470.62
284.573	8489.15
284.641	8480.58
284.709	8482.22
284.777	8469.9
284.845	8479.57
284.912	8488.52
284.98	8495.07
285.048	8487.8
285.116	8500.55
285.184	8523.03
285.252	8525
285.319	8508.11
285.387	8494.05
285.455	8479.09
285.523	8493.24
285.591	8493.14
285.659	8493.62
285.726	8509.55
285.794	8490.26
285.862	8490.21
285.93	8484.67
285.997	8476.97
286.065	8471.1
286.133	8464.46
286.201	8462.1
286.269	8449.83
286.336	8439
286.404	8434.67
286.472	8442.37
286.539	8417.79
286.607	8400.37
286.675	8406.72
286.743	8411.96
286.81	8401.37
286.878	8409.94
286.946	8396.51
287.013	8399.93
287.081	8406.28
287.149	8391.75
287.216	8409.26
287.284	8406.14
287.352	8413.16
287.419	8409.36
287.487	8425
287.555	8424.71
287.622	8427.36
287.69	8425
287.758	8439.58
287.825	8432.94
287.893	8425.19
287.96	8434.28
288.028	8444.73
288.096	8441.12
288.163	8446.31
288.231	8440.16
288.298	8444.77
288.366	8459.64
288.433	8455.03
288.501	8438.47
288.569	8441.89
288.636	8435.2
288.704	8449.06
288.771	8453.63
288.839	8446.13
288.906	8443.72
288.974	8462.49
289.041	8453.68
289.109	8444.93
289.176	8448.1
289.244	8447.96
289.311	8465
289.379	8475.39
289.446	8475.15
289.514	8479.77
289.581	8486.07
289.649	8492.47
289.716	8491.99
289.783	8485.16
289.851	8507.34
289.918	8513.45
289.986	8521.39
290.053	8529.43
290.121	8530.29
290.188	8531.59
290.255	8561.52
290.323	8551.95
290.39	8538.81
290.458	8550.5
290.525	8566.72
290.592	8564.21
290.66	8568.06
290.727	8553.34
290.794	8564.02
290.862	8561.66
290.929	8557.33
290.996	8554.35
291.064	8555.45
291.131	8568.88
291.198	8581.16
291.266	8581.35
291.333	8580.67
291.4	8588.42
291.468	8602.72
291.535	8595.4
291.602	8596.75
291.669	8588.86
291.737	8588.23
291.804	8590.59
291.871	8606.57
291.938	8617.49
292.006	8649.41
292.073	8668.51
292.14	8680.21
292.207	8678.24
292.275	8677.42
292.342	8693.73
292.409	8720.83
292.476	8754.58
292.543	8746.1
292.611	8745.24
292.678	8757.75
292.745	8780.9
292.812	8793.85
292.879	8791.06
292.946	8793.51
293.014	8809.93
293.081	8822.2
293.148	8839.72
293.215	8856.85
293.282	8853.68
293.349	8858.3
293.416	8832.25
293.484	8849.34
293.551	8868.89
293.618	8883.42
293.685	8913.17
293.752	8899.98
293.819	8893.19
293.886	8879.14
293.953	8889.87
294.02	8901.04
294.087	8906.29
294.154	8898.58
294.221	8910.28
294.288	8913.8
294.356	8936.13
294.423	8942.49
294.49	8932.28
294.557	8947.78
294.624	8935.89
294.691	8963.43
294.758	8964.34
294.825	8975.46
294.892	8962.66
294.959	8959.14
295.026	8964.58
295.093	8957.65
295.16	8967.23
295.226	8969.49
295.293	8997.13
295.36	9000.64
295.427	9013.93
295.494	9030.97
295.561	9042.67
295.628	9062.9
295.695	9072.91
295.762	9069.01
295.829	9077.68
295.896	9093.08
295.963	9103.14
296.03	9116.67
296.096	9113.73
296.163	9124.61
296.23	9140.84
296.297	9158.94
296.364	9160.77
296.431	9173.29
296.498	9175.65
296.564	9200.54
296.631	9206.22
296.698	9185.75
296.765	9202.75
296.832	9193.89
296.899	9180.07
296.965	9196.2
297.032	9170.78
297.099	9193.02
297.166	9205.3
297.233	9197.07
297.299	9190.28
297.366	9187.77
297.433	9185.99
297.5	9188.69
297.566	9189.94
297.633	9184.69
297.7	9186.91
297.767	9187.29
297.833	9187.73
297.9	9182.33
297.967	9161.34
298.033	9170.35
298.1	9199.14
298.167	9190.43
298.234	9193.41
298.3	9200.35
298.367	9198.47
298.434	9214.16
298.5	9198.42
298.567	9191.63
298.634	9192.4
298.7	9215.27
298.767	9218.98
298.834	9228.75
298.9	9234.48
298.967	9229.57
299.033	9239.83
299.1	9248.16
299.167	9263.76
299.233	9261.16
299.3	9277.91
299.366	9294.18
299.433	9310.6
299.5	9285.61
299.566	9294.71
299.633	9311.76
299.699	9316.48
299.766	9313.59
299.832	9309.4
299.899	9325.39
299.965	9342.58
300.032	9341.37
300.099	9342.38
300.165	9345.08
300.232	9349.99
300.298	9341.95
300.365	9354.37
300.431	9355.48
300.498	9353.6
300.564	9353.7
300.631	9358.08
300.697	9370.94
300.763	9381.39
300.83	9379.46
300.896	9398.87
300.963	9410.66
301.029	9415.48
301.096	9428.58
301.162	9431.47
301.229	9433.54
301.295	9420.58
301.361	9422.7
301.428	9431.27
301.494	9418.27
301.561	9424.63
301.627	9431.56
301.693	9442.35
301.76	9448.56
301.826	9442.83
301.892	9452.08
301.959	9469.27
302.025	9475.72
302.092	9471.53
302.158	9471.97
302.224	9476.59
302.291	9464.36
302.357	9457.42
302.423	9453.52
302.49	9445.38
302.556	9466.77
302.622	9467.15
302.688	9479.14
302.755	9491.76
302.821	9496.96
302.887	9505.96
302.954	9505.53
303.02	9505.77
303.086	9505.58
303.152	9497.39
303.219	9498.89
303.285	9505.68
303.351	9509.34
303.417	9508.08
303.483	9496.29
303.55	9484.63
303.616	9479.58
303.682	9481.21
303.748	9471.39
303.815	9481.89
303.881	9486.13
303.947	9473.61
304.013	9468.69
304.079	9455.74
304.145	9433.01
304.212	9433.88
304.278	9428.82
304.344	9424.73
304.41	9413.8
304.476	9407.87
304.542	9405.42
304.608	9408.69
304.674	9389
304.741	9380.38
304.807	9385.43
304.873	9393.76
304.939	9419.62
305.005	9404.55
305.071	9402.05
305.137	9404.45
305.203	9380.47
305.269	9383.89
305.335	9393.76
305.401	9394.63
305.467	9401.76
305.533	9412.59
305.599	9421.16
305.666	9435.85
305.732	9436.19
305.798	9449
305.864	9472.45
305.93	9477.41
305.996	9471.68
306.062	9474.57
306.128	9466.67
306.194	9453.67
306.259	9453.67
306.325	9441.15
306.391	9451.11
306.457	9455.01
306.523	9457.09
306.589	9482.37
306.655	9471.24
306.721	9448.85
306.787	9442.16
306.853	9453.28
306.919	9441.92
306.985	9433.54
307.051	9425.02
307.117	9422.85
307.183	9417.07
307.248	9386.68
307.314	9390.44
307.38	9397.9
307.446	9401.61
307.512	9393.23
307.578	9388.13
307.644	9381.29
307.709	9379.32
307.775	9374.26
307.841	9375.56
307.907	9384.56
307.973	9359.33
308.039	9357.55
308.104	9365.83
308.17	9367.76
308.236	9349.89
308.302	9350.52
308.368	9340.16
308.433	9336.46
308.499	9327.36
308.565	9314.64
308.631	9320.37
308.696	9298.85
308.762	9279.11
308.828	9280.27
308.894	9262.6
308.959	9247.86
309.025	9238.09
309.091	9229.38
309.156	9214.55
309.222	9213.15
309.288	9197.11
309.354	9179.4
309.419	9175.69
309.485	9165.53
309.551	9166.64
309.616	9148.39
309.682	9144.97
309.748	9135.39
309.813	9125.67
309.879	9119.94
309.945	9109.83
310.01	9099.48
310.076	9100.49
310.141	9104.63
310.207	9081.03
310.273	9083.87
310.338	9084.21
310.404	9067.41
310.469	9054.46
310.535	9046.95
310.601	9020.23
310.666	9018.16
310.732	9027.98
310.797	9017.29
310.863	8999.77
310.928	8994.38
310.994	9005.21
311.059	8997.79
311.125	8997.46
311.191	9006.17
311.256	8992.98
311.322	8997.12
311.387	8979.55
311.453	9336.14
311.518	9309.47
311.584	9316.69
311.649	9327.09
311.715	9318.19
311.78	9324.16
311.846	9321.46
311.911	9330.8
311.976	9340.86
312.042	9327.43
312.107	9314.53
312.173	9305
312.238	9298.98
312.304	9286.42
312.369	9274.91
312.434	9260.52
312.5	9253.97
312.565	9218.59
312.631	9222.1
312.696	9213
312.761	9216.13
312.827	8846.07
312.892	8884.58
312.958	8878.61
313.023	8870.18
313.088	8869.32
313.154	8855.36
313.219	8842.85
313.284	8825.71
313.35	8821.62
313.415	8814.54
313.48	8810.74
313.546	8817.81
313.611	8835.77
313.676	8833.07
313.741	8818.15
313.807	8827.97
313.872	8828.17
313.937	8841.5
314.003	8850.55
314.068	8853.82
314.133	8859.26
314.198	8854.01
314.264	8827.29
314.329	8814.44
314.394	8806.69
314.459	8801.64
314.525	8818.53
314.59	8818.82
314.655	8812.32
314.72	8811.98
314.785	8812.56
314.851	8805.05
314.916	8788.26
314.981	8766.21
315.046	8758.75
315.111	8755
315.176	8743.59
315.242	8749.27
315.307	8746.91
315.372	8726.4
315.437	8714.47
315.502	8703.54
315.567	8715.43
315.632	8698.92
315.698	8698.73
315.763	8695.89
315.828	8697.09
315.893	8695.17
315.958	8689.39
316.023	8681.12
316.088	8664.51
316.153	8649.59
316.218	8643.53
316.283	8623.18
316.348	8606.77
316.413	8605.08
316.479	8591.8
316.544	8555.04
316.609	8526.07
316.674	8486.86
316.739	8451.16
316.804	8420.8
316.869	8390.49
316.934	8354.3
316.999	8330.48
317.064	8275.98
317.129	8234.5
317.194	8189.95
317.259	8143.57
317.324	8096.91
317.389	8054.58
317.454	8016.72
317.518	7978.49
317.583	7951.69
317.648	7930.77
317.713	7900.76
317.778	7832.61
317.843	7798.6
317.908	7762.5
317.973	7719.89
318.038	7700.79
318.103	7664.74
318.168	7638.1
318.233	7603.53
318.297	7557.27
318.362	7520.35
318.427	7489.4
318.492	7463.82
318.557	7420.47
318.622	7393.54
318.687	7369.32
318.751	7333.81
318.816	7301.74
318.881	7272.57
318.946	7223.93
319.011	7177.36
319.075	7137.14
319.14	7111.29
319.205	7072.27
319.27	7040.9
319.335	6991.47
319.399	6947.07
319.464	6923.58
319.529	6872.13
319.594	6837.69
319.658	6805.94
319.723	6764.05
319.788	6736.63
319.853	6685.96
319.917	6660.8
319.982	6604.89
320.047	6564.51
320.112	6539.11
320.176	6491
320.241	6456.04
320.306	6425.93
320.37	6386.57
320.435	6356.42
320.5	6326.66
320.564	6287.35
320.629	6253.9
320.694	6231.25
320.758	6192.62
320.823	6151.25
320.888	6124.77
320.952	6076.06
321.017	6036.14
321.082	5999.44
321.146	5966.77
321.211	5932.23
321.275	5892.95
321.34	5855.49
321.405	5815.64
321.469	5767.2
321.534	5727.93
321.598	5675.14
321.663	5646.12
321.727	5622.43
321.792	5575.78
321.857	5533.4
321.921	5498.35
321.986	5453.98
322.05	5394.37
322.115	5358.47
322.179	5312.56
322.244	5258.95
322.308	5227.13
322.373	5183.63
322.437	5142.77
322.502	5116.36
322.566	5072.29
322.631	5033.93
322.695	4992.98
322.76	4950.75
322.824	4916.56
322.889	4873.57
322.953	4830.54
323.018	4761.26
323.082	4691.15
323.146	4642.95
323.211	4592.08
323.275	4544.89
323.34	4502.65
323.404	4469.7
323.468	4423.14
323.533	4381.82
323.597	4333.15
323.662	4284.07
323.726	4241.65
323.79	4195.17
323.855	4130.16
323.919	4081.06
323.983	4039.75
324.048	3974.64
324.112	4133.74
324.177	4008.79
324.241	3801.94
324.305	3601.38
324.37	3403.89
324.434	3215.34
324.498	3169.86
324.562	3120.44
324.627	3063.58
324.691	3008.29
324.755	2946.6
324.82	2871.79
324.884	2797.7
324.948	2730.72
325.012	2636.46
325.077	2523.13
