Data from 20250704_urea_1.5M_MAYP1162681_11-45-35-595.txt Node
Date: Fri Jul 04 11:45:35 BST 2025
User: adleo
Spectrometer: MAYP116268
Trigger mode: 0
Integration Time (sec): 1.000000E0
Scans to average: 1
Electric dark correction enabled: true
Nonlinearity correction enabled: true
Boxcar width: 10
XAxis mode: Wavelengths
Number of Pixels in Spectrum: 2068
>>>>>Begin Spectral Data<<<<<
179.565	1269.79
179.642	1332.33
179.718	1376.26
179.795	1417.92
179.871	1452.88
179.948	1470.94
180.024	1491.75
180.101	1515.45
180.177	1528.84
180.254	1552.01
180.33	1575.21
180.407	1634.1
180.483	1732.3
180.56	1829.13
180.636	1917.06
180.712	1904.26
180.789	1913.63
180.865	1926.61
180.942	1937.59
181.018	1943.77
181.095	1957.66
181.171	1961.7
181.248	1957.47
181.324	1974.54
181.4	1981.15
181.477	1991
181.553	2007.21
181.63	2029.7
181.706	2047.92
181.782	2057.71
181.859	2059.47
181.935	2064.66
182.011	2059.14
182.088	2077.31
182.164	2097.39
182.24	2113.13
182.317	2124.97
182.393	2122.74
182.469	2139.01
182.546	2152.71
182.622	2158.6
182.698	2151.8
182.775	2162.69
182.851	2181.01
182.927	2173.59
183.003	2169.12
183.08	2164.07
183.156	2169.69
183.232	2163.41
183.308	2149.47
183.385	2157.17
183.461	2174.73
183.537	2174.59
183.613	2190.05
183.69	2179.96
183.766	2167.92
183.842	2173.2
183.918	2175.68
183.995	2190.8
184.071	2192.14
184.147	2185.05
184.223	2171.59
184.299	2188.15
184.375	2177.69
184.452	2183.83
184.528	2233.46
184.604	2247.11
184.68	2260.58
184.756	2268.05
184.832	2275.19
184.908	2281.18
184.985	2282.61
185.061	2263.62
185.137	2271.81
185.213	2260.63
185.289	2265
185.365	2256.39
185.441	2254.73
185.517	2268.86
185.593	2265.53
185.669	2264.44
185.745	2278.09
185.822	2298.5
185.898	2288.12
185.974	2297.59
186.05	2288.12
186.126	2254.47
186.202	2243.2
186.278	2237.68
186.354	2229.49
186.43	2235.49
186.506	2236.16
186.582	2235.25
186.658	2245.81
186.734	2227.97
186.81	2226.88
186.886	2227.21
186.962	2240.77
187.038	2235.68
187.114	2225.97
187.19	2231.11
187.266	2216.65
187.341	2214.79
187.417	2207.32
187.493	2206.46
187.569	2211.56
187.645	2206.47
187.721	2191.28
187.797	2201.32
187.873	2206.65
187.949	2201.99
188.025	2195.42
188.101	2196.18
188.176	2200.37
188.252	2193.09
188.328	2201.56
188.404	2203.27
188.48	2197.37
188.556	2191.47
188.632	2194.61
188.707	2196.27
188.783	2194.99
188.859	2191.28
188.935	2179.76
189.011	2190.33
189.086	2184.71
189.162	2176.01
189.238	2172.72
189.314	2172.58
189.39	2165.97
189.465	2156.98
189.541	2173.63
189.617	2158.98
189.693	2153.46
189.768	2155.84
189.844	2181.07
189.92	2172.03
189.996	2180.4
190.071	2194.96
190.147	2193.63
190.223	2200.91
190.298	2194.63
190.374	2183.31
190.45	2195.15
190.526	2206.9
190.601	2196.39
190.677	2199.95
190.753	2228.28
190.828	2231.9
190.904	2247.13
190.98	2260.97
191.055	2272.54
191.131	2264.02
191.207	2284.38
191.282	2293.8
191.358	2287.33
191.433	2271.05
191.509	2286.51
191.585	2284.32
191.66	2283.65
191.736	2290.79
191.811	2281.94
191.887	2298.46
191.963	2320.4
192.038	2329.82
192.114	2328.53
192.189	2335.53
192.265	2329.44
192.34	2303.68
192.416	2299.73
192.491	2295.78
192.567	2299.73
192.642	2302.78
192.718	2301.69
192.793	2290.12
192.869	2287.5
192.944	2290.07
193.02	2299.78
193.095	2304.11
193.171	2310.73
193.246	2312.3
193.322	2308.78
193.397	2311.11
193.473	2295.83
193.548	2276.65
193.624	2277.6
193.699	2274.84
193.775	2293.26
193.85	2295.21
193.925	2306.26
194.001	2309.01
194.076	2301.35
194.152	2293.5
194.227	2283.46
194.302	2270.52
194.378	2273.85
194.453	2269.9
194.529	2280.51
194.604	2265.38
194.679	2254.77
194.755	2233.65
194.83	2246.5
194.905	2245.17
194.981	2254.55
195.056	2248.03
195.131	2254.55
195.207	2257.26
195.282	2249.79
195.357	2227.89
195.433	2241.88
195.508	2228.98
195.583	2235.21
195.659	2249.26
195.734	2255.49
195.809	2258.01
195.884	2272.28
195.96	2272.47
196.035	2288.99
196.11	2286.27
196.185	2298.31
196.261	2304.83
196.336	2337.14
196.411	2321.77
196.486	2325.48
196.561	2318.72
196.637	2325.47
196.712	2343.47
196.787	2343.76
196.862	2356.99
196.937	2367.79
197.013	2374.98
197.088	2387.5
197.163	2412.26
197.238	2427.45
197.313	2424.31
197.388	2436.36
197.464	2466.17
197.539	2478.21
197.614	2471.6
197.689	2482.98
197.764	2500.65
197.839	2522.6
197.914	2514.26
197.989	2536.5
198.065	2550.88
198.14	2599.34
198.215	2629.82
198.29	2641.55
198.365	2657.12
198.44	2667.5
198.515	2694.61
198.59	2712.91
198.665	2740.06
198.74	2748.88
198.815	2751.6
198.89	2778.99
198.965	2812.07
199.04	2807.16
199.115	2825.22
199.19	2869.63
199.265	2872.44
199.34	2881.74
199.415	2914.16
199.49	2939.75
199.565	2949.71
199.64	2971.77
199.715	2971.35
199.79	2978.78
199.865	2985.55
199.94	2983.12
200.015	3017.26
200.09	3026.18
200.165	3033.43
200.24	3043.63
200.315	3084.96
200.39	3103.99
200.464	3109.42
200.539	3111.62
200.614	3127.97
200.689	3151.63
200.764	3156.49
200.839	3176.56
200.914	3181.81
200.989	3171.12
201.063	3185.47
201.138	3163.89
201.213	3170.42
201.288	3151.78
201.363	3157.64
201.438	3157.07
201.512	3175.52
201.587	3157.87
201.662	3160.21
201.737	3170.94
201.812	3174.28
201.886	3141.2
201.961	3150.51
202.036	3137.3
202.111	3133.96
202.186	3104.79
202.26	3085.38
202.335	3064.06
202.41	3057.39
202.485	3041.56
202.559	3023.25
202.634	2993.93
202.709	3008.84
202.784	2989.2
202.858	2987.58
202.933	2967.27
203.008	2960.26
203.082	2936.1
203.157	2935.91
203.232	2890.35
203.306	2867.61
203.381	2835.62
203.456	2809.5
203.53	2783.7
203.605	2762.31
203.68	2735.09
203.754	2730.09
203.829	2718.03
203.904	2697.41
203.978	2684.68
204.053	2687.78
204.127	2671.73
204.202	2670.82
204.277	2652.24
204.351	2643.52
204.426	2635.19
204.5	2627.42
204.575	2591.61
204.65	2603.52
204.724	2594.56
204.799	2602.84
204.873	2597.03
204.948	2597.7
205.022	2588.98
205.097	2580.03
205.171	2596.41
205.246	2605.32
205.32	2602.41
205.395	2599.65
205.469	2592.89
205.544	2599.42
205.618	2581.18
205.693	2593.56
205.767	2582.65
205.842	2605.38
205.916	2599.04
205.991	2591.95
206.065	2597.38
206.14	2614.51
206.214	2610.89
206.289	2601.03
206.363	2612.08
206.438	2614.89
206.512	2618.51
206.586	2638.51
206.661	2645.28
206.735	2623.76
206.81	2625.09
206.884	2642.62
206.958	2632.28
207.033	2647.14
207.107	2651
207.181	2682.45
207.256	2678.45
207.33	2699.64
207.405	2709.13
207.479	2729.62
207.553	2734.24
207.628	2717.86
207.702	2727.19
207.776	2719.43
207.851	2722.9
207.925	2740.39
207.999	2741.06
208.073	2742.21
208.148	2742.82
208.222	2733.06
208.296	2765.4
208.371	2778.7
208.445	2792.43
208.519	2818.63
208.593	2831.45
208.668	2831.26
208.742	2837.7
208.816	2838.46
208.89	2852.05
208.965	2854.05
209.039	2862.63
209.113	2882.41
209.187	2902.56
209.261	2900.41
209.336	2921.57
209.41	2945.6
209.484	2949.18
209.558	2972.16
209.632	2986.93
209.707	2994.85
209.781	3017.15
209.855	3033.13
209.929	3057.33
210.003	3058.38
210.077	3060.28
210.151	3110.59
210.226	3144.46
210.3	3175.74
210.374	3202.53
210.448	3211.02
210.522	3225.81
210.596	3237.69
210.67	3252.48
210.744	3304.68
210.818	3343.45
210.892	3371.17
210.966	3370.6
211.041	3395.42
211.115	3398.42
211.189	3427.58
211.263	3456.88
211.337	3474.34
211.411	3496.87
211.485	3497.83
211.559	3526.13
211.633	3537.67
211.707	3515.41
211.781	3536.81
211.855	3514.18
211.929	3523.39
212.003	3521.57
212.077	3554.73
212.151	3589.31
212.225	3622.69
212.299	3640.71
212.373	3654.37
212.447	3677.07
212.52	3738.83
212.594	3768.51
212.668	3815.71
212.742	3839.74
212.816	3873.58
212.89	3908.36
212.964	3952.59
213.038	4006.86
213.112	4066.82
213.186	4137.65
213.26	4177.55
213.333	4192.33
213.407	4257.05
213.481	4321.53
213.555	4395.71
213.629	4442.76
213.703	4496.55
213.777	4563.86
213.85	4617.14
213.924	4733.21
213.998	4814.39
214.072	4888.55
214.146	4960.2
214.219	5042.64
214.293	5128.61
214.367	5219.75
214.441	5321.19
214.515	5405.41
214.588	5472.81
214.662	5540.27
214.736	5619.75
214.81	5726.88
214.883	5837.66
214.957	5931.21
215.031	6029.14
215.105	6119.2
215.178	6219.22
215.252	6323.08
215.326	6413.76
215.4	6505.43
215.473	6571.29
215.547	6670.05
215.621	6774.41
215.694	6904.14
215.768	7002.68
215.842	7113.68
215.915	7224.66
215.989	7323.15
216.063	7432.52
216.136	7562.75
216.21	7688.43
216.284	7828.27
216.357	7955.67
216.431	8079.18
216.504	8217.04
216.578	8372.35
216.652	8508.48
216.725	8636.35
216.799	8778.63
216.873	8904.47
216.946	9046.36
217.02	9168.18
217.093	9293.89
217.167	9401.94
217.24	9511.45
217.314	9635.39
217.387	9755.49
217.461	9875.66
217.535	10021.79
217.608	10139.18
217.682	10264.82
217.755	10400.82
217.829	10516.31
217.902	10646.4
217.976	10776.44
218.049	10897
218.123	11000.32
218.196	11134.23
218.27	11252.59
218.343	11358.57
218.417	11490.48
218.49	11612.17
218.563	11752.27
218.637	11883.86
218.71	12027.05
218.784	12157.05
218.857	12292.2
218.931	12420.66
219.004	12543.82
219.077	12666.4
219.151	12791.73
219.224	12910.7
219.298	13026.34
219.371	13155.24
219.444	13254.16
219.518	13362.23
219.591	13462.02
219.665	13611.12
219.738	13718.86
219.811	13818.5
219.885	13939.59
219.958	14052.11
220.031	14158.3
220.105	14265.13
220.178	14364.23
220.251	14458.67
220.325	14570.79
220.398	14675.92
220.471	14775.95
220.544	14880.02
220.618	14966.64
220.691	15067.96
220.764	15155.55
220.838	15257.59
220.911	15345.27
220.984	15458.5
221.057	15562.56
221.131	15664.13
221.204	15713.53
221.277	15821.35
221.35	15946.05
221.424	16019.07
221.497	16105.83
221.57	16182.85
221.643	16278.18
221.716	16371.93
221.79	16448.08
221.863	16515.99
221.936	16583.56
222.009	16660.24
222.082	16739.19
222.155	16801.98
222.229	16885.22
222.302	16960.11
222.375	17011.39
222.448	17077.23
222.521	17141.04
222.594	17195.16
222.667	17250.73
222.74	17324.7
222.814	17377.52
222.887	17421.86
222.96	17493.67
223.033	17556.85
223.106	17620.51
223.179	17674.73
223.252	17717.71
223.325	17774.92
223.398	17829.85
223.471	17886.19
223.544	17931.54
223.617	17988.79
223.69	18049.8
223.763	18083.05
223.837	18129.07
223.91	18190.04
223.983	18224.2
224.056	18251.62
224.129	18295.82
224.202	18346.99
224.275	18380.73
224.348	18398.8
224.42	18424.53
224.493	18439.23
224.566	18463.76
224.639	18506.65
224.712	18526.21
224.785	18557.59
224.858	18580.67
224.931	18597.29
225.004	18604.28
225.077	18634.79
225.15	18625.34
225.223	18645.34
225.296	18693.58
225.369	18707.02
225.442	18718.35
225.514	18736.76
225.587	18760.51
225.66	18785.76
225.733	18794.49
225.806	18815.5
225.879	18840.89
225.952	18848.89
226.025	18890.05
226.097	18925.51
226.17	18938.72
226.243	18932.5
226.316	18946.04
226.389	18961.56
226.461	18986.43
226.534	19010.23
226.607	19021.51
226.68	19057.8
226.753	19069.12
226.825	19059.82
226.898	19087.19
226.971	19096.11
227.044	19118.42
227.117	19141.65
227.189	19164.97
227.262	19194.36
227.335	19201.16
227.407	19202.99
227.48	19218.46
227.553	19217.69
227.626	19214.8
227.698	19212.29
227.771	19226.99
227.844	19215.95
227.916	19218.8
227.989	19204.1
228.062	19204.29
228.134	19224.97
228.207	19215.66
228.28	19205.21
228.352	19199.14
228.425	19199.81
228.498	19209.74
228.57	19197.79
228.643	19196.1
228.716	19180.05
228.788	19170.75
228.861	19168.34
228.934	19191.96
229.006	19191.81
229.079	19188.73
229.151	19173.4
229.224	19153.69
229.296	19162.32
229.369	19194.08
229.442	19206.56
229.514	19199.95
229.587	19212.77
229.659	19192.49
229.732	19195.09
229.804	19210.12
229.877	19231.71
229.949	19244.53
230.022	19259.28
230.094	19265.06
230.167	19261.73
230.239	19249.35
230.312	19245.4
230.384	19262.36
230.457	19251.28
230.529	19250.6
230.602	19246.89
230.674	19246.27
230.747	19264.67
230.819	19264.96
230.892	19224
230.964	19218.56
231.037	19222.85
231.109	19210.51
231.181	19206.36
231.254	19194.65
231.326	19179.86
231.399	19163.19
231.471	19137.4
231.544	19104.83
231.616	19098.95
231.688	19099.91
231.761	19074.85
231.833	19060.3
231.905	19024.11
231.978	19004.69
232.05	18983.82
232.122	18971.15
232.195	18952.55
232.267	18949.85
232.339	18928.41
232.412	18934.96
232.484	18911.64
232.556	18898.62
232.629	18907.88
232.701	18910.58
232.773	18901.85
232.846	18885.47
232.918	18885.47
232.99	18886.38
233.062	18885.03
233.135	18875.64
233.207	18839.11
233.279	18849.13
233.351	18834.63
233.424	18811.45
233.496	18792.17
233.568	18797.62
233.64	18768.22
233.713	18752.85
233.785	18740.08
233.857	18731.79
233.929	18708.08
234.001	18714.01
234.074	18713.38
234.146	18666.45
234.218	18638.88
234.29	18615.56
234.362	18592.67
234.434	18553.54
234.507	18519.71
234.579	18483.81
234.651	18456.43
234.723	18449.74
234.795	18440.1
234.867	18424.58
234.939	18437.4
235.012	18430.27
235.084	18423.28
235.156	18420.15
235.228	18397.64
235.3	18362.27
235.372	18347.96
235.444	18341.84
235.516	18305.7
235.588	18278.85
235.66	18277.99
235.732	18250.04
235.804	18291.57
235.876	18285.55
235.948	18281.79
236.02	18254.08
236.092	18227.48
236.164	18206.28
236.236	18183.53
236.308	18147.92
236.38	18133.08
236.452	18089.41
236.524	18067.92
236.596	18055.3
236.668	18046.57
236.74	18039.63
236.812	18031.44
236.884	18014.91
236.956	17993.95
237.028	17959.3
237.1	17932.17
237.172	17925.56
237.244	17922.48
237.316	17859.16
237.388	17832.12
237.46	17801.38
237.532	17802.2
237.604	17778.82
237.675	17769.57
237.747	17749.86
237.819	17727.79
237.891	17702.63
237.963	17680.03
238.035	17642.92
238.107	17583.89
238.178	17561.57
238.25	17528.8
238.322	17518.83
238.394	17478.39
238.466	17450.06
238.538	17435.4
238.609	17418.49
238.681	17371.6
238.753	17333.14
238.825	17312.42
238.897	17286.63
238.968	17279.31
239.04	17238.54
239.112	17239.26
239.184	17204.56
239.255	17179.4
239.327	17154.1
239.399	17129.28
239.471	17110.39
239.542	17097.18
239.614	17084.99
239.686	17042.24
239.758	17033.09
239.829	16992.56
239.901	16970.96
239.973	16937.76
240.044	16922.24
240.116	16903.2
240.188	16866.81
240.259	16843.34
240.331	16803.34
240.403	16784.98
240.474	16742.18
240.546	16713.8
240.618	16672.78
240.689	16642.08
240.761	16617.84
240.833	16610.42
240.904	16576.39
240.976	16552.05
241.048	16527.28
241.119	16504.48
241.191	16484.33
241.262	16474.55
241.334	16454.4
241.405	16431.37
241.477	16405.53
241.549	16375.07
241.62	16351.45
241.692	16345.29
241.763	16334.2
241.835	16312.95
241.906	16284.75
241.978	16244.02
242.049	16222.48
242.121	16207.97
242.192	16198.09
242.264	16156.59
242.335	16110.56
242.407	16101.5
242.478	16069.78
242.55	16040.72
242.621	16010.31
242.693	15979.89
242.764	15942.2
242.836	15902.63
242.907	15887.11
242.979	15860.84
243.05	15834.28
243.122	15795.34
243.193	15763.48
243.264	15715.52
243.336	15688.09
243.407	15676.53
243.479	15670.69
243.55	15654.31
243.622	15634.69
243.693	15607.74
243.764	15603.74
243.836	15574.73
243.907	15546.1
243.978	15512.5
244.05	15494.13
244.121	15450.13
244.192	15439.67
244.264	15396
244.335	15376.09
244.407	15328.37
244.478	15307.26
244.549	15284.12
244.62	15245.07
244.692	15213.12
244.763	15194.46
244.834	15159.08
244.906	15116.37
244.977	15092.95
245.048	15082.82
245.119	15044.55
245.191	15003.05
245.262	14956.92
245.333	14946.17
245.405	14908.47
245.476	14889.29
245.547	14867.89
245.618	14857.23
245.689	14820.17
245.761	14797.51
245.832	14776.73
245.903	14760.34
245.974	14739.81
246.045	14700.96
246.117	14700.76
246.188	14667.31
246.259	14629.42
246.33	14605.17
246.401	14573.31
246.473	14529.54
246.544	14486.64
246.615	14471.31
246.686	14442.77
246.757	14426.67
246.828	14387.09
246.899	14383.38
246.97	14342.41
247.042	14304.71
247.113	14286.97
247.184	14279.45
247.255	14250.38
247.326	14215.82
247.397	14181.26
247.468	14147.08
247.539	14127.17
247.61	14084.22
247.681	14063.49
247.752	14052.16
247.823	14021.89
247.894	14009.4
247.965	13973.05
248.037	13946.06
248.108	13898.48
248.179	13868.35
248.25	13839.57
248.321	13821.78
248.392	13786.64
248.463	13785.48
248.534	13758.68
248.605	13737.13
248.675	13710.47
248.746	13686.95
248.817	13669.64
248.888	13653.11
248.959	13619.22
249.03	13607.89
249.101	13583.16
249.172	13557.71
249.243	13513.12
249.314	13505.84
249.385	13478.07
249.456	13468
249.527	13440.76
249.598	13420.85
249.669	13399.4
249.739	13383.06
249.81	13365.75
249.881	13323.42
249.952	13297.49
250.023	13272.42
250.094	13232.8
250.165	13197.56
250.235	13179.72
250.306	13156.34
250.377	13122.02
250.448	13103.26
250.519	13057.9
250.59	13055.59
250.66	13027.34
250.731	13026.38
250.802	12998.27
250.873	12987.38
250.944	12965.88
251.014	12928.52
251.085	12937.05
251.156	12924.76
251.227	12918.49
251.297	12910.05
251.368	12899.5
251.439	12892.56
251.51	12892.75
251.58	12866.43
251.651	12838.9
251.722	12820.83
251.792	12775.66
251.863	12758.16
251.934	12751.22
252.005	12760.62
252.075	12735.55
252.146	12725.62
252.217	12715.84
252.287	12705.71
252.358	12672.79
252.429	12668.79
252.499	12643.82
252.57	12628.73
252.641	12615.76
252.711	12591.66
252.782	12549.05
252.852	12553.29
252.923	12530.83
252.994	12507.93
253.064	12502.53
253.135	12478.38
253.205	12458.52
253.276	12469.36
253.347	12464.93
253.417	12437.84
253.488	12406.07
253.558	12381.87
253.629	12368.09
253.699	12347.5
253.77	12334.88
253.841	12309.81
253.911	12292.99
253.982	12286.58
254.052	12267.44
254.123	12246.42
254.193	12213.79
254.264	12238.32
254.334	12204.29
254.405	12175.56
254.475	12145.82
254.546	12118.83
254.616	12109.91
254.687	12092.13
254.757	12076.85
254.827	12055.3
254.898	12041.9
254.968	12027.34
255.039	12002.62
255.109	11990.57
255.18	11964.25
255.25	11921.49
255.321	11919.61
255.391	11886.31
255.461	11891.22
255.532	11844.95
255.602	11823.6
255.673	11794.05
255.743	11763.4
255.813	11725.61
255.884	11716.89
255.954	11703.44
256.024	11705.27
256.095	11691.82
256.165	11659.53
256.235	11638.27
256.306	11610.9
256.376	11607.96
256.446	11593.16
256.517	11579.76
256.587	11572.77
256.657	11552.58
256.728	11543.32
256.798	11524.67
256.868	11503.51
256.938	11474.26
257.009	11466.55
257.079	11461.58
257.149	11476.81
257.219	11438.93
257.29	11421.82
257.36	11379.36
257.43	11376.28
257.5	11336.76
257.571	11312.18
257.641	11301.72
257.711	11275.46
257.781	11268.03
257.852	11249.38
257.922	11212.9
257.992	11191.89
258.062	11171.69
258.132	11168.42
258.202	11150.3
258.273	11132.61
258.343	11137.19
258.413	11109.62
258.483	11094.01
258.553	11061.48
258.623	11031.45
258.693	11019.41
258.764	11030.97
258.834	11038.54
258.904	11019.74
258.974	10995.26
259.044	10977.72
259.114	10962.98
259.184	10951.8
259.254	10934.02
259.324	10895.18
259.394	10885.68
259.464	10886.7
259.535	10866.5
259.605	10845.59
259.675	10812.15
259.745	10794.76
259.815	10766.37
259.885	10747.1
259.955	10757.6
260.025	10736.79
260.095	10721.66
260.165	10711.3
260.235	10704.17
260.305	10678.87
260.375	10641.09
260.445	10648.8
260.515	10648.46
260.585	10652.37
260.655	10632.47
260.725	10624.95
260.795	10625.05
260.865	10632.56
260.934	10607.46
261.004	10597.24
261.074	10578.69
261.144	10586.4
261.214	10582.79
261.284	10560.05
261.354	10557.49
261.424	10528.77
261.494	10531.13
261.564	10519.33
261.634	10510.61
261.703	10477.6
261.773	10465.27
261.843	10464.02
261.913	10448.94
261.983	10417.62
262.053	10402.01
262.123	10389.24
262.192	10361.97
262.262	10356.29
262.332	10323.04
262.402	10324.97
262.472	10311.48
262.541	10281.33
262.611	10281.37
262.681	10265.19
262.751	10261.38
262.821	10242.74
262.89	10215.76
262.96	10206.51
263.03	10206.27
263.1	10197.11
263.169	10180.06
263.239	10172.93
263.309	10178.42
263.379	10172.64
263.448	10161.9
263.518	10156.65
263.588	10141.04
263.657	10146.53
263.727	10134.97
263.797	10123.99
263.867	10097.73
263.936	10068.97
264.006	10071.48
264.076	10049.61
264.145	10035.49
264.215	10013.38
264.285	10013.77
264.354	9985.83
264.424	9970.18
264.494	9944.21
264.563	9921.62
264.633	9936.94
264.702	9927.45
264.772	9892.62
264.842	9872.15
264.911	9866.9
264.981	9838.38
265.05	9828.12
265.12	9807.41
265.19	9800.42
265.259	9792.67
265.329	9793.2
265.398	9783.38
265.468	9798.45
265.537	9788.19
265.607	9774.66
265.676	9777.93
265.746	9766.08
265.815	9764.98
265.885	9748.12
265.955	9725.34
266.024	9711.9
266.094	9666
266.163	9672.89
266.232	9679.78
266.302	9664.71
266.371	9654.06
266.441	9647.51
266.51	9645.49
266.58	9636.29
266.649	9612.16
266.719	9612.31
266.788	9600.6
266.858	9613.85
266.927	9571.9
266.996	9557.26
267.066	9552.25
267.135	9527.93
267.205	9520.18
267.274	9512.76
267.343	9514.11
267.413	9502.6
267.482	9502.89
267.552	9512.47
267.621	9479.43
267.69	9449.91
267.76	9445.53
267.829	9436
267.898	9421.26
267.968	9399.16
268.037	9391.41
268.106	9389.67
268.176	9364.06
268.245	9345.95
268.314	9320.62
268.384	9323.02
268.453	9310.02
268.522	9299.77
268.592	9299.57
268.661	9280.36
268.73	9272.03
268.799	9248.82
268.869	9257.92
268.938	9229.76
269.007	9203.76
269.076	9196.34
269.146	9194.75
269.215	9182.62
269.284	9189.46
269.353	9178.14
269.422	9166.93
269.492	9150.03
269.561	9114.98
269.63	9117.29
269.699	9106.79
269.768	9095.58
269.838	9088.5
269.907	9086.81
269.976	9059.52
270.045	9031.79
270.114	9036.7
270.183	9022.69
270.253	9020.09
270.322	8991.5
270.391	8985.91
270.46	8995.35
270.529	8995.97
270.598	8995.2
270.667	8988.61
270.736	8966.22
270.806	8963.91
270.875	8971.37
270.944	8956.21
271.013	8973.25
271.082	8966.6
271.151	8960.3
271.22	8933.87
271.289	8918.13
271.358	8909.47
271.427	8911.3
271.496	8905.38
271.565	8883.91
271.634	8881.45
271.703	8909.23
271.772	8916.02
271.841	8905.19
271.91	8882.95
271.979	8873.37
272.048	8851.71
272.117	8851.37
272.186	8839.96
272.255	8831.2
272.324	8822.78
272.393	8822.59
272.462	8812.09
272.531	8799.67
272.6	8787.97
272.669	8801.64
272.738	8794.57
272.807	8788.79
272.876	8769.64
272.945	8796.16
273.013	8799.43
273.082	8796.11
273.151	8754.13
273.22	8750.62
273.289	8740.9
273.358	8750.67
273.427	8737.43
273.496	8742
273.564	8735.12
273.633	8735.02
273.702	8713.99
273.771	8708.12
273.84	8708.17
273.909	8702.15
273.977	8704.8
274.046	8698.11
274.115	8695.75
274.184	8684.63
274.253	8676.69
274.322	8687.28
274.39	8653.49
274.459	8639.1
274.528	8619.75
274.597	8608.3
274.665	8601.23
274.734	8611.62
274.803	8599.78
274.872	8591.5
274.94	8570.76
275.009	8633.22
275.078	8615.46
275.147	8622.63
275.215	8609.78
275.284	8609.54
275.353	8597.03
275.421	8567.38
275.49	8586.59
275.559	8581.29
275.627	8569.6
275.696	8564.21
275.765	8564.21
275.833	8559.59
275.902	8562.14
275.971	8573.98
276.039	8591.5
276.108	8598.04
276.177	8593.71
276.245	8583.22
276.314	8582.64
276.383	8591.98
276.451	8527.98
276.52	8533.47
276.588	8542.81
276.657	8556.33
276.725	8549.59
276.794	8558.06
276.863	8566.96
276.931	8538.04
277	8540.25
277.068	8548.62
277.137	8570.86
277.205	8571.39
277.274	8592.61
277.342	8602.53
277.411	8583.81
277.48	8570.86
277.548	8558.78
277.617	8554.45
277.685	8554.88
277.754	8559.5
277.822	8551.37
277.89	8563.79
277.959	8558.45
278.027	8537.85
278.096	8528.28
278.164	8553.45
278.233	8549.55
278.301	8543.78
278.37	8551.52
278.438	8541.13
278.507	8549.5
278.575	8515.67
278.643	8505.76
278.712	8483.91
278.78	8470.67
278.849	8475.39
278.917	8487.95
278.985	8479.29
279.054	8488.62
279.122	8500.65
279.191	8498.92
279.259	8495.27
279.327	8467.5
279.396	8479.91
279.464	8480.54
279.532	8490.26
279.601	8488.48
279.669	8482.17
279.737	8494.64
279.806	8504.21
279.874	8516.92
279.942	8512.39
280.011	8509.07
280.079	8518.84
280.147	8538.91
280.215	8537.23
280.284	8534.05
280.352	8512.39
280.42	8519.9
280.488	8514.56
280.557	8511.14
280.625	8515.57
280.693	8518.26
280.761	8525.39
280.83	8516.43
280.898	8528.56
280.966	8500.7
281.034	8470.52
281.102	8457.92
281.171	8452.1
281.239	8452.72
281.307	8450.03
281.375	8435.78
281.443	8465.76
281.512	8465.09
281.58	8470.96
281.648	8461.24
281.716	8464.8
281.784	8464.51
281.852	8462.88
281.92	8459.08
281.989	8462.2
282.057	8441.66
282.125	8480.74
282.193	8472.9
282.261	8467.8
282.329	8462.94
282.397	8472.22
282.465	8476.17
282.533	8491.76
282.601	8484.73
282.67	8465.63
282.738	8448.06
282.806	8464.76
282.874	8449.84
282.942	8444.79
283.01	8440.41
283.078	8449.21
283.146	8444.59
283.214	8459.08
283.282	8454.55
283.35	8463.12
283.418	8460.23
283.486	8467.21
283.554	8430.58
283.622	8434.43
283.69	8439.29
283.758	8431.83
283.826	8437.17
283.894	8448.96
283.962	8465.37
284.03	8479.43
284.098	8483.32
284.165	8477.36
284.233	8475.43
284.301	8472.45
284.369	8466.92
284.437	8454.98
284.505	8447.38
284.573	8464.8
284.641	8452.67
284.709	8469.75
284.777	8455.51
284.845	8462.44
284.912	8474.71
284.98	8475.91
285.048	8467.88
285.116	8469.56
285.184	8490.4
285.252	8489.77
285.319	8473.7
285.387	8463.26
285.455	8446.94
285.523	8453.3
285.591	8454.5
285.659	8456.47
285.726	8468.21
285.794	8459.6
285.862	8460.56
285.93	8459.84
285.997	8454.55
286.065	8449.02
286.133	8440.06
286.201	8438.77
286.269	8425.15
286.336	8411.58
286.404	8406.67
286.472	8424.57
286.539	8399.7
286.607	8381.55
286.675	8386.22
286.743	8392.43
286.81	8390.26
286.878	8402.29
286.946	8400.18
287.013	8402.29
287.081	8408.74
287.149	8396.32
287.216	8412.01
287.284	8406
287.352	8407.44
287.419	8409.75
287.487	8423.41
287.555	8423.17
287.622	8416.63
287.69	8420.82
287.758	8437.47
287.825	8434.24
287.893	8418.17
287.96	8434.14
288.028	8442.08
288.096	8435.01
288.163	8436.45
288.231	8424.08
288.298	8425.38
288.366	8431.25
288.433	8428.51
288.501	8414.75
288.569	8414.32
288.636	8411.57
288.704	8423.22
288.771	8434.33
288.839	8422.31
288.906	8421.92
288.974	8432.7
289.041	8433.42
289.109	8419.52
289.176	8420.34
289.244	8428.56
289.311	8446.37
289.379	8452.77
289.446	8456.43
289.514	8467.3
289.581	8470.72
289.649	8476.54
289.716	8475.87
289.783	8469.42
289.851	8486.98
289.918	8488.28
289.986	8497.47
290.053	8497.18
290.121	8497.47
290.188	8501.66
290.255	8529.95
290.323	8526.87
290.39	8517.01
290.458	8530.86
290.525	8555.02
290.592	8550.5
290.66	8556.8
290.727	8547.46
290.794	8566.09
290.862	8564.07
290.929	8560.41
290.996	8558.68
291.064	8564.45
291.131	8579.13
291.198	8589.43
291.266	8591.55
291.333	8594.2
291.4	8602.81
291.468	8624.23
291.535	8617.25
291.602	8616.14
291.669	8608.92
291.737	8612.15
291.804	8618.5
291.871	8631.69
291.938	8634.67
292.006	8664.52
292.073	8669.47
292.14	8682.08
292.207	8671.64
292.275	8674.77
292.342	8689.4
292.409	8719.58
292.476	8745.09
292.543	8736.28
292.611	8739.7
292.678	8760.01
292.745	8783.4
292.812	8790.77
292.879	8790.28
292.946	8801.26
293.014	8819.64
293.081	8831.49
293.148	8841.3
293.215	8859.31
293.282	8854.01
293.349	8857.67
293.416	8838.56
293.484	8854.49
293.551	8869.85
293.618	8887.13
293.685	8914.66
293.752	8898.59
293.819	8891.7
293.886	8878.42
293.953	8886.98
294.02	8899.16
294.087	8906.38
294.154	8901.71
294.221	8918.42
294.288	8913.61
294.356	8929.73
294.423	8929.68
294.49	8918.61
294.557	8938.78
294.624	8926.7
294.691	8951.49
294.758	8956.79
294.825	8967.86
294.892	8955.92
294.959	8948.65
295.026	8960.06
295.093	8949.47
295.16	8960.68
295.226	8962.9
295.293	8992.07
295.36	9003.1
295.427	9015.33
295.494	9023.61
295.561	9033.72
295.628	9055.92
295.695	9075.99
295.762	9083.21
295.829	9098.57
295.896	9116.87
295.963	9123.03
296.03	9135.74
296.096	9135.4
296.163	9148.3
296.23	9162.02
296.297	9177.77
296.364	9179.02
296.431	9178.63
296.498	9178.29
296.564	9203.09
296.631	9203.81
296.698	9184.65
296.765	9199.48
296.832	9184.98
296.899	9171.94
296.965	9190.62
297.032	9172.37
297.099	9189.61
297.166	9192.01
297.233	9192.98
297.299	9187.44
297.366	9188.07
297.433	9187.15
297.5	9197.07
297.566	9196.64
297.633	9190.81
297.7	9196.4
297.767	9191.77
297.833	9205.06
297.9	9207.13
297.967	9193.36
298.033	9210.12
298.1	9241.23
298.167	9236.12
298.234	9247.05
298.3	9257.98
298.367	9256.2
298.434	9262.84
298.5	9247.82
298.567	9240.21
298.634	9232.51
298.7	9253.55
298.767	9250.71
298.834	9266.26
298.9	9267.08
298.967	9258.27
299.033	9271.85
299.1	9288.12
299.167	9306.27
299.233	9297.03
299.3	9316.62
299.366	9332.51
299.433	9340.12
299.5	9309.93
299.566	9314.26
299.633	9334.58
299.699	9346
299.766	9337.67
299.832	9339.69
299.899	9355.97
299.965	9367.23
300.032	9369.06
300.099	9373.88
300.165	9385.24
300.232	9378.02
300.298	9366.56
300.365	9384.86
300.431	9389.38
300.498	9383.12
300.564	9391.64
300.631	9404.41
300.697	9414.47
300.763	9422.18
300.83	9429.59
300.896	9449.86
300.963	9456.61
301.029	9457.09
301.096	9458
301.162	9470.42
301.229	9467.39
301.295	9453.14
301.361	9457.76
301.428	9461.13
301.494	9449.57
301.561	9447.12
301.627	9460.7
301.693	9472.78
301.76	9478.71
301.826	9468.93
301.892	9482.37
301.959	9494.26
302.025	9493.59
302.092	9489.59
302.158	9488.39
302.224	9482.03
302.291	9477.16
302.357	9475.05
302.423	9468.59
302.49	9465.85
302.556	9483.14
302.622	9479.53
302.688	9495.8
302.755	9516.17
302.821	9521.52
302.887	9529.03
302.954	9535.44
303.02	9538.13
303.086	9545.74
303.152	9543.48
303.219	9542.23
303.285	9543.53
303.351	9546.56
303.417	9553.4
303.483	9540.93
303.55	9536.79
303.616	9540.25
303.682	9538.14
303.748	9532.26
303.815	9547.43
303.881	9552.73
303.947	9533.46
304.013	9536.74
304.079	9522.44
304.145	9501.2
304.212	9497.97
304.278	9489.4
304.344	9479.87
304.41	9466.96
304.476	9451.89
304.542	9443.41
304.608	9450.39
304.674	9430.46
304.741	9424.44
304.807	9423.96
304.873	9437.73
304.939	9452.03
305.005	9432.91
305.071	9429.25
305.137	9433.3
305.203	9405.32
305.269	9402.09
305.335	9416.35
305.401	9416.88
305.467	9423.23
305.533	9431.42
305.599	9442.21
305.666	9456.08
305.732	9462.29
305.798	9477.79
305.864	9509.72
305.93	9516.08
305.996	9514.54
306.062	9522.48
306.128	9519.45
306.194	9504.04
306.259	9499.32
306.325	9490.31
306.391	9502.64
306.457	9514.2
306.523	9518.1
306.589	9548.25
306.655	9543.33
306.721	9525.32
306.787	9512.37
306.853	9522.34
306.919	9506.11
306.985	9497.54
307.051	9485.69
307.117	9476.4
307.183	9469.66
307.248	9434.36
307.314	9438.93
307.38	9446.64
307.446	9454.54
307.512	9442.74
307.578	9444.42
307.644	9440.52
307.709	9441.24
307.775	9442.79
307.841	9436.77
307.907	9434.12
307.973	9409.46
308.039	9412.83
308.104	9416.88
308.17	9420.25
308.236	9407.63
308.302	9411.67
308.368	9396.65
308.433	9401.03
308.499	9396.07
308.565	9385.58
308.631	9393.67
308.696	9374.31
308.762	9357.89
308.828	9348.11
308.894	9335.3
308.959	9318.55
309.025	9310.31
309.091	9304.63
309.156	9289.75
309.222	9295.24
309.288	9283.64
309.354	9263.42
309.419	9250.85
309.485	9241.31
309.551	9248.3
309.616	9226.39
309.682	9221.57
309.748	9217.15
309.813	9208.33
309.879	9198.8
309.945	9189.56
310.01	9186.86
310.076	9191.92
310.141	9183.63
310.207	9170.2
310.273	9173.52
310.338	9177.23
310.404	9157.11
310.469	9149.45
310.535	9142.76
310.601	9111.27
310.666	9114.93
310.732	9123.4
310.797	9114.26
310.863	9103.95
310.928	9090.76
310.994	9098.37
311.059	9099.76
311.125	9100.77
311.191	9111.61
311.256	9102.46
311.322	9102.7
311.387	9078.63
311.453	9446.46
311.518	9427.59
311.584	9427.83
311.649	9433.65
311.715	9421.81
311.78	9427.44
311.846	9414.83
311.911	9420.51
311.976	9429.17
312.042	9408.91
312.107	9394.42
312.173	9395.62
312.238	9391.48
312.304	9385.89
312.369	9380.12
312.434	9362.5
312.5	9356.38
312.565	9322.44
312.631	9326.24
312.696	9317.29
312.761	9316.04
312.827	8930.59
312.892	8966.94
312.958	8960.35
313.023	8951.82
313.088	8955.29
313.154	8941.52
313.219	8935.17
313.284	8923.23
313.35	8915.38
313.415	8906.82
313.48	8901.91
313.546	8898.06
313.611	8904.75
313.676	8900.61
313.741	8887.03
313.807	8900.03
313.872	8903.83
313.937	8908.94
314.003	8920.78
314.068	8921.31
314.133	8932.04
314.198	8922.46
314.264	8902.82
314.329	8890.01
314.394	8890.64
314.459	8880.97
314.525	8904.94
314.59	8894.59
314.655	8884.48
314.72	8895.99
314.785	8904.99
314.851	8907.73
314.916	8890.93
314.981	8875.67
315.046	8864.79
315.111	8857.82
315.176	8842.8
315.242	8850.88
315.307	8854.01
315.372	8830.18
315.437	8822.44
315.502	8809.92
315.567	8826.05
315.632	8806.41
315.698	8821.57
315.763	8807.13
315.828	8801.98
315.893	8793.12
315.958	8795.82
316.023	8785.23
316.088	8759.04
316.153	8735.56
316.218	8725.26
316.283	8707.98
316.348	8688.06
316.413	8690.66
316.479	8676.8
316.544	8644.37
316.609	8606.2
316.674	8572.95
316.739	8542.78
316.804	8513.43
316.869	8481.91
316.934	8441.92
316.999	8419.45
317.064	8366.37
317.129	8331.58
317.194	8295.5
317.259	8246.9
317.324	8194.22
317.389	8153.43
317.454	8119.71
317.518	8090.75
317.583	8065.01
317.648	8048.7
317.713	8018.02
317.778	7952.64
317.843	7918.88
317.908	7877.96
317.973	7838.91
318.038	7811.73
318.103	7778.75
318.168	7746.39
318.233	7717.63
318.297	7672.04
318.362	7633.62
318.427	7593.58
318.492	7571.31
318.557	7525.98
318.622	7499.73
318.687	7477.14
318.751	7434.22
318.816	7404.18
318.881	7368.51
318.946	7317.41
319.011	7266.7
319.075	7223.98
319.14	7193.9
319.205	7157.23
319.27	7129.37
319.335	7086.22
319.399	7039.8
319.464	7012.9
319.529	6964.18
319.594	6924.97
319.658	6891.69
319.723	6849.17
319.788	6816.7
319.853	6758.28
319.917	6732.11
319.982	6678.84
320.047	6641.72
320.112	6623.14
320.176	6572.28
320.241	6536.7
320.306	6507.41
320.37	6467.8
320.435	6443.7
320.5	6418.59
320.564	6380.23
320.629	6339.29
320.694	6313.66
320.758	6278.28
320.823	6234.75
320.888	6203.75
320.952	6158.31
321.017	6120.11
321.082	6078.47
321.146	6049.68
321.211	6016.38
321.275	5975.46
321.34	5933.5
321.405	5890.91
321.469	5839.15
321.534	5798.3
321.598	5749.1
321.663	5717.91
321.727	5690.29
321.792	5634.57
321.857	5588.15
321.921	5547.11
321.986	5505.18
322.05	5446.7
322.115	5410.56
322.179	5365.18
322.244	5313.24
322.308	5280.51
322.373	5234.32
322.437	5195.47
322.502	5164.26
322.566	5118.27
322.631	5081.39
322.695	5041.4
322.76	5001.17
322.824	4969.95
322.889	4929.25
322.953	4880.86
323.018	4813.06
323.082	4749.49
323.146	4704.36
323.211	4651.37
323.275	4606.82
323.34	4560.79
323.404	4528.35
323.468	4480.5
323.533	4438.3
323.597	4394.27
323.662	4338.25
323.726	4303.48
323.79	4258.76
323.855	4193.27
323.919	4147.32
323.983	4105.57
324.048	4044.12
324.112	4205.17
324.177	4076.21
324.241	3865.67
324.305	3665.36
324.37	3464.57
324.434	3269.04
324.498	3225.52
324.562	3176.8
324.627	3120.03
324.691	3068.52
324.755	3001.53
324.82	2925.68
324.884	2850.18
324.948	2780.59
325.012	2693.04
325.077	2571.51
