Data from 20250704_urea_0.1M_MAYP1162681_11-18-57-694.txt Node
Date: Fri Jul 04 11:18:57 BST 2025
User: adleo
Spectrometer: MAYP116268
Trigger mode: 0
Integration Time (sec): 1.000000E0
Scans to average: 1
Electric dark correction enabled: true
Nonlinearity correction enabled: true
Boxcar width: 10
XAxis mode: Wavelengths
Number of Pixels in Spectrum: 2068
>>>>>Begin Spectral Data<<<<<
179.565	1243.7
179.642	1298.21
179.718	1348.1
179.795	1388.15
179.871	1423.66
179.948	1441.82
180.024	1464.24
180.101	1488.88
180.177	1505.21
180.254	1528.38
180.33	1550.54
180.407	1606.57
180.483	1706.53
180.56	1798.46
180.636	1885.11
180.712	1871.65
180.789	1882.73
180.865	1891.94
180.942	1902.35
181.018	1910.44
181.095	1922.47
181.171	1930.17
181.248	1935.07
181.324	1947.58
181.4	1954.33
181.477	1964.36
181.553	1977.39
181.63	1999.41
181.706	2014.44
181.782	2023.9
181.859	2022.66
181.935	2029.79
182.011	2023.71
182.088	2039.45
182.164	2059.86
182.24	2072.36
182.317	2083.54
182.393	2082.16
182.469	2097.24
182.546	2106.61
182.622	2110.41
182.698	2103.94
182.775	2112.88
182.851	2124.39
182.927	2114.83
183.003	2111.98
183.08	2106.7
183.156	2114.6
183.232	2109.7
183.308	2095.9
183.385	2103.99
183.461	2123.87
183.537	2124.02
183.613	2141.95
183.69	2131.48
183.766	2120.4
183.842	2128.63
183.918	2133.33
183.995	2145.42
184.071	2150.65
184.147	2148.8
184.223	2139.05
184.299	2155.94
184.375	2148.66
184.452	2156.18
184.528	2210.38
184.604	2218.94
184.68	2231.36
184.756	2238.12
184.832	2241.11
184.908	2247.67
184.985	2246.06
185.061	2228.84
185.137	2236.4
185.213	2222.84
185.289	2224.17
185.365	2220.61
185.441	2219.56
185.517	2232.65
185.593	2231.22
185.669	2228.7
185.745	2238.45
185.822	2255.34
185.898	2246.01
185.974	2254.38
186.05	2247.34
186.126	2210.69
186.202	2203.27
186.278	2199.13
186.354	2193
186.43	2200.13
186.506	2200.47
186.582	2199.37
186.658	2206.51
186.734	2187.24
186.81	2190.43
186.886	2195.42
186.962	2202.66
187.038	2200.18
187.114	2193.95
187.19	2200.61
187.266	2190.09
187.341	2189.81
187.417	2184.96
187.493	2184.81
187.569	2188.53
187.645	2181.82
187.721	2172.82
187.797	2183.19
187.873	2188.81
187.949	2182.39
188.025	2179.44
188.101	2183.76
188.176	2188.9
188.252	2184.86
188.328	2193.75
188.404	2194.61
188.48	2187.9
188.556	2185.28
188.632	2185.19
188.707	2184.09
188.783	2180.05
188.859	2174.25
188.935	2166.21
189.011	2175.15
189.086	2168.06
189.162	2158.5
189.238	2154.46
189.314	2149.99
189.39	2144.61
189.465	2135.14
189.541	2152.84
189.617	2134.29
189.693	2125.78
189.768	2126.82
189.844	2151.81
189.92	2141.21
189.996	2152.05
190.071	2162.76
190.147	2159.81
190.223	2169.71
190.298	2162.28
190.374	2149.73
190.45	2162.85
190.526	2168.94
190.601	2160.76
190.677	2161.57
190.753	2190.65
190.828	2195.31
190.904	2209.87
190.98	2222.82
191.055	2233.24
191.131	2222.2
191.207	2247.75
191.282	2257.64
191.358	2248.74
191.433	2233.75
191.509	2249.87
191.585	2243.54
191.66	2244.11
191.736	2255.91
191.811	2247.25
191.887	2265.67
191.963	2289.46
192.038	2295.13
192.114	2295.79
192.189	2301.31
192.265	2301.36
192.34	2278.17
192.416	2277.94
192.491	2274.18
192.567	2277.6
192.642	2280.27
192.718	2282.46
192.793	2267.51
192.869	2263.66
192.944	2267.75
193.02	2277.37
193.095	2282.84
193.171	2290.79
193.246	2292.59
193.322	2287.07
193.397	2284.55
193.473	2267.27
193.548	2247.9
193.624	2250.71
193.699	2251.95
193.775	2266.61
193.85	2267.13
193.925	2276.08
194.001	2274.65
194.076	2266.37
194.152	2255.67
194.227	2250
194.302	2239.63
194.378	2242.06
194.453	2239.77
194.529	2252.86
194.604	2235.4
194.679	2227.74
194.755	2205.09
194.83	2218.42
194.905	2215.38
194.981	2224.75
195.056	2220.09
195.131	2228.18
195.207	2228.84
195.282	2218.8
195.357	2199.81
195.433	2214.71
195.508	2203
195.583	2211.66
195.659	2230.79
195.734	2242.41
195.809	2241.55
195.884	2250.68
195.96	2248.97
196.035	2264.96
196.11	2259.91
196.185	2270.38
196.261	2273.9
196.336	2310.02
196.411	2294.36
196.486	2297.83
196.561	2293.02
196.637	2300.97
196.712	2318.68
196.787	2319.73
196.862	2333.48
196.937	2343.28
197.013	2347.81
197.088	2359.08
197.163	2381.04
197.238	2395.38
197.313	2391.85
197.388	2406.8
197.464	2436.8
197.539	2450.27
197.614	2441.04
197.689	2452.46
197.764	2471.75
197.839	2493.13
197.914	2486.41
197.989	2509.55
198.065	2524.36
198.14	2575.49
198.215	2601.87
198.29	2612.11
198.365	2624.97
198.44	2637.4
198.515	2664.36
198.59	2678.42
198.665	2707.14
198.74	2716.15
198.815	2715.48
198.89	2738.3
198.965	2768.33
199.04	2765.28
199.115	2780.81
199.19	2827.4
199.265	2834.26
199.34	2844.98
199.415	2875.31
199.49	2893.65
199.565	2906.38
199.64	2933.83
199.715	2928.87
199.79	2938.07
199.865	2946.27
199.94	2948.94
200.015	2979.4
200.09	2983.41
200.165	2992.27
200.24	2998.66
200.315	3038.6
200.39	3059.44
200.464	3064.83
200.539	3065.88
200.614	3083.47
200.689	3111.32
200.764	3116.57
200.839	3134.2
200.914	3139.11
200.989	3129.52
201.063	3148.12
201.138	3129.16
201.213	3128.92
201.288	3111.32
201.363	3117.52
201.438	3118.29
201.512	3135.64
201.587	3119.23
201.662	3127.67
201.737	3140.17
201.812	3144.98
201.886	3111.96
201.961	3119.26
202.036	3111.2
202.111	3108.72
202.186	3079.46
202.26	3061.95
202.335	3044.16
202.41	3038.16
202.485	3022.71
202.559	3004.93
202.634	2981.18
202.709	2994.67
202.784	2980.17
202.858	2985.47
202.933	2970.35
203.008	2970.11
203.082	2953.86
203.157	2959.1
203.232	2924.79
203.306	2914.68
203.381	2894.22
203.456	2886.02
203.53	2873.09
203.605	2864.18
203.68	2855.69
203.754	2868.7
203.829	2871.13
203.904	2871.94
203.978	2886.63
204.053	2915.05
204.127	2932.59
204.202	2955.67
204.277	2967.59
204.351	2991.67
204.426	3019.01
204.5	3047.44
204.575	3049.44
204.65	3102.07
204.724	3135.48
204.799	3188.69
204.873	3230.22
204.948	3283.66
205.022	3321.17
205.097	3372.99
205.171	3451.27
205.246	3521.81
205.32	3587.54
205.395	3661.06
205.469	3720.74
205.544	3802.44
205.618	3863.08
205.693	3955.14
205.767	4032.82
205.842	4144.3
205.916	4237.22
205.991	4329.36
206.065	4440.18
206.14	4561.61
206.214	4666.86
206.289	4779.97
206.363	4913.23
206.438	5038.41
206.512	5165.94
206.586	5315.32
206.661	5446.97
206.735	5556
206.81	5696.11
206.884	5843.31
206.958	5971.39
207.033	6139.02
207.107	6292.08
207.181	6480.76
207.256	6632.15
207.33	6800.54
207.405	6973.98
207.479	7150.45
207.553	7316.94
207.628	7462.7
207.702	7645.45
207.776	7813.37
207.851	7987.26
207.925	8168.76
207.999	8343.2
208.073	8518.19
208.148	8704.77
208.222	8882.37
208.296	9093.63
208.371	9288.24
208.445	9489.25
208.519	9707.08
208.593	9906.99
208.668	10094.02
208.742	10281.43
208.816	10478.16
208.89	10690.38
208.965	10877.97
209.039	11076.25
209.113	11290.83
209.187	11504.57
209.261	11691.7
209.336	11903.99
209.41	12116.49
209.484	12315.6
209.558	12532.59
209.632	12740.72
209.707	12937.19
209.781	13155.35
209.855	13369.57
209.929	13581.67
210.003	13779.4
210.077	13965.9
210.151	14200.75
210.226	14418.91
210.3	14636.5
210.374	14838.47
210.448	15022.7
210.522	15209.58
210.596	15401.38
210.67	15587
210.744	15810.41
210.818	16023.07
210.892	16222.8
210.966	16391.98
211.041	16579.85
211.115	16742.9
211.189	16931.54
211.263	17109.82
211.337	17276.09
211.411	17451.42
211.485	17613.64
211.559	17785.74
211.633	17953.45
211.707	18085.78
211.781	18251.61
211.855	18372.33
211.929	18523.41
212.003	18657.19
212.077	18831.25
212.151	18996.74
212.225	19153.02
212.299	19287.81
212.373	19418.51
212.447	19550.12
212.52	19720.28
212.594	19863.36
212.668	20018.54
212.742	20153.53
212.816	20298.3
212.89	20424.08
212.964	20562.93
213.038	20698.36
213.112	20840.83
213.186	20977.32
213.26	21073.42
213.333	21156.41
213.407	21279.46
213.481	21401.35
213.555	21537.89
213.629	21634.01
213.703	21738.17
213.777	21855.84
213.85	21953.01
213.924	22109.21
213.998	22223.51
214.072	22321.28
214.146	22426.33
214.219	22526.99
214.293	22620.08
214.367	22713.52
214.441	22831.69
214.515	22912.4
214.588	22980.87
214.662	23046.49
214.736	23127.26
214.81	23235.01
214.883	23332.99
214.957	23422.1
215.031	23502.24
215.105	23564.87
215.178	23639.23
215.252	23716.06
215.326	23776.49
215.4	23835.61
215.473	23853.02
215.547	23912.93
215.621	23973.9
215.694	24042.97
215.768	24091.78
215.842	24143.83
215.915	24199.68
215.989	24243.39
216.063	24303.78
216.136	24365.38
216.21	24423.36
216.284	24491.97
216.357	24553.86
216.431	24607.12
216.504	24666.32
216.578	24748.24
216.652	24812.06
216.725	24879.04
216.799	24938.19
216.873	24982.97
216.946	25045.5
217.02	25089.25
217.093	25132.44
217.167	25170.66
217.24	25203.86
217.314	25247.43
217.387	25291.19
217.461	25337.04
217.535	25397.95
217.608	25420.63
217.682	25466.23
217.755	25527.28
217.829	25557.69
217.902	25594.66
217.976	25634.77
218.049	25659.86
218.123	25673.28
218.196	25718.41
218.27	25740.27
218.343	25756.35
218.417	25805.44
218.49	25846.81
218.563	25899.71
218.637	25935.81
218.71	25982.78
218.784	26018.75
218.857	26064.85
218.931	26097.86
219.004	26124.41
219.077	26162.13
219.151	26209.39
219.224	26238.55
219.298	26254.33
219.371	26291.03
219.444	26311.06
219.518	26340.9
219.591	26366.68
219.665	26424.48
219.738	26457.55
219.811	26476.33
219.885	26506.66
219.958	26532.34
220.031	26549.29
220.105	26589.47
220.178	26613.95
220.251	26632.16
220.325	26659.01
220.398	26685.47
220.471	26726.75
220.544	26759.64
220.618	26754.04
220.691	26771.37
220.764	26794.12
220.838	26826.33
220.911	26845.84
220.984	26883.12
221.057	26903.21
221.131	26926.53
221.204	26910.4
221.277	26931.75
221.35	26975.26
221.424	26988.3
221.497	27004.24
221.57	27011.97
221.643	27019.5
221.716	27033.17
221.79	27036.22
221.863	27045.25
221.936	27037.71
222.009	27031.58
222.082	27039.36
222.155	27041.58
222.229	27065
222.302	27067.71
222.375	27061.28
222.448	27064.09
222.521	27057.32
222.594	27055.78
222.667	27045.44
222.74	27052.88
222.814	27040.9
222.887	27024.29
222.96	27036.8
223.033	27036.6
223.106	27038.2
223.179	27029.02
223.252	27024.38
223.325	27022.55
223.398	27010.33
223.471	27004.15
223.544	27002.6
223.617	26994.87
223.69	26990.43
223.763	26966.33
223.837	26961.02
223.91	26961.88
223.983	26933.87
224.056	26908.13
224.129	26907.41
224.202	26916.83
224.275	26890.75
224.348	26874.14
224.42	26851.2
224.493	26803.2
224.566	26778.81
224.639	26762.68
224.712	26743.12
224.785	26723.56
224.858	26698.02
224.931	26678.7
225.004	26661.56
225.077	26646.06
225.15	26604.82
225.223	26582.8
225.296	26577.3
225.369	26525.78
225.442	26488.26
225.514	26464.55
225.587	26442.68
225.66	26411.2
225.733	26381.21
225.806	26369.63
225.879	26339.74
225.952	26304.88
226.025	26309.37
226.097	26296.72
226.17	26268.53
226.243	26223
226.316	26197.12
226.389	26176.46
226.461	26155.94
226.534	26133.25
226.607	26093.33
226.68	26089.71
226.753	26066.54
226.825	26022.26
226.898	26017.53
226.971	25982.05
227.044	25953.67
227.117	25936.05
227.189	25913.8
227.262	25897.39
227.335	25865.33
227.407	25835.89
227.48	25815.14
227.553	25782.22
227.626	25746.93
227.698	25723.33
227.771	25700.55
227.844	25658.94
227.916	25627.57
227.989	25575.06
228.062	25538.28
228.134	25543.3
228.207	25501.17
228.28	25460.24
228.352	25426.27
228.425	25402.72
228.498	25384.04
228.57	25361.84
228.643	25344.57
228.716	25305.38
228.788	25264.26
228.861	25235.11
228.934	25222.28
229.006	25190.72
229.079	25155.78
229.151	25115.68
229.224	25067.05
229.296	25035.1
229.369	25031.68
229.442	25011.65
229.514	24981.93
229.587	24957.18
229.659	24901.59
229.732	24880.94
229.804	24858.75
229.877	24856.43
229.949	24834.53
230.022	24827.87
230.094	24784.88
230.167	24745.08
230.239	24702
230.312	24669.82
230.384	24654.04
230.457	24623.65
230.529	24592.63
230.602	24560.07
230.674	24527.26
230.747	24517.52
230.819	24505.8
230.892	24442.94
230.964	24407.43
231.037	24375.55
231.109	24337.59
231.181	24307.92
231.254	24262.34
231.326	24220.52
231.399	24167.65
231.471	24114.25
231.544	24055.35
231.616	24042.57
231.688	24014.88
231.761	23981.08
231.833	23945.87
231.905	23883.12
231.978	23843.86
232.05	23812.22
232.122	23779.86
232.195	23740.84
232.267	23701.97
232.339	23657.74
232.412	23642.11
232.484	23599.63
232.556	23564.43
232.629	23555.17
232.701	23514.27
232.773	23475.55
232.846	23442.86
232.918	23401.96
232.99	23372.84
233.062	23347.28
233.135	23301.32
233.207	23242.59
233.279	23215.06
233.351	23171.95
233.424	23134.24
233.496	23080.53
233.568	23056.42
233.64	22997.55
233.713	22960.91
233.785	22927.25
233.857	22884.44
233.929	22819.44
234.001	22801.6
234.074	22778.6
234.146	22718.05
234.218	22679.86
234.29	22649.39
234.362	22608.12
234.434	22555.72
234.507	22502.3
234.579	22443.53
234.651	22407.76
234.723	22385.01
234.795	22348.85
234.867	22313.71
234.939	22293.56
235.012	22261.21
235.084	22230.21
235.156	22204.42
235.228	22156.02
235.3	22105.12
235.372	22065.11
235.444	22038.4
235.516	21970.24
235.588	21927.77
235.66	21883.04
235.732	21839.46
235.804	21845.58
235.876	21820.86
235.948	21800.13
236.02	21760.41
236.092	21720.99
236.164	21664.35
236.236	21611.57
236.308	21561.3
236.38	21513.87
236.452	21456.8
236.524	21407.54
236.596	21372.26
236.668	21347.1
236.74	21312.4
236.812	21279.38
236.884	21249.02
236.956	21216.58
237.028	21162.94
237.1	21106.31
237.172	21088.09
237.244	21063.84
237.316	20983.16
237.388	20926
237.46	20875.63
237.532	20841.41
237.604	20787.82
237.675	20760.5
237.747	20728.83
237.819	20673.22
237.891	20635.68
237.963	20581.84
238.035	20541.8
238.107	20458.61
238.178	20424.78
238.25	20374.47
238.322	20355.43
238.394	20287.29
238.466	20235
238.538	20207.72
238.609	20182.47
238.681	20114.52
238.753	20054.86
238.825	20011.87
238.897	19964.74
238.968	19935.29
239.04	19892.88
239.112	19875.78
239.184	19827.68
239.255	19780.26
239.327	19753.56
239.399	19714.34
239.471	19692.41
239.542	19658.58
239.614	19632.03
239.686	19555.55
239.758	19526.73
239.829	19457.82
239.901	19428.04
239.973	19385.25
240.044	19348.67
240.116	19299.03
240.188	19255.08
240.259	19222.99
240.331	19170.56
240.403	19141.93
240.474	19083.34
240.546	19030.57
240.618	18972.11
240.689	18925.51
240.761	18882.87
240.833	18851.35
240.904	18803.16
240.976	18755.89
241.048	18707.84
241.119	18673.48
241.191	18640.13
241.262	18612.47
241.334	18575.22
241.405	18536.67
241.477	18488.05
241.549	18438.99
241.62	18400.87
241.692	18367.19
241.763	18330.8
241.835	18303.19
241.906	18268.78
241.978	18216.49
242.049	18187.82
242.121	18162.76
242.192	18135.39
242.264	18079.97
242.335	18022.91
242.407	17988.79
242.478	17938.82
242.55	17908.46
242.621	17853.37
242.693	17809.76
242.764	17764.56
242.836	17722.29
242.907	17687.16
242.979	17658.87
243.05	17628.03
243.122	17597.67
243.193	17560.66
243.264	17500.61
243.336	17445.77
243.407	17409.72
243.479	17387.6
243.55	17354.88
243.622	17315.65
243.693	17279.41
243.764	17262.2
243.836	17222.05
243.907	17185.33
243.978	17152.08
244.05	17117.47
244.121	17067.69
244.192	17040.17
244.264	16987.59
244.335	16948.79
244.407	16891.49
244.478	16855.25
244.549	16808.59
244.62	16748.83
244.692	16707.53
244.763	16676.1
244.834	16630.22
244.906	16574.89
244.977	16543.27
245.048	16521.64
245.119	16477.44
245.191	16420.76
245.262	16360.22
245.333	16329.91
245.405	16291.83
245.476	16262.09
245.547	16219.39
245.618	16197.9
245.689	16162.18
245.761	16123.48
245.832	16085.21
245.903	16065.16
245.974	16030.17
246.045	15996.81
246.117	15985
246.188	15934.49
246.259	15891.64
246.33	15856.79
246.401	15819.92
246.473	15770.71
246.544	15720.15
246.615	15692.62
246.686	15660.38
246.757	15643.51
246.828	15604.75
246.899	15582.15
246.97	15522.96
247.042	15479.82
247.113	15457.35
247.184	15442.99
247.255	15408
247.326	15376.28
247.397	15345.29
247.468	15310.68
247.539	15283.3
247.61	15233.55
247.681	15211.04
247.752	15190.56
247.823	15157.59
247.894	15127.7
247.965	15078.92
248.037	15040.55
248.108	14985.21
248.179	14949.16
248.25	14909.77
248.321	14880.66
248.392	14837.28
248.463	14832.17
248.534	14800.25
248.605	14764.25
248.675	14719.56
248.746	14697.29
248.817	14673.29
248.888	14637.81
248.959	14589.03
249.03	14559.57
249.101	14528.82
249.172	14500.62
249.243	14451.3
249.314	14439.69
249.385	14414.86
249.456	14399.77
249.527	14367.19
249.598	14352.19
249.669	14326.07
249.739	14304.57
249.81	14289.62
249.881	14241.95
249.952	14215.43
250.023	14195.04
250.094	14157.49
250.165	14124.28
250.235	14093.28
250.306	14060.65
250.377	14028.25
250.448	14013.93
250.519	13964.47
250.59	13946.73
250.66	13912.6
250.731	13899.59
250.802	13865.94
250.873	13839.86
250.944	13809.78
251.014	13778.93
251.085	13770.88
251.156	13742.97
251.227	13724.89
251.297	13701.12
251.368	13688.64
251.439	13669.26
251.51	13653.78
251.58	13615.41
251.651	13590.15
251.722	13571.01
251.792	13532.74
251.863	13505.55
251.934	13494.41
252.005	13487.57
252.075	13464.09
252.146	13452.42
252.217	13438.25
252.287	13421.19
252.358	13395.64
252.429	13393.81
252.499	13364.11
252.57	13346.8
252.641	13331.67
252.711	13308.62
252.782	13264.71
252.852	13263.26
252.923	13239.98
252.994	13213.18
253.064	13207.73
253.135	13166.99
253.205	13141.97
253.276	13137.78
253.347	13118.74
253.417	13083.26
253.488	13059.98
253.558	13029.41
253.629	12999.67
253.699	12981.83
253.77	12968.24
253.841	12939.41
253.911	12917.33
253.982	12902.54
254.052	12879.35
254.123	12861.61
254.193	12833.17
254.264	12849.17
254.334	12807.47
254.405	12769.87
254.475	12732.03
254.546	12699.93
254.616	12695.01
254.687	12669.03
254.757	12647.29
254.827	12624.53
254.898	12600.34
254.968	12583.99
255.039	12553.77
255.109	12542.25
255.18	12507.35
255.25	12459.15
255.321	12452.01
255.391	12413.4
255.461	12410.12
255.532	12356.18
255.602	12335.02
255.673	12298.72
255.743	12267.92
255.813	12221.84
255.884	12209.02
255.954	12197.88
256.024	12198.03
256.095	12175.66
256.165	12150.11
256.235	12136.38
256.306	12116.76
256.376	12107.41
256.446	12096.37
256.517	12085.18
256.587	12070.68
256.657	12047.88
256.728	12028.36
256.798	12003.92
256.868	11986.32
256.938	11951.67
257.009	11950.46
257.079	11932.39
257.149	11934.56
257.219	11897.39
257.29	11895.9
257.36	11865.24
257.43	11857.1
257.5	11817.48
257.571	11792.94
257.641	11778.68
257.711	11744.45
257.781	11730.28
257.852	11717.65
257.922	11672.49
257.992	11649.21
258.062	11635.86
258.132	11634.32
258.202	11616.97
258.273	11594.65
258.343	11593.79
258.413	11573.5
258.483	11549.3
258.553	11519.03
258.623	11495.27
258.693	11478.31
258.764	11467.65
258.834	11459.94
258.904	11440.9
258.974	11415.7
259.044	11403.8
259.114	11393.29
259.184	11379.55
259.254	11363.02
259.324	11321.24
259.394	11311.55
259.464	11323.36
259.535	11295.21
259.605	11267.02
259.675	11239.21
259.745	11228.8
259.815	11191.31
259.885	11163.45
259.955	11177.82
260.025	11156.32
260.095	11134.78
260.165	11120.95
260.235	11117.67
260.305	11088.66
260.375	11061.29
260.445	11067.6
260.515	11064.47
260.585	11054.01
260.655	11034.74
260.725	11023.75
260.795	11017.53
260.865	11018.25
260.934	10981.05
261.004	10972.91
261.074	10962.79
261.144	10961.63
261.214	10954.59
261.284	10941.15
261.354	10937.54
261.424	10900.04
261.494	10906.3
261.564	10888.96
261.634	10882.93
261.703	10847.13
261.773	10843.08
261.843	10833.3
261.913	10813.98
261.983	10771.86
262.053	10764.83
262.123	10749.84
262.192	10722.47
262.262	10717.99
262.332	10689.18
262.402	10676.36
262.472	10664.22
262.541	10621.53
262.611	10618.93
262.681	10592.62
262.751	10584.62
262.821	10562.41
262.89	10540.77
262.96	10524.15
263.03	10530.8
263.1	10520.2
263.169	10510.8
263.239	10498.18
263.309	10500.3
263.379	10485.61
263.448	10470.24
263.518	10451.16
263.588	10435.45
263.657	10429.43
263.727	10423.36
263.797	10407.51
263.867	10393.24
263.936	10354.17
264.006	10357.11
264.076	10340.06
264.145	10322.86
264.215	10292.17
264.285	10291.78
264.354	10257.68
264.424	10232.82
264.494	10205.16
264.563	10187.14
264.633	10189.89
264.702	10179.58
264.772	10142.96
264.842	10129.14
264.911	10124.03
264.981	10099.22
265.05	10077.3
265.12	10060.2
265.19	10042.04
265.259	10042.23
265.329	10036.84
265.398	10029.61
265.468	10037.03
265.537	10012.46
265.607	10004.47
265.676	10009.43
265.746	9997.53
265.815	10000.71
265.885	9988.04
265.955	9956.73
266.024	9926.39
266.094	9887.52
266.163	9889.59
266.232	9897.44
266.302	9882.75
266.371	9876.05
266.441	9863.34
266.51	9868.59
266.58	9853.08
266.649	9836.31
266.719	9828.46
266.788	9820.22
266.858	9821.53
266.927	9784.92
266.996	9780.97
267.066	9776.59
267.135	9747.06
267.205	9741.52
267.274	9725.39
267.343	9726.11
267.413	9719.47
267.482	9730.79
267.552	9741.24
267.621	9710.22
267.69	9675.35
267.76	9664.66
267.829	9656.08
267.898	9640.67
267.968	9615.05
268.037	9609.22
268.106	9597.71
268.176	9573.82
268.245	9558.07
268.314	9544.88
268.384	9545.21
268.453	9531.15
268.522	9517.62
268.592	9527.59
268.661	9508.23
268.73	9509.96
268.799	9486.41
268.869	9489.69
268.938	9461.51
269.007	9437.82
269.076	9429.35
269.146	9429.11
269.215	9422.27
269.284	9426.94
269.353	9415.38
269.422	9401.85
269.492	9385.67
269.561	9350.19
269.63	9348.26
269.699	9327.36
269.768	9319.71
269.838	9316.53
269.907	9314.17
269.976	9293.51
270.045	9260.39
270.114	9257.35
270.183	9236.94
270.253	9227.26
270.322	9203.33
270.391	9190.48
270.46	9198.76
270.529	9192.31
270.598	9188.26
270.667	9175.26
270.736	9151.04
270.806	9142.66
270.875	9141.89
270.944	9126.2
271.013	9147.09
271.082	9134.48
271.151	9134.24
271.22	9104.97
271.289	9088.5
271.358	9074.63
271.427	9068.04
271.496	9057.55
271.565	9039.88
271.634	9037.81
271.703	9071.08
271.772	9076.23
271.841	9066.56
271.91	9040.61
271.979	9039.11
272.048	9015.14
272.117	9012.73
272.186	8997.95
272.255	8996.12
272.324	9002.14
272.393	9003.05
272.462	8990.34
272.531	8990.2
272.6	8982.26
272.669	8986.35
272.738	8976.48
272.807	8968.15
272.876	8950.68
272.945	8974.12
273.013	8972.82
273.082	8970.37
273.151	8921.93
273.22	8913.65
273.289	8907.78
273.358	8917.74
273.427	8900.12
273.496	8907.05
273.564	8902.82
273.633	8904.98
273.702	8884.09
273.771	8870.76
273.84	8865.42
273.909	8864.84
273.977	8854.78
274.046	8842.55
274.115	8846.74
274.184	8830.23
274.253	8830.09
274.322	8833.79
274.39	8814.97
274.459	8805.1
274.528	8779.21
274.597	8780.22
274.665	8782.67
274.734	8784.5
274.803	8775.02
274.872	8767.85
274.94	8750.67
275.009	8806.24
275.078	8789.97
275.147	8790.26
275.215	8782.46
275.284	8792.43
275.353	8779.91
275.421	8759.89
275.49	8772.07
275.559	8762.15
275.627	8758.93
275.696	8748.58
275.765	8748.15
275.833	8730.58
275.902	8732.31
275.971	8747.57
276.039	8752.33
276.108	8750.94
276.177	8749.54
276.245	8739.15
276.314	8735.2
276.383	8739.24
276.451	8672.79
276.52	8677.65
276.588	8692.67
276.657	8695.17
276.725	8681.07
276.794	8675.44
276.863	8684.2
276.931	8659.26
277	8667.74
277.068	8679.09
277.137	8694.11
277.205	8693.39
277.274	8713.07
277.342	8721.64
277.411	8698.69
277.48	8684.97
277.548	8674.28
277.617	8681.74
277.685	8669.81
277.754	8671.69
277.822	8665.29
277.89	8679.2
277.959	8672.36
278.027	8651.23
278.096	8643.44
278.164	8666.45
278.233	8663.32
278.301	8650.52
278.37	8659.66
278.438	8646.47
278.507	8640.02
278.575	8616.63
278.643	8609.7
278.712	8594.98
278.78	8577.55
278.849	8588.86
278.917	8600.36
278.985	8598.58
279.054	8596.66
279.122	8613.31
279.191	8617.54
279.259	8617.06
279.327	8593.86
279.396	8604.84
279.464	8599.59
279.532	8602.53
279.601	8602.72
279.669	8599.64
279.737	8611.14
279.806	8610.32
279.874	8618.55
279.942	8623.17
280.011	8621.2
280.079	8632.56
280.147	8645.84
280.215	8653.93
280.284	8649.07
280.352	8641.46
280.42	8644.49
280.488	8635.97
280.557	8625.92
280.625	8628.9
280.693	8628.42
280.761	8634.96
280.83	8620.67
280.898	8632.75
280.966	8619.66
281.034	8587.6
281.102	8578.99
281.171	8581.06
281.239	8595.55
281.307	8583.76
281.375	8571.39
281.443	8597.62
281.512	8592.71
281.58	8598.63
281.648	8584
281.716	8590.35
281.784	8581.45
281.852	8576.73
281.92	8574.47
281.989	8586.07
282.057	8566.2
282.125	8604.9
282.193	8604.9
282.261	8607.64
282.329	8606.92
282.397	8615.53
282.465	8616.64
282.533	8632.13
282.601	8609.95
282.67	8583.05
282.738	8580.88
282.806	8598.11
282.874	8585.45
282.942	8590.17
283.01	8582.9
283.078	8588.91
283.146	8584.53
283.214	8598.06
283.282	8599.69
283.35	8611.44
283.418	8600.56
283.486	8608.45
283.554	8569.89
283.622	8566.96
283.69	8567.29
283.758	8564.12
283.826	8566.67
283.894	8577.74
283.962	8593.72
284.03	8620.76
284.098	8621.29
284.165	8618.45
284.233	8614.51
284.301	8611.96
284.369	8604.45
284.437	8599.25
284.505	8591.07
284.573	8603.05
284.641	8594.1
284.709	8603.39
284.777	8585.29
284.845	8598.29
284.912	8601.51
284.98	8602.33
285.048	8599.54
285.116	8603.92
285.184	8617.97
285.252	8612.73
285.319	8594.34
285.387	8583.47
285.455	8561.76
285.523	8573.22
285.591	8568.26
285.659	8567.44
285.726	8575.33
285.794	8561.96
285.862	8558.59
285.93	8560.03
285.997	8555.8
286.065	8553.34
286.133	8544.25
286.201	8534.96
286.269	8520.57
286.336	8511.09
286.404	8511.28
286.472	8517.44
286.539	8496.9
286.607	8479.38
286.675	8482.65
286.743	8497.66
286.81	8492.56
286.878	8509.98
286.946	8496.08
287.013	8490.01
287.081	8493.96
287.149	8481.4
287.216	8500.31
287.284	8495.74
287.352	8502.09
287.419	8494.25
287.487	8507.58
287.555	8509.89
287.622	8519.75
287.69	8531.45
287.758	8544.87
287.825	8539.68
287.893	8533.13
287.96	8544.44
288.028	8552.23
288.096	8560.32
288.163	8558.92
288.231	8549.88
288.298	8549.35
288.366	8566.14
288.433	8572.78
288.501	8563.88
288.569	8568.21
288.636	8564.12
288.704	8581.97
288.771	8588.47
288.839	8580.87
288.906	8571.39
288.974	8580.48
289.041	8574.9
289.109	8563.45
289.176	8576.35
289.244	8578.18
289.311	8589.87
289.379	8598.48
289.446	8607.77
289.514	8602.38
289.581	8602.58
289.649	8608.25
289.716	8608.98
289.783	8604.79
289.851	8624.95
289.918	8618.36
289.986	8626.01
290.053	8626.88
290.121	8618.31
290.188	8618.84
290.255	8653.44
290.323	8656.33
290.39	8646.27
290.458	8652.24
290.525	8667.88
290.592	8657.44
290.66	8659.65
290.727	8649.01
290.794	8664.37
290.862	8663.31
290.929	8667.11
290.996	8672.89
291.064	8681.65
291.131	8694.83
291.198	8704.89
291.266	8706.34
291.333	8715.91
291.4	8717.98
291.468	8738.34
291.535	8738.39
291.602	8742.68
291.669	8733.05
291.737	8730.31
291.804	8735.79
291.871	8752.97
291.938	8759.62
292.006	8791.25
292.073	8806.89
292.14	8825.03
292.207	8811.51
292.275	8811.65
292.342	8820.89
292.409	8840.92
292.476	8862.39
292.543	8851.66
292.611	8853
292.678	8865.42
292.745	8889.83
292.812	8902.92
292.879	8897.19
292.946	8902.25
293.014	8914.86
293.081	8924.24
293.148	8944.03
293.215	8958.71
293.282	8956.16
293.349	8963.96
293.416	8943.3
293.484	8957.75
293.551	8968.82
293.618	8993.37
293.685	9017.44
293.752	9011.76
293.819	9011.33
293.886	8997.41
293.953	9005.02
294.02	9020.57
294.087	9024.95
294.154	9020.76
294.221	9031.79
294.288	9032.22
294.356	9054.07
294.423	9055.13
294.49	9052.44
294.557	9063.9
294.624	9057.59
294.691	9075.4
294.758	9076.56
294.825	9087.1
294.892	9077.09
294.959	9073.19
295.026	9080.36
295.093	9077.81
295.16	9080.89
295.226	9084.45
295.293	9118.78
295.36	9125.52
295.427	9138.19
295.494	9154.9
295.561	9160.87
295.628	9186.77
295.695	9203
295.762	9205.84
295.829	9223.56
295.896	9239.88
295.963	9247.15
296.03	9263.18
296.096	9272.14
296.163	9285.77
296.23	9296.84
296.297	9310.8
296.364	9318.17
296.431	9314.99
296.498	9314.61
296.564	9343.06
296.631	9344.94
296.698	9326.16
296.765	9351.73
296.832	9342.87
296.899	9330.49
296.965	9347.1
297.032	9328.32
297.099	9352.01
297.166	9357.02
297.233	9355.43
297.299	9348.64
297.366	9354.76
297.433	9351.2
297.5	9358.85
297.566	9354.66
297.633	9355.72
297.7	9360.87
297.767	9357.79
297.833	9372.62
297.9	9371.04
297.967	9349.27
298.033	9365.84
298.1	9392.23
298.167	9383.51
298.234	9384.62
298.3	9393.91
298.367	9392.8
298.434	9402.53
298.5	9390.4
298.567	9387.6
298.634	9385.82
298.7	9395.5
298.767	9399.5
298.834	9421.07
298.9	9420.44
298.967	9412.64
299.033	9425.5
299.1	9440.14
299.167	9452.37
299.233	9446.74
299.3	9468.36
299.366	9494.7
299.433	9510.06
299.5	9489.35
299.566	9490.51
299.633	9513.58
299.699	9530.24
299.766	9526.92
299.832	9533.32
299.899	9543.97
299.965	9558.89
300.032	9555.91
300.099	9574.93
300.165	9574.55
300.232	9569.73
300.298	9567.23
300.365	9589.81
300.431	9590.39
300.498	9590.49
300.564	9601.85
300.631	9611.82
300.697	9618.42
300.763	9616.97
300.83	9610.33
300.896	9624.44
300.963	9634.69
301.029	9631.18
301.096	9629.64
301.162	9643.36
301.229	9635.32
301.295	9620.53
301.361	9618.9
301.428	9623.33
301.494	9608.44
301.561	9614.27
301.627	9618.65
301.693	9623.57
301.76	9625.01
301.826	9617.16
301.892	9624.05
301.959	9633.39
302.025	9627.37
302.092	9626.12
302.158	9627.23
302.224	9638.02
302.291	9632.62
302.357	9629.16
302.423	9627.04
302.49	9617.4
302.556	9628.92
302.622	9627.42
302.688	9642.93
302.755	9661.81
302.821	9669.81
302.887	9679.92
302.954	9676.5
303.02	9684.69
303.086	9691.62
303.152	9686.61
303.219	9687
303.285	9694.66
303.351	9702.41
303.417	9711.23
303.483	9702.36
303.55	9702.03
303.616	9697.88
303.682	9696.73
303.748	9693.16
303.815	9705.69
303.881	9721.97
303.947	9712.24
304.013	9717.05
304.079	9701.79
304.145	9681.85
304.212	9680.31
304.278	9671.83
304.344	9674.62
304.41	9667.01
304.476	9660.75
304.542	9663.3
304.608	9670.29
304.674	9649.29
304.741	9637.44
304.807	9638.07
304.873	9641.24
304.939	9656.37
305.005	9636.43
305.071	9636.19
305.137	9642.35
305.203	9619.52
305.269	9612.49
305.335	9621.83
305.401	9620.63
305.467	9630.55
305.533	9637.92
305.599	9648.08
305.666	9660.41
305.732	9661.13
305.798	9668.5
305.864	9697.06
305.93	9698.46
305.996	9701.06
306.062	9705.25
306.128	9708.09
306.194	9698.46
306.259	9696.92
306.325	9690.23
306.391	9699.18
306.457	9708.09
306.523	9708.04
306.589	9735.79
306.655	9731.07
306.721	9710.94
306.787	9694.32
306.853	9702.65
306.919	9687.19
306.985	9681.85
307.051	9670.05
307.117	9659.69
307.183	9655.7
307.248	9624.1
307.314	9627.38
307.38	9624.53
307.446	9630.79
307.512	9615.09
307.578	9622.7
307.644	9620.25
307.709	9616.97
307.775	9619.62
307.841	9617.26
307.907	9613.22
307.973	9592.41
308.039	9592.12
308.104	9599.82
308.17	9603.73
308.236	9591.49
308.302	9597.8
308.368	9588.51
308.433	9595.49
308.499	9597.17
308.565	9583.11
308.631	9587.2
308.696	9564.43
308.762	9554.75
308.828	9552.96
308.894	9535.92
308.959	9519.16
309.025	9508.23
309.091	9503.85
309.156	9487.14
309.222	9485.93
309.288	9474.76
309.354	9453.91
309.419	9456.61
309.485	9448.76
309.551	9454.68
309.616	9437.63
309.682	9426.08
309.748	9413.27
309.813	9408.5
309.879	9398.72
309.945	9385.82
310.01	9376.67
310.076	9380.72
310.141	9376.91
310.207	9362.17
310.273	9369.54
310.338	9365.01
310.404	9355.43
310.469	9345.13
310.535	9341.71
310.601	9322.35
310.666	9332.56
310.732	9342
310.797	9327.26
310.863	9316.86
310.928	9304.87
310.994	9309.59
311.059	9314.07
311.125	9316.09
311.191	9325.48
311.256	9311.66
311.322	9319.32
311.387	9296.79
311.453	9513.55
311.518	9487.84
311.584	9480.77
311.649	9486.06
311.715	9478.45
311.78	9475.42
311.846	9461.27
311.911	9463.91
311.976	9460.88
312.042	9439.79
312.107	9421.11
312.173	9409.84
312.238	9398.72
312.304	9397.37
312.369	9390.2
312.434	9374.79
312.5	9364.87
312.565	9326.79
312.631	9333
312.696	9325.34
312.761	9336.85
312.827	9110.06
312.892	9146.22
312.958	9149.84
313.023	9147.76
313.088	9142.52
313.154	9130.92
313.219	9130.92
313.284	9121.53
313.35	9113.15
313.415	9105.45
313.48	9107.52
313.546	9110.74
313.611	9121.14
313.676	9114.21
313.741	9106.07
313.807	9119.27
313.872	9126.34
313.937	9134.57
314.003	9141.65
314.068	9139.34
314.133	9142.9
314.198	9135.63
314.264	9118.11
314.329	9105.93
314.394	9095.43
314.459	9101.16
314.525	9122.82
314.59	9118.34
314.655	9108.38
314.72	9118.06
314.785	9127.64
314.851	9119.89
314.916	9102.75
314.981	9081.76
315.046	9071.26
315.111	9056.2
315.176	9041.08
315.242	9043.24
315.307	9041.61
315.372	9022.98
315.437	9012.1
315.502	9000.73
315.567	9010.03
315.632	8992.55
315.698	8993.9
315.763	8995.44
315.828	8979.46
315.893	8969.78
315.958	8964.24
316.023	8959.57
316.088	8944.51
316.153	8917.65
316.218	8910.57
316.283	8896.08
316.348	8880.3
316.413	8881.79
316.479	8874.48
316.544	8835.93
316.609	8806.95
316.674	8769.75
316.739	8737.74
316.804	8708.53
316.869	8670.94
316.934	8625.46
316.999	8597.69
317.064	8544.76
317.129	8492.83
317.194	8458.62
317.259	8413.86
317.324	8361.28
317.389	8314.65
317.454	8274.96
317.518	8240.99
317.583	8211.5
317.648	8181.33
317.713	8151.02
317.778	8088.14
317.843	8057.26
317.908	8027.82
317.973	7983.81
318.038	7956.2
318.103	7917.44
318.168	7885.31
318.233	7857.7
318.297	7816.34
318.362	7774.17
318.427	7734.17
318.492	7712.58
318.557	7663.4
318.622	7634.59
318.687	7609.93
318.751	7565.7
318.816	7525.75
318.881	7490.51
318.946	7437.01
319.011	7394.75
319.075	7346.55
319.14	7308.92
319.205	7267.29
319.27	7226.83
319.335	7183.19
319.399	7138.3
319.464	7110.87
319.529	7060.66
319.594	7020.48
319.658	6987.86
319.723	6945.58
319.788	6920.79
319.853	6863.09
319.917	6832.88
319.982	6778.02
320.047	6743.39
320.112	6719.52
320.176	6674.57
320.241	6644.07
320.306	6615.73
320.37	6573.1
320.435	6545.01
320.5	6517.16
320.564	6470.35
320.629	6432.47
320.694	6399.88
320.758	6359.32
320.823	6312.28
320.888	6285.83
320.952	6242.06
321.017	6201.17
321.082	6163.55
321.146	6125.25
321.211	6093.53
321.275	6056.21
321.34	6016.25
321.405	5973.07
321.469	5927.54
321.534	5886.01
321.598	5828.6
321.663	5798.32
321.727	5768.44
321.792	5718.04
321.857	5675.74
321.921	5637.82
321.986	5589.03
322.05	5532.61
322.115	5493.4
322.179	5452.85
322.244	5394.19
322.308	5355.85
322.373	5310.32
322.437	5264.66
322.502	5238.77
322.566	5190.09
322.631	5158.9
322.695	5116.27
322.76	5065.12
322.824	5030.39
322.889	4983.76
322.953	4941.29
323.018	4875.34
323.082	4807.99
323.146	4759.32
323.211	4706.04
323.275	4662.24
323.34	4624.58
323.404	4589.89
323.468	4546.49
323.533	4499.22
323.597	4450.92
323.662	4397.96
323.726	4359.54
323.79	4318.75
323.855	4254.15
323.919	4210.49
323.983	4161.6
324.048	4092.79
324.112	4222.48
324.177	4088.63
324.241	3879.72
324.305	3671.66
324.37	3465.85
324.434	3271.65
324.498	3227.8
324.562	3175.37
324.627	3112.99
324.691	3053.25
324.755	2984.78
324.82	2906.39
324.884	2827.91
324.948	2757.5
325.012	2658.96
325.077	2531.57
