Data from 20250704_urea_1.5M_MAYP1162681_11-45-23-597.txt Node
Date: Fri Jul 04 11:45:23 BST 2025
User: adleo
Spectrometer: MAYP116268
Trigger mode: 0
Integration Time (sec): 1.000000E0
Scans to average: 1
Electric dark correction enabled: true
Nonlinearity correction enabled: true
Boxcar width: 10
XAxis mode: Wavelengths
Number of Pixels in Spectrum: 2068
>>>>>Begin Spectral Data<<<<<
179.565	1265.43
179.642	1324.92
179.718	1373.73
179.795	1418.27
179.871	1453.82
179.948	1470.94
180.024	1493.51
180.101	1516.62
180.177	1529.36
180.254	1553.06
180.33	1576.45
180.407	1631.81
180.483	1731.2
180.56	1825.09
180.636	1914.68
180.712	1902.6
180.789	1911.44
180.865	1925.56
180.942	1934.07
181.018	1946.33
181.095	1961.03
181.171	1965.02
181.248	1964.88
181.324	1978.34
181.4	1983.57
181.477	1993.42
181.553	2006.06
181.63	2026.13
181.706	2040.97
181.782	2052.9
181.859	2052.67
181.935	2058.18
182.011	2057.57
182.088	2074.59
182.164	2098.29
182.24	2111.23
182.317	2118.5
182.393	2115.41
182.469	2129.63
182.546	2144
182.622	2149.85
182.698	2145.71
182.775	2156.22
182.851	2171.02
182.927	2163.55
183.003	2159.93
183.08	2155.32
183.156	2164.93
183.232	2160.93
183.308	2153.46
183.385	2160.69
183.461	2179.39
183.537	2178.82
183.613	2194.09
183.69	2183.34
183.766	2170.96
183.842	2178.58
183.918	2185.71
183.995	2202.03
184.071	2203.93
184.147	2196.46
184.223	2182.01
184.299	2192.28
184.375	2182.87
184.452	2193.01
184.528	2247.21
184.604	2257.2
184.68	2267.34
184.756	2278.24
184.832	2285.33
184.908	2288.13
184.985	2287.37
185.061	2270.91
185.137	2279.95
185.213	2264.73
185.289	2268.86
185.365	2260.02
185.441	2258.73
185.517	2272.96
185.593	2269.54
185.669	2267.35
185.745	2278.2
185.822	2297.27
185.898	2291.03
185.974	2300.83
186.05	2290.31
186.126	2251.05
186.202	2247.81
186.278	2245.24
186.354	2234.58
186.43	2238.2
186.506	2237.58
186.582	2237.72
186.658	2246.09
186.734	2226.12
186.81	2231.25
186.886	2233.58
186.962	2246.76
187.038	2243.19
187.114	2234.96
187.19	2239.29
187.266	2230.34
187.341	2232.11
187.417	2224.73
187.493	2223.35
187.569	2226.54
187.645	2219.83
187.721	2207.93
187.797	2212.41
187.873	2215.4
187.949	2207.79
188.025	2203.27
188.101	2205.41
188.176	2210.12
188.252	2203.94
188.328	2214.45
188.404	2214.64
188.48	2207.88
188.556	2201.7
188.632	2202.03
188.707	2203.41
188.783	2201.98
188.859	2196.89
188.935	2186.57
189.011	2196.23
189.086	2190.76
189.162	2180.53
189.238	2177.82
189.314	2175.29
189.39	2168.21
189.465	2161.35
189.541	2179.39
189.617	2164.35
189.693	2158.46
189.768	2161.07
189.844	2186.87
189.92	2179.02
189.996	2186.59
190.071	2201.24
190.147	2199.15
190.223	2207.91
190.298	2197.34
190.374	2185.26
190.45	2195.29
190.526	2202.62
190.601	2195.01
190.677	2197.01
190.753	2226.28
190.828	2230.23
190.904	2245.65
190.98	2259.07
191.055	2272.49
191.131	2265.97
191.207	2285.81
191.282	2296.99
191.358	2288.66
191.433	2273.28
191.509	2284.03
191.585	2282.18
191.66	2282.18
191.736	2290.93
191.811	2280.7
191.887	2300.22
191.963	2320.54
192.038	2329.1
192.114	2329.77
192.189	2332.91
192.265	2328.72
192.34	2306.82
192.416	2305.3
192.491	2302.25
192.567	2305.2
192.642	2305.92
192.718	2303.87
192.793	2290.83
192.869	2286.22
192.944	2288.36
193.02	2292.16
193.095	2298.35
193.171	2302.3
193.246	2300.21
193.322	2296.49
193.397	2300.3
193.473	2283.45
193.548	2266.51
193.624	2272.17
193.699	2271.31
193.775	2288.31
193.85	2290.16
193.925	2296.64
194.001	2297.35
194.076	2289.31
194.152	2280.69
194.227	2271.08
194.302	2262.37
194.378	2267.7
194.453	2267.13
194.529	2281.22
194.604	2268.13
194.679	2259.19
194.755	2240.68
194.83	2255.44
194.905	2252.3
194.981	2259.15
195.056	2255.25
195.131	2261.77
195.207	2258.49
195.282	2248.83
195.357	2226.41
195.433	2242.83
195.508	2232.26
195.583	2237.78
195.659	2252.73
195.734	2261.86
195.809	2262.29
195.884	2269.71
195.96	2270.52
196.035	2284.71
196.11	2277.33
196.185	2289.79
196.261	2294.27
196.336	2327.44
196.411	2311.39
196.486	2319.01
196.561	2313.96
196.637	2321.72
196.712	2339.86
196.787	2344.29
196.862	2359.56
196.937	2370.84
197.013	2373.32
197.088	2384.55
197.163	2410.83
197.238	2427.79
197.313	2425.46
197.388	2441.5
197.464	2471.5
197.539	2480.45
197.614	2474.17
197.689	2487.22
197.764	2509.36
197.839	2531.17
197.914	2526.26
197.989	2550.27
198.065	2564.5
198.14	2615.64
198.215	2641.03
198.29	2651.32
198.365	2667.61
198.44	2682.85
198.515	2714.39
198.59	2730.54
198.665	2755.22
198.74	2760.89
198.815	2762.79
198.89	2784.04
198.965	2809.25
199.04	2803.82
199.115	2822.3
199.19	2865.47
199.265	2868.33
199.34	2872.48
199.415	2902.61
199.49	2922.25
199.565	2932.45
199.64	2958.38
199.715	2952.6
199.79	2961.33
199.865	2974.49
199.94	2970.58
200.015	2997.43
200.09	3001.81
200.165	3010.2
200.24	3021.12
200.315	3062.59
200.39	3079.05
200.464	3089.2
200.539	3096.98
200.614	3119.38
200.689	3142.99
200.764	3150.2
200.839	3170.4
200.914	3177.17
200.989	3172.93
201.063	3189.29
201.138	3172.13
201.213	3167.93
201.288	3149.34
201.363	3155.58
201.438	3152.44
201.512	3167.98
201.587	3154.48
201.662	3158.44
201.737	3172.6
201.812	3180.9
201.886	3144.68
201.961	3154.27
202.036	3142.4
202.111	3136.01
202.186	3106.07
202.26	3089.43
202.335	3066.05
202.41	3061.76
202.485	3045.22
202.559	3022.24
202.634	2992.73
202.709	3000.21
202.784	2983.38
202.858	2987.38
202.933	2968.65
203.008	2959.78
203.082	2938.24
203.157	2933.52
203.232	2890.4
203.306	2867.98
203.381	2833.66
203.456	2812.45
203.53	2789.12
203.605	2766.59
203.68	2743.43
203.754	2734.81
203.829	2714.99
203.904	2693.36
203.978	2677.39
204.053	2680.25
204.127	2667.49
204.202	2669.11
204.277	2650.96
204.351	2640.53
204.426	2630.9
204.5	2620.52
204.575	2586.51
204.65	2600.9
204.724	2596.8
204.799	2604.85
204.873	2602.28
204.948	2602.75
205.022	2588.85
205.097	2578.79
205.171	2592.22
205.246	2601.32
205.32	2597.85
205.395	2601.52
205.469	2591.95
205.544	2597.71
205.618	2580.19
205.693	2590.9
205.767	2572.28
205.842	2596.44
205.916	2590.58
205.991	2580.1
206.065	2585.1
206.14	2599.95
206.214	2591.09
206.289	2582.99
206.363	2596.99
206.438	2597.23
206.512	2601.99
206.586	2624.61
206.661	2633.19
206.735	2609.58
206.81	2610.68
206.884	2628.25
206.958	2614.87
207.033	2631.43
207.107	2639.34
207.181	2675.18
207.256	2668.27
207.33	2691.66
207.405	2703.58
207.479	2724.63
207.553	2734.97
207.628	2719.07
207.702	2730.64
207.776	2727.78
207.851	2729.93
207.925	2744.89
207.999	2741.27
208.073	2738.99
208.148	2740.03
208.222	2729.69
208.296	2766.17
208.371	2781.52
208.445	2793.82
208.519	2824.07
208.593	2838.65
208.668	2835.27
208.742	2834.89
208.816	2837.98
208.89	2850.71
208.965	2846.85
209.039	2856.67
209.113	2872.97
209.187	2896.69
209.261	2894.02
209.336	2914.47
209.41	2936.06
209.484	2935.11
209.558	2957.04
209.632	2971.15
209.707	2986.07
209.781	3011.67
209.855	3026.07
209.929	3045.21
210.003	3054.17
210.077	3055.17
210.151	3106.39
210.226	3144.37
210.3	3175.58
210.374	3205.09
210.448	3213.11
210.522	3227.66
210.596	3243.16
210.67	3256.38
210.744	3308.73
210.818	3345.02
210.892	3368.54
210.966	3369.35
211.041	3393.83
211.115	3399.51
211.189	3430.14
211.263	3455.96
211.337	3468.51
211.411	3494.19
211.485	3497.82
211.559	3517.24
211.633	3532.22
211.707	3517.17
211.781	3542.98
211.855	3525.12
211.929	3533.33
212.003	3531.8
212.077	3565.91
212.151	3597.76
212.225	3627.56
212.299	3641.66
212.373	3656.99
212.447	3684.42
212.52	3749.78
212.594	3788.92
212.668	3837.21
212.742	3862.39
212.816	3898.24
212.89	3932.5
212.964	3974.48
213.038	4025.26
213.112	4094.93
213.186	4163.04
213.26	4194.2
213.333	4204.87
213.407	4268.88
213.481	4330.92
213.555	4412.71
213.629	4464.01
213.703	4516.22
213.777	4588.12
213.85	4642.02
213.924	4755.22
213.998	4836.11
214.072	4908.66
214.146	4971.64
214.219	5057.59
214.293	5142.21
214.367	5230.58
214.441	5337.2
214.515	5422.48
214.588	5497.4
214.662	5556.33
214.736	5629.15
214.81	5734.92
214.883	5844.03
214.957	5940.14
215.031	6038.15
215.105	6117.57
215.178	6208.26
215.252	6316.59
215.326	6408.91
215.4	6508.75
215.473	6575.56
215.547	6667.11
215.621	6770.72
215.694	6903.18
215.768	6992.59
215.842	7106.42
215.915	7214.71
215.989	7312.11
216.063	7428.6
216.136	7550.66
216.21	7679.12
216.284	7825.35
216.357	7959.29
216.431	8087.76
216.504	8220.87
216.578	8374.83
216.652	8517.59
216.725	8656.7
216.799	8792.87
216.873	8925.52
216.946	9066.64
217.02	9197.91
217.093	9332.37
217.167	9440.18
217.24	9553.31
217.314	9686.3
217.387	9808.43
217.461	9926.23
217.535	10065.05
217.608	10174.83
217.682	10304.99
217.755	10443.93
217.829	10560.91
217.902	10682.81
217.976	10802.98
218.049	10922.43
218.123	11030.33
218.196	11169.36
218.27	11291.47
218.343	11404.01
218.417	11524.06
218.49	11634.14
218.563	11763.84
218.637	11890.55
218.71	12031.29
218.784	12157.1
218.857	12289.41
218.931	12415.84
219.004	12544.78
219.077	12667.41
219.151	12800.55
219.224	12916.43
219.298	13033.23
219.371	13158.18
219.444	13263.75
219.518	13381.47
219.591	13494.03
219.665	13634.64
219.738	13737.71
219.811	13835.28
219.885	13955.12
219.958	14075.53
220.031	14189.2
220.105	14303.45
220.178	14402.08
220.251	14502.87
220.325	14612.29
220.398	14707.6
220.471	14802.61
220.544	14907.93
220.618	15005.06
220.691	15104.21
220.764	15197.15
220.838	15294.61
220.911	15386.24
220.984	15499.52
221.057	15597.17
221.131	15695.31
221.204	15749.39
221.277	15850.56
221.35	15960.36
221.424	16042.44
221.497	16116.19
221.57	16198.95
221.643	16282.57
221.716	16376.8
221.79	16439.45
221.863	16509.24
221.936	16584.28
222.009	16658.32
222.082	16729.6
222.155	16787.48
222.229	16869.07
222.302	16947.58
222.375	17001.61
222.448	17072.99
222.521	17131.4
222.594	17188.8
222.667	17228.41
222.74	17302.68
222.814	17360.56
222.887	17412.12
222.96	17476.61
223.033	17540.99
223.106	17603.06
223.179	17665.18
223.252	17718
223.325	17776.07
223.398	17826.24
223.471	17876.7
223.544	17932.12
223.617	17983.2
223.69	18041.08
223.763	18072.79
223.837	18119.2
223.91	18170.23
223.983	18183.29
224.056	18217.17
224.129	18255.87
224.202	18314.56
224.275	18337.89
224.348	18357.45
224.42	18380.49
224.493	18393.06
224.566	18430.36
224.639	18461.88
224.712	18480.87
224.785	18509.83
224.858	18535.56
224.931	18568.43
225.004	18586.79
225.077	18612.67
225.15	18605.73
225.223	18621.58
225.296	18669.92
225.369	18668.61
225.442	18676.37
225.514	18706.25
225.587	18729.77
225.66	18749.77
225.733	18769.09
225.806	18795.45
225.879	18813.57
225.952	18825.81
226.025	18859.45
226.097	18884.7
226.17	18904.46
226.243	18896.89
226.316	18901.85
226.389	18924.31
226.461	18938
226.534	18956.36
226.607	18966.19
226.68	18998.86
226.753	19020.4
226.825	18999.63
226.898	19027.48
226.971	19042.37
227.044	19058.86
227.117	19069.7
227.189	19094.08
227.262	19110.95
227.335	19116.06
227.407	19126.9
227.48	19143.14
227.553	19144.25
227.626	19133.93
227.698	19129.84
227.771	19139.43
227.844	19128.15
227.916	19132.97
227.989	19114.03
228.062	19116.3
228.134	19134.51
228.207	19142.37
228.28	19132.34
228.352	19133.69
228.425	19127.33
228.498	19140.25
228.57	19132.15
228.643	19139.96
228.716	19136.54
228.788	19129.94
228.861	19124.1
228.934	19131.33
229.006	19128.87
229.079	19127
229.151	19120.44
229.224	19106.71
229.296	19110.13
229.369	19138.66
229.442	19145.36
229.514	19136.3
229.587	19144.97
229.659	19126.85
229.732	19137.4
229.804	19133.84
229.877	19161.07
229.949	19174.66
230.022	19190.75
230.094	19183.86
230.167	19185.26
230.239	19166.9
230.312	19157.98
230.384	19184.53
230.457	19183.91
230.529	19176.92
230.602	19176.97
230.674	19182.22
230.747	19190.75
230.819	19197.69
230.892	19159.28
230.964	19148.25
231.037	19151.28
231.109	19141.89
231.181	19140.01
231.254	19112.97
231.326	19110.76
231.399	19087.96
231.471	19067.19
231.544	19027.82
231.616	19032.83
231.688	19022.95
231.761	19004.79
231.833	18991.68
231.905	18955.54
231.978	18945.56
232.05	18934.24
232.122	18919.11
232.195	18894.09
232.267	18890.48
232.339	18876.84
232.412	18881.18
232.484	18865.86
232.556	18847.5
232.629	18853.09
232.701	18852.65
232.773	18846.1
232.846	18821.09
232.918	18815.02
232.99	18815.45
233.062	18809.09
233.135	18797.33
233.207	18769.72
233.279	18767.64
233.351	18763.93
233.424	18743.94
233.496	18706.3
233.568	18711.5
233.64	18686.2
233.713	18680.66
233.785	18659.65
233.857	18647.99
233.929	18616.28
234.001	18619.08
234.074	18631.27
234.146	18595.22
234.218	18572.86
234.29	18546.98
234.362	18532.67
234.434	18498.36
234.507	18459.66
234.579	18428.58
234.651	18401.26
234.723	18394.36
234.795	18384.87
234.867	18357.07
234.939	18361.64
235.012	18357.16
235.084	18339.52
235.156	18326.22
235.228	18297.5
235.3	18271.87
235.372	18248.54
235.444	18247
235.516	18206.23
235.588	18180.83
235.66	18166.91
235.732	18140.11
235.804	18185.51
235.876	18184.88
235.948	18183.82
236.02	18167.29
236.092	18145.65
236.164	18131.29
236.236	18107.92
236.308	18081.03
236.38	18067.97
236.452	18027.87
236.524	18013.32
236.596	18010.38
236.668	18007.2
236.74	17987.35
236.812	17971.68
236.884	17957.61
236.956	17931.4
237.028	17897.28
237.1	17862.53
237.172	17854.24
237.244	17848.94
237.316	17779.35
237.388	17746.34
237.46	17711.69
237.532	17702.2
237.604	17681.04
237.675	17672.17
237.747	17648.99
237.819	17615.64
237.891	17588.8
237.963	17562.73
238.035	17540.17
238.107	17479.79
238.178	17468.37
238.25	17447.74
238.322	17447.69
238.394	17410.01
238.466	17386.3
238.538	17370.3
238.609	17359.55
238.681	17310.44
238.753	17273.62
238.825	17254.44
238.897	17227.4
238.968	17228.56
239.04	17208.08
239.112	17214.34
239.184	17171.74
239.255	17148.94
239.327	17134.87
239.399	17116.03
239.471	17109.28
239.542	17082.77
239.614	17063.69
239.686	17005.23
239.758	16989.71
239.829	16954.67
239.901	16949.66
239.973	16926.82
240.044	16911.39
240.116	16887.97
240.188	16871.59
240.259	16851.3
240.331	16819.68
240.403	16806.86
240.474	16757.51
240.546	16716.88
240.618	16665.26
240.689	16641.5
240.761	16616.92
240.833	16608.15
240.904	16580.2
240.976	16555.91
241.048	16532.43
241.119	16524.05
241.191	16504.77
241.262	16494.36
241.334	16464.77
241.405	16429.2
241.477	16398.74
241.549	16374.25
241.62	16348.95
241.692	16328.75
241.763	16319.31
241.835	16290.29
241.906	16261.71
241.978	16227.78
242.049	16213.61
242.121	16190.18
242.192	16175.15
242.264	16125.89
242.335	16077.21
242.407	16057.01
242.478	16013.29
242.55	15991.12
242.621	15953.43
242.693	15928.08
242.764	15892.85
242.836	15864.84
242.907	15842.91
242.979	15831.3
243.05	15800.98
243.122	15781.02
243.193	15743.19
243.264	15678.65
243.336	15656.67
243.407	15647.75
243.479	15643.12
243.55	15614.15
243.622	15602.2
243.693	15581.96
243.764	15574.87
243.836	15540.21
243.907	15511.15
243.978	15486.18
244.05	15466.61
244.121	15426.12
244.192	15401.2
244.264	15361.48
244.335	15332.8
244.407	15292.89
244.478	15266.62
244.549	15242.66
244.62	15197.74
244.692	15172.19
244.763	15165.64
244.834	15128.76
244.906	15087.5
244.977	15056.22
245.048	15050.96
245.119	15007.92
245.191	14965.26
245.262	14923.85
245.333	14913.68
245.405	14886.59
245.476	14866.87
245.547	14833.28
245.618	14819.2
245.689	14799.29
245.761	14776.3
245.832	14747.43
245.903	14734.51
245.974	14704.23
246.045	14670.83
246.117	14657.91
246.188	14623.39
246.259	14583.48
246.33	14560.01
246.401	14522.16
246.473	14482.2
246.544	14444.27
246.615	14429.13
246.686	14398.42
246.757	14385.02
246.828	14351.62
246.899	14344.38
246.97	14299.41
247.042	14263.45
247.113	14237.75
247.184	14228.69
247.255	14191.72
247.326	14165.11
247.397	14131.41
247.468	14103.64
247.539	14082.92
247.61	14043.39
247.681	14026.47
247.752	14010.94
247.823	13968.76
247.894	13948.08
247.965	13920.27
248.037	13889.66
248.108	13857.99
248.179	13835.86
248.25	13808.53
248.321	13785
248.392	13742.19
248.463	13751.31
248.534	13725.51
248.605	13710.52
248.675	13689.02
248.746	13675.09
248.817	13659.09
248.888	13634.07
248.959	13588.85
249.03	13573.13
249.101	13546.19
249.172	13518.71
249.243	13483.13
249.314	13480
249.385	13458.84
249.456	13436.85
249.527	13407.93
249.598	13391.88
249.669	13362.33
249.739	13341.69
249.81	13326.94
249.881	13291.56
249.952	13259.26
250.023	13237.81
250.094	13203.2
250.165	13163.23
250.235	13135.51
250.306	13110.25
250.377	13081.81
250.448	13073.67
250.519	13028.59
250.59	13024.79
250.66	12999.86
250.731	12992.63
250.802	12969.01
250.873	12946.45
250.944	12928.85
251.014	12901.67
251.085	12899.3
251.156	12888.27
251.227	12886.34
251.297	12873.08
251.368	12860.6
251.439	12851.44
251.51	12844.01
251.58	12814.99
251.651	12790.31
251.722	12789.83
251.792	12752.71
251.863	12726.25
251.934	12721.28
252.005	12734.01
252.075	12720.27
252.146	12714.82
252.217	12709.38
252.287	12695.35
252.358	12672.31
252.429	12665.65
252.499	12644.49
252.57	12621.69
252.641	12606.99
252.711	12584.72
252.782	12550.25
252.852	12554.64
252.923	12536.13
252.994	12509.81
253.064	12495.06
253.135	12463.19
253.205	12427.09
253.276	12432.2
253.347	12432.15
253.417	12403.71
253.488	12373.1
253.558	12339.79
253.629	12319.4
253.699	12296.75
253.77	12286.09
253.841	12264.02
253.911	12246.04
253.982	12229.07
254.052	12219.38
254.123	12207.33
254.193	12189.06
254.264	12211.14
254.334	12179.47
254.405	12140.42
254.475	12122.2
254.546	12101.77
254.616	12093.24
254.687	12085.33
254.757	12064.55
254.827	12043.35
254.898	12025.66
254.968	12003.53
255.039	11981.17
255.109	11968.44
255.18	11941.11
255.25	11903.56
255.321	11895.76
255.391	11864.52
255.461	11865.68
255.532	11819.89
255.602	11797.72
255.673	11754.67
255.743	11719.82
255.813	11670.42
255.884	11664.16
255.954	11655.09
256.024	11666.71
256.095	11660.83
256.165	11628.06
256.235	11615.57
256.306	11594.9
256.376	11593.5
256.446	11588.82
256.517	11577.74
256.587	11572.58
256.657	11559.57
256.728	11549.11
256.798	11535.95
256.868	11513.64
256.938	11490.4
257.009	11481.15
257.079	11468.04
257.149	11479.51
257.219	11445.49
257.29	11438.84
257.36	11404.96
257.43	11390.64
257.5	11347.17
257.571	11315.79
257.641	11306.54
257.711	11278.44
257.781	11271.07
257.852	11252.08
257.922	11217.72
257.992	11195.07
258.062	11171.6
258.132	11161.33
258.202	11137.81
258.273	11122.58
258.343	11129.57
258.413	11102.63
258.483	11085.19
258.553	11057.67
258.623	11035.5
258.693	11031.55
258.764	11035.36
258.834	11035.69
258.904	11020.42
258.974	10988.33
259.044	10969.15
259.114	10956.23
259.184	10941.39
259.254	10916.48
259.324	10878.46
259.394	10867.71
259.464	10878.02
259.535	10860.19
259.605	10834.41
259.675	10809.6
259.745	10794.61
259.815	10760.78
259.885	10740.74
259.955	10754.42
260.025	10731.97
260.095	10710.19
260.165	10690.15
260.235	10690.87
260.305	10659.31
260.375	10630.35
260.445	10641.24
260.515	10641.77
260.585	10645.24
260.655	10629.29
260.725	10622.54
260.795	10623.99
260.865	10624.57
260.934	10593.53
261.004	10584.19
261.074	10573.25
261.144	10581.58
261.214	10577.87
261.284	10564.96
261.354	10559.81
261.424	10530.27
261.494	10542.26
261.564	10528.53
261.634	10520.53
261.703	10482.61
261.773	10481.55
261.843	10474.66
261.913	10464.45
261.983	10443.35
262.053	10430.39
262.123	10410.68
262.192	10383.37
262.262	10377.49
262.332	10351.37
262.402	10341.74
262.472	10324.88
262.541	10284.94
262.611	10280.22
262.681	10253.29
262.751	10242.5
262.821	10226.94
262.89	10198.99
262.96	10185.26
263.03	10191
263.1	10181.94
263.169	10171.49
263.239	10167.92
263.309	10176.01
263.379	10165.03
263.448	10150.1
263.518	10139.55
263.588	10128.27
263.657	10134.58
263.727	10125.77
263.797	10107.22
263.867	10098.12
263.936	10076.01
264.006	10082.89
264.076	10062.57
264.145	10047.73
264.215	10028.56
264.285	10027.55
264.354	9998.02
264.424	9973.55
264.494	9936.94
264.563	9914.3
264.633	9920.51
264.702	9908.18
264.772	9867.91
264.842	9846
264.911	9841.52
264.981	9812.66
265.05	9800.24
265.12	9783.18
265.19	9771.91
265.259	9772.63
265.329	9767.67
265.398	9760.26
265.468	9773.98
265.537	9759.1
265.607	9755.2
265.676	9759.2
265.746	9751.92
265.815	9757.17
265.885	9745.61
265.955	9729.67
266.024	9714.07
266.094	9677.13
266.163	9672.94
266.232	9681.85
266.302	9668.65
266.371	9657.05
266.441	9644.28
266.51	9646.55
266.58	9629.45
266.649	9607.68
266.719	9602.53
266.788	9586.78
266.858	9588.9
266.927	9548.49
266.996	9534.28
267.066	9528.22
267.135	9501.49
267.205	9496.34
267.274	9483.67
267.343	9488.54
267.413	9483.05
267.482	9489.64
267.552	9492.68
267.621	9461.91
267.69	9432.87
267.76	9428.49
267.829	9416.06
267.898	9405.56
267.968	9380.96
268.037	9378.65
268.106	9380.14
268.176	9360.88
268.245	9348.5
268.314	9332.47
268.384	9341.57
268.453	9329.72
268.522	9314.84
268.592	9318.74
268.661	9293.27
268.73	9290.04
268.799	9266.06
268.869	9272.47
268.938	9240.93
269.007	9228.89
269.076	9223.4
269.146	9225.52
269.215	9218.97
269.284	9223.84
269.353	9204.63
269.422	9190.72
269.492	9176.8
269.561	9133.33
269.63	9124.8
269.699	9109.01
269.768	9101.65
269.838	9088.98
269.907	9092.26
269.976	9069.53
270.045	9034.97
270.114	9036.41
270.183	9023.66
270.253	9012.73
270.322	8982.64
270.391	8974.7
270.46	8976.77
270.529	8977.49
270.598	8968.44
270.667	8957.8
270.736	8937.77
270.806	8938.88
270.875	8942.87
270.944	8925.11
271.013	8949.23
271.082	8940.85
271.151	8941.24
271.22	8907.45
271.289	8896.95
271.358	8881.74
271.427	8883.62
271.496	8884
271.565	8865.8
271.634	8857.48
271.703	8890.65
271.772	8892.72
271.841	8884.78
271.91	8859.6
271.979	8855.13
272.048	8834.62
272.117	8831.59
272.186	8814.31
272.255	8812.72
272.324	8813.2
272.393	8811.76
272.462	8791.73
272.531	8788.6
272.6	8776.28
272.669	8787.01
272.738	8777.05
272.807	8775.46
272.876	8751.4
272.945	8775.99
273.013	8777.53
273.082	8784.13
273.151	8739.55
273.22	8735.65
273.289	8728.82
273.358	8743.26
273.427	8735.99
273.496	8737.58
273.564	8738.73
273.633	8746
273.702	8729.1
273.771	8719.82
273.84	8718.61
273.909	8722.94
273.977	8716.88
274.046	8705.91
274.115	8712.36
274.184	8692.77
274.253	8685.55
274.322	8694.45
274.39	8661.19
274.459	8650.85
274.528	8619.57
274.597	8612.11
274.665	8609.94
274.734	8619.47
274.803	8604.93
274.872	8596.75
274.94	8583.85
275.009	8633.02
275.078	8619.01
275.147	8616.41
275.215	8614.1
275.284	8619.88
275.353	8607.8
275.421	8584.03
275.49	8600.87
275.559	8581.96
275.627	8578.78
275.696	8569.4
275.765	8571.47
275.833	8564.25
275.902	8564.06
275.971	8577.2
276.039	8590.43
276.108	8592.74
276.177	8589.8
276.245	8582.44
276.314	8573.68
276.383	8580.95
276.451	8518.16
276.52	8516.91
276.588	8528.46
276.657	8528.13
276.725	8523.36
276.794	8527.31
276.863	8544.78
276.931	8526.68
277	8537.02
277.068	8547.85
277.137	8565.95
277.205	8564.7
277.274	8586.06
277.342	8590.15
277.411	8573.17
277.48	8559.88
277.548	8548.77
277.617	8546.7
277.685	8540.44
277.754	8544.48
277.822	8536.74
277.89	8557.43
277.959	8552.77
278.027	8535.3
278.096	8529.57
278.164	8551.67
278.233	8538.58
278.301	8524.24
278.37	8524.67
278.438	8519.18
278.507	8523.56
278.575	8495.07
278.643	8489.68
278.712	8473.71
278.78	8457.78
278.849	8465.77
278.917	8475.34
278.985	8473.85
279.054	8479.05
279.122	8492.47
279.191	8493.49
279.259	8491.46
279.327	8460.66
279.396	8477.79
279.464	8476.06
279.532	8477.46
279.601	8470.77
279.669	8470.86
279.737	8484.29
279.806	8487.99
279.874	8491.41
279.942	8489.92
280.011	8488.47
280.079	8495.16
280.147	8509.02
280.215	8518.07
280.284	8512.87
280.352	8501.76
280.42	8511.91
280.488	8500.99
280.557	8494.73
280.625	8499.16
280.693	8498.39
280.761	8508.3
280.83	8493.48
280.898	8503.92
280.966	8494.68
281.034	8464.84
281.102	8451.37
281.171	8451.76
281.239	8457.24
281.307	8452.72
281.375	8442.04
281.443	8466.63
281.512	8468.5
281.58	8475.96
281.648	8463.07
281.716	8468.17
281.784	8467.4
281.852	8453.3
281.92	8450.27
281.989	8459.36
282.057	8439.68
282.125	8484.2
282.193	8478.67
282.261	8478.14
282.329	8472.32
282.397	8471.4
282.465	8471.65
282.533	8486.8
282.601	8471.88
282.67	8452.25
282.738	8444.94
282.806	8450.57
282.874	8436.13
282.942	8440.75
283.01	8437.86
283.078	8444.79
283.146	8441.18
283.214	8446.52
283.282	8454.12
283.35	8468.47
283.418	8461.97
283.486	8467.89
283.554	8428.32
283.622	8432.65
283.69	8431.74
283.758	8434.05
283.826	8444.63
283.894	8458.54
283.962	8474.28
284.03	8492.75
284.098	8495.98
284.165	8492.03
284.233	8494.92
284.301	8495.45
284.369	8488.76
284.437	8475.04
284.505	8465.76
284.573	8485.34
284.641	8474.08
284.709	8478.75
284.777	8462.1
284.845	8470.86
284.912	8480.77
284.98	8483.76
285.048	8475.77
285.116	8482.6
285.184	8499.06
285.252	8495.79
285.319	8481.35
285.387	8475.72
285.455	8460.95
285.523	8467.73
285.591	8462.25
285.659	8467.78
285.726	8477.02
285.794	8458.98
285.862	8451.52
285.93	8462.34
285.997	8455.08
286.065	8452.43
286.133	8443.19
286.201	8444.92
286.269	8430.1
286.336	8422.16
286.404	8414.56
286.472	8419.9
286.539	8401.23
286.607	8378.47
286.675	8373.85
286.743	8382.42
286.81	8377.7
286.878	8384.15
286.946	8378.08
287.013	8385.49
287.081	8385.49
287.149	8368.07
287.216	8386.26
287.284	8386.6
287.352	8389.2
287.419	8385.59
287.487	8409.12
287.555	8417.97
287.622	8413.31
287.69	8416.58
287.758	8428.56
287.825	8426.97
287.893	8421.15
287.96	8427.69
288.028	8438.09
288.096	8447.57
288.163	8451.95
288.231	8438.47
288.298	8436.16
288.366	8446.99
288.433	8438.43
288.501	8432.32
288.569	8437.95
288.636	8432.89
288.704	8444.39
288.771	8448.92
288.839	8436.65
288.906	8425.92
288.974	8429.04
289.041	8430.92
289.109	8423.22
289.176	8423.51
289.244	8425.34
289.311	8439.92
289.379	8449.35
289.446	8453.83
289.514	8455.7
289.581	8450.07
289.649	8457.82
289.716	8466.29
289.783	8460.13
289.851	8482.12
289.918	8477.02
289.986	8489.38
290.053	8501.42
290.121	8497.66
290.188	8498.53
290.255	8531.83
290.323	8522.59
290.39	8526.01
290.458	8526.25
290.525	8536.55
290.592	8526.87
290.66	8527.98
290.727	8520.91
290.794	8533.85
290.862	8531.88
290.929	8529.47
290.996	8529.76
291.064	8533.66
291.131	8544.29
291.198	8555.65
291.266	8551.32
291.333	8554.93
291.4	8555.99
291.468	8567.49
291.535	8571.01
291.602	8575.48
291.669	8563.45
291.737	8578.22
291.804	8574.52
291.871	8594.05
291.938	8606.81
292.006	8647.29
292.073	8668.03
292.14	8683.24
292.207	8676.69
292.275	8683.29
292.342	8697.49
292.409	8730.31
292.476	8758.09
292.543	8750
292.611	8750.48
292.678	8767.61
292.745	8800.06
292.812	8817.96
292.879	8809.97
292.946	8813.72
293.014	8822.48
293.081	8830.04
293.148	8838.13
293.215	8853.63
293.282	8849.15
293.349	8860.41
293.416	8839.33
293.484	8851.46
293.551	8860.61
293.618	8881.93
293.685	8907.39
293.752	8898.01
293.819	8887.37
293.886	8872.69
293.953	8875.29
294.02	8891.89
294.087	8896.27
294.154	8884.62
294.221	8901.48
294.288	8901.48
294.356	8919.33
294.423	8927.47
294.49	8921.31
294.557	8934.55
294.624	8925.35
294.691	8947.59
294.758	8948.75
294.825	8955.82
294.892	8944.46
294.959	8944.66
295.026	8950.58
295.093	8939.46
295.16	8944.41
295.226	8952.16
295.293	8974.26
295.36	8985.38
295.427	8990.96
295.494	9008.49
295.561	9014.03
295.628	9035.7
295.695	9060.54
295.762	9066.41
295.829	9077.29
295.896	9100.3
295.963	9110.56
296.03	9124.42
296.096	9120.67
296.163	9132.27
296.23	9147.82
296.297	9167.13
296.364	9163.71
296.431	9168.52
296.498	9162.75
296.564	9186.96
296.631	9187.06
296.698	9181.42
296.765	9201.84
296.832	9194.62
296.899	9182.87
296.965	9199.53
297.032	9174.77
297.099	9191.39
297.166	9199.57
297.233	9192.16
297.299	9181.04
297.366	9178.82
297.433	9181.33
297.5	9202.8
297.566	9202.22
297.633	9199.53
297.7	9199.81
297.767	9199.14
297.833	9201.74
297.9	9209.35
297.967	9190.72
298.033	9205.98
298.1	9237.18
298.167	9230.54
298.234	9236.56
298.3	9247.92
298.367	9246.04
298.434	9256.73
298.5	9239.83
298.567	9236.6
298.634	9239.2
298.7	9263.37
298.767	9263.66
298.834	9278.3
298.9	9267.46
298.967	9258.12
299.033	9269.2
299.1	9283.07
299.167	9298.76
299.233	9300.98
299.3	9312.29
299.366	9336.99
299.433	9346.62
299.5	9316.62
299.566	9319.12
299.633	9335.79
299.699	9347.44
299.766	9345.03
299.832	9349.56
299.899	9361.6
299.965	9362.99
300.032	9361.6
300.099	9365.16
300.165	9371.04
300.232	9368.05
300.298	9373.06
300.365	9390.49
300.431	9391.98
300.498	9383.99
300.564	9393.95
300.631	9400.36
300.697	9420.92
300.763	9420.3
300.83	9412.21
300.896	9423.14
300.963	9432.81
301.029	9438.64
301.096	9437.44
301.162	9454.73
301.229	9447.6
301.295	9434.4
301.361	9446.06
301.428	9451.88
301.494	9437.34
301.561	9448.13
301.627	9451.02
301.693	9447.89
301.76	9448.71
301.826	9438.59
301.892	9450.68
301.959	9460.94
302.025	9464.7
302.092	9453.81
302.158	9458.72
302.224	9467.49
302.291	9461.81
302.357	9460.12
302.423	9452.8
302.49	9449.33
302.556	9457.09
302.622	9454.92
302.688	9473.07
302.755	9493.93
302.821	9501.06
302.887	9513.82
302.954	9507.56
303.02	9513
303.086	9521.23
303.152	9520.85
303.219	9526.72
303.285	9535.49
303.351	9543.82
303.417	9540.06
303.483	9534.62
303.55	9530.24
303.616	9535.3
303.682	9537.8
303.748	9521.62
303.815	9541.27
303.881	9548.45
303.947	9540.21
304.013	9541.99
304.079	9530.87
304.145	9507.12
304.212	9506.21
304.278	9502.65
304.344	9502.12
304.41	9491.96
304.476	9482.52
304.542	9479.82
304.608	9482.28
304.674	9459.02
304.741	9448.61
304.807	9450.25
304.873	9455.79
304.939	9470.28
305.005	9453.24
305.071	9453.28
305.137	9462.19
305.203	9426.51
305.269	9425.16
305.335	9434.55
305.401	9433.1
305.467	9427.42
305.533	9433.97
305.599	9443.8
305.666	9451.26
305.732	9449.19
305.798	9459.93
305.864	9488.25
305.93	9485.31
305.996	9487.43
306.062	9492.82
306.128	9487.72
306.194	9477.94
306.259	9475.68
306.325	9460.51
306.391	9464.36
306.457	9471.44
306.523	9477.41
306.589	9506.74
306.655	9501.49
306.721	9475.48
306.787	9466.48
306.853	9483.81
306.919	9469.41
306.985	9457.33
307.051	9443.75
307.117	9443.75
307.183	9436
307.248	9408.06
307.314	9422.51
307.38	9422.85
307.446	9423.47
307.512	9417.41
307.578	9425.59
307.644	9416.92
307.709	9426.89
307.775	9429.93
307.841	9425.79
307.907	9426.12
307.973	9404.6
308.039	9404.26
308.104	9418.99
308.17	9413.36
308.236	9399.44
308.302	9402.14
308.368	9390.78
308.433	9394.48
308.499	9386.01
308.565	9380.57
308.631	9383.79
308.696	9358.13
308.762	9346.38
308.828	9348.98
308.894	9331.02
308.959	9302.28
309.025	9295.58
309.091	9289.9
309.156	9277.48
309.222	9281.81
309.288	9269
309.354	9253.55
309.419	9249.17
309.485	9234.96
309.551	9247.58
309.616	9233.18
309.682	9229.09
309.748	9225.57
309.813	9221.86
309.879	9212.09
309.945	9203.52
310.01	9195.77
310.076	9197.84
310.141	9187.97
310.207	9167.02
310.273	9168.18
310.338	9178.58
310.404	9166.35
310.469	9152.72
310.535	9149.02
310.601	9125.37
310.666	9130.91
310.732	9141.36
310.797	9126.14
310.863	9113.1
310.928	9100.92
310.994	9099.86
311.059	9096.49
311.125	9093.98
311.191	9101.25
311.256	9093.74
311.322	9095.72
311.387	9078.44
311.453	9524.91
311.518	9498.53
311.584	9510.28
311.649	9510.81
311.715	9498.48
311.78	9501.42
311.846	9491.07
311.911	9492.8
311.976	9494.97
312.042	9477.68
312.107	9458.33
312.173	9456.64
312.238	9448.99
312.304	9442.68
312.369	9447.45
312.434	9437.34
312.5	9433.06
312.565	9402.2
312.631	9405.04
312.696	9391.32
312.761	9397.72
312.827	8945.66
312.892	8994.14
312.958	8982.49
313.023	8984.99
313.088	8986.34
313.154	8972.91
313.219	8959.63
313.284	8949.76
313.35	8944.9
313.415	8937.24
313.48	8933.97
313.546	8932.67
313.611	8942.49
313.676	8928.63
313.741	8913.7
313.807	8916.74
313.872	8916.98
313.937	8923.43
314.003	8931.42
314.068	8934.79
314.133	8938.93
314.198	8923.76
314.264	8899.98
314.329	8891.12
314.394	8882.55
314.459	8877.79
314.525	8900.8
314.59	8896.27
314.655	8876.54
314.72	8880.72
314.785	8885.15
314.851	8882.6
314.916	8866.24
314.981	8849.77
315.046	8850.4
315.111	8841.06
315.176	8829.89
315.242	8831.34
315.307	8831.29
315.372	8810.69
315.437	8804.53
315.502	8794.61
315.567	8805.49
315.632	8788.98
315.698	8789.99
315.763	8784.36
315.828	8781.66
315.893	8769.05
315.958	8773.62
316.023	8769.58
316.088	8751.48
316.153	8726.74
316.218	8719.81
316.283	8702.78
316.348	8690.6
316.413	8689.59
316.479	8672.46
316.544	8638.68
316.609	8610.67
316.674	8571.84
316.739	8542.25
316.804	8510.83
316.869	8470.55
316.934	8437.1
316.999	8409.24
317.064	8359.54
317.129	8322.15
317.194	8281.21
317.259	8235.26
317.324	8177.63
317.389	8136.07
317.454	8099.12
317.518	8068.1
317.583	8038.03
317.648	8014.56
317.713	7978.34
317.778	7917.82
317.843	7888.39
317.908	7851.94
317.973	7818.99
318.038	7796
318.103	7756.1
318.168	7723.97
318.233	7703.68
318.297	7652.95
318.362	7614.87
318.427	7577.52
318.492	7550.59
318.557	7505.98
318.622	7478.58
318.687	7463.72
318.751	7425.47
318.816	7390.23
318.881	7355.43
318.946	7306.07
319.011	7266.99
319.075	7225.37
319.14	7191.79
319.205	7150.36
319.27	7119.23
319.335	7072.38
319.399	7028.98
319.464	7006.65
319.529	6955
319.594	6913.77
319.658	6884.62
319.723	6843.98
319.788	6815.4
319.853	6759.15
319.917	6730.91
319.982	6680.09
320.047	6640.9
320.112	6615.88
320.176	6564.41
320.241	6526.19
320.306	6498.73
320.37	6455.37
320.435	6428.2
320.5	6403.37
320.564	6366.46
320.629	6328.06
320.694	6299.12
320.758	6264.13
320.823	6219.11
320.888	6192.24
320.952	6143.82
321.017	6106.05
321.082	6068.53
321.146	6037.63
321.211	6008.55
321.275	5970.51
321.34	5927.68
321.405	5883.46
321.469	5838.8
321.534	5804.52
321.598	5760.21
321.663	5728.22
321.727	5692.16
321.792	5640.47
321.857	5597.69
321.921	5556.37
321.986	5515.15
322.05	5455.96
322.115	5413.77
322.179	5372.66
322.244	5318.66
322.308	5284.39
322.373	5234.13
322.437	5191.35
322.502	5160.14
322.566	5116.07
322.631	5077.12
322.695	5041.39
322.76	4997.15
322.824	4960.75
322.889	4916.65
322.953	4875.05
323.018	4811.32
323.082	4754.74
323.146	4703.3
323.211	4649.5
323.275	4605.47
323.34	4559.87
323.404	4526.96
323.468	4482.41
323.533	4435.43
323.597	4392.73
323.662	4343.55
323.726	4311.08
323.79	4266.79
323.855	4203.02
323.919	4153.91
323.983	4110.02
324.048	4042.36
324.112	4205.45
324.177	4079.69
324.241	3871.3
324.305	3664.48
324.37	3460.78
324.434	3264.34
324.498	3226.32
324.562	3175.94
324.627	3118.74
324.691	3064.49
324.755	2998.76
324.82	2924.6
324.884	2853.32
324.948	2780.88
325.012	2686.92
325.077	2563.28
