Data from 20250704_urea_0.5M_MAYP1162681_11-05-11-768.txt Node
Date: Fri Jul 04 11:05:11 BST 2025
User: adleo
Spectrometer: MAYP116268
Trigger mode: 0
Integration Time (sec): 1.000000E0
Scans to average: 1
Electric dark correction enabled: true
Nonlinearity correction enabled: true
Boxcar width: 10
XAxis mode: Wavelengths
Number of Pixels in Spectrum: 2068
>>>>>Begin Spectral Data<<<<<
179.565	1234.38
179.642	1290.64
179.718	1334.63
179.795	1373.56
179.871	1408.09
179.948	1427.38
180.024	1450.52
180.101	1474.18
180.177	1492.42
180.254	1516.96
180.33	1539.65
180.407	1596.25
180.483	1692.88
180.56	1786.43
180.636	1870.04
180.712	1859.67
180.789	1870.51
180.865	1882.82
180.942	1890.9
181.018	1901.4
181.095	1912.82
181.171	1917.57
181.248	1918.52
181.324	1936.88
181.4	1945.15
181.477	1955.71
181.553	1967.74
181.63	1986.57
181.706	2002.64
181.782	2007.63
181.859	2006.02
181.935	2011.68
182.011	2008.25
182.088	2027.13
182.164	2045.31
182.24	2061.14
182.317	2070.98
182.393	2069.65
182.469	2085.01
182.546	2100.09
182.622	2106.08
182.698	2104.09
182.775	2115.93
182.851	2133.34
182.927	2124.44
183.003	2119.54
183.08	2115.12
183.156	2125.35
183.232	2120.45
183.308	2105.8
183.385	2114.93
183.461	2133.1
183.537	2133.43
183.613	2146.18
183.69	2137.48
183.766	2129.01
183.842	2136.66
183.918	2141.95
183.995	2154.88
184.071	2155.5
184.147	2148.13
184.223	2135.24
184.299	2145.57
184.375	2135.48
184.452	2142.77
184.528	2191.68
184.604	2202.38
184.68	2214.65
184.756	2221.79
184.832	2227.21
184.908	2234.96
184.985	2234.11
185.061	2218.03
185.137	2229.26
185.213	2218.03
185.289	2220.46
185.365	2210.71
185.441	2209.75
185.517	2221.56
185.593	2217.23
185.669	2217.99
185.745	2228.89
185.822	2244.96
185.898	2238.01
185.974	2246
186.05	2237.44
186.126	2203.18
186.202	2196.71
186.278	2192.38
186.354	2184.15
186.43	2192.71
186.506	2192.05
186.582	2193.95
186.658	2199.66
186.734	2177.06
186.81	2178.35
186.886	2180.54
186.962	2194
187.038	2191
187.114	2182.96
187.19	2190.71
187.266	2180.15
187.341	2178.91
187.417	2172.59
187.493	2171.26
187.569	2176.82
187.645	2169.73
187.721	2157.79
187.797	2168.16
187.873	2172.78
187.949	2167.45
188.025	2159.64
188.101	2162.83
188.176	2165.54
188.252	2162.31
188.328	2172.34
188.404	2173.15
188.48	2165.49
188.556	2159.64
188.632	2160.78
188.707	2161.97
188.783	2159.5
188.859	2157.74
188.935	2149.5
189.011	2159.97
189.086	2155.74
189.162	2147.74
189.238	2145.89
189.314	2143.8
189.39	2136.9
189.465	2130.38
189.541	2146.56
189.617	2131.57
189.693	2128.96
189.768	2131.53
189.844	2154.56
189.92	2144.62
189.996	2155.33
190.071	2167.7
190.147	2164.46
190.223	2172.22
190.298	2165.41
190.374	2154
190.45	2162.18
190.526	2171.98
190.601	2161.56
190.677	2162.56
190.753	2192.17
190.828	2194.31
190.904	2208.73
190.98	2221.77
191.055	2231.57
191.131	2222.24
191.207	2242.03
191.282	2250.12
191.358	2243.6
191.433	2231.13
191.509	2244.97
191.585	2240.25
191.66	2241.02
191.736	2251.86
191.811	2242.78
191.887	2256.01
191.963	2278.52
192.038	2282.94
192.114	2280.47
192.189	2287.03
192.265	2284.41
192.34	2259.89
192.416	2259.28
192.491	2253.14
192.567	2257.8
192.642	2256.94
192.718	2257.75
192.793	2247.19
192.869	2240.62
192.944	2243.48
193.02	2251
193.095	2252.28
193.171	2257.76
193.246	2258.23
193.322	2255.57
193.397	2253.62
193.473	2242.15
193.548	2224.68
193.624	2231.39
193.699	2230.2
193.775	2247.81
193.85	2245.77
193.925	2254.48
194.001	2253.91
194.076	2248.44
194.152	2237.82
194.227	2231.59
194.302	2219.74
194.378	2223.74
194.453	2220.41
194.529	2229.4
194.604	2214.46
194.679	2209.85
194.755	2190.96
194.83	2203.72
194.905	2200.58
194.981	2214.86
195.056	2209.29
195.131	2213.48
195.207	2211.57
195.282	2202.06
195.357	2180.59
195.433	2199.24
195.508	2189.25
195.583	2195.29
195.659	2211.14
195.734	2218.61
195.809	2217.38
195.884	2229.22
195.96	2231.26
196.035	2247.96
196.11	2245.73
196.185	2256.77
196.261	2263.81
196.336	2294.74
196.411	2280.74
196.486	2284.98
196.561	2278.07
196.637	2285.26
196.712	2303.73
196.787	2311.06
196.862	2328.95
196.937	2339.71
197.013	2341.99
197.088	2350.41
197.163	2376.32
197.238	2395.37
197.313	2394.85
197.388	2411.08
197.464	2438.56
197.539	2447.79
197.614	2442.08
197.689	2455.84
197.764	2472.55
197.839	2491.93
197.914	2486.98
197.989	2512.03
198.065	2525.26
198.14	2570.58
198.215	2596.43
198.29	2605.87
198.365	2614.06
198.44	2624.15
198.515	2652.07
198.59	2670.84
198.665	2696.41
198.74	2703.37
198.815	2701.56
198.89	2723.47
198.965	2755.69
199.04	2753.6
199.115	2770.55
199.19	2812.43
199.265	2813.86
199.34	2825.77
199.415	2860.58
199.49	2882.69
199.565	2888.74
199.64	2912.38
199.715	2914.48
199.79	2922.25
199.865	2931.87
199.94	2932.11
200.015	2965.39
200.09	2971.97
200.165	2979.26
200.24	2989.56
200.315	3030.22
200.39	3047.62
200.464	3055.82
200.539	3055.59
200.614	3075.08
200.689	3100.98
200.764	3108.37
200.839	3126.82
200.914	3133.87
200.989	3119.27
201.063	3133.82
201.138	3119.71
201.213	3119.71
201.288	3099.26
201.363	3109.32
201.438	3108.32
201.512	3123.81
201.587	3102.82
201.662	3105.54
201.737	3121.85
201.812	3128.48
201.886	3093.4
201.961	3101.09
202.036	3086.79
202.111	3080.78
202.186	3049.13
202.26	3029
202.335	3006.12
202.41	2998.25
202.485	2978.42
202.559	2961.12
202.634	2931.71
202.709	2937.47
202.784	2920.6
202.858	2917.36
202.933	2895.05
203.008	2888.33
203.082	2870.79
203.157	2869.88
203.232	2828.62
203.306	2804.26
203.381	2771.37
203.456	2748.78
203.53	2727.65
203.605	2708.5
203.68	2688.15
203.754	2681.16
203.829	2666.24
203.904	2646.52
203.978	2637.37
204.053	2645.38
204.127	2632.95
204.202	2634.33
204.277	2618.71
204.351	2613.13
204.426	2609.46
204.5	2600.94
204.575	2564.7
204.65	2575.28
204.724	2568.94
204.799	2575.18
204.873	2569.37
204.948	2568.7
205.022	2556.46
205.097	2544.65
205.171	2557.6
205.246	2564.17
205.32	2562.17
205.395	2563.08
205.469	2553.89
205.544	2559.23
205.618	2537.94
205.693	2550.23
205.767	2535.8
205.842	2557.04
205.916	2549.61
205.991	2541.71
206.065	2547.9
206.14	2564.03
206.214	2558.98
206.289	2553.98
206.363	2569.36
206.438	2573.89
206.512	2582.75
206.586	2601.7
206.661	2613.61
206.735	2594
206.81	2598.29
206.884	2616.14
206.958	2604.33
207.033	2626.57
207.107	2638.87
207.181	2675.99
207.256	2676.56
207.33	2704.09
207.405	2722.02
207.479	2751.32
207.553	2761.61
207.628	2756.14
207.702	2777.38
207.776	2783.72
207.851	2800.88
207.925	2829.34
207.999	2836.35
208.073	2847.79
208.148	2869.86
208.222	2877.35
208.296	2930.24
208.371	2967.93
208.445	3003.88
208.519	3058.8
208.593	3099.53
208.668	3117.7
208.742	3149.59
208.816	3180.49
208.89	3227.79
208.965	3262.6
209.039	3309.48
209.113	3371.72
209.187	3436.64
209.261	3483.5
209.336	3549.49
209.41	3621.71
209.484	3675.94
209.558	3763.41
209.632	3842.57
209.707	3923.24
209.781	4023.2
209.855	4117.98
209.929	4212.12
210.003	4299.54
210.077	4386.56
210.151	4522.36
210.226	4657.35
210.3	4783.29
210.374	4910.12
210.448	5020.09
210.522	5141.21
210.596	5263.25
210.67	5388.61
210.744	5555.15
210.818	5711.4
210.892	5862.28
210.966	5990
211.041	6144.33
211.115	6276.96
211.189	6439.42
211.263	6595.87
211.337	6742.14
211.411	6905.33
211.485	7050.48
211.559	7219.44
211.633	7377.01
211.707	7507.94
211.781	7681.18
211.855	7813.19
211.929	7977.53
212.003	8125.72
212.077	8311.87
212.151	8502.71
212.225	8689.6
212.299	8861.71
212.373	9027.91
212.447	9205.66
212.52	9419.52
212.594	9609.84
212.668	9813
212.742	9994.04
212.816	10174.13
212.89	10353.51
212.964	10537.31
213.038	10739.43
213.112	10946.04
213.186	11162.04
213.26	11341.2
213.333	11488.86
213.407	11686.48
213.481	11881.47
213.555	12102.62
213.629	12287.86
213.703	12463.84
213.777	12657.8
213.85	12835.14
213.924	13063.62
213.998	13255.85
214.072	13438.3
214.146	13610.01
214.219	13797.04
214.293	13970.39
214.367	14167.64
214.441	14369.03
214.515	14550.42
214.588	14706.41
214.662	14850.25
214.736	14997.13
214.81	15173.94
214.883	15354.7
214.957	15516.56
215.031	15676.06
215.105	15811.84
215.178	15964.01
215.252	16120.75
215.326	16252.38
215.4	16384.64
215.473	16491.73
215.547	16622.01
215.621	16762.06
215.694	16919.42
215.768	17046.36
215.842	17195.91
215.915	17324.97
215.989	17438.85
216.063	17562.46
216.136	17691.52
216.21	17833.74
216.284	17981.59
216.357	18115.37
216.431	18239.76
216.504	18377.73
216.578	18526.83
216.652	18659.45
216.725	18775.64
216.799	18903.3
216.873	19032.78
216.946	19159.81
217.02	19274.22
217.093	19382.74
217.167	19457.97
217.24	19544.81
217.314	19642.06
217.387	19723.55
217.461	19809.52
217.535	19922.19
217.608	20007.15
217.682	20113.32
217.755	20201.8
217.829	20285.84
217.902	20365.55
217.976	20454.33
218.049	20529.75
218.123	20593.41
218.196	20675.97
218.27	20742.57
218.343	20808.46
218.417	20888.32
218.49	20968.57
218.563	21061.25
218.637	21144.68
218.71	21251.87
218.784	21347.55
218.857	21425.05
218.931	21508.24
219.004	21585.5
219.077	21658.05
219.151	21724.27
219.224	21784.33
219.298	21855.05
219.371	21922.39
219.444	21976.37
219.518	22033.68
219.591	22095.24
219.665	22179.65
219.738	22245.31
219.811	22300.12
219.885	22353.82
219.958	22395.52
220.031	22430.71
220.105	22474.34
220.178	22513.19
220.251	22547.38
220.325	22575.97
220.398	22624.85
220.471	22663.52
220.544	22715.11
220.618	22739.69
220.691	22784.63
220.764	22811.58
220.838	22845.42
220.911	22875.08
220.984	22927.05
221.057	22961.72
221.131	22997.54
221.204	22989.92
221.277	23033.08
221.35	23088.39
221.424	23100.29
221.497	23129.18
221.57	23153.04
221.643	23177.88
221.716	23210.33
221.79	23218.48
221.863	23238.78
221.936	23251.26
222.009	23270.31
222.082	23286.03
222.155	23299.53
222.229	23323.74
222.302	23345.15
222.375	23354.46
222.448	23360.24
222.521	23361.16
222.594	23368.83
222.667	23362.03
222.74	23381.65
222.814	23382.81
222.887	23372.73
222.96	23399.49
223.033	23419.36
223.106	23436.53
223.179	23448.73
223.252	23456.3
223.325	23472.21
223.398	23472.99
223.471	23477.28
223.544	23473.66
223.617	23461.36
223.69	23461.27
223.763	23449.74
223.837	23446.94
223.91	23446.37
223.983	23440.39
224.056	23430.31
224.129	23436.58
224.202	23444.53
224.275	23441.45
224.348	23423.89
224.42	23410.39
224.493	23381.99
224.566	23363.76
224.639	23353.92
224.712	23340.61
224.785	23327.59
224.858	23307.68
224.931	23286.9
225.004	23260.09
225.077	23253.24
225.15	23214.23
225.223	23198.22
225.296	23203.09
225.369	23167.51
225.442	23145.62
225.514	23125.03
225.587	23106.81
225.66	23076.57
225.733	23058.92
225.806	23035.97
225.879	23019.96
225.952	22996.82
226.025	22997.11
226.097	22992.34
226.17	22973.05
226.243	22928.45
226.316	22896.14
226.389	22884.43
226.461	22886.02
226.534	22881.68
226.607	22858.25
226.68	22871.07
226.753	22856.56
226.825	22821.12
226.898	22817.02
226.971	22790.79
227.044	22777.39
227.117	22770.5
227.189	22753.57
227.262	22734.72
227.335	22720.69
227.407	22691.09
227.48	22669.11
227.553	22640.95
227.626	22604.26
227.698	22580.15
227.771	22563.96
227.844	22537.34
227.916	22503.98
227.989	22455.58
228.062	22416.05
228.134	22409.44
228.207	22385.58
228.28	22352.8
228.352	22317.27
228.425	22294.13
228.498	22286.75
228.57	22252.24
228.643	22230.59
228.716	22209.72
228.788	22177.52
228.861	22140.98
228.934	22121.12
229.006	22097.01
229.079	22064.28
229.151	22037.91
229.224	21990.63
229.296	21962.14
229.369	21966.91
229.442	21952.93
229.514	21920.06
229.587	21914.56
229.659	21861.2
229.732	21833.15
229.804	21812.47
229.877	21808.18
229.949	21795.07
230.022	21781.76
230.094	21762.67
230.167	21731.82
230.239	21696.49
230.312	21666.61
230.384	21660
230.457	21638.12
230.529	21618.6
230.602	21603.61
230.674	21573.29
230.747	21563.85
230.819	21551.65
230.892	21486.72
230.964	21463.25
231.037	21444.74
231.109	21405.41
231.181	21389.41
231.254	21340.11
231.326	21307.81
231.399	21283.81
231.471	21246.7
231.544	21194.45
231.616	21174.78
231.688	21163.94
231.761	21139.17
231.833	21118.83
231.905	21069.81
231.978	21041.23
232.05	21009.9
232.122	20973.71
232.195	20939.83
232.267	20927.44
232.339	20901.22
232.412	20896.45
232.484	20861.41
232.556	20827.77
232.629	20818.76
232.701	20800.83
232.773	20783.29
232.846	20753.65
232.918	20719
232.99	20689.65
233.062	20668.68
233.135	20635.14
233.207	20590.08
233.279	20561.26
233.351	20525.26
233.424	20489.64
233.496	20440.73
233.568	20434.22
233.64	20398.27
233.713	20375.14
233.785	20324.05
233.857	20285.16
233.929	20239.04
234.001	20229.21
234.074	20216.3
234.146	20161.31
234.218	20126.61
234.29	20093.45
234.362	20060.97
234.434	20005.41
234.507	19967.92
234.579	19920.4
234.651	19888.5
234.723	19861.85
234.795	19828.02
234.867	19797.32
234.939	19787.39
235.012	19762.58
235.084	19723.68
235.156	19703.54
235.228	19662.82
235.3	19632.94
235.372	19605.62
235.444	19581.72
235.516	19522.15
235.588	19479.41
235.66	19449.24
235.732	19407.22
235.804	19430.74
235.876	19402.11
235.948	19397.39
236.02	19356.62
236.092	19325.15
236.164	19293.35
236.236	19253.35
236.308	19211.47
236.38	19177.11
236.452	19125.36
236.524	19094.28
236.596	19077.22
236.668	19047.77
236.74	19015.87
236.812	18990.38
236.884	18964.84
236.956	18931.3
237.028	18882.14
237.1	18845.95
237.172	18837.66
237.244	18823.35
237.316	18748.85
237.388	18705.96
237.46	18657.63
237.532	18642.21
237.604	18596.71
237.675	18569.44
237.747	18540.86
237.819	18508.29
237.891	18478.36
237.963	18441.59
238.035	18399.76
238.107	18313.79
238.178	18282.71
238.25	18237.02
238.322	18229.55
238.394	18168.06
238.466	18130.23
238.538	18116.5
238.609	18086.28
238.681	18024.11
238.753	17983.73
238.825	17952.99
238.897	17924.55
238.968	17912.51
239.04	17866.53
239.112	17861.95
239.184	17819.5
239.255	17776.46
239.327	17751.4
239.399	17711.11
239.471	17687.02
239.542	17654.97
239.614	17654.97
239.686	17596.56
239.758	17578.63
239.829	17529.57
239.901	17511.65
239.973	17480.51
240.044	17444.9
240.116	17414.15
240.188	17383.89
240.259	17345.09
240.331	17304.03
240.403	17280.56
240.474	17230.34
240.546	17189.38
240.618	17134.68
240.689	17090.77
240.761	17059.35
240.833	17037.9
240.904	17005.86
240.976	16974.29
241.048	16949.56
241.119	16907.59
241.191	16873.99
241.262	16859.44
241.334	16820.4
241.405	16785.36
241.477	16746.13
241.549	16709.07
241.62	16681.02
241.692	16658.08
241.763	16635.28
241.835	16596.05
241.906	16558.51
241.978	16503.9
242.049	16488.38
242.121	16476.19
242.192	16466.55
242.264	16424.66
242.335	16370.3
242.407	16349.24
242.478	16309.09
242.55	16276.84
242.621	16247.06
242.693	16219.54
242.764	16180.06
242.836	16140.4
242.907	16110.37
242.979	16079.47
243.05	16054.65
243.122	16025.88
243.193	15984.57
243.264	15939.21
243.336	15911.79
243.407	15890
243.479	15880.36
243.55	15845.42
243.622	15809.65
243.693	15764.3
243.764	15742.08
243.836	15693.97
243.907	15650.93
243.978	15614.44
244.05	15588.9
244.121	15529.66
244.192	15511.97
244.264	15464.73
244.335	15436.72
244.407	15398.69
244.478	15376.38
244.549	15337.57
244.62	15285.95
244.692	15257.12
244.763	15227.34
244.834	15189.98
244.906	15146.84
244.977	15121.48
245.048	15105.29
245.119	15067.21
245.191	15038.86
245.262	14989.46
245.333	14990.85
245.405	14969.74
245.476	14947.09
245.547	14922.02
245.618	14909.82
245.689	14876.03
245.761	14848.32
245.832	14810.57
245.903	14784.59
245.974	14753.84
246.045	14724.43
246.117	14715.9
246.188	14667.65
246.259	14626.38
246.33	14594.47
246.401	14567.48
246.473	14521.92
246.544	14488.42
246.615	14467.31
246.686	14432.84
246.757	14422.81
246.828	14379.24
246.899	14364.2
246.97	14322.88
247.042	14285.19
247.113	14263.01
247.184	14255.54
247.255	14219.87
247.326	14195.62
247.397	14168.43
247.468	14141.53
247.539	14119.94
247.61	14072.26
247.681	14063.87
247.752	14046.62
247.823	14017.55
247.894	13987.9
247.965	13952.57
248.037	13920.22
248.108	13876.21
248.179	13848.78
248.25	13821.88
248.321	13801.2
248.392	13751.93
248.463	13741.09
248.534	13714.96
248.605	13698.9
248.675	13669.45
248.746	13654.89
248.817	13633.25
248.888	13614.88
248.959	13577.67
249.03	13557.76
249.101	13534.42
249.172	13501.31
249.243	13451.61
249.314	13437.67
249.385	13419.26
249.456	13402.15
249.527	13369.12
249.598	13354.08
249.669	13327.33
249.739	13305.93
249.81	13292.23
249.881	13262.35
249.952	13238.68
250.023	13213.03
250.094	13172.49
250.165	13140.72
250.235	13119.22
250.306	13103.55
250.377	13066.77
250.448	13047.25
250.519	13002.8
250.59	12998.8
250.66	12971.71
250.731	12975.66
250.802	12954.4
250.873	12935.51
250.944	12912.95
251.014	12889.62
251.085	12895.4
251.156	12881.23
251.227	12870.04
251.297	12851.82
251.368	12845.17
251.439	12842.42
251.51	12838.66
251.58	12805.35
251.651	12772.62
251.722	12758.83
251.792	12722.2
251.863	12695.83
251.934	12690.29
252.005	12696.84
252.075	12672.02
252.146	12663.53
252.217	12654.52
252.287	12639.62
252.358	12613.54
252.429	12613.93
252.499	12589.35
252.57	12566.06
252.641	12551.84
252.711	12528.41
252.782	12496.21
252.852	12492.98
252.923	12468.79
252.994	12439.14
253.064	12439.33
253.135	12415.91
253.205	12388.62
253.276	12374.88
253.347	12370.98
253.417	12339.94
253.488	12311.06
253.558	12287.92
253.629	12266.47
253.699	12248.74
253.77	12235.87
253.841	12214.51
253.911	12197.83
253.982	12178.55
254.052	12172
254.123	12161.3
254.193	12140.57
254.264	12160.04
254.334	12125.14
254.405	12092.9
254.475	12065.08
254.546	12042.33
254.616	12032.36
254.687	12011.58
254.757	11998.52
254.827	11976.54
254.898	11962.8
254.968	11948.1
255.039	11921.45
255.109	11913.25
255.18	11879.27
255.25	11843.41
255.321	11831.94
255.391	11794.63
255.461	11803.74
255.532	11752.84
255.602	11728.31
255.673	11687.24
255.743	11656.15
255.813	11612.97
255.884	11603.09
255.954	11598.17
256.024	11603.81
256.095	11589.11
256.165	11561.21
256.235	11553.25
256.306	11528.72
256.376	11522.22
256.446	11502.02
256.517	11487.61
256.587	11477.3
256.657	11467.51
256.728	11449.58
256.798	11431.9
256.868	11414.55
256.938	11381.34
257.009	11371.8
257.079	11359.36
257.149	11370.93
257.219	11331.5
257.29	11328.61
257.36	11284.32
257.43	11272.95
257.5	11221.14
257.571	11197.09
257.641	11182.97
257.711	11154.01
257.781	11151.26
257.852	11133.81
257.922	11098.15
257.992	11080.66
258.062	11060.9
258.132	11050.83
258.202	11036.57
258.273	11022.3
258.343	11023.51
258.413	10998.64
258.483	10983.17
258.553	10957.53
258.623	10934.64
258.693	10919.8
258.764	10915.66
258.834	10926.83
258.904	10913.73
258.974	10897.1
259.044	10874.6
259.114	10867.13
259.184	10848.58
259.254	10828.24
259.324	10789.21
259.394	10783.09
259.464	10793.26
259.535	10774.71
259.605	10752.16
259.675	10725.03
259.745	10714.91
259.815	10685.08
259.885	10667.11
259.955	10680.12
260.025	10655.5
260.095	10636.23
260.165	10627.94
260.235	10626.25
260.305	10601.1
260.375	10560.68
260.445	10563.52
260.515	10573.93
260.585	10568.96
260.655	10556.58
260.725	10552.72
260.795	10553.88
260.865	10561.69
260.934	10533.21
261.004	10518.27
261.074	10507.96
261.144	10507.43
261.214	10500.06
261.284	10481.37
261.354	10474
261.424	10444.89
261.494	10448.41
261.564	10430.34
261.634	10426.53
261.703	10388.66
261.773	10382.06
261.843	10385.48
261.913	10372.38
261.983	10336.73
262.053	10332.2
262.123	10318.57
262.192	10282.29
262.262	10276.46
262.332	10249.87
262.402	10238.93
262.472	10230.69
262.541	10193.46
262.611	10190.95
262.681	10164.6
262.751	10162.28
262.821	10151.25
262.89	10119.07
262.96	10113.05
263.03	10125.14
263.1	10111.27
263.169	10100.43
263.239	10088.96
263.309	10088.05
263.379	10079.04
263.448	10068.68
263.518	10060.69
263.588	10043.44
263.657	10051.63
263.727	10044.4
263.797	10024.41
263.867	10008.95
263.936	9981.21
264.006	9987.8
264.076	9968.58
264.145	9959.09
264.215	9937.47
264.285	9932.84
264.354	9908.14
264.424	9882.37
264.494	9854.23
264.563	9831.4
264.633	9845.85
264.702	9840.75
264.772	9807.17
264.842	9792.24
264.911	9782.13
264.981	9750.86
265.05	9746
265.12	9730.11
265.19	9715.51
265.259	9716.81
265.329	9711.17
265.398	9704.05
265.468	9708.82
265.537	9690.03
265.607	9678.47
265.676	9672.7
265.746	9662.58
265.815	9661.38
265.885	9644.28
265.955	9619.77
266.024	9604.31
266.094	9561.26
266.163	9554.75
266.232	9565.06
266.302	9549.26
266.371	9545.51
266.441	9532.99
266.51	9529.76
266.58	9518.15
266.649	9499.66
266.719	9500.48
266.788	9490.27
266.858	9493.78
266.927	9461.18
266.996	9456.37
267.066	9451.02
267.135	9430.03
267.205	9427.04
267.274	9419.58
267.343	9424.83
267.413	9414.14
267.482	9423.05
267.552	9429.26
267.621	9400.99
267.69	9365.65
267.76	9356.59
267.829	9344.12
267.898	9336.9
267.968	9305.6
268.037	9301.7
268.106	9295.92
268.176	9273.24
268.245	9261.44
268.314	9245.84
268.384	9245.89
268.453	9240.88
268.522	9230.43
268.592	9231.3
268.661	9207.23
268.73	9200.63
268.799	9178.58
268.869	9187.44
268.938	9157.01
269.007	9139.91
269.076	9134.57
269.146	9143.57
269.215	9135.49
269.284	9145.12
269.353	9127.78
269.422	9123.16
269.492	9096.73
269.561	9061.83
269.63	9050.71
269.699	9035.88
269.768	9028.85
269.838	9022.64
269.907	9019.95
269.976	8996.79
270.045	8968.34
270.114	8974.41
270.183	8958.43
270.253	8951.45
270.322	8928.82
270.391	8919.39
270.46	8923.43
270.529	8919.05
270.598	8915.63
270.667	8910.38
270.736	8891.8
270.806	8885.01
270.875	8886.02
270.944	8880.44
271.013	8910.19
271.082	8902.29
271.151	8898.01
271.22	8871.44
271.289	8864.7
271.358	8850.4
271.427	8849.2
271.496	8847.18
271.565	8828.6
271.634	8820.85
271.703	8852.38
271.772	8855.94
271.841	8845.74
271.91	8827.31
271.979	8822.83
272.048	8795.58
272.117	8796.35
272.186	8775.95
272.255	8776.67
272.324	8775.13
272.393	8772.72
272.462	8747.69
272.531	8743.4
272.6	8730.79
272.669	8737.96
272.738	8722.85
272.807	8714.96
272.876	8697.06
272.945	8715.73
273.013	8714.19
273.082	8721.07
273.151	8669.66
273.22	8663.21
273.289	8657.92
273.358	8667.4
273.427	8656.47
273.496	8655.37
273.564	8645.74
273.633	8648.1
273.702	8632.03
273.771	8619.37
273.84	8615.71
273.909	8616.91
273.977	8613.64
274.046	8601.71
274.115	8607.34
274.184	8586.36
274.253	8577.26
274.322	8584.87
274.39	8555.27
274.459	8540.74
274.528	8515.66
274.597	8515.38
274.665	8511.43
274.734	8522.59
274.803	8508.44
274.872	8503.39
274.94	8488.96
275.009	8548.28
275.078	8534.47
275.147	8531.39
275.215	8532.93
275.284	8537.35
275.353	8526.38
275.421	8498.95
275.49	8520.8
275.559	8502.66
275.627	8502.9
275.696	8499.24
275.765	8496.36
275.833	8491.06
275.902	8495.68
275.971	8504.78
276.039	8522.63
276.108	8526
276.177	8519.6
276.245	8509.01
276.314	8500.64
276.383	8511.42
276.451	8448.1
276.52	8455.66
276.588	8470.09
276.657	8471.83
276.725	8463.74
276.794	8462.83
276.863	8475.96
276.931	8453.2
277	8462.63
277.068	8470.57
277.137	8491.12
277.205	8492.42
277.274	8512.87
277.342	8513.25
277.411	8493.09
277.48	8473.99
277.548	8462.54
277.617	8464.75
277.685	8456.52
277.754	8463.4
277.822	8452.1
277.89	8464.51
277.959	8449.6
278.027	8431.75
278.096	8420.1
278.164	8446.04
278.233	8436.8
278.301	8431.99
278.37	8430.12
278.438	8415.92
278.507	8418.61
278.575	8382.86
278.643	8380.31
278.712	8360.49
278.78	8355.96
278.849	8374.15
278.917	8381.75
278.985	8383.1
279.054	8382.43
279.122	8400.95
279.191	8395.99
279.259	8393.25
279.327	8370.49
279.396	8394.69
279.464	8390.27
279.532	8398.83
279.601	8390.79
279.669	8386.13
279.737	8396.52
279.806	8406.53
279.874	8415.14
279.942	8417.26
280.011	8422.45
280.079	8428.95
280.147	8447.67
280.215	8444.15
280.284	8439.34
280.352	8430.34
280.42	8433.81
280.488	8421.64
280.557	8410.9
280.625	8419.18
280.693	8422.12
280.761	8428.9
280.83	8408.45
280.898	8420
280.966	8401.66
281.034	8366.73
281.102	8357.83
281.171	8350.76
281.239	8363.66
281.307	8358.89
281.375	8351.05
281.443	8371.98
281.512	8365.82
281.58	8367.65
281.648	8356.58
281.716	8354.13
281.784	8350.86
281.852	8340.18
281.92	8338.35
281.989	8347.92
282.057	8328.92
282.125	8369.35
282.193	8364.39
282.261	8364.87
282.329	8361.84
282.397	8364.44
282.465	8370.26
282.533	8384.5
282.601	8371.32
282.67	8347.93
282.738	8336.48
282.806	8339.56
282.874	8327
282.942	8326.47
283.01	8326.13
283.078	8337.24
283.146	8334.12
283.214	8348.12
283.282	8350.53
283.35	8371.02
283.418	8361.88
283.486	8367.41
283.554	8326.31
283.622	8323.33
283.69	8325.59
283.758	8314.48
283.826	8313.66
283.894	8327.71
283.962	8351.48
284.03	8373.23
284.098	8377.37
284.165	8377.51
284.233	8378.43
284.301	8374.19
284.369	8370.63
284.437	8357.98
284.505	8352.59
284.573	8363.6
284.641	8351.38
284.709	8360.57
284.777	8342.72
284.845	8355.23
284.912	8362.93
284.98	8370.72
285.048	8366.68
285.116	8370.97
285.184	8386.22
285.252	8388.57
285.319	8370.97
285.387	8357.25
285.455	8338.77
285.523	8343.3
285.591	8340.22
285.659	8339.78
285.726	8350.56
285.794	8330.74
285.862	8332.67
285.93	8328.05
285.997	8324.2
286.065	8319.58
286.133	8311.06
286.201	8307.36
286.269	8291.29
286.336	8283.06
286.404	8268.48
286.472	8276.04
286.539	8254.24
286.607	8242.74
286.675	8250.3
286.743	8258.38
286.81	8249.57
286.878	8261.46
286.946	8251.35
287.013	8247.36
287.081	8253.95
287.149	8241.35
287.216	8268.24
287.284	8261.36
287.352	8266.17
287.419	8264.34
287.487	8278.73
287.555	8280.17
287.622	8273.05
287.69	8282.87
287.758	8294.03
287.825	8299.66
287.893	8289.6
287.96	8299.13
288.028	8308.99
288.096	8311.35
288.163	8319.72
288.231	8316.5
288.298	8317.6
288.366	8327.8
288.433	8330.35
288.501	8314.81
288.569	8312.74
288.636	8305.62
288.704	8318.81
288.771	8326.12
288.839	8321.02
288.906	8315.97
288.974	8324.97
289.041	8323.52
289.109	8309.57
289.176	8312.27
289.244	8314.86
289.311	8327.85
289.379	8336.37
289.446	8340.94
289.514	8333.29
289.581	8326.46
289.649	8326.7
289.716	8328.96
289.783	8326.8
289.851	8345.51
289.918	8347.43
289.986	8362.01
290.053	8365.43
290.121	8363.89
290.188	8365.33
290.255	8395.41
290.323	8391.42
290.39	8388.87
290.458	8399.74
290.525	8414.08
290.592	8412.39
290.66	8413.4
290.727	8404.74
290.794	8415.86
290.862	8416
290.929	8426.15
290.996	8429.57
291.064	8433.85
291.131	8442.85
291.198	8449.97
291.266	8446.46
291.333	8448.05
291.4	8454.4
291.468	8473.89
291.535	8472.11
291.602	8476.39
291.669	8467.59
291.737	8473.12
291.804	8472.73
291.871	8490.15
291.938	8501.46
292.006	8531.64
292.073	8546.46
292.14	8562.54
292.207	8554.26
292.275	8554.31
292.342	8568.22
292.409	8591.94
292.476	8624.19
292.543	8617.31
292.611	8619.43
292.678	8630.88
292.745	8657.35
292.812	8671.11
292.879	8663.03
292.946	8664.28
293.014	8682.66
293.081	8689.5
293.148	8703.55
293.215	8715.58
293.282	8709.9
293.349	8717.22
293.416	8694.79
293.484	8707.83
293.551	8717.31
293.618	8740.61
293.685	8764.77
293.752	8749.13
293.819	8749.18
293.886	8733
293.953	8742.92
294.02	8756.39
294.087	8777
294.154	8774.4
294.221	8787.15
294.288	8792.26
294.356	8815.17
294.423	8817.19
294.49	8806.31
294.557	8817.33
294.624	8809.44
294.691	8830.33
294.758	8830.18
294.825	8839.96
294.892	8827.34
294.959	8826.96
295.026	8835.58
295.093	8825.56
295.16	8828.84
295.226	8827.97
295.293	8856.28
295.36	8856.13
295.427	8867.11
295.494	8869.85
295.561	8872.07
295.628	8890.85
295.695	8904.71
295.762	8907.5
295.829	8917.52
295.896	8931.57
295.963	8936.67
296.03	8949.67
296.096	8951.26
296.163	8965.31
296.23	8981.54
296.297	8996.84
296.364	8995.74
296.431	8998.34
296.498	8998.05
296.564	9021.68
296.631	9024.14
296.698	9003.24
296.765	9024.71
296.832	9014.94
296.899	9006.9
296.965	9033.09
297.032	9010.22
297.099	9025.58
297.166	9028.37
297.233	9021.15
297.299	9020.67
297.366	9028.99
297.433	9033.52
297.5	9047.39
297.566	9052.73
297.633	9050.66
297.7	9057.11
297.767	9056.44
297.833	9064.09
297.9	9067.22
297.967	9050.52
298.033	9068.81
298.1	9107.14
298.167	9099.87
298.234	9104.64
298.3	9114.12
298.367	9112
298.434	9124.62
298.5	9114.99
298.567	9112.87
298.634	9114.02
298.7	9136.75
298.767	9133.76
298.834	9149.17
298.9	9142.76
298.967	9134.29
299.033	9143.73
299.1	9157.31
299.167	9177.24
299.233	9172.04
299.3	9190.14
299.366	9211.51
299.433	9220.95
299.5	9189.55
299.566	9200.1
299.633	9215.36
299.699	9226
299.766	9210.88
299.832	9216.37
299.899	9230.53
299.965	9238.67
300.032	9234.67
300.099	9232.6
300.165	9239.05
300.232	9234.48
300.298	9238.04
300.365	9246.23
300.431	9241.12
300.498	9237.03
300.564	9242.42
300.631	9252.87
300.697	9264.72
300.763	9268.76
300.83	9268.38
300.896	9282.34
300.963	9287.39
301.029	9290.72
301.096	9293.41
301.162	9309.78
301.229	9299.29
301.295	9286.57
301.361	9294.47
301.428	9298.56
301.494	9287.39
301.561	9290.43
301.627	9295.34
301.693	9292.74
301.76	9303.04
301.826	9301.21
301.892	9314.21
301.959	9317.25
302.025	9310.31
302.092	9304.97
302.158	9313.39
302.224	9317.83
302.291	9309.11
302.357	9306.51
302.423	9303.38
302.49	9293.17
302.556	9303.57
302.622	9307.18
302.688	9317.1
302.755	9332.42
302.821	9343.06
302.887	9355.43
302.954	9347.34
303.02	9351.34
303.086	9364.92
303.152	9354.13
303.219	9352.98
303.285	9353.6
303.351	9360.68
303.417	9367.09
303.483	9362.99
303.55	9348.02
303.616	9348.31
303.682	9345.47
303.748	9337.91
303.815	9353.8
303.881	9368.34
303.947	9353.75
304.013	9354.91
304.079	9340.85
304.145	9317.88
304.212	9314.8
304.278	9308.44
304.344	9307.28
304.41	9291.06
304.476	9273.92
304.542	9272.57
304.608	9278.44
304.674	9259.86
304.741	9253.11
304.807	9252.68
304.873	9250.75
304.939	9270.93
305.005	9248.35
305.071	9248.11
305.137	9253.06
305.203	9223.93
305.269	9220.56
305.335	9235.49
305.401	9235.34
305.467	9238.67
305.533	9243.48
305.599	9252.29
305.666	9264.91
305.732	9273.72
305.798	9290.57
305.864	9317.15
305.93	9319.94
305.996	9323.22
306.062	9322.59
306.128	9318.93
306.194	9307.96
306.259	9310.84
306.325	9302.9
306.391	9315.85
306.457	9321
306.523	9317.58
306.589	9343.88
306.655	9334.44
306.721	9321.68
306.787	9301.79
306.853	9320.86
306.919	9303.77
306.985	9296.26
307.051	9284.08
307.117	9276.04
307.183	9274.35
307.248	9249.36
307.314	9253.4
307.38	9251
307.446	9270.02
307.512	9259.18
307.578	9262.46
307.644	9256.24
307.709	9255.47
307.775	9250.61
307.841	9253.45
307.907	9254.75
307.973	9232.84
308.039	9229.52
308.104	9227.35
308.17	9232.55
308.236	9210.83
308.302	9221.14
308.368	9211.27
308.433	9213.96
308.499	9204.91
308.565	9188.06
308.631	9193.93
308.696	9173.67
308.762	9164.18
308.828	9152
308.894	9138.52
308.959	9119.55
309.025	9101.55
309.091	9094.85
309.156	9082.91
309.222	9086.33
309.288	9080.02
309.354	9059.76
309.419	9057.21
309.485	9045.07
309.551	9048.83
309.616	9035.83
309.682	9031.35
309.748	9023.22
309.813	9011.81
309.879	9006.61
309.945	9002.85
310.01	8992.65
310.076	8993.46
310.141	8985.23
310.207	8968.82
310.273	8969.49
310.338	8973.82
310.404	8970.93
310.469	8960.1
310.535	8950.09
310.601	8919.52
310.666	8923.76
310.732	8935.93
310.797	8922.55
310.863	8910.66
310.928	8907.24
310.994	8910.9
311.059	8905.17
311.125	8905.46
311.191	8919.28
311.256	8906.43
311.322	8904.26
311.387	8883.81
311.453	9314.65
311.518	9289
311.584	9293.14
311.649	9302.96
311.715	9287.99
311.78	9285.83
311.846	9275.57
311.911	9289.49
311.976	9294.15
312.042	9279.13
312.107	9259.5
312.173	9261.37
312.238	9254.83
312.304	9245.58
312.369	9234.18
312.434	9228.01
312.5	9222.09
312.565	9188.16
312.631	9192.59
312.696	9185.27
312.761	9187.68
312.827	8743.3
312.892	8778.34
312.958	8772.76
313.023	8759.95
313.088	8762.94
313.154	8750.91
313.219	8741.14
313.284	8721.26
313.35	8720.73
313.415	8701.48
313.48	8696.95
313.546	8692.96
313.611	8700.85
313.676	8693.34
313.741	8683.43
313.807	8691.66
313.872	8692.09
313.937	8701
314.003	8711.06
314.068	8712.79
314.133	8721.4
314.198	8714.47
314.264	8695.22
314.329	8683.72
314.394	8686.94
314.459	8689.44
314.525	8707.11
314.59	8702.63
314.655	8699.65
314.72	8704.8
314.785	8716.39
314.851	8709.37
314.916	8691.56
314.981	8678.66
315.046	8670.05
315.111	8666.15
315.176	8651.57
315.242	8654.55
315.307	8650.94
315.372	8630.78
315.437	8621.63
315.502	8605.56
315.567	8615.86
315.632	8601.23
315.698	8603.63
315.763	8596.85
315.828	8585.3
315.893	8577.79
315.958	8577.93
316.023	8563.93
316.088	8543.33
316.153	8516.77
316.218	8511.09
316.283	8497.23
316.348	8481.17
316.413	8480.25
316.479	8465.58
316.544	8432.86
316.609	8401.97
316.674	8370.02
316.739	8334.52
316.804	8304.78
316.869	8274.09
316.934	8238.2
316.999	8212.31
317.064	8159.54
317.129	8115.67
317.194	8081.66
317.259	8036.43
317.324	7983.29
317.389	7942.12
317.454	7904.03
317.518	7870.32
317.583	7848.14
317.648	7826.12
317.713	7796.06
317.778	7738.59
317.843	7711.61
317.908	7673.82
317.973	7636.79
318.038	7609.24
318.103	7579.29
318.168	7552.94
318.233	7524.14
318.297	7480.78
318.362	7444.29
318.427	7406.28
318.492	7382.39
318.557	7338.22
318.622	7312.98
318.687	7295.25
318.751	7256.66
318.816	7223.79
318.881	7193.18
318.946	7146.76
319.011	7102.02
319.075	7061.99
319.14	7031.05
319.205	6984.88
319.27	6954.9
319.335	6909.6
319.399	6868.81
319.464	6839.22
319.529	6782.11
319.594	6747.14
319.658	6711.84
319.723	6674.29
319.788	6646.1
319.853	6596.44
319.917	6567.06
319.982	6515.53
320.047	6480.62
320.112	6456.43
320.176	6411.01
320.241	6381.97
320.306	6347.93
320.37	6308.62
320.435	6279.77
320.5	6249.86
320.564	6215.93
320.629	6173.08
320.694	6145.88
320.758	6104.42
320.823	6062.58
320.888	6038.69
320.952	5992.34
321.017	5956.27
321.082	5919.09
321.146	5890.16
321.211	5855.44
321.275	5813.57
321.34	5772.62
321.405	5729.41
321.469	5684.91
321.534	5644.36
321.598	5598.23
321.663	5564.9
321.727	5533.07
321.792	5482.06
321.857	5441.02
321.921	5400.04
321.986	5356.49
322.05	5295.46
322.115	5261.15
322.179	5220.71
322.244	5168.83
322.308	5136.58
322.373	5090.79
322.437	5051.51
322.502	5024.72
322.566	4981.23
322.631	4951.49
322.695	4912.14
322.76	4869.34
322.824	4834.67
322.889	4794.23
322.953	4746.13
323.018	4686.34
323.082	4624.37
323.146	4575.57
323.211	4521.55
323.275	4480.4
323.34	4440.56
323.404	4412.96
323.468	4367.47
323.533	4322.66
323.597	4277.86
323.662	4224.87
323.726	4192.78
323.79	4144.3
323.855	4082.12
323.919	4035.37
323.983	3988.27
324.048	3929.51
324.112	4059.76
324.177	3936.78
324.241	3733.09
324.305	3534.35
324.37	3338.01
324.434	3150.6
324.498	3110.35
324.562	3062.12
324.627	3002.44
324.691	2949.44
324.755	2884.68
324.82	2810.14
324.884	2737.42
324.948	2665.63
325.012	2574.6
325.077	2450.79
