Data from 20250704_urea_0.1M_MAYP1162681_11-18-45-695.txt Node
Date: Fri Jul 04 11:18:45 BST 2025
User: adleo
Spectrometer: MAYP116268
Trigger mode: 0
Integration Time (sec): 1.000000E0
Scans to average: 1
Electric dark correction enabled: true
Nonlinearity correction enabled: true
Boxcar width: 10
XAxis mode: Wavelengths
Number of Pixels in Spectrum: 2068
>>>>>Begin Spectral Data<<<<<
179.565	1242.98
179.642	1299.8
179.718	1348.03
179.795	1388.65
179.871	1421.33
179.948	1440.64
180.024	1463.18
180.101	1485.11
180.177	1499.43
180.254	1521.44
180.33	1543.27
180.407	1598.15
180.483	1695.35
180.56	1788.81
180.636	1874.6
180.712	1862
180.789	1872.93
180.865	1882.91
180.942	1889.8
181.018	1897.84
181.095	1911.63
181.171	1918.9
181.248	1921.8
181.324	1936.5
181.4	1940.49
181.477	1951.72
181.553	1965.41
181.63	1984.62
181.706	2000.79
181.782	2008.63
181.859	2009.68
181.935	2014.77
182.011	2013.62
182.088	2031.6
182.164	2052.06
182.24	2068.08
182.317	2077.64
182.393	2075.65
182.469	2092.24
182.546	2108.13
182.622	2113.55
182.698	2107.75
182.775	2117.69
182.851	2132.1
182.927	2124.44
183.003	2121.88
183.08	2117.45
183.156	2125.35
183.232	2122.64
183.308	2113.65
183.385	2123.11
183.461	2142.14
183.537	2144.14
183.613	2157.46
183.69	2147.09
183.766	2135.28
183.842	2143.37
183.918	2148.75
183.995	2162.07
184.071	2165.92
184.147	2159.36
184.223	2147.9
184.299	2163.74
184.375	2154.13
184.452	2158.37
184.528	2209.14
184.604	2221.32
184.68	2234.5
184.756	2244.35
184.832	2250.53
184.908	2254.29
184.985	2253.05
185.061	2234.79
185.137	2242.4
185.213	2229.79
185.289	2231.22
185.365	2224.46
185.441	2223.75
185.517	2235.27
185.593	2231.8
185.669	2226.09
185.745	2242.45
185.822	2260.15
185.898	2249.77
185.974	2258.95
186.05	2251.05
186.126	2213.32
186.202	2207.08
186.278	2201.09
186.354	2187.29
186.43	2195.38
186.506	2191.62
186.582	2192.58
186.658	2200.14
186.734	2182.06
186.81	2183.87
186.886	2187.34
186.962	2200.71
187.038	2198.09
187.114	2192.9
187.19	2199.47
187.266	2193.24
187.341	2190.86
187.417	2184.58
187.493	2185.86
187.569	2189.77
187.645	2184.34
187.721	2170.54
187.797	2176.11
187.873	2183.44
187.949	2182.2
188.025	2172.3
188.101	2177.72
188.176	2183
188.252	2180.58
188.328	2188.99
188.404	2190.9
188.48	2186.33
188.556	2179.81
188.632	2176.29
188.707	2175.39
188.783	2173.24
188.859	2166.83
188.935	2155.69
189.011	2161.16
189.086	2154.26
189.162	2144.65
189.238	2145.18
189.314	2148.65
189.39	2141.94
189.465	2133.52
189.541	2149.27
189.617	2134.9
189.693	2130.81
189.768	2133.24
189.844	2156.71
189.92	2148.34
189.996	2159.23
190.071	2171.89
190.147	2171.03
190.223	2182.64
190.298	2175.12
190.374	2162.57
190.45	2174.69
190.526	2185.4
190.601	2182.4
190.677	2186.26
190.753	2217.67
190.828	2216.39
190.904	2229.57
190.98	2247.56
191.055	2255.51
191.131	2246.99
191.207	2269.78
191.282	2278.62
191.358	2271.15
191.433	2253.3
191.509	2267.19
191.585	2261.77
191.66	2261.1
191.736	2268.52
191.811	2255.48
191.887	2272.43
191.963	2295.51
192.038	2299.93
192.114	2297.98
192.189	2301.6
192.265	2297.13
192.34	2272.32
192.416	2274.89
192.491	2271.79
192.567	2274.27
192.642	2279.27
192.718	2278.46
192.793	2262.9
192.869	2259.42
192.944	2260.04
193.02	2272.27
193.095	2274.56
193.171	2277.6
193.246	2277.08
193.322	2272.27
193.397	2275.08
193.473	2258.28
193.548	2239.62
193.624	2246.67
193.699	2244.95
193.775	2259.47
193.85	2260.99
193.925	2269.47
194.001	2268.37
194.076	2260
194.152	2249.52
194.227	2238.67
194.302	2227.78
194.378	2233.59
194.453	2229.02
194.529	2239.49
194.604	2223.4
194.679	2219.36
194.755	2202.14
194.83	2213.61
194.905	2214.47
194.981	2220.84
195.056	2214.8
195.131	2221.65
195.207	2219.08
195.282	2210.66
195.357	2192.53
195.433	2207.04
195.508	2194.52
195.583	2202.38
195.659	2217.27
195.734	2224.22
195.809	2225.89
195.884	2234.88
195.96	2234.16
196.035	2251.29
196.11	2249.96
196.185	2264.66
196.261	2267.99
196.336	2299.26
196.411	2289.26
196.486	2292.83
196.561	2288.26
196.637	2296.97
196.712	2312.58
196.787	2315.3
196.862	2327.38
196.937	2337.28
197.013	2342.37
197.088	2356.51
197.163	2378.84
197.238	2395.99
197.313	2394.89
197.388	2408.46
197.464	2443.61
197.539	2455.31
197.614	2446.84
197.689	2457.46
197.764	2472.42
197.839	2492.6
197.914	2488.55
197.989	2508.36
198.065	2523.36
198.14	2576.35
198.215	2603.97
198.29	2616.69
198.365	2630.46
198.44	2644.03
198.515	2672.08
198.59	2690
198.665	2715.25
198.74	2722.73
198.815	2721.44
198.89	2746.16
198.965	2776.76
199.04	2768.9
199.115	2784.43
199.19	2831.74
199.265	2835.41
199.34	2845.89
199.415	2878.36
199.49	2898.7
199.565	2910.33
199.64	2933.93
199.715	2928.3
199.79	2934.73
199.865	2940.12
199.94	2941.55
200.015	2973.49
200.09	2980.07
200.165	2983.6
200.24	2989.89
200.315	3034.51
200.39	3055.35
200.464	3062.07
200.539	3066.89
200.614	3083.91
200.689	3108.13
200.764	3114.43
200.839	3135.12
200.914	3137.93
200.989	3129.1
201.063	3144.79
201.138	3127.16
201.213	3131.5
201.288	3114.34
201.363	3123.3
201.438	3127.78
201.512	3144.61
201.587	3128.77
201.662	3133.5
201.737	3148.33
201.812	3157.72
201.886	3123.93
201.961	3131.56
202.036	3117.93
202.111	3113.06
202.186	3086.28
202.26	3070.45
202.335	3050.46
202.41	3046.65
202.485	3036.25
202.559	3021.09
202.634	2997.4
202.709	3013.17
202.784	2994.24
202.858	2997.58
202.933	2985.27
203.008	2984.23
203.082	2968.4
203.157	2971.21
203.232	2936.23
203.306	2924.74
203.381	2901.66
203.456	2888.02
203.53	2881.72
203.605	2879.86
203.68	2871.95
203.754	2883.29
203.829	2887.15
203.904	2884.43
203.978	2891.25
204.053	2913.42
204.127	2928.3
204.202	2955.57
204.277	2966.64
204.351	2991.24
204.426	3023.02
204.5	3047.25
204.575	3048.25
204.65	3103.8
204.724	3144.27
204.799	3197.01
204.873	3243.55
204.948	3295.28
205.022	3340.51
205.097	3391.29
205.171	3466.34
205.246	3536.4
205.32	3601.13
205.395	3670.2
205.469	3736.04
205.544	3823.36
205.618	3888.5
205.693	3982.34
205.767	4055.38
205.842	4167.38
205.916	4256.71
205.991	4343.69
206.065	4451.72
206.14	4578.56
206.214	4679.03
206.289	4782.13
206.363	4913.42
206.438	5035.79
206.512	5167.5
206.586	5309.7
206.661	5443.34
206.735	5558.96
206.81	5695.89
206.884	5856.21
206.958	5990.17
207.033	6156.82
207.107	6310.16
207.181	6499.23
207.256	6642.51
207.33	6820.52
207.405	6991.5
207.479	7174.64
207.553	7336.65
207.628	7485.76
207.702	7663.72
207.776	7832.49
207.851	8009.55
207.925	8199.52
207.999	8372.62
208.073	8546.17
208.148	8733.51
208.222	8898.46
208.296	9107
208.371	9316.74
208.445	9512.14
208.519	9727.9
208.593	9921.21
208.668	10098.46
208.742	10284.85
208.816	10478.39
208.89	10685.9
208.965	10877.35
209.039	11069.32
209.113	11291.88
209.187	11502.49
209.261	11688.8
209.336	11896.08
209.41	12107.37
209.484	12303.07
209.558	12520.64
209.632	12725.49
209.707	12931.84
209.781	13150.1
209.855	13359.44
209.929	13570.77
210.003	13765.42
210.077	13959.83
210.151	14193.47
210.226	14422.29
210.3	14634.67
210.374	14847.82
210.448	15034.99
210.522	15223.94
210.596	15424.7
210.67	15609.89
210.744	15840.82
210.818	16055.5
210.892	16261.98
210.966	16431.93
211.041	16626.99
211.115	16795.87
211.189	16997.42
211.263	17185.58
211.337	17366.55
211.411	17543.61
211.485	17683.85
211.559	17858.7
211.633	18016.63
211.707	18150.98
211.781	18321.2
211.855	18448.37
211.929	18605.81
212.003	18742
212.077	18911.73
212.151	19074.04
212.225	19232.68
212.299	19370.51
212.373	19500.38
212.447	19628.86
212.52	19805.44
212.594	19936.32
212.668	20078.64
212.742	20207.17
212.816	20327.7
212.89	20442.64
212.964	20573.34
213.038	20713.88
213.112	20857.89
213.186	21005.75
213.26	21114.72
213.333	21192.9
213.407	21323.61
213.481	21440.15
213.555	21570.09
213.629	21668.38
213.703	21770.08
213.777	21881.68
213.85	21981.03
213.924	22132.25
213.998	22256.1
214.072	22353.63
214.146	22448.99
214.219	22564.02
214.293	22663
214.367	22773.16
214.441	22895.48
214.515	22990.18
214.588	23070.31
214.662	23135.79
214.736	23206.86
214.81	23300.5
214.883	23402.62
214.957	23479.39
215.031	23563.34
215.105	23629.59
215.178	23717.9
215.252	23798.29
215.326	23852.11
215.4	23910.37
215.473	23936.95
215.547	23988.7
215.621	24055.89
215.694	24140.69
215.768	24177.78
215.842	24225.92
215.915	24274.6
215.989	24311.59
216.063	24361.91
216.136	24426.36
216.21	24483.76
216.284	24544.64
216.357	24601.66
216.431	24649.95
216.504	24712.87
216.578	24783.74
216.652	24835.89
216.725	24876.18
216.799	24931.87
216.873	24992.32
216.946	25045.25
217.02	25092.05
217.093	25143.78
217.167	25164.91
217.24	25190.11
217.314	25239.85
217.387	25291.68
217.461	25328.88
217.535	25383.56
217.608	25424.63
217.682	25467.68
217.755	25518.07
217.829	25556.29
217.902	25603.35
217.976	25643.16
218.049	25665.17
218.123	25682.06
218.196	25740.95
218.27	25778.11
218.343	25800.7
218.417	25848.64
218.49	25879.58
218.563	25929.92
218.637	25970.91
218.71	26029.66
218.784	26076.92
218.857	26123.6
218.931	26151.94
219.004	26189.98
219.077	26234.3
219.151	26272.78
219.224	26290.64
219.298	26313.77
219.371	26358.53
219.444	26378.18
219.518	26406.81
219.591	26447.46
219.665	26508.3
219.738	26537.27
219.811	26556.25
219.885	26592.9
219.958	26609.12
220.031	26642.58
220.105	26661.8
220.178	26676.82
220.251	26687.88
220.325	26712.31
220.398	26722.79
220.471	26746.6
220.544	26768.28
220.618	26772.53
220.691	26781.22
220.764	26812.8
220.838	26842.12
220.911	26851.73
220.984	26888.91
221.057	26908.28
221.131	26924.5
221.204	26897.31
221.277	26915.38
221.35	26957.93
221.424	26958.89
221.497	26967.25
221.57	26974.01
221.643	26987.87
221.716	26998.59
221.79	27003.28
221.863	27001.15
221.936	27009.12
222.009	27020.04
222.082	27026.51
222.155	27021.44
222.229	27049.4
222.302	27053.41
222.375	27047.52
222.448	27045.97
222.521	27034.24
222.594	27039.5
222.667	27023.71
222.74	27037.47
222.814	27034.91
222.887	27020.47
222.96	27038.2
223.033	27050.42
223.106	27050.66
223.179	27064.67
223.252	27057.08
223.325	27048.92
223.398	27053.32
223.471	27053.12
223.544	27038.97
223.617	27035.3
223.69	27032.74
223.763	26997.77
223.837	26984.3
223.91	26976.28
223.983	26965.85
224.056	26951.51
224.129	26933.83
224.202	26936.68
224.275	26919.73
224.348	26893.46
224.42	26857.33
224.493	26816.09
224.566	26789.77
224.639	26775.28
224.712	26739.69
224.785	26716.26
224.858	26704.92
224.931	26678.84
225.004	26657.59
225.077	26642.67
225.15	26593.71
225.223	26573.33
225.296	26575.31
225.369	26540.21
225.442	26507.42
225.514	26478.89
225.587	26458.27
225.66	26440.65
225.733	26421.72
225.806	26397.82
225.879	26374.35
225.952	26350.02
226.025	26336.84
226.097	26325.78
226.17	26301.88
226.243	26253.13
226.316	26227.01
226.389	26195.77
226.461	26166.51
226.534	26148.36
226.607	26110.18
226.68	26111.67
226.753	26084.59
226.825	26035.83
226.898	26019.37
226.971	25998.42
227.044	25974.23
227.117	25948.41
227.189	25930.31
227.262	25905.44
227.335	25877.5
227.407	25836.66
227.48	25811.32
227.553	25788.1
227.626	25757.06
227.698	25725.06
227.771	25712.13
227.844	25678.87
227.916	25650.98
227.989	25609.52
228.062	25569.6
228.134	25566.18
228.207	25526.94
228.28	25496.29
228.352	25466.9
228.425	25423.18
228.498	25399.15
228.57	25358.9
228.643	25339.6
228.716	25303.79
228.788	25261.7
228.861	25222.23
228.934	25209.06
229.006	25181.8
229.079	25132.14
229.151	25090.73
229.224	25044.85
229.296	25006.88
229.369	24999.83
229.442	24980.34
229.514	24946.81
229.587	24920.51
229.659	24874.33
229.732	24855.76
229.804	24836.07
229.877	24822.7
229.949	24821.79
230.022	24805.04
230.094	24780.54
230.167	24746.71
230.239	24704.5
230.312	24678.83
230.384	24671.74
230.457	24640.33
230.529	24603.48
230.602	24579.65
230.674	24549.01
230.747	24539.37
230.819	24521.86
230.892	24461.17
230.964	24432.56
231.037	24403.91
231.109	24370.1
231.181	24340.14
231.254	24289.15
231.326	24250.56
231.399	24208.5
231.471	24159.35
231.544	24109.9
231.616	24075.17
231.688	24034.9
231.761	23987.78
231.833	23942.92
231.905	23895.9
231.978	23865.41
232.05	23826.93
232.122	23796.88
232.195	23757.33
232.267	23725.84
232.339	23676.99
232.412	23658.27
232.484	23611.88
232.556	23573.49
232.629	23559.41
232.701	23527.1
232.773	23502.36
232.846	23445.89
232.918	23406.64
232.99	23371.87
233.062	23335.75
233.135	23298.62
233.207	23253.05
233.279	23225.67
233.351	23187.67
233.424	23135.45
233.496	23077.16
233.568	23061.29
233.64	23006.42
233.713	22964.81
233.785	22919.97
233.857	22897.45
233.929	22844.08
234.001	22823.73
234.074	22801.7
234.146	22741.91
234.218	22697.02
234.29	22657.58
234.362	22618.01
234.434	22571.82
234.507	22515.9
234.579	22461.37
234.651	22414.61
234.723	22372.76
234.795	22346.44
234.867	22308.41
234.939	22291.15
235.012	22262.51
235.084	22219.66
235.156	22192.13
235.228	22145.32
235.3	22098.32
235.372	22050.89
235.444	22012.13
235.516	21947.44
235.588	21898.9
235.66	21846.31
235.732	21794.59
235.804	21799.45
235.876	21775.26
235.948	21745.18
236.02	21712.64
236.092	21672.01
236.164	21638.27
236.236	21606.31
236.308	21545.15
236.38	21510.25
236.452	21449.67
236.524	21410.29
236.596	21385.66
236.668	21344.01
236.74	21319
236.812	21280.34
236.884	21246.46
236.956	21208.82
237.028	21155.32
237.1	21108.91
237.172	21090.3
237.244	21073.19
237.316	20986.87
237.388	20930.77
237.46	20878.67
237.532	20847.53
237.604	20799.63
237.675	20772.59
237.747	20739.72
237.819	20695.14
237.891	20648.83
237.963	20601.46
238.035	20545.6
238.107	20462.9
238.178	20433.94
238.25	20372.1
238.322	20345.55
238.394	20289.02
238.466	20238.27
238.538	20203.33
238.609	20168.2
238.681	20101.84
238.753	20053.02
238.825	20016.83
238.897	19982.95
238.968	19957.22
239.04	19902.67
239.112	19882.67
239.184	19823.58
239.255	19773.75
239.327	19740.31
239.399	19700.26
239.471	19667.01
239.542	19640.56
239.614	19620.99
239.686	19552.75
239.758	19525.58
239.829	19469.91
239.901	19435.12
239.973	19399.32
240.044	19366.79
240.116	19322.69
240.188	19281.93
240.259	19235.13
240.331	19182.46
240.403	19148.83
240.474	19090.66
240.546	19046.62
240.618	18986.43
240.689	18941.51
240.761	18898.14
240.833	18869.37
240.904	18822.2
240.976	18774.25
241.048	18739.89
241.119	18704.37
241.191	18674.01
241.262	18650.4
241.334	18610.3
241.405	18570.89
241.477	18524.24
241.549	18475.61
241.62	18434.46
241.692	18402.61
241.763	18364.1
241.835	18327.48
241.906	18286.18
241.978	18236.01
242.049	18207.96
242.121	18180.69
242.192	18158.09
242.264	18104.11
242.335	18040.98
242.407	18009.85
242.478	17974.09
242.55	17923.11
242.621	17877.57
242.693	17825.95
242.764	17776.94
242.836	17735.59
242.907	17696.99
242.979	17661.14
243.05	17631.4
243.122	17594.58
243.193	17550.3
243.264	17492.03
243.336	17444.66
243.407	17413.77
243.479	17396.9
243.55	17358.87
243.622	17324.75
243.693	17275.6
243.764	17256.37
243.836	17206
243.907	17166.1
243.978	17118.77
244.05	17095.35
244.121	17031.69
244.192	17009.61
244.264	16953.37
244.335	16914.24
244.407	16862.28
244.478	16829.17
244.549	16783.48
244.62	16731.05
244.692	16691.48
244.763	16666.03
244.834	16624.82
244.906	16575.57
244.977	16536.43
245.048	16516.72
245.119	16470.11
245.191	16422.49
245.262	16367.36
245.333	16356.27
245.405	16322.82
245.476	16300.36
245.547	16255.64
245.618	16230.57
245.689	16197.27
245.761	16170.42
245.832	16138.32
245.903	16111.48
245.974	16084.05
246.045	16036.14
246.117	16015.46
246.188	15964.18
246.259	15920.32
246.33	15892.89
246.401	15854.57
246.473	15802.66
246.544	15754.8
246.615	15729.5
246.686	15694.02
246.757	15670.79
246.828	15627.21
246.899	15605.48
246.97	15560.6
247.042	15514.71
247.113	15490.13
247.184	15477.26
247.255	15427.86
247.326	15393.44
247.397	15355.51
247.468	15315.11
247.539	15296.65
247.61	15256.02
247.681	15230.42
247.752	15212.73
247.823	15164.86
247.894	15135.99
247.965	15091.4
248.037	15056.41
248.108	15007.96
248.179	14976.44
248.25	14941.25
248.321	14912.47
248.392	14863.98
248.463	14847.3
248.534	14818.19
248.605	14791.14
248.675	14751.19
248.746	14727.81
248.817	14700.72
248.888	14683.65
248.959	14631.83
249.03	14601.65
249.101	14568.06
249.172	14542.65
249.243	14487.26
249.314	14476.56
249.385	14445.28
249.456	14437.52
249.527	14400.21
249.598	14375.04
249.669	14345.88
249.739	14314.98
249.81	14292.56
249.881	14248.6
249.952	14215.48
250.023	14176.87
250.094	14142.21
250.165	14101.04
250.235	14071.15
250.306	14038.47
250.377	13987.32
250.448	13976.43
250.519	13930.15
250.59	13919.79
250.66	13889.32
250.731	13879
250.802	13857.12
250.873	13831.33
250.944	13796.52
251.014	13756.56
251.085	13751.93
251.156	13730.14
251.227	13729.03
251.297	13714.86
251.368	13703.39
251.439	13690.28
251.51	13688.78
251.58	13646.89
251.651	13607.31
251.722	13597.86
251.792	13552.55
251.863	13530.52
251.934	13512.63
252.005	13510.66
252.075	13479.32
252.146	13464.77
252.217	13446.69
252.287	13422.05
252.358	13398.77
252.429	13391.11
252.499	13367.97
252.57	13348.35
252.641	13328.34
252.711	13291.9
252.782	13253.43
252.852	13242.1
252.923	13215.92
252.994	13191
253.064	13177.84
253.135	13149.93
253.205	13113.48
253.276	13112.33
253.347	13101.67
253.417	13069.52
253.488	13043.2
253.558	13020.74
253.629	12993.89
253.699	12981.54
253.77	12960.82
253.841	12930.25
253.911	12906.78
253.982	12885.23
254.052	12861.7
254.123	12847.05
254.193	12820.2
254.264	12830.08
254.334	12800.87
254.405	12761.29
254.475	12726.01
254.546	12699.01
254.616	12701.04
254.687	12682.38
254.757	12663.15
254.827	12640.54
254.898	12623.57
254.968	12606.07
255.039	12578.93
255.109	12569.2
255.18	12533.52
255.25	12494.53
255.321	12489.9
255.391	12458.08
255.461	12458.47
255.532	12404.34
255.602	12370.93
255.673	12336.08
255.743	12299.2
255.813	12252.64
255.884	12239.53
255.954	12225.41
256.024	12219.86
256.095	12201.5
256.165	12166.74
256.235	12154.11
256.306	12122.69
256.376	12113.34
256.446	12101.53
256.517	12080.41
256.587	12063.3
256.657	12043.1
256.728	12026.33
256.798	11998.9
256.868	11973.6
256.938	11947.71
257.009	11950.8
257.079	11944.1
257.149	11949.88
257.219	11914.12
257.29	11901.25
257.36	11867.17
257.43	11857.24
257.5	11818.4
257.571	11784.27
257.641	11781.76
257.711	11746.34
257.781	11738.77
257.852	11722.09
257.922	11678.66
257.992	11657.02
258.062	11641.79
258.132	11624.3
258.202	11597.64
258.273	11578.8
258.343	11581.02
258.413	11549.78
258.483	11524.82
258.553	11495.85
258.623	11464.52
258.693	11456.91
258.764	11453.73
258.834	11455.32
258.904	11433.14
258.974	11407.46
259.044	11391.99
259.114	11372.85
259.184	11354.06
259.254	11333.19
259.324	11291.45
259.394	11283.21
259.464	11283.12
259.535	11254.39
259.605	11235.02
259.675	11213.86
259.745	11202.3
259.815	11173.28
259.885	11144.95
259.955	11155.5
260.025	11127.02
260.095	11108.81
260.165	11090.69
260.235	11095.7
260.305	11066.25
260.375	11033.87
260.445	11044.08
260.515	11038.25
260.585	11028.76
260.655	11019.51
260.725	11010.88
260.795	11004.04
260.865	11003.41
260.934	10982.64
261.004	10975.08
261.074	10961.92
261.144	10967.8
261.214	10955.85
261.284	10936.48
261.354	10937.01
261.424	10908.38
261.494	10906.79
261.564	10887.32
261.634	10877.97
261.703	10837.3
261.773	10825.69
261.843	10824.1
261.913	10807.04
261.983	10775.28
262.053	10767.09
262.123	10747.48
262.192	10716.84
262.262	10705.75
262.332	10679.78
262.402	10667.64
262.472	10652.84
262.541	10611.99
262.611	10595.03
262.681	10568.14
262.751	10564.24
262.821	10547.23
262.89	10519.09
262.96	10516.44
263.03	10528.53
263.1	10516.39
263.169	10501.07
263.239	10496.78
263.309	10502.9
263.379	10492.21
263.448	10478.86
263.518	10462.62
263.588	10446.53
263.657	10452.22
263.727	10456.26
263.797	10430.68
263.867	10415.41
263.936	10385.87
264.006	10394.21
264.076	10376.58
264.145	10366.17
264.215	10335.87
264.285	10329.17
264.354	10301.32
264.424	10279.74
264.494	10237.54
264.563	10215.09
264.633	10221.4
264.702	10211.18
264.772	10173.07
264.842	10154.86
264.911	10143.2
264.981	10119.12
265.05	10107.12
265.12	10085.78
265.19	10071.09
265.259	10073.01
265.329	10062.37
265.398	10053.45
265.468	10060.68
265.537	10040.98
265.607	10032.65
265.676	10033.56
265.746	10025.13
265.815	10020.07
265.885	9993.2
265.955	9976.92
266.024	9955.53
266.094	9919.16
266.163	9915.74
266.232	9915.4
266.302	9902.21
266.371	9892.09
266.441	9876.97
266.51	9869.07
266.58	9852.26
266.649	9820.95
266.719	9822.35
266.788	9815.75
266.858	9820.32
266.927	9788.43
266.996	9783.91
267.066	9775.77
267.135	9748.31
267.205	9744.51
267.274	9735.6
267.343	9743.16
267.413	9732.23
267.482	9735.98
267.552	9740.32
267.621	9706.56
267.69	9677.61
267.76	9666.34
267.829	9660.85
267.898	9647.99
267.968	9626.42
268.037	9619.48
268.106	9616.11
268.176	9586.68
268.245	9569.54
268.314	9544.06
268.384	9543.1
268.453	9537.41
268.522	9526.62
268.592	9528.02
268.661	9505.58
268.73	9494.45
268.799	9473.99
268.869	9485.11
268.938	9458.72
269.007	9437.1
269.076	9429.64
269.146	9431.85
269.215	9422.32
269.284	9426.8
269.353	9415.82
269.422	9407.1
269.492	9391.36
269.561	9363.33
269.63	9356.16
269.699	9343.25
269.768	9337.91
269.838	9325.87
269.907	9320.67
269.976	9289.95
270.045	9261.59
270.114	9262.02
270.183	9246.04
270.253	9242.72
270.322	9209.78
270.391	9201.65
270.46	9206.32
270.529	9208.77
270.598	9201.89
270.667	9190.76
270.736	9167.22
270.806	9157.15
270.875	9155.37
270.944	9146.9
271.013	9166.59
271.082	9160.67
271.151	9158.26
271.22	9133.04
271.289	9118.79
271.358	9105.3
271.427	9104.1
271.496	9091.3
271.565	9067.8
271.634	9067.71
271.703	9092.75
271.772	9095.64
271.841	9087.31
271.91	9067.52
271.979	9050.33
272.048	9027.51
272.117	9028.33
272.186	9015.57
272.255	9017.93
272.324	9016.87
272.393	9017.4
272.462	8999.73
272.531	8994.63
272.6	8975.27
272.669	8977.3
272.738	8970.8
272.807	8968.29
272.876	8951.54
272.945	8983.7
273.013	8987.41
273.082	8990.68
273.151	8944.7
273.22	8946.53
273.289	8936.18
273.358	8943.06
273.427	8935.03
273.496	8935.55
273.564	8928.29
273.633	8930.74
273.702	8908.65
273.771	8893.58
273.84	8885.06
273.909	8884.48
273.977	8878.75
274.046	8871.68
274.115	8881.88
274.184	8864.8
274.253	8855.7
274.322	8863.49
274.39	8828.6
274.459	8806.07
274.528	8771.37
274.597	8766.51
274.665	8757.07
274.734	8757.46
274.803	8745.04
274.872	8742.44
274.94	8727.04
275.009	8783.24
275.078	8762.73
275.147	8765.19
275.215	8763.41
275.284	8765.96
275.353	8759.55
275.421	8736.55
275.49	8748.78
275.559	8731.54
275.627	8727.89
275.696	8714.51
275.765	8713.88
275.833	8712.24
275.902	8724.03
275.971	8741.94
276.039	8754.45
276.108	8758.21
276.177	8765.23
276.245	8756.52
276.314	8753.2
276.383	8754.88
276.451	8688.1
276.52	8695.03
276.588	8702.97
276.657	8706.58
276.725	8701.14
276.794	8692.33
276.863	8702.63
276.931	8684.43
277	8697.19
277.068	8702
277.137	8720.92
277.205	8719.81
277.274	8732.76
277.342	8743.3
277.411	8719.14
277.48	8703.16
277.548	8693.34
277.617	8688.1
277.685	8685.31
277.754	8688.82
277.822	8685.21
277.89	8700.37
277.959	8691.71
278.027	8679.87
278.096	8672.22
278.164	8693.83
278.233	8687.72
278.301	8678.14
278.37	8678.67
278.438	8661.15
278.507	8666.64
278.575	8643.54
278.643	8639.4
278.712	8620.34
278.78	8602.48
278.849	8622.98
278.917	8640.79
278.985	8632.51
279.054	8636.36
279.122	8639.4
279.191	8630.64
279.259	8628.57
279.327	8606.91
279.396	8622.31
279.464	8617.93
279.532	8624.86
279.601	8622.26
279.669	8615.96
279.737	8626.35
279.806	8632.9
279.874	8642.18
279.942	8637.56
280.011	8626.4
280.079	8634.58
280.147	8650.32
280.215	8657.06
280.284	8644.98
280.352	8627.6
280.42	8636.02
280.488	8629.62
280.557	8627.84
280.625	8636.75
280.693	8636.31
280.761	8639.68
280.83	8622.69
280.898	8629.05
280.966	8610.9
281.034	8576.63
281.102	8566.67
281.171	8560.37
281.239	8566.1
281.307	8558.49
281.375	8548.19
281.443	8578.61
281.512	8572.21
281.58	8578.03
281.648	8557.05
281.716	8558.11
281.784	8554.69
281.852	8550.94
281.92	8544.44
281.989	8552.43
282.057	8530.78
282.125	8575.83
282.193	8569.05
282.261	8569.33
282.329	8571.84
282.397	8569.67
282.465	8570.59
282.533	8586.66
282.601	8580.69
282.67	8559.9
282.738	8554.12
282.806	8566.68
282.874	8556.96
282.942	8566.97
283.01	8566.35
283.078	8574
283.146	8576.21
283.214	8583.48
283.282	8585.21
283.35	8601.62
283.418	8599.41
283.486	8607.97
283.554	8568.5
283.622	8570.42
283.69	8570.23
283.758	8561.18
283.826	8571.82
283.894	8586.93
283.962	8609.75
284.03	8620.09
284.098	8621.1
284.165	8612.06
284.233	8615.04
284.301	8606.81
284.369	8591.6
284.437	8583.08
284.505	8582.22
284.573	8589.39
284.641	8580.05
284.709	8587.08
284.777	8568.07
284.845	8571.44
284.912	8575.86
284.98	8577.74
285.048	8571.68
285.116	8580.24
285.184	8595.16
285.252	8594.35
285.319	8576.97
285.387	8562.34
285.455	8547.95
285.523	8555.65
285.591	8560.61
285.659	8559.21
285.726	8566.77
285.794	8552.14
285.862	8551.22
285.93	8549.78
285.997	8548.19
286.065	8549.01
286.133	8537.8
286.201	8536.64
286.269	8529.18
286.336	8521.72
286.404	8518.26
286.472	8531.11
286.539	8507.48
286.607	8491.89
286.675	8490.59
286.743	8504.83
286.81	8503.92
286.878	8516.82
286.946	8509.55
287.013	8506.13
287.081	8507.24
287.149	8495.11
287.216	8517.63
287.284	8507.14
287.352	8506.04
287.419	8503.97
287.487	8515.32
287.555	8523.55
287.622	8522.21
287.69	8523.55
287.758	8537.94
287.825	8539.63
287.893	8530.39
287.96	8542.41
288.028	8556.76
288.096	8559.88
288.163	8559.02
288.231	8541.16
288.298	8537.8
288.366	8548.72
288.433	8546.07
288.501	8536.88
288.569	8542.13
288.636	8536.88
288.704	8550.55
288.771	8566.19
288.839	8558.54
288.906	8553.39
288.974	8560.22
289.041	8556.71
289.109	8545.93
289.176	8550.65
289.244	8548
289.311	8557.39
289.379	8568.79
289.446	8567.01
289.514	8569.51
289.581	8572.01
289.649	8584.77
289.716	8589.34
289.783	8583.66
289.851	8605.46
289.918	8605.31
289.986	8614.7
290.053	8621.53
290.121	8619.17
290.188	8615.9
290.255	8641.36
290.323	8636.74
290.39	8626.44
290.458	8643.09
290.525	8655.8
290.592	8652.14
290.66	8652.38
290.727	8647.42
290.794	8660.37
290.862	8665.04
290.929	8666.34
290.996	8667.11
291.064	8671.97
291.131	8681.16
291.198	8695.99
291.266	8696.03
291.333	8699.26
291.4	8702.15
291.468	8718.32
291.535	8717.12
291.602	8725.11
291.669	8724.29
291.737	8728.76
291.804	8733.53
291.871	8741.95
291.938	8753.22
292.006	8784.56
292.073	8799.28
292.14	8814.01
292.207	8813.05
292.275	8807.42
292.342	8819.02
292.409	8844.34
292.476	8872.69
292.543	8869.23
292.611	8869.23
292.678	8885.59
292.745	8908.94
292.812	8924.01
292.879	8916.21
292.946	8924.58
293.014	8938.4
293.081	8945.67
293.148	8960.64
293.215	8977.63
293.282	8976.43
293.349	8980.66
293.416	8955.63
293.484	8977.53
293.551	8983.65
293.618	8997.08
293.685	9030.34
293.752	9020.48
293.819	9011.95
293.886	9000.11
293.953	9008.58
294.02	9024.61
294.087	9033.23
294.154	9032.36
294.221	9049.7
294.288	9051.77
294.356	9071.94
294.423	9076.9
294.49	9074.01
294.557	9086.29
294.624	9075.45
294.691	9101.12
294.758	9108.72
294.825	9117
294.892	9105.25
294.959	9108.29
295.026	9114.88
295.093	9108.34
295.16	9116.13
295.226	9126.53
295.293	9150.9
295.36	9153.79
295.427	9165.58
295.494	9174.25
295.561	9182
295.628	9204.35
295.695	9221.73
295.762	9225.34
295.829	9230.78
295.896	9242.58
295.963	9251.63
296.03	9266.12
296.096	9269.92
296.163	9282.35
296.23	9297.13
296.297	9313.4
296.364	9314.99
296.431	9318.7
296.498	9310.71
296.564	9331.99
296.631	9332.85
296.698	9313.4
296.765	9331.98
296.832	9325.1
296.899	9319.37
296.965	9331.89
297.032	9303.23
297.099	9324.37
297.166	9326.59
297.233	9326.15
297.299	9318.31
297.366	9322.4
297.433	9325.58
297.5	9329.72
297.566	9331.5
297.633	9334.05
297.7	9337.47
297.767	9338.58
297.833	9340.75
297.9	9347.92
297.967	9334.87
298.033	9345.76
298.1	9379.8
298.167	9381.78
298.234	9384.81
298.3	9389.1
298.367	9391.46
298.434	9404.6
298.5	9393.24
298.567	9398.2
298.634	9402.05
298.7	9419.91
298.767	9423.23
298.834	9439.17
298.9	9432.05
298.967	9420.49
299.033	9431.18
299.1	9446.64
299.167	9463.25
299.233	9460.46
299.3	9471.73
299.366	9493.78
299.433	9509
299.5	9484.29
299.566	9485.59
299.633	9503.65
299.699	9517.67
299.766	9511.55
299.832	9514.78
299.899	9527.4
299.965	9535.34
300.032	9534.09
300.099	9548.11
300.165	9551.81
300.232	9548.44
300.298	9551.28
300.365	9574.11
300.431	9573.77
300.498	9565.92
300.564	9573.29
300.631	9595.01
300.697	9613.79
300.763	9617.6
300.83	9615.58
300.896	9627.33
300.963	9644.9
301.029	9645.77
301.096	9647.99
301.162	9662.72
301.229	9657.62
301.295	9641
301.361	9644.52
301.428	9648.13
301.494	9632.53
301.561	9636.04
301.627	9641.15
301.693	9651.65
301.76	9646.16
301.826	9646.35
301.892	9658.49
301.959	9666.67
302.025	9657.86
302.092	9653.09
302.158	9654.49
302.224	9656.27
302.291	9652.46
302.357	9641.82
302.423	9635.22
302.49	9630.65
302.556	9643.94
302.622	9644.18
302.688	9658.48
302.755	9676.98
302.821	9687.05
302.887	9695.52
302.954	9693.84
303.02	9701.16
303.086	9705.44
303.152	9703.95
303.219	9703.76
303.285	9710.12
303.351	9710.93
303.417	9717.53
303.483	9704.96
303.55	9699.38
303.616	9701.45
303.682	9699.38
303.748	9690.61
303.815	9707.28
303.881	9717.01
303.947	9701.21
304.013	9702.94
304.079	9692.83
304.145	9667.93
304.212	9662.82
304.278	9656.03
304.344	9658.92
304.41	9641.73
304.476	9631.76
304.542	9634.7
304.608	9638.12
304.674	9625.26
304.741	9625.64
304.807	9624.29
304.873	9636.04
304.939	9656.66
305.005	9633.93
305.071	9633.93
305.137	9639.42
305.203	9614.42
305.269	9615.05
305.335	9623.76
305.401	9627.04
305.467	9621.11
305.533	9628.77
305.599	9637.63
305.666	9652.42
305.732	9647.41
305.798	9666.19
305.864	9693.07
305.93	9698.61
305.996	9696.54
306.062	9689.79
306.128	9688.35
306.194	9676.69
306.259	9673.27
306.325	9658.2
306.391	9672.21
306.457	9683.34
306.523	9680.35
306.589	9706.89
306.655	9692.73
306.721	9680.59
306.787	9668.22
306.853	9697.21
306.919	9682.33
306.985	9681.66
307.051	9669.95
307.117	9665.71
307.183	9658.97
307.248	9629.4
307.314	9639.03
307.38	9638.94
307.446	9644.67
307.512	9629.16
307.578	9632.43
307.644	9625.55
307.709	9626.46
307.775	9621.89
307.841	9614.32
307.907	9620.3
307.973	9601.03
308.039	9600.55
308.104	9603.05
308.17	9605.94
308.236	9588.51
308.302	9597.61
308.368	9581.43
308.433	9584.51
308.499	9577.19
308.565	9560.57
308.631	9564.23
308.696	9536.3
308.762	9526.43
308.828	9526.09
308.894	9509.82
308.959	9490.7
309.025	9481.21
309.091	9479.72
309.156	9469.75
309.222	9472.93
309.288	9462.14
309.354	9443.75
309.419	9443.75
309.485	9430.65
309.551	9433.97
309.616	9415.77
309.682	9409.7
309.748	9405.32
309.813	9397.47
309.879	9393.81
309.945	9381.92
310.01	9369.78
310.076	9368.72
310.141	9366.65
310.207	9351.68
310.273	9354.47
310.338	9361.45
310.404	9354.9
310.469	9343.59
310.535	9342.24
310.601	9320.42
310.666	9322.59
310.732	9328.37
310.797	9317.82
310.863	9309.01
310.928	9296.97
310.994	9303.09
311.059	9296.78
311.125	9289.27
311.191	9301.89
311.256	9294.81
311.322	9305.88
311.387	9290.91
311.453	9573.09
311.518	9541.22
311.584	9542.47
311.649	9544.2
311.715	9533.27
311.78	9534.04
311.846	9519.74
311.911	9519.07
311.976	9521.43
312.042	9501.64
312.107	9487.68
312.173	9483.01
312.238	9476.31
312.304	9477.37
312.369	9466.78
312.434	9459.94
312.5	9454.31
312.565	9418.05
312.631	9423.88
312.696	9415.89
312.761	9417.91
312.827	9127.5
312.892	9165.67
312.958	9160.57
313.023	9159.13
313.088	9157.83
313.154	9140.49
313.219	9134.53
313.284	9118.44
313.35	9122.15
313.415	9117.05
313.48	9113.58
313.546	9111.75
313.611	9126.58
313.676	9115.94
313.741	9107.08
313.807	9114.16
313.872	9117.77
313.937	9125.96
314.003	9130.19
314.068	9127.11
314.133	9139.63
314.198	9130.96
314.264	9114.01
314.329	9107.51
314.394	9109.68
314.459	9103.61
314.525	9122.53
314.59	9119.74
314.655	9113.39
314.72	9105.35
314.785	9112.09
314.851	9104.91
314.916	9091
314.981	9070.2
315.046	9065.68
315.111	9057.83
315.176	9043.53
315.242	9048.97
315.307	9048.2
315.372	9031.69
315.437	9023.94
315.502	9003.43
315.567	9016.28
315.632	8999
315.698	8996.69
315.763	8986.48
315.828	8983.02
315.893	8981.77
315.958	8979.12
316.023	8970.6
316.088	8958.23
316.153	8934.74
316.218	8924.53
316.283	8899.46
316.348	8883.48
316.413	8875.34
316.479	8857.63
316.544	8825.72
316.609	8795.3
316.674	8756.56
316.739	8715.22
316.804	8690.53
316.869	8661.8
316.934	8617.76
316.999	8595.04
317.064	8545.48
317.129	8500.91
317.194	8459.87
317.259	8410.54
317.324	8358.38
317.389	8318.54
317.454	8274.47
317.518	8240.84
317.583	8219.77
317.648	8203.02
317.713	8171.56
317.778	8107.72
317.843	8077.71
317.908	8037.21
317.973	7995.89
318.038	7967.65
318.103	7933.32
318.168	7896.24
318.233	7865.84
318.297	7814.34
318.362	7773.65
318.427	7729.7
318.492	7704.07
318.557	7655.71
318.622	7624.5
318.687	7599.35
318.751	7558.69
318.816	7527.63
318.881	7492.15
318.946	7434.17
319.011	7384.66
319.075	7340.24
319.14	7309.87
319.205	7264.59
319.27	7235.42
319.335	7190.59
319.399	7151.75
319.464	7126.04
319.529	7069.35
319.594	7030.33
319.658	7002.8
319.723	6959.51
319.788	6932.37
319.853	6877.55
319.917	6855.03
319.982	6801.65
320.047	6766.92
320.112	6734.8
320.176	6679.81
320.241	6648.63
320.306	6616.32
320.37	6574.02
320.435	6544.34
320.5	6514.52
320.564	6476.84
320.629	6432.05
320.694	6402.19
320.758	6359.75
320.823	6314.19
320.888	6290.49
320.952	6239.13
321.017	6196.52
321.082	6158.56
321.146	6122.42
321.211	6090.8
321.275	6046.95
321.34	6000.56
321.405	5952.25
321.469	5911.14
321.534	5869.86
321.598	5815.22
321.663	5787.11
321.727	5762.89
321.792	5711.48
321.857	5670.28
321.921	5627.95
321.986	5585.19
322.05	5527.57
322.115	5493
322.179	5449.43
322.244	5395.33
322.308	5364.46
322.373	5319.8
322.437	5277.53
322.502	5251.22
322.566	5205.03
322.631	5165.31
322.695	5126.8
322.76	5082.46
322.824	5044.23
322.889	5005.74
322.953	4960.26
323.018	4892.78
323.082	4824.42
323.146	4773.87
323.211	4714.04
323.275	4670.77
323.34	4626.98
323.404	4587.08
323.468	4540.89
323.533	4496.73
323.597	4447.85
323.662	4394.36
323.726	4359.15
323.79	4312.8
323.855	4248.3
323.919	4201.1
323.983	4156.15
324.048	4090.25
324.112	4215.38
324.177	4084.66
324.241	3871.49
324.305	3664.67
324.37	3461.54
324.434	3265.91
324.498	3220.87
324.562	3173.84
324.627	3113.43
324.691	3054.31
324.755	2990.05
324.82	2905.85
324.884	2822.88
324.948	2750.93
325.012	2650.59
325.077	2519.33
