Data from 20250704_urea_0.1M_MAYP1162681_11-18-31-697.txt Node
Date: Fri Jul 04 11:18:31 BST 2025
User: adleo
Spectrometer: MAYP116268
Trigger mode: 0
Integration Time (sec): 1.000000E0
Scans to average: 1
Electric dark correction enabled: true
Nonlinearity correction enabled: true
Boxcar width: 10
XAxis mode: Wavelengths
Number of Pixels in Spectrum: 2068
>>>>>Begin Spectral Data<<<<<
179.565	1238.08
179.642	1295.8
179.718	1342.88
179.795	1384.16
179.871	1419.6
179.948	1439.63
180.024	1460.66
180.101	1484
180.177	1499.06
180.254	1522.99
180.33	1544.6
180.407	1598.53
180.483	1696.4
180.56	1791.66
180.636	1879.73
180.712	1869.8
180.789	1882.35
180.865	1892.47
180.942	1901.88
181.018	1910.06
181.095	1923.04
181.171	1927.7
181.248	1930.07
181.324	1945.1
181.4	1951.19
181.477	1962.94
181.553	1974.54
181.63	1996.84
181.706	2013.87
181.782	2021.61
181.859	2021.28
181.935	2028.7
182.011	2027.51
182.088	2044.82
182.164	2062.33
182.24	2075.41
182.317	2085.73
182.393	2083.49
182.469	2096.95
182.546	2111.22
182.622	2114.17
182.698	2108.7
182.775	2121.11
182.851	2136.76
182.927	2128.3
183.003	2126.35
183.08	2118.98
183.156	2127.2
183.232	2121.4
183.308	2108.79
183.385	2117.4
183.461	2137.81
183.537	2141.33
183.613	2157.84
183.69	2148.75
183.766	2134.62
183.842	2143.76
183.918	2146.9
183.995	2162.26
184.071	2169.21
184.147	2162.83
184.223	2152.23
184.299	2166.12
184.375	2156.27
184.452	2160.23
184.528	2211.57
184.604	2220.7
184.68	2235.21
184.756	2245.01
184.832	2250.91
184.908	2256.38
184.985	2255.34
185.061	2233.55
185.137	2241.35
185.213	2226.51
185.289	2227.7
185.365	2224.65
185.441	2220.37
185.517	2235.12
185.593	2230.6
185.669	2229.41
185.745	2240.88
185.822	2256.72
185.898	2248.63
185.974	2258.28
186.05	2249.86
186.126	2212.84
186.202	2204.14
186.278	2198.81
186.354	2189.72
186.43	2197.05
186.506	2196.19
186.582	2196.48
186.658	2204.56
186.734	2183.58
186.81	2184.86
186.886	2187.77
186.962	2198.42
187.038	2195.33
187.114	2187.52
187.19	2190.85
187.266	2180.01
187.341	2180.67
187.417	2173.35
187.493	2174.35
187.569	2175.87
187.645	2170.83
187.721	2159.46
187.797	2168.64
187.873	2170.02
187.949	2164.02
188.025	2156.93
188.101	2156.93
188.176	2162.64
188.252	2158.88
188.328	2165.68
188.404	2167.77
188.48	2164.16
188.556	2159.07
188.632	2159.69
188.707	2160.16
188.783	2159.45
188.859	2152.17
188.935	2139.47
189.011	2149.46
189.086	2142.94
189.162	2134.47
189.238	2133.48
189.314	2131.53
189.39	2125.63
189.465	2119.2
189.541	2135.57
189.617	2120.97
189.693	2116.4
189.768	2117.45
189.844	2144.24
189.92	2136.87
189.996	2146.06
190.071	2157.19
190.147	2156.76
190.223	2165.42
190.298	2158.09
190.374	2146.06
190.45	2161.56
190.526	2170.6
190.601	2163.85
190.677	2165.84
190.753	2192.74
190.828	2194.97
190.904	2211.15
190.98	2226.09
191.055	2236.94
191.131	2225.09
191.207	2247.84
191.282	2260.35
191.358	2251.74
191.433	2236.22
191.509	2249.34
191.585	2244.2
191.66	2245.11
191.736	2251.91
191.811	2243.2
191.887	2260.39
191.963	2285.89
192.038	2290.56
192.114	2289.75
192.189	2297.74
192.265	2295.51
192.34	2274.46
192.416	2274.84
192.491	2271.13
192.567	2273.32
192.642	2274.32
192.718	2274.8
192.793	2259.71
192.869	2256.28
192.944	2261.47
193.02	2267.23
193.095	2268.51
193.171	2272.7
193.246	2271.08
193.322	2267.27
193.397	2266.8
193.473	2248.52
193.548	2227.39
193.624	2229.67
193.699	2229.53
193.775	2239.43
193.85	2238.96
193.925	2249.33
194.001	2248.29
194.076	2240.77
194.152	2231.34
194.227	2223.82
194.302	2219.54
194.378	2225.3
194.453	2217.79
194.529	2228.16
194.604	2215.12
194.679	2211.41
194.755	2196.95
194.83	2210.23
194.905	2210.09
194.981	2220.46
195.056	2217.13
195.131	2224.27
195.207	2226.27
195.282	2219.42
195.357	2203.52
195.433	2220.03
195.508	2205.61
195.583	2211.8
195.659	2229.55
195.734	2237.64
195.809	2240.31
195.884	2246.73
195.96	2245.54
196.035	2263.57
196.11	2259.15
196.185	2272.56
196.261	2276.23
196.336	2308.88
196.411	2294.74
196.486	2300.97
196.561	2295.31
196.637	2303.73
196.712	2319.34
196.787	2321.39
196.862	2334.29
196.937	2346.18
197.013	2351.32
197.088	2359.56
197.163	2385.56
197.238	2399.47
197.313	2398.94
197.388	2412.37
197.464	2444.27
197.539	2455.03
197.614	2450.51
197.689	2465.94
197.764	2481.7
197.839	2504.08
197.914	2495.22
197.989	2516.17
198.065	2531.55
198.14	2584.26
198.215	2611.35
198.29	2624.88
198.365	2637.55
198.44	2649.84
198.515	2675.76
198.59	2690.76
198.665	2719.72
198.74	2728.01
198.815	2728.2
198.89	2752.93
198.965	2783.62
199.04	2778.05
199.115	2792.95
199.19	2836.17
199.265	2836.69
199.34	2847.37
199.415	2881.56
199.49	2904.62
199.565	2915.15
199.64	2937.17
199.715	2931.83
199.79	2938.69
199.865	2944.18
199.94	2944.32
200.015	2976.21
200.09	2983.46
200.165	2993.57
200.24	3003.1
200.315	3040.57
200.39	3059.07
200.464	3062.31
200.539	3065.7
200.614	3082.67
200.689	3110.85
200.764	3116.29
200.839	3137.12
200.914	3143.79
200.989	3130.53
201.063	3143.59
201.138	3126.63
201.213	3126.96
201.288	3107.08
201.363	3115.28
201.438	3118.57
201.512	3131.97
201.587	3113.89
201.662	3119.9
201.737	3132.87
201.812	3142.7
201.886	3111.68
201.961	3122.89
202.036	3115.21
202.111	3114.59
202.186	3086.24
202.26	3070.93
202.335	3051.33
202.41	3045.94
202.485	3029.06
202.559	3014.62
202.634	2990.21
202.709	3002.64
202.784	2990.34
202.858	2994.3
202.933	2977.32
203.008	2977.61
203.082	2967.46
203.157	2974.47
203.232	2937.91
203.306	2925.8
203.381	2902.57
203.456	2890.13
203.53	2879.82
203.605	2870.96
203.68	2860.13
203.754	2873.47
203.829	2877.72
203.904	2879.34
203.978	2890.97
204.053	2920.06
204.127	2934.17
204.202	2963.54
204.277	2976.7
204.351	2997.54
204.426	3027.31
204.5	3056.21
204.575	3058.79
204.65	3110.8
204.724	3147.31
204.799	3202.44
204.873	3245.83
204.948	3296.7
205.022	3343.42
205.097	3392.04
205.171	3469.61
205.246	3542.07
205.32	3609.85
205.395	3678.27
205.469	3742.54
205.544	3823.36
205.618	3887.93
205.693	3980.04
205.767	4057.1
205.842	4168
205.916	4260.67
205.991	4352.77
206.065	4461.52
206.14	4582.67
206.214	4690.08
206.289	4800.23
206.363	4933.26
206.438	5060.23
206.512	5190.84
206.586	5338.19
206.661	5477.58
206.735	5593.96
206.81	5734.18
206.884	5890.91
206.958	6021.28
207.033	6184.56
207.107	6344.2
207.181	6529.58
207.256	6685.4
207.33	6862.18
207.405	7040.56
207.479	7223.28
207.553	7390.5
207.628	7543.65
207.702	7727.43
207.776	7891.25
207.851	8068.91
207.925	8259.23
207.999	8433.64
208.073	8612.44
208.148	8791.47
208.222	8958.25
208.296	9173.1
208.371	9372.69
208.445	9568.43
208.519	9783.99
208.593	9979.75
208.668	10168.38
208.742	10361.72
208.816	10542.12
208.89	10744.81
208.965	10929.27
209.039	11130.45
209.113	11339.1
209.187	11551.36
209.261	11731.69
209.336	11943.45
209.41	12148.92
209.484	12335.26
209.558	12547.29
209.632	12756.96
209.707	12962.59
209.781	13181.38
209.855	13383.88
209.929	13585.38
210.003	13773.13
210.077	13960.79
210.151	14194.58
210.226	14416.12
210.3	14623.44
210.374	14843
210.448	15030.32
210.522	15220.72
210.596	15407.02
210.67	15601.41
210.744	15828.38
210.818	16042.39
210.892	16235.43
210.966	16407.26
211.041	16605.4
211.115	16780.25
211.189	16974.24
211.263	17156.56
211.337	17319.32
211.411	17498.98
211.485	17662.26
211.559	17840.29
211.633	18004
211.707	18139.18
211.781	18303.37
211.855	18433.38
211.929	18586.15
212.003	18733.66
212.077	18903.49
212.151	19067.72
212.225	19227.29
212.299	19355.81
212.373	19490.31
212.447	19630.69
212.52	19804.76
212.594	19937.67
212.668	20087.7
212.742	20207.12
212.816	20338.3
212.89	20474.54
212.964	20607.9
213.038	20741.59
213.112	20892.16
213.186	21041.18
213.26	21146.92
213.333	21222.97
213.407	21349.15
213.481	21460.58
213.555	21581.8
213.629	21698.89
213.703	21808.75
213.777	21925.89
213.85	22030.97
213.924	22181.96
213.998	22293.08
214.072	22402.71
214.146	22504.05
214.219	22601.67
214.293	22707.64
214.367	22817.09
214.441	22934.97
214.515	23017.81
214.588	23099.2
214.662	23158.94
214.736	23230.35
214.81	23330.44
214.883	23438.93
214.957	23525.2
215.031	23603.12
215.105	23669.95
215.178	23723.82
215.252	23786.42
215.326	23838.94
215.4	23903.28
215.473	23925.75
215.547	23992.6
215.621	24054.25
215.694	24124.48
215.768	24173.25
215.842	24217.34
215.915	24261.14
215.989	24296.98
216.063	24358.48
216.136	24416.95
216.21	24471.27
216.284	24548.7
216.357	24611.7
216.431	24666.37
216.504	24722.43
216.578	24809.95
216.652	24878.7
216.725	24938.58
216.799	25001.74
216.873	25046.12
216.946	25094.86
217.02	25143.01
217.093	25184.22
217.167	25207.48
217.24	25245.45
217.314	25282.95
217.387	25329.61
217.461	25376.61
217.535	25434.04
217.608	25463.72
217.682	25506.33
217.755	25562.94
217.829	25591.08
217.902	25632.54
217.976	25667.49
218.049	25694.47
218.123	25711.56
218.196	25755.14
218.27	25784.83
218.343	25803.27
218.417	25842.75
218.49	25880.98
218.563	25937.79
218.637	25979.45
218.71	26031.2
218.784	26059.93
218.857	26111.82
218.931	26159.32
219.004	26195.43
219.077	26231.11
219.151	26268.24
219.224	26301.31
219.298	26329.36
219.371	26369
219.444	26388.8
219.518	26418.1
219.591	26451.17
219.665	26507.48
219.738	26522.35
219.811	26538.38
219.885	26569.62
219.958	26613.13
220.031	26632.15
220.105	26665.13
220.178	26686.33
220.251	26702.9
220.325	26735.78
220.398	26759.2
220.471	26774.12
220.544	26790.21
220.618	26792.14
220.691	26818.17
220.764	26831.93
220.838	26852.5
220.911	26863.56
220.984	26886.84
221.057	26911.76
221.131	26914.66
221.204	26891.43
221.277	26920.84
221.35	26965.27
221.424	26983.62
221.497	26985.6
221.57	26996.51
221.643	26994.15
221.716	27018.11
221.79	27015.06
221.863	27016.32
221.936	27019.22
222.009	27017.91
222.082	27022.36
222.155	27027.67
222.229	27041.92
222.302	27041.05
222.375	27032.79
222.448	27036.65
222.521	27041.34
222.594	27036.27
222.667	27047.42
222.74	27060.08
222.814	27067.03
222.887	27058.43
222.96	27062.2
223.033	27065.39
223.106	27060.32
223.179	27068.34
223.252	27047.37
223.325	27038.1
223.398	27038.15
223.471	27030.47
223.544	27020.71
223.617	27019.51
223.69	27015.6
223.763	26988.89
223.837	26983.09
223.91	26986.86
223.983	26944.75
224.056	26918.91
224.129	26895.68
224.202	26876.9
224.275	26854.05
224.348	26820.87
224.42	26787.6
224.493	26752.1
224.566	26732.64
224.639	26729.36
224.712	26698.45
224.785	26669.23
224.858	26651.61
224.931	26621.57
225.004	26581.5
225.077	26556.34
225.15	26508.64
225.223	26487
225.296	26493.04
225.369	26461.9
225.442	26419.89
225.514	26418.54
225.587	26404.68
225.66	26391.74
225.733	26372.43
225.806	26351.81
225.879	26331.34
225.952	26303.96
226.025	26294.02
226.097	26291.56
226.17	26259.69
226.243	26212.57
226.316	26198.38
226.389	26179.6
226.461	26166.71
226.534	26160.19
226.607	26144.6
226.68	26149.38
226.753	26113.75
226.825	26068.42
226.898	26044.04
226.971	26027.39
227.044	25995.86
227.117	25962.65
227.189	25938.27
227.262	25928.14
227.335	25903.47
227.407	25864.76
227.48	25840.43
227.553	25821.32
227.626	25768.5
227.698	25736.12
227.771	25715.51
227.844	25673.76
227.916	25649.63
227.989	25593.5
228.062	25550.55
228.134	25540.31
228.207	25507.98
228.28	25483.22
228.352	25443.59
228.425	25421.15
228.498	25398.52
228.57	25352.24
228.643	25337.43
228.716	25299.4
228.788	25246.75
228.861	25219.1
228.934	25198.73
229.006	25168.72
229.079	25133.87
229.151	25097.35
229.224	25055.47
229.296	25037.13
229.369	25042.82
229.442	25017.59
229.514	24994.62
229.587	24986.66
229.659	24937.54
229.732	24896.63
229.804	24876.46
229.877	24867.77
229.949	24850.79
230.022	24841.86
230.094	24820.88
230.167	24789.32
230.239	24753.04
230.312	24733.79
230.384	24722.16
230.457	24694.76
230.529	24663.84
230.602	24624.62
230.674	24598.08
230.747	24576.52
230.819	24546.85
230.892	24462.43
230.964	24431.6
231.037	24406.62
231.109	24363.06
231.181	24336.14
231.254	24291.87
231.326	24250.91
231.399	24217.14
231.471	24178.79
231.544	24110.49
231.616	24081.35
231.688	24050.92
231.761	24008.76
231.833	23960.87
231.905	23895.9
231.978	23856.16
232.05	23820.61
232.122	23791.96
232.195	23749.38
232.267	23731.05
232.339	23681.91
232.412	23686.01
232.484	23640.96
232.556	23594.86
232.629	23585.12
232.701	23556.52
232.773	23532.46
232.846	23492.91
232.918	23451.29
232.99	23410.69
233.062	23390.58
233.135	23359.62
233.207	23298.38
233.279	23260
233.351	23241.24
233.424	23197.75
233.496	23143.7
233.568	23120.46
233.64	23057.73
233.713	23020.17
233.785	22964.87
233.857	22931.84
233.929	22870.65
234.001	22853.82
234.074	22830.15
234.146	22763.52
234.218	22714.87
234.29	22666.51
234.362	22618.98
234.434	22566.18
234.507	22509.68
234.579	22448.07
234.651	22405.3
234.723	22373.34
234.795	22341.53
234.867	22277.5
234.939	22255.91
235.012	22231.13
235.084	22196.8
235.156	22173.67
235.228	22127.44
235.3	22092.97
235.372	22055.47
235.444	22023.84
235.516	21954.52
235.588	21915.48
235.66	21873.3
235.732	21823.41
235.804	21836.71
235.876	21809.24
235.948	21776.8
236.02	21730.09
236.092	21681.99
236.164	21627.77
236.236	21587.66
236.308	21532.19
236.38	21498.06
236.452	21441.04
236.524	21399.78
236.596	21375.2
236.668	21340.35
236.74	21302.47
236.812	21261.6
236.884	21225.16
236.956	21178.98
237.028	21123.61
237.1	21074.4
237.172	21052.37
237.244	21031.07
237.316	20948.74
237.388	20897.9
237.46	20843.05
237.532	20816.64
237.604	20768.06
237.675	20751.48
237.747	20716.54
237.819	20678.04
237.891	20639.58
237.963	20593.84
238.035	20538.9
238.107	20449.21
238.178	20411.77
238.25	20367.28
238.322	20349.84
238.394	20285.12
238.466	20241.55
238.538	20211.09
238.609	20176.01
238.681	20108.93
238.753	20056.59
238.825	20012.73
238.897	19974.86
238.968	19954.86
239.04	19904.26
239.112	19894.23
239.184	19842.23
239.255	19792.74
239.327	19759.25
239.399	19721.23
239.471	19687.25
239.542	19657.23
239.614	19634.05
239.686	19560.47
239.758	19532.8
239.829	19469.1
239.901	19446.4
239.973	19403.12
240.044	19360.52
240.116	19313.54
240.188	19272.43
240.259	19228.39
240.331	19192.58
240.403	19148.39
240.474	19088.01
240.546	19039.15
240.618	18974.19
240.689	18930.57
240.761	18888.6
240.833	18856.22
240.904	18810.05
240.976	18762.34
241.048	18718.3
241.119	18685.34
241.191	18657.39
241.262	18626.98
241.334	18584.91
241.405	18540
241.477	18496.29
241.549	18461.45
241.62	18418.7
241.692	18386.17
241.763	18359.96
241.835	18310.18
241.906	18270.85
241.978	18211.24
242.049	18188.69
242.121	18163.72
242.192	18130.04
242.264	18085.41
242.335	18029.56
242.407	17989.51
242.478	17944.65
242.55	17906.43
242.621	17852.7
242.693	17813.76
242.764	17756.61
242.836	17707.64
242.907	17670.92
242.979	17632.41
243.05	17586.25
243.122	17555.07
243.193	17515.4
243.264	17448.22
243.336	17412.85
243.407	17381.77
243.479	17371.12
243.55	17331.36
243.622	17300.13
243.693	17261.19
243.764	17233
243.836	17184.27
243.907	17139.93
243.978	17103.11
244.05	17073.04
244.121	17016.94
244.192	16986.14
244.264	16937.32
244.335	16904.65
244.407	16853.08
244.478	16812.98
244.549	16774.37
244.62	16711.62
244.692	16665.88
244.763	16635.91
244.834	16596.77
244.906	16553.2
244.977	16512.28
245.048	16486.74
245.119	16430.35
245.191	16379.79
245.262	16319.55
245.333	16304.32
245.405	16276.7
245.476	16250.82
245.547	16209.03
245.618	16189.12
245.689	16153.22
245.761	16122.56
245.832	16081.74
245.903	16053.11
245.974	16026.6
246.045	15992.57
246.117	15984.42
246.188	15941.04
246.259	15898.97
246.33	15857.08
246.401	15821.03
246.473	15771.43
246.544	15726.56
246.615	15706.17
246.686	15666.64
246.757	15646.5
246.828	15608.61
246.899	15583.35
246.97	15535.15
247.042	15494.66
247.113	15465.98
247.184	15458.03
247.255	15423.62
247.326	15396.04
247.397	15363.51
247.468	15331.79
247.539	15303.93
247.61	15259.3
247.681	15234.52
247.752	15214.61
247.823	15169.06
247.894	15129.87
247.965	15087.74
248.037	15057.57
248.108	15011.15
248.179	14975.38
248.25	14941.44
248.321	14908.47
248.392	14867.69
248.463	14850.58
248.534	14823.1
248.605	14797.17
248.675	14750.56
248.746	14723.32
248.817	14700.19
248.888	14678.01
248.959	14625.47
249.03	14597.08
249.101	14564.63
249.172	14523.9
249.243	14472.85
249.314	14463.55
249.385	14443.74
249.456	14424.74
249.527	14384.2
249.598	14366.08
249.669	14345.93
249.739	14323.03
249.81	14295.36
249.881	14251.68
249.952	14230.81
250.023	14195.72
250.094	14156.24
250.165	14117.72
250.235	14086.44
250.306	14056.16
250.377	14004.39
250.448	13983.32
250.519	13937.14
250.59	13929.19
250.66	13898.09
250.731	13893.61
250.802	13863.67
250.873	13839.81
250.944	13812.09
251.014	13783.41
251.085	13778.64
251.156	13752.41
251.227	13737.66
251.297	13730.58
251.368	13716.64
251.439	13690.9
251.51	13671.23
251.58	13638.41
251.651	13606.01
251.722	13587.07
251.792	13549.18
251.863	13529.94
251.934	13524.98
252.005	13529.89
252.075	13494.12
252.146	13481.78
252.217	13468.33
252.287	13450.64
252.358	13419.89
252.429	13418.87
252.499	13390.33
252.57	13358.47
252.641	13338.75
252.711	13309.2
252.782	13269.67
252.852	13268.23
252.923	13246.68
252.994	13229.13
253.064	13208.31
253.135	13181.02
253.205	13156.39
253.276	13147.23
253.347	13145.35
253.417	13108.62
253.488	13075.06
253.558	13052.99
253.629	13033.37
253.699	13007.38
253.77	12994.42
253.841	12974.27
253.911	12951.61
253.982	12930.74
254.052	12916.66
254.123	12902.58
254.193	12884.02
254.264	12893.76
254.334	12848.45
254.405	12812.44
254.475	12774.36
254.546	12755.85
254.616	12752.62
254.687	12739.41
254.757	12721.48
254.827	12692.36
254.898	12675.78
254.968	12654.33
255.039	12616.15
255.109	12600.14
255.18	12566.16
255.25	12515.59
255.321	12493.56
255.391	12457.65
255.461	12463.97
255.532	12412.48
255.602	12382.6
255.673	12346.25
255.743	12310.92
255.813	12268.21
255.884	12260.02
255.954	12249.12
256.024	12245.51
256.095	12215.81
256.165	12173.35
256.235	12156.77
256.306	12127.75
256.376	12112.52
256.446	12100.08
256.517	12090.97
256.587	12075.3
256.657	12054.67
256.728	12039.92
256.798	12019.97
256.868	11993.51
256.938	11959.09
257.009	11951.62
257.079	11941.64
257.149	11938.07
257.219	11900.62
257.29	11898.02
257.36	11853.87
257.43	11845.82
257.5	11797.43
257.571	11775.21
257.641	11767.3
257.711	11734.09
257.781	11723.2
257.852	11714.67
257.922	11671.39
257.992	11649.74
258.062	11637.02
258.132	11627.81
258.202	11609.64
258.273	11599.43
258.343	11601.55
258.413	11569.45
258.483	11542.26
258.553	11508.72
258.623	11483.61
258.693	11463.85
258.764	11450.3
258.834	11451.65
258.904	11430.06
258.974	11403.07
259.044	11381.24
259.114	11369.72
259.184	11345.48
259.254	11326.3
259.324	11283.21
259.394	11272.08
259.464	11270.97
259.535	11243.6
259.605	11220.99
259.675	11193.77
259.745	11178.87
259.815	11140.51
259.885	11124.66
259.955	11143.36
260.025	11118.35
260.095	11096.52
260.165	11086.01
260.235	11088.42
260.305	11055.46
260.375	11026.3
260.445	11040.23
260.515	11038.2
260.585	11031.51
260.655	11024.18
260.725	11012.42
260.795	11001.24
260.865	11006.5
260.934	10985.24
261.004	10981.68
261.074	10966.45
261.144	10965.29
261.214	10950.06
261.284	10942.98
261.354	10940.76
261.424	10908.28
261.494	10910.69
261.564	10899.99
261.634	10890.26
261.703	10845.64
261.773	10844.96
261.843	10840.53
261.913	10821.74
261.983	10787.77
262.053	10776.59
262.123	10758.08
262.192	10733.51
262.262	10734.18
262.332	10702.24
262.402	10686.33
262.472	10669.95
262.541	10630.15
262.611	10625
262.681	10605.34
262.751	10590.11
262.821	10563.52
262.89	10530.56
262.96	10518.08
263.03	10521.74
263.1	10506.23
263.169	10502.52
263.239	10491.58
263.309	10489.7
263.379	10478.43
263.448	10468.5
263.518	10453.95
263.588	10434.97
263.657	10435.02
263.727	10424.51
263.797	10412.61
263.867	10392.86
263.936	10356.58
264.006	10365.93
264.076	10350.51
264.145	10327.53
264.215	10309.7
264.285	10306.81
264.354	10281.43
264.424	10256.18
264.494	10223.08
264.563	10206.17
264.633	10213.83
264.702	10199.43
264.772	10170.04
264.842	10149.13
264.911	10141.86
264.981	10109.72
265.05	10102.35
265.12	10085.25
265.19	10071.95
265.259	10061.84
265.329	10055.91
265.398	10043.82
265.468	10052.59
265.537	10032.41
265.607	10025.61
265.676	10021.13
265.746	10007.6
265.815	10016.36
265.885	10005.77
265.955	9980.67
266.024	9960.68
266.094	9922.44
266.163	9924.46
266.232	9921.42
266.302	9906.4
266.371	9897.39
266.441	9888.09
266.51	9878.99
266.58	9857.7
266.649	9834.19
266.719	9832.27
266.788	9824.56
266.858	9839.2
266.927	9797.25
266.996	9791.61
267.066	9781.74
267.135	9754.86
267.205	9755.73
267.274	9735.94
267.343	9741.04
267.413	9732.18
267.482	9735.21
267.552	9739.65
267.621	9714.74
267.69	9684.3
267.76	9680.74
267.829	9665.52
267.898	9650.59
267.968	9630.7
268.037	9631.18
268.106	9630.17
268.176	9606.28
268.245	9594.19
268.314	9569.78
268.384	9573
268.453	9553.69
268.522	9554.94
268.592	9557.78
268.661	9535.68
268.73	9528.6
268.799	9504.66
268.869	9511.65
268.938	9486.12
269.007	9464.26
269.076	9446.78
269.146	9445.1
269.215	9430.79
269.284	9434.12
269.353	9423.33
269.422	9407.2
269.492	9388.56
269.561	9345.66
269.63	9343.5
269.699	9325.15
269.768	9316.72
269.838	9310.13
269.907	9312.2
269.976	9279.4
270.045	9244.6
270.114	9243.25
270.183	9232.08
270.253	9230.82
270.322	9202.22
270.391	9187.4
270.46	9190.48
270.529	9190.62
270.598	9188.74
270.667	9176.85
270.736	9152.92
270.806	9146.28
270.875	9150.99
270.944	9142.28
271.013	9165.34
271.082	9151.57
271.151	9145.89
271.22	9116.47
271.289	9101.21
271.358	9088.74
271.427	9087.59
271.496	9086.29
271.565	9066.88
271.634	9055.28
271.703	9074.45
271.772	9079.5
271.841	9074.21
271.91	9049.61
271.979	9037.09
272.048	9016.58
272.117	9019.76
272.186	9011.57
272.255	9010.95
272.324	9006.47
272.393	8994.48
272.462	8980.57
272.531	8975.08
272.6	8968.53
272.669	8979.22
272.738	8970.26
272.807	8966.27
272.876	8945.14
272.945	8972.29
273.013	8970.22
273.082	8972.1
273.151	8929.58
273.22	8923.33
273.289	8916.44
273.358	8929.87
273.427	8918.27
273.496	8919.33
273.564	8916.78
273.633	8914.04
273.702	8892.42
273.771	8884.43
273.84	8884.19
273.909	8881.59
273.977	8875.91
274.046	8861.23
274.115	8867.92
274.184	8848.86
274.253	8839.28
274.322	8848.04
274.39	8813.24
274.459	8797.4
274.528	8769.78
274.597	8762.41
274.665	8759.91
274.734	8770.31
274.803	8757.94
274.872	8757.26
274.94	8743.59
275.009	8794.74
275.078	8782.94
275.147	8777.41
275.215	8767.49
275.284	8774.14
275.353	8760.71
275.421	8740.45
275.49	8755.85
275.559	8745.64
275.627	8742.76
275.696	8733.66
275.765	8737.27
275.833	8729.28
275.902	8735.11
275.971	8751.52
276.039	8764.08
276.108	8764.03
276.177	8757.68
276.245	8752.24
276.314	8746.51
276.383	8752.43
276.451	8689.59
276.52	8691.66
276.588	8705.95
276.657	8719.29
276.725	8705.09
276.794	8708.74
276.863	8717.98
276.931	8694.93
277	8696.04
277.068	8703.21
277.137	8722.17
277.205	8715.58
277.274	8735.21
277.342	8743.78
277.411	8721.64
277.48	8706.68
277.548	8695.17
277.617	8695.46
277.685	8685.07
277.754	8685.69
277.822	8670.92
277.89	8683.87
277.959	8682.42
278.027	8663.85
278.096	8649.07
278.164	8677.57
278.233	8668.66
278.301	8660.96
278.37	8672.9
278.438	8666.11
278.507	8667.8
278.575	8642.58
278.643	8642.62
278.712	8620.87
278.78	8609.99
278.849	8619.52
278.917	8633.81
278.985	8633.38
279.054	8635.31
279.122	8646.28
279.191	8644.93
279.259	8649.6
279.327	8625.44
279.396	8638.19
279.464	8639.88
279.532	8647.29
279.601	8638.04
279.669	8636.5
279.737	8648.15
279.806	8645.46
279.874	8647.72
279.942	8649.5
280.011	8645.26
280.079	8647.24
280.147	8668.32
280.215	8671.11
280.284	8669.62
280.352	8654.79
280.42	8662.68
280.488	8650.89
280.557	8645.12
280.625	8645.98
280.693	8642.47
280.761	8648.53
280.83	8629.81
280.898	8642.95
280.966	8618.22
281.034	8588.86
281.102	8575.24
281.171	8569.32
281.239	8577.98
281.307	8572.11
281.375	8555.66
281.443	8578.47
281.512	8569.85
281.58	8576.45
281.648	8560.76
281.716	8558.26
281.784	8556.76
281.852	8552.05
281.92	8550.27
281.989	8559.46
282.057	8549.69
282.125	8600.81
282.193	8598.26
282.261	8602.88
282.329	8594.89
282.397	8602.06
282.465	8609.52
282.533	8625.98
282.601	8614.86
282.67	8596.72
282.738	8586.47
282.806	8600.95
282.874	8586.32
282.942	8594.69
283.01	8586.32
283.078	8589.45
283.146	8589.93
283.214	8599.41
283.282	8606.05
283.35	8621.26
283.418	8612.79
283.486	8619.91
283.554	8570.95
283.622	8570.09
283.69	8572.06
283.758	8562.87
283.826	8570.04
283.894	8579.42
283.962	8600.31
284.03	8616.67
284.098	8615.95
284.165	8611.43
284.233	8608.11
284.301	8610.03
284.369	8601.23
284.437	8589.77
284.505	8588.09
284.573	8601.47
284.641	8590.21
284.709	8591.31
284.777	8573.94
284.845	8582.41
284.912	8586.26
284.98	8595.4
285.048	8591.36
285.116	8598.15
285.184	8614.65
285.252	8608.49
285.319	8591.02
285.387	8578.41
285.455	8559.12
285.523	8565.28
285.591	8564.75
285.659	8574.56
285.726	8582.26
285.794	8568.79
285.862	8569.47
285.93	8570.04
285.997	8562.78
286.065	8563.16
286.133	8551.66
286.201	8546.56
286.269	8532.65
286.336	8522.73
286.404	8513.35
286.472	8522.11
286.539	8497.13
286.607	8484.72
286.675	8490.88
286.743	8499.64
286.81	8492.08
286.878	8507.62
286.946	8504.01
287.013	8503.53
287.081	8498
287.149	8484.04
287.216	8503.38
287.284	8499.44
287.352	8502.18
287.419	8500.16
287.487	8509.3
287.555	8514.65
287.622	8521.43
287.69	8529.03
287.758	8542.8
287.825	8542.7
287.893	8533.27
287.96	8538.56
288.028	8542.99
288.096	8550.88
288.163	8556.8
288.231	8544.15
288.298	8545.73
288.366	8555.84
288.433	8555.02
288.501	8551.08
288.569	8552.62
288.636	8542.03
288.704	8557.77
288.771	8564.12
288.839	8556.47
288.906	8548.24
288.974	8556.86
289.041	8547.38
289.109	8540.88
289.176	8551.76
289.244	8555.17
289.311	8570.77
289.379	8583.09
289.446	8587.8
289.514	8581.98
289.581	8576.49
289.649	8580.39
289.716	8585.25
289.783	8572.93
289.851	8592.42
289.918	8594.49
289.986	8603.01
290.053	8613.88
290.121	8612.3
290.188	8615.47
290.255	8650.22
290.323	8654.79
290.39	8645.7
290.458	8656.23
290.525	8664.94
290.592	8656.38
290.66	8658.69
290.727	8649.2
290.794	8663.26
290.862	8664.08
290.929	8669.85
290.996	8672.55
291.064	8691.56
291.131	8700.8
291.198	8722.7
291.266	8722.89
291.333	8719.86
291.4	8726.94
291.468	8751.44
291.535	8746.67
291.602	8752.45
291.669	8744.75
291.737	8749.8
291.804	8753.79
291.871	8770.45
291.938	8780.94
292.006	8809.06
292.073	8825.57
292.14	8837.55
292.207	8831.24
292.275	8833.84
292.342	8840.97
292.409	8868.45
292.476	8891.08
292.543	8878.9
292.611	8876.83
292.678	8896.18
292.745	8924.44
292.812	8935.65
292.879	8928.43
292.946	8937.82
293.014	8951.97
293.081	8959.48
293.148	8976.47
293.215	8995.87
293.282	8986.68
293.349	8999.1
293.416	8979.07
293.484	8996.79
293.551	9012.34
293.618	9032.94
293.685	9063.8
293.752	9061.93
293.819	9053.41
293.886	9038.09
293.953	9051.81
294.02	9065.05
294.087	9071.46
294.154	9067.75
294.221	9087.11
294.288	9088.98
294.356	9103.47
294.423	9108.29
294.49	9101.69
294.557	9105.26
294.624	9091.34
294.691	9115.7
294.758	9114.3
294.825	9123.45
294.892	9107.95
294.959	9107.95
295.026	9111.37
295.093	9103.71
295.16	9105.3
295.226	9115.89
295.293	9139.58
295.36	9143.48
295.427	9152.15
295.494	9164.47
295.561	9168.09
295.628	9188.12
295.695	9205.07
295.762	9205.36
295.829	9213.5
295.896	9230.83
295.963	9247.63
296.03	9266.36
296.096	9273.25
296.163	9285.91
296.23	9300.93
296.297	9317.06
296.364	9315.04
296.431	9321.06
296.498	9314.46
296.564	9343.83
296.631	9343.83
296.698	9332.71
296.765	9351.92
296.832	9346.29
296.899	9330.49
296.965	9354.86
297.032	9329.77
297.099	9345.23
297.166	9358.08
297.233	9357.02
297.299	9353.03
297.366	9347.73
297.433	9345.9
297.5	9356.2
297.566	9352.35
297.633	9349.61
297.7	9356.49
297.767	9353.22
297.833	9359.34
297.9	9366.61
297.967	9348.16
298.033	9362.32
298.1	9387.46
298.167	9381.82
298.234	9384.04
298.3	9396.13
298.367	9392.9
298.434	9399.06
298.5	9387.21
298.567	9383.89
298.634	9383.94
298.7	9396.6
298.767	9399.88
298.834	9413.8
298.9	9409.8
298.967	9407.73
299.033	9420.87
299.1	9437.39
299.167	9459.5
299.233	9457.95
299.3	9467.49
299.366	9486.65
299.433	9503.99
299.5	9482.27
299.566	9487.38
299.633	9512.32
299.699	9526.39
299.766	9522.97
299.832	9537.7
299.899	9550.18
299.965	9561.01
300.032	9559.18
300.099	9569.78
300.165	9579.46
300.232	9580.85
300.298	9580.04
300.365	9599.01
300.431	9598.77
300.498	9584.95
300.564	9587.74
300.631	9591.93
300.697	9611.43
300.763	9610.18
300.83	9603.68
300.896	9619.38
300.963	9636.76
301.029	9633.49
301.096	9636.04
301.162	9643.6
301.229	9634.16
301.295	9622.7
301.361	9630.12
301.428	9641.39
301.494	9632.09
301.561	9637.24
301.627	9639.46
301.693	9645.53
301.76	9650.92
301.826	9649.33
301.892	9659.21
301.959	9669.75
302.025	9670.62
302.092	9665.95
302.158	9674.52
302.224	9681.89
302.291	9678.47
302.357	9668.45
302.423	9661.47
302.49	9648.23
302.556	9663.01
302.622	9665.66
302.688	9674.86
302.755	9686.95
302.821	9692.01
302.887	9703.81
302.954	9697.98
303.02	9704.38
303.086	9710.84
303.152	9707.22
303.219	9702.7
303.285	9709.68
303.351	9713.82
303.417	9717.63
303.483	9710.4
303.55	9702.31
303.616	9692.78
303.682	9689.65
303.748	9690.51
303.815	9708.96
303.881	9728.18
303.947	9716.28
304.013	9720.76
304.079	9714.21
304.145	9692.78
304.212	9688.64
304.278	9679.68
304.344	9680.88
304.41	9667.64
304.476	9656.13
304.542	9649
304.608	9654.83
304.674	9637.1
304.741	9633.88
304.807	9641.24
304.873	9645.24
304.939	9663.78
305.005	9651.02
305.071	9650.64
305.137	9647.51
305.203	9620.29
305.269	9617.93
305.335	9628.05
305.401	9625.16
305.467	9622.94
305.533	9633.49
305.599	9641.44
305.666	9651.31
305.732	9648.9
305.798	9665.52
305.864	9696.44
305.93	9700.49
305.996	9703.86
306.062	9705.4
306.128	9702.03
306.194	9688.49
306.259	9688.2
306.325	9679.2
306.391	9689.6
306.457	9698.36
306.523	9699.91
306.589	9722.83
306.655	9710.84
306.721	9692.15
306.787	9676.6
306.853	9694.22
306.919	9677.71
306.985	9673.47
307.051	9668.6
307.117	9662.73
307.183	9650.45
307.248	9615.48
307.314	9620.58
307.38	9620.92
307.446	9631.81
307.512	9621.45
307.578	9624
307.644	9620.44
307.709	9621.79
307.775	9617.74
307.841	9613.79
307.907	9610.61
307.973	9592.6
308.039	9594.67
308.104	9603.73
308.17	9604.98
308.236	9586.24
308.302	9591.78
308.368	9577.14
308.433	9570.93
308.499	9565.49
308.565	9557.49
308.631	9568.23
308.696	9545.84
308.762	9536.35
308.828	9531.34
308.894	9514.82
308.959	9494.26
309.025	9480.3
309.091	9473.41
309.156	9469.61
309.222	9471.05
309.288	9462.96
309.354	9443.94
309.419	9435.8
309.485	9422.08
309.551	9431.8
309.616	9420.87
309.682	9418.85
309.748	9418.08
309.813	9413.84
309.879	9412.45
309.945	9404.41
310.01	9399.06
310.076	9401.8
310.141	9396.8
310.207	9381.72
310.273	9383.99
310.338	9392.8
310.404	9381
310.469	9367.86
310.535	9353.55
310.601	9329.91
310.666	9340.31
310.732	9354.18
310.797	9345.7
310.863	9334.1
310.928	9323.07
310.994	9325.29
311.059	9322.59
311.125	9316.86
311.191	9328.76
311.256	9313.73
311.322	9314.55
311.387	9291.78
311.453	9676.96
311.518	9648.98
311.584	9647.06
311.649	9649.99
311.715	9636.32
311.78	9637.72
311.846	9631.07
311.911	9636.37
311.976	9642.44
312.042	9619.08
312.107	9602.23
312.173	9594.14
312.238	9592.31
312.304	9586.87
312.369	9581.96
312.434	9566.45
312.5	9560.48
312.565	9523.22
312.631	9533.52
312.696	9529.43
312.761	9531.26
312.827	9130.96
312.892	9164.85
312.958	9158.16
313.023	9153.4
313.088	9150.84
313.154	9140.83
313.219	9132.12
313.284	9126.29
313.35	9123.02
313.415	9118.49
313.48	9117.62
313.546	9119.98
313.611	9126.24
313.676	9117.58
313.741	9108.14
313.807	9112.76
313.872	9111.85
313.937	9118.44
314.003	9124.46
314.068	9121.67
314.133	9128.41
314.198	9124.03
314.264	9107.08
314.329	9104.53
314.394	9103.85
314.459	9107.46
314.525	9127.59
314.59	9128.69
314.655	9116.61
314.72	9118.3
314.785	9121.86
314.851	9113.43
314.916	9098.56
314.981	9081.18
315.046	9070.64
315.111	9064.38
315.176	9054.03
315.242	9059.76
315.307	9064.57
315.372	9040.07
315.437	9036.74
315.502	9033.13
315.567	9045.41
315.632	9027.36
315.698	9023.41
315.763	9016.86
315.828	9000.69
315.893	8989.71
315.958	8981.19
316.023	8979.74
316.088	8959.33
316.153	8931.7
316.218	8924.53
316.283	8909.42
316.348	8891.13
316.413	8892.82
316.479	8870.68
316.544	8843.82
316.609	8809.4
316.674	8773.74
316.739	8736.93
316.804	8706.03
316.869	8666.75
316.934	8625.26
316.999	8597.69
317.064	8548.6
317.129	8504.95
317.194	8470.16
317.259	8421.66
317.324	8370.71
317.389	8318.36
317.454	8275.73
317.518	8243.06
317.583	8215.39
317.648	8186.91
317.713	8153.14
317.778	8092.76
317.843	8063.9
317.908	8023.93
317.973	7984.73
318.038	7951.25
318.103	7919.9
318.168	7884.64
318.233	7850.83
318.297	7801.68
318.362	7761.04
318.427	7722.44
318.492	7697.23
318.557	7649.59
318.622	7623.58
318.687	7598.72
318.751	7558.92
318.816	7531.37
318.881	7501.13
318.946	7446.9
319.011	7404.6
319.075	7361.01
319.14	7321.94
319.205	7274.21
319.27	7239.22
319.335	7194.24
319.399	7152.38
319.464	7122.83
319.529	7064.98
319.594	7020.58
319.658	6989.59
319.723	6952.74
319.788	6920.99
319.853	6864.25
319.917	6840.04
319.982	6784.08
320.047	6746.47
320.112	6722.45
320.176	6668.23
320.241	6628.32
320.306	6600.7
320.37	6557.3
320.435	6528.82
320.5	6502.7
320.564	6468.33
320.629	6430.45
320.694	6400.78
320.758	6357.68
320.823	6312.32
320.888	6290.91
320.952	6247.96
321.017	6206.11
321.082	6166.71
321.146	6135.28
321.211	6100.06
321.275	6054.58
321.34	6012.7
321.405	5967.8
321.469	5919.49
321.534	5882.04
321.598	5833.83
321.663	5796.99
321.727	5766.87
321.792	5720.63
321.857	5675.89
321.921	5635.32
321.986	5586.81
322.05	5528.24
322.115	5492.43
322.179	5448.91
322.244	5391.45
322.308	5353.68
322.373	5308.35
322.437	5262.88
322.502	5236.61
322.566	5191.52
322.631	5156.69
322.695	5119.62
322.76	5077.09
322.824	5041.07
322.889	4995.96
322.953	4948.47
323.018	4883.06
323.082	4816.08
323.146	4759.27
323.211	4706.95
323.275	4660.09
323.34	4615.16
323.404	4580.09
323.468	4535.72
323.533	4492.37
323.597	4446.61
323.662	4397.81
323.726	4366.47
323.79	4321.56
323.855	4254.38
323.919	4206.71
323.983	4158.02
324.048	4090.88
324.112	4213.66
324.177	4079.45
324.241	3867.58
324.305	3661.67
324.37	3458.3
324.434	3263.15
324.498	3220.98
324.562	3169.36
324.627	3109.04
324.691	3052.02
324.755	2984.1
324.82	2902.58
324.884	2822.47
324.948	2746.93
325.012	2646.27
325.077	2508.77
