Data from 20250704_urea_1.5M_MAYP1162681_11-45-32-596.txt Node
Date: Fri Jul 04 11:45:32 BST 2025
User: adleo
Spectrometer: MAYP116268
Trigger mode: 0
Integration Time (sec): 1.000000E0
Scans to average: 1
Electric dark correction enabled: true
Nonlinearity correction enabled: true
Boxcar width: 10
XAxis mode: Wavelengths
Number of Pixels in Spectrum: 2068
>>>>>Begin Spectral Data<<<<<
179.565	1269.02
179.642	1328.33
179.718	1375.44
179.795	1413.75
179.871	1447.88
179.948	1466.65
180.024	1489.9
180.101	1512.01
180.177	1526.85
180.254	1549.29
180.33	1571.88
180.407	1630.81
180.483	1730.25
180.56	1826.13
180.636	1915.53
180.712	1901.22
180.789	1911.35
180.865	1921.42
180.942	1933.88
181.018	1946.43
181.095	1958.75
181.171	1963.88
181.248	1964.45
181.324	1981.48
181.4	1992.61
181.477	2003.79
181.553	2017.95
181.63	2038.31
181.706	2058.05
181.782	2067.79
181.859	2070.36
181.935	2076.21
182.011	2071.65
182.088	2090.01
182.164	2108.8
182.24	2120.79
182.317	2131.49
182.393	2131.44
182.469	2144.66
182.546	2155.74
182.622	2158.6
182.698	2152.51
182.775	2165.35
182.851	2180.96
182.927	2170.44
183.003	2164.26
183.08	2158.89
183.156	2165.97
183.232	2160.07
183.308	2146.47
183.385	2156.6
183.461	2174.54
183.537	2176.92
183.613	2187.57
183.69	2179.63
183.766	2168.54
183.842	2175.86
183.918	2183.48
183.995	2196.61
184.071	2202.08
184.147	2196.65
184.223	2185.76
184.299	2200.61
184.375	2189.48
184.452	2195.19
184.528	2243.29
184.604	2253.76
184.68	2263.46
184.756	2271.93
184.832	2280.79
184.908	2286.3
184.985	2281.93
185.061	2263.56
185.137	2271.79
185.213	2261.9
185.289	2260.9
185.365	2253.1
185.441	2253.24
185.517	2263.71
185.593	2256.77
185.669	2256.43
185.745	2267.9
185.822	2285.21
185.898	2277.93
185.974	2286.26
186.05	2277.4
186.126	2246.24
186.202	2240.72
186.278	2238.2
186.354	2230.21
186.43	2235.06
186.506	2233.25
186.582	2233.63
186.658	2241.01
186.734	2221.03
186.81	2223.5
186.886	2225.64
186.962	2237.53
187.038	2234.06
187.114	2227.73
187.19	2235.29
187.266	2223.3
187.341	2221.5
187.417	2213.41
187.493	2211.41
187.569	2214.88
187.645	2208.84
187.721	2195.37
187.797	2201.37
187.873	2205.89
187.949	2199.56
188.025	2192.66
188.101	2196.37
188.176	2202.7
188.252	2197.04
188.328	2204.69
188.404	2205.41
188.48	2202.6
188.556	2195.8
188.632	2195.27
188.707	2194.46
188.783	2192.7
188.859	2187.28
188.935	2176.77
189.011	2185.42
189.086	2180.91
189.162	2170.77
189.238	2169.96
189.314	2168.82
189.39	2160.78
189.465	2152.88
189.541	2169.63
189.617	2155.55
189.693	2149.08
189.768	2150.65
189.844	2176.97
189.92	2167.79
189.996	2176.83
190.071	2188.06
190.147	2189.68
190.223	2196.87
190.298	2189.4
190.374	2178.6
190.45	2194.15
190.526	2204.9
190.601	2199.48
190.677	2199.77
190.753	2228.66
190.828	2231.61
190.904	2246.74
190.98	2264.4
191.055	2277.29
191.131	2268.3
191.207	2288.38
191.282	2298.27
191.358	2289.42
191.433	2274.38
191.509	2287.74
191.585	2284.75
191.66	2283.56
191.736	2291.03
191.811	2286.17
191.887	2302.78
191.963	2324.53
192.038	2329.25
192.114	2328.06
192.189	2334
192.265	2330.67
192.34	2309.15
192.416	2307.77
192.491	2303.49
192.567	2306.35
192.642	2307.3
192.718	2308.25
192.793	2296.49
192.869	2293.88
192.944	2296.83
193.02	2306.35
193.095	2313.39
193.171	2319.48
193.246	2319.15
193.322	2316.44
193.397	2314.72
193.473	2299.97
193.548	2281.21
193.624	2285.02
193.699	2285.31
193.775	2299.69
193.85	2302.49
193.925	2313.06
194.001	2311.77
194.076	2304.64
194.152	2294.26
194.227	2284.41
194.302	2273.89
194.378	2277.8
194.453	2274.42
194.529	2288.89
194.604	2272.51
194.679	2264.23
194.755	2244.92
194.83	2257.77
194.905	2257.3
194.981	2267.01
195.056	2260.87
195.131	2266.01
195.207	2265.1
195.282	2252.92
195.357	2230.55
195.433	2244.45
195.508	2232.36
195.583	2241.35
195.659	2255.63
195.734	2263.86
195.809	2268.38
195.884	2277.09
195.96	2276.9
196.035	2288.7
196.11	2281.27
196.185	2293.31
196.261	2297.31
196.336	2327.86
196.411	2312.2
196.486	2315.34
196.561	2307.58
196.637	2314.86
196.712	2334
196.787	2336.48
196.862	2350.18
196.937	2363.65
197.013	2369.55
197.088	2377.21
197.163	2400.65
197.238	2417.18
197.313	2416.22
197.388	2429.55
197.464	2463.99
197.539	2474.99
197.614	2470.08
197.689	2485.27
197.764	2504.04
197.839	2522.89
197.914	2519.8
197.989	2545.13
198.065	2564.13
198.14	2615.84
198.215	2645.27
198.29	2657.23
198.365	2671.71
198.44	2685.95
198.515	2713.29
198.59	2725.73
198.665	2754.64
198.74	2761.94
198.815	2763.08
198.89	2786.57
198.965	2815.6
199.04	2808.64
199.115	2825.02
199.19	2871.58
199.265	2874.58
199.34	2882.92
199.415	2920.78
199.49	2940.6
199.565	2952
199.64	2971.78
199.715	2969.25
199.79	2979.31
199.865	2988.85
199.94	2986.51
200.015	3019.13
200.09	3027.52
200.165	3040.48
200.24	3046.44
200.315	3087.44
200.39	3103.37
200.464	3109.04
200.539	3113.05
200.614	3128.73
200.689	3153.05
200.764	3161.93
200.839	3177.9
200.914	3185.29
200.989	3170.59
201.063	3186.67
201.138	3166.51
201.213	3165.55
201.288	3146.05
201.363	3151.25
201.438	3149.15
201.512	3163.07
201.587	3144.37
201.662	3147.37
201.737	3157.92
201.812	3164.64
201.886	3128.37
201.961	3138.91
202.036	3128.04
202.111	3124.8
202.186	3094.54
202.26	3075.46
202.335	3052.04
202.41	3045.7
202.485	3025.01
202.559	3006.7
202.634	2978.05
202.709	2988.2
202.784	2968.08
202.858	2969.65
202.933	2946.29
203.008	2937.9
203.082	2919.74
203.157	2916.03
203.232	2870.52
203.306	2849.45
203.381	2820.22
203.456	2800.35
203.53	2776.97
203.605	2754.92
203.68	2727.66
203.754	2722.47
203.829	2707.26
203.904	2684.54
203.978	2676.49
204.053	2682.63
204.127	2671.58
204.202	2668.29
204.277	2650.53
204.351	2645
204.426	2635.56
204.5	2628.32
204.575	2592.75
204.65	2602.14
204.724	2598.19
204.799	2604.94
204.873	2598.99
204.948	2596.27
205.022	2581.51
205.097	2572.6
205.171	2588.55
205.246	2598.08
205.32	2594.8
205.395	2597.89
205.469	2587.85
205.544	2590
205.618	2570.09
205.693	2580.8
205.767	2568.71
205.842	2590.77
205.916	2583.86
205.991	2573.67
206.065	2578.86
206.14	2596.61
206.214	2590.51
206.289	2580.89
206.363	2596.18
206.438	2598.99
206.512	2604.66
206.586	2627.99
206.661	2636.86
206.735	2612.96
206.81	2613.67
206.884	2635.05
206.958	2619.81
207.033	2637.05
207.107	2647.3
207.181	2679.6
207.256	2674.65
207.33	2695.65
207.405	2710.1
207.479	2731.44
207.553	2740.83
207.628	2723.87
207.702	2733.59
207.776	2727.4
207.851	2734.45
207.925	2751.32
207.999	2748.8
208.073	2747.8
208.148	2750.13
208.222	2736.98
208.296	2769.74
208.371	2784.48
208.445	2791.77
208.519	2821.97
208.593	2835.13
208.668	2829.55
208.742	2834.79
208.816	2835.84
208.89	2849.24
208.965	2843.13
209.039	2851.24
209.113	2869.73
209.187	2897.02
209.261	2893.26
209.336	2917.47
209.41	2937.3
209.484	2936.45
209.558	2957.99
209.632	2973.91
209.707	2984.45
209.781	3010.86
209.855	3027.69
209.929	3046.54
210.003	3056.32
210.077	3057.03
210.151	3109.2
210.226	3146.03
210.3	3175.63
210.374	3204.09
210.448	3210.2
210.522	3227.85
210.596	3241.73
210.67	3251.94
210.744	3300.04
210.818	3339.34
210.892	3365.35
210.966	3365.87
211.041	3390.25
211.115	3394.83
211.189	3425.95
211.263	3455.39
211.337	3466.03
211.411	3495.64
211.485	3503.08
211.559	3529.48
211.633	3546.13
211.707	3529.55
211.781	3550
211.855	3530.66
211.929	3538.77
212.003	3542.97
212.077	3572.97
212.151	3607.98
212.225	3640.64
212.299	3655.51
212.373	3675.32
212.447	3701.75
212.52	3764.57
212.594	3801.08
212.668	3848.85
212.742	3875.37
212.816	3906.25
212.89	3945.62
212.964	3985.21
213.038	4032.31
213.112	4092.38
213.186	4160.25
213.26	4192.22
213.333	4205.57
213.407	4269.38
213.481	4337.84
213.555	4412.03
213.629	4468.6
213.703	4521.29
213.777	4594
213.85	4648.09
213.924	4757.43
213.998	4832.09
214.072	4904.82
214.146	4970.29
214.219	5051.72
214.293	5134.83
214.367	5223.42
214.441	5325.25
214.515	5406.46
214.588	5483.3
214.662	5547.59
214.736	5622.81
214.81	5728.34
214.883	5843.73
214.957	5936.81
215.031	6030.09
215.105	6117.47
215.178	6211.49
215.252	6318.09
215.326	6406.76
215.4	6503.14
215.473	6572.65
215.547	6678.13
215.621	6781.54
215.694	6913.42
215.768	7019.13
215.842	7127.48
215.915	7243.99
215.989	7341.23
216.063	7451.85
216.136	7575.6
216.21	7697.47
216.284	7838.8
216.357	7970.86
216.431	8088.41
216.504	8224.58
216.578	8376.24
216.652	8521.56
216.725	8652.55
216.799	8790.6
216.873	8922.76
216.946	9066.04
217.02	9192.31
217.093	9314.94
217.167	9425.2
217.24	9534.86
217.314	9656.16
217.387	9775.19
217.461	9893.92
217.535	10035.29
217.608	10154.55
217.682	10277.49
217.755	10419.02
217.829	10534.85
217.902	10666.24
217.976	10797.58
218.049	10917.42
218.123	11020.69
218.196	11146.13
218.27	11262.27
218.343	11374.85
218.417	11499.82
218.49	11618.33
218.563	11752.85
218.637	11881.83
218.71	12029.42
218.784	12156.09
218.857	12284.59
218.931	12412.08
219.004	12532.73
219.077	12656.57
219.151	12781.65
219.224	12903.56
219.298	13018.82
219.371	13145.07
219.444	13243.79
219.518	13358.76
219.591	13467.76
219.665	13613.53
219.738	13726.38
219.811	13832.34
219.885	13948.75
219.958	14061.46
220.031	14161.97
220.105	14274.62
220.178	14369.92
220.251	14458.28
220.325	14565.54
220.398	14672.12
220.471	14775.61
220.544	14889.85
220.618	14976.38
220.691	15078.33
220.764	15177.72
220.838	15269.11
220.911	15357.28
220.984	15468.14
221.057	15564.74
221.131	15659.55
221.204	15715.51
221.277	15815.57
221.35	15934.04
221.424	16011.89
221.497	16095.99
221.57	16184.44
221.643	16267.1
221.716	16366.58
221.79	16437.04
221.863	16508.81
221.936	16582.69
222.009	16654.8
222.082	16724.78
222.155	16789.07
222.229	16871.29
222.302	16939
222.375	17002.09
222.448	17072.89
222.521	17131.16
222.594	17193.09
222.667	17242.77
222.74	17315.69
222.814	17368.9
222.887	17412.61
222.96	17480.66
223.033	17544.99
223.106	17601.67
223.179	17656.32
223.252	17703.54
223.325	17768.51
223.398	17828.84
223.471	17881.85
223.544	17937.66
223.617	17987.78
223.69	18044.02
223.763	18070.96
223.837	18115.97
223.91	18168.93
223.983	18194.23
224.056	18226.18
224.129	18270.27
224.202	18318.32
224.275	18343.14
224.348	18363.62
224.42	18381.35
224.493	18397.4
224.566	18429.83
224.639	18463.23
224.712	18482.84
224.785	18506.55
224.858	18521.88
224.931	18538.55
225.004	18549.97
225.077	18562.21
225.15	18557.1
225.223	18576.19
225.296	18629.44
225.369	18634.93
225.442	18645.77
225.514	18669.87
225.587	18698.59
225.66	18726.97
225.733	18760.75
225.806	18781.72
225.879	18812.22
225.952	18824.75
226.025	18845.86
226.097	18867.49
226.17	18885.42
226.243	18882.24
226.316	18900.99
226.389	18915.3
226.461	18936.98
226.534	18963.58
226.607	18980.02
226.68	19023.29
226.753	19040.83
226.825	19030.42
226.898	19065.51
226.971	19074.23
227.044	19099.77
227.117	19111.82
227.189	19118.95
227.262	19127.24
227.335	19138.99
227.407	19134.46
227.48	19145.55
227.553	19164.63
227.626	19161.45
227.698	19157.26
227.771	19172
227.844	19157.93
227.916	19171.38
227.989	19162.51
228.062	19152.54
228.134	19183.04
228.207	19176.15
228.28	19171.72
228.352	19173.11
228.425	19174.61
228.498	19193.26
228.57	19168.29
228.643	19178.7
228.716	19162.9
228.788	19160.68
228.861	19163.43
228.934	19180.68
229.006	19185.02
229.079	19166.66
229.151	19154.27
229.224	19139.48
229.296	19140.59
229.369	19171.57
229.442	19177.45
229.514	19167.33
229.587	19186.27
229.659	19161.31
229.732	19164.2
229.804	19176.78
229.877	19189.64
229.949	19191.76
230.022	19200
230.094	19198.36
230.167	19185.79
230.239	19185.5
230.312	19176.97
230.384	19188.2
230.457	19180.78
230.529	19177.11
230.602	19177.4
230.674	19179.43
230.747	19194.99
230.819	19201.93
230.892	19162.99
230.964	19159.48
231.037	19158.61
231.109	19149.89
231.181	19149.64
231.254	19122.27
231.326	19105.98
231.399	19095.87
231.471	19074.18
231.544	19039.15
231.616	19046.57
231.688	19043.48
231.761	19018.38
231.833	19011.73
231.905	18976.5
231.978	18966.14
232.05	18962.19
232.122	18966.14
232.195	18954.19
232.267	18952.69
232.339	18941.71
232.412	18943.73
232.484	18932.69
232.556	18910.82
232.629	18913.52
232.701	18907.3
232.773	18898.43
232.846	18874.05
232.918	18857.08
232.99	18845.81
233.062	18848.99
233.135	18844.6
233.207	18815.35
233.279	18812.17
233.351	18794.68
233.424	18787.35
233.496	18760.42
233.568	18757.67
233.64	18722.3
233.713	18707.31
233.785	18690.64
233.857	18677.29
233.929	18648.09
234.001	18647.6
234.074	18653.19
234.146	18614.21
234.218	18600.14
234.29	18591.46
234.362	18574.5
234.434	18542.36
234.507	18519.76
234.579	18484.96
234.651	18454.99
234.723	18452.96
234.795	18452.53
234.867	18441.16
234.939	18433.74
235.012	18424.05
235.084	18413.26
235.156	18403.96
235.228	18375.72
235.3	18346.99
235.372	18328.06
235.444	18324.34
235.516	18284.4
235.588	18267.82
235.66	18246.04
235.732	18211.05
235.804	18249.07
235.876	18244.83
235.948	18244.3
236.02	18224.4
236.092	18204.59
236.164	18177.75
236.236	18136.11
236.308	18103.68
236.38	18082.67
236.452	18055.01
236.524	18034.67
236.596	18020.02
236.668	18010.24
236.74	17997.13
236.812	17981.95
236.884	17970.91
236.956	17943.97
237.028	17905.81
237.1	17863.3
237.172	17860.02
237.244	17854.48
237.316	17787.64
237.388	17757.23
237.46	17729.14
237.532	17720.94
237.604	17694.58
237.675	17694.58
237.747	17690.78
237.819	17660.17
237.891	17630.78
237.963	17596.8
238.035	17570.92
238.107	17509.33
238.178	17486.01
238.25	17454.68
238.322	17455.65
238.394	17406.44
238.466	17386.63
238.538	17372.08
238.609	17361.52
238.681	17322.3
238.753	17284.75
238.825	17266.63
238.897	17241.19
238.968	17238.87
239.04	17205.09
239.112	17210.44
239.184	17173.76
239.255	17155.64
239.327	17131.59
239.399	17109.86
239.471	17094.82
239.542	17067.11
239.614	17070.77
239.686	17035.74
239.758	17026.39
239.829	16986.77
239.901	16981.37
239.973	16958.29
240.044	16944.89
240.116	16922.86
240.188	16895.78
240.259	16883.59
240.331	16851.1
240.403	16838.67
240.474	16789.22
240.546	16750.13
240.618	16691.91
240.689	16659.14
240.761	16630.51
240.833	16620.39
240.904	16592.58
240.976	16568.15
241.048	16553.35
241.119	16527.76
241.191	16504.09
241.262	16499.66
241.334	16469.44
241.405	16436.71
241.477	16405.24
241.549	16367.84
241.62	16342.83
241.692	16325.38
241.763	16308.7
241.835	16286.1
241.906	16257.52
241.978	16217.66
242.049	16212.31
242.121	16203.1
242.192	16195.73
242.264	16152.01
242.335	16106.7
242.407	16096.63
242.478	16057.69
242.55	16033.15
242.621	15985.24
242.693	15948.71
242.764	15907.4
242.836	15874.34
242.907	15854.09
242.979	15834.38
243.05	15813.46
243.122	15795.58
243.193	15763.82
243.264	15708.72
243.336	15668.52
243.407	15652.52
243.479	15650.98
243.55	15625.48
243.622	15604.51
243.693	15571.4
243.764	15562.48
243.836	15524.36
243.907	15481.6
243.978	15467.24
244.05	15440.34
244.121	15407.08
244.192	15399.56
244.264	15359.02
244.335	15331.31
244.407	15278.14
244.478	15254.43
244.549	15224.35
244.62	15175.37
244.692	15149.97
244.763	15129.34
244.834	15101.57
244.906	15064.51
244.977	15035.83
245.048	15027.15
245.119	14986.47
245.191	14947.33
245.262	14893
245.333	14897.63
245.405	14877.09
245.476	14852.46
245.547	14834.38
245.618	14821.32
245.689	14786.71
245.761	14762.8
245.832	14736.82
245.903	14728.53
245.974	14701.05
246.045	14675.75
246.117	14670.49
246.188	14624.94
246.259	14595.68
246.33	14571.43
246.401	14542.27
246.473	14500.28
246.544	14459.21
246.615	14448.03
246.686	14428.26
246.757	14420.89
246.828	14375.57
246.899	14370.22
246.97	14329.2
247.042	14304.57
247.113	14287.12
247.184	14287.12
247.255	14259.69
247.326	14229.65
247.397	14198.42
247.468	14173.69
247.539	14150.21
247.61	14110.25
247.681	14103.36
247.752	14088.8
247.823	14051.15
247.894	14022.8
247.965	13989.44
248.037	13957.1
248.108	13914.68
248.179	13885.37
248.25	13860.01
248.321	13848.01
248.392	13799.99
248.463	13800.04
248.534	13756.8
248.605	13734.63
248.675	13698.33
248.746	13679.38
248.817	13670.32
248.888	13660.1
248.959	13613.29
249.03	13594.39
249.101	13573.38
249.172	13544.31
249.243	13498.8
249.314	13496.73
249.385	13474.31
249.456	13455.03
249.527	13431.99
249.598	13417.52
249.669	13402.19
249.739	13384.6
249.81	13368.4
249.881	13337.16
249.952	13308.29
250.023	13284.04
250.094	13245.43
250.165	13212.55
250.235	13184.88
250.306	13165.84
250.377	13122.11
250.448	13111.7
250.519	13068.65
250.59	13059.69
250.66	13033.32
250.731	13030.62
250.802	13002.71
250.873	12989.79
250.944	12975.52
251.014	12946.55
251.085	12947.13
251.156	12924.52
251.227	12921.33
251.297	12908.37
251.368	12901.91
251.439	12890
251.51	12885.66
251.58	12861.32
251.651	12832.88
251.722	12822.18
251.792	12775.71
251.863	12754.26
251.934	12747.75
252.005	12756.23
252.075	12734.06
252.146	12723.89
252.217	12721.57
252.287	12715.64
252.358	12693.71
252.429	12690.62
252.499	12661.17
252.57	12638.51
252.641	12622.66
252.711	12592.29
252.782	12551.6
252.852	12546.39
252.923	12523.21
252.994	12497.76
253.064	12490.53
253.135	12469.89
253.205	12445.12
253.276	12452.83
253.347	12452.16
253.417	12426.46
253.488	12397.88
253.558	12370.55
253.629	12351.6
253.699	12332.13
253.77	12315.64
253.841	12288.99
253.911	12273.08
253.982	12257.12
254.052	12245.84
254.123	12234.27
254.193	12219.33
254.264	12244.4
254.334	12220.39
254.405	12195.86
254.475	12168.04
254.546	12147.32
254.616	12145.78
254.687	12131.22
254.757	12105.19
254.827	12079.5
254.898	12066.44
254.968	12052.6
255.039	12034.14
255.109	12019.05
255.18	11986.23
255.25	11948.54
255.321	11943.09
255.391	11908.87
255.461	11913.78
255.532	11863.03
255.602	11837.77
255.673	11795.16
255.743	11762.62
255.813	11714.33
255.884	11705.03
255.954	11695.1
256.024	11691.87
256.095	11674.66
256.165	11651.14
256.235	11645.5
256.306	11623.91
256.376	11615.86
256.446	11596.82
256.517	11582.75
256.587	11579.42
256.657	11561.25
256.728	11543.47
256.798	11521.78
256.868	11503.32
256.938	11484.81
257.009	11484.96
257.079	11473
257.149	11485.29
257.219	11441.82
257.29	11432.86
257.36	11391.41
257.43	11388.28
257.5	11347.31
257.571	11315.84
257.641	11301.38
257.711	11269.19
257.781	11263.07
257.852	11254.39
257.922	11223.84
257.992	11209.77
258.062	11184.03
258.132	11177.33
258.202	11155.5
258.273	11139.98
258.343	11135.07
258.413	11103.26
258.483	11084.08
258.553	11059.45
258.623	11028.85
258.693	11024.56
258.764	11023.17
258.834	11023.02
258.904	11005.53
258.974	10986.78
259.044	10973.05
259.114	10963.6
259.184	10956.09
259.254	10933.58
259.324	10889.92
259.394	10878.02
259.464	10880.24
259.535	10860.09
259.605	10836.82
259.675	10814.41
259.745	10806.9
259.815	10781.84
259.885	10757.8
259.955	10763.53
260.025	10730.77
260.095	10719.73
260.165	10704.5
260.235	10707.2
260.305	10684.08
260.375	10651.65
260.445	10659.79
260.515	10656.32
260.585	10651.07
260.655	10630.59
260.725	10629.1
260.795	10614.59
260.865	10619.17
260.934	10585.54
261.004	10584.67
261.074	10574.6
261.144	10575.18
261.214	10570.45
261.284	10554.07
261.354	10559.23
261.424	10542.12
261.494	10555.71
261.564	10540.05
261.634	10531.52
261.703	10490.08
261.773	10484.88
261.843	10481.8
261.913	10459.3
261.983	10426.1
262.053	10415.4
262.123	10403.22
262.192	10373.63
262.262	10379.32
262.332	10350.99
262.402	10344.97
262.472	10333.55
262.541	10295.11
262.611	10294.14
262.681	10262.54
262.751	10256.04
262.821	10237.49
262.89	10212.24
262.96	10200.92
263.03	10203.81
263.1	10196.82
263.169	10188.88
263.239	10177.7
263.309	10181.17
263.379	10181.79
263.448	10173.41
263.518	10163.82
263.588	10147.69
263.657	10154.14
263.727	10147.49
263.797	10140.08
263.867	10124.52
263.936	10090.46
264.006	10094.07
264.076	10074.46
264.145	10059.15
264.215	10034.24
264.285	10025.62
264.354	9991.23
264.424	9965.75
264.494	9939.45
264.563	9920.42
264.633	9930.77
264.702	9922.34
264.772	9891.32
264.842	9867.48
264.911	9860.11
264.981	9829.86
265.05	9821.09
265.12	9799.42
265.19	9791.27
265.259	9785.06
265.329	9776.25
265.398	9765.89
265.468	9778.66
265.537	9762.09
265.607	9760.55
265.676	9768.93
265.746	9766.61
265.815	9771.48
265.885	9764.25
265.955	9742.68
266.024	9724.23
266.094	9685.12
266.163	9691.24
266.232	9692.16
266.302	9678.77
266.371	9671.01
266.441	9662.2
266.51	9655.75
266.58	9638.99
266.649	9608.84
266.719	9598.05
266.788	9590.73
266.858	9595.74
266.927	9561.06
266.996	9551.57
267.066	9541.51
267.135	9511.36
267.205	9497.88
267.274	9485.21
267.343	9488.73
267.413	9475
267.482	9479.39
267.552	9485.17
267.621	9452.37
267.69	9423.47
267.76	9418.32
267.829	9410.09
267.898	9393.76
267.968	9368.77
268.037	9367.52
268.106	9368.44
268.176	9346.67
268.245	9333.67
268.314	9320.09
268.384	9321.73
268.453	9307.09
268.522	9299.87
268.592	9303.04
268.661	9288.94
268.73	9282.77
268.799	9258.02
268.869	9266.69
268.938	9239.96
269.007	9223.88
269.076	9217.05
269.146	9219.07
269.215	9207.56
269.284	9215.7
269.353	9204.67
269.422	9195.62
269.492	9183.11
269.561	9143.19
269.63	9143.97
269.699	9129.62
269.768	9117.68
269.838	9109.92
269.907	9114.74
269.976	9092.54
270.045	9056.06
270.114	9053.7
270.183	9038.39
270.253	9032.9
270.322	9000.79
270.391	8989.96
270.46	8992.22
270.529	8990.97
270.598	8986.16
270.667	8976.67
270.736	8955.15
270.806	8956.59
270.875	8960.88
270.944	8946.05
271.013	8975.08
271.082	8969.88
271.151	8966.13
271.22	8942.01
271.289	8932.82
271.358	8921.98
271.427	8917.27
271.496	8920.3
271.565	8902.82
271.634	8898.59
271.703	8921.84
271.772	8928.44
271.841	8915.83
271.91	8890.65
271.979	8881.36
272.048	8859.12
272.117	8854.35
272.186	8835.29
272.255	8833.7
272.324	8833.85
272.393	8828.03
272.462	8807.18
272.531	8795.39
272.6	8786
272.669	8790.86
272.738	8779.93
272.807	8771.9
272.876	8757.22
272.945	8783.69
273.013	8793.66
273.082	8797.46
273.151	8749.46
273.22	8746.77
273.289	8743.4
273.358	8754.09
273.427	8740.18
273.496	8742.2
273.564	8742
273.633	8742.77
273.702	8724.82
273.771	8705.91
273.84	8701.43
273.909	8701.86
273.977	8699.46
274.046	8688.15
274.115	8689.73
274.184	8669.24
274.253	8661.34
274.322	8669.86
274.39	8635.73
274.459	8618.17
274.528	8593.91
274.597	8594.54
274.665	8589.58
274.734	8595.11
274.803	8586.02
274.872	8580.58
274.94	8564.74
275.009	8624.5
275.078	8611.89
275.147	8607.08
275.215	8608.77
275.284	8619.79
275.353	8607.08
275.421	8583.41
275.49	8601.17
275.559	8595.25
275.627	8593.42
275.696	8590
275.765	8586.39
275.833	8580.04
275.902	8579.08
275.971	8588.75
276.039	8601.98
276.108	8611.18
276.177	8609.16
276.245	8599.48
276.314	8595.3
276.383	8609.64
276.451	8540.93
276.52	8544.34
276.588	8551.32
276.657	8557.53
276.725	8546.56
276.794	8551.75
276.863	8566.29
276.931	8537.89
277	8540.83
277.068	8549.54
277.137	8570.57
277.205	8561.43
277.274	8582.84
277.342	8590.97
277.411	8570.43
277.48	8555.46
277.548	8538.38
277.617	8546.17
277.685	8542.13
277.754	8550.12
277.822	8533.33
277.89	8553.54
277.959	8551.52
278.027	8535.98
278.096	8523.99
278.164	8557.3
278.233	8543.83
278.301	8530.36
278.37	8540.08
278.438	8533.63
278.507	8537.77
278.575	8504.13
278.643	8508.36
278.712	8484.06
278.78	8463.94
278.849	8475.44
278.917	8490.46
278.985	8490.22
279.054	8486.27
279.122	8495.51
279.191	8486.22
279.259	8490.22
279.327	8467.84
279.396	8484.82
279.464	8482.42
279.532	8489.4
279.601	8479.96
279.669	8479.96
279.737	8496.66
279.806	8497.04
279.874	8502.24
279.942	8501.42
280.011	8505.7
280.079	8511.43
280.147	8529.04
280.215	8539.87
280.284	8538.47
280.352	8526.34
280.42	8539.58
280.488	8537.03
280.557	8528.56
280.625	8539
280.693	8531.3
280.761	8531.54
280.83	8514.07
280.898	8527.16
280.966	8512.82
281.034	8474.56
281.102	8462.15
281.171	8456.38
281.239	8467.01
281.307	8464.12
281.375	8449.93
281.443	8470.77
281.512	8466.2
281.58	8474.23
281.648	8451.57
281.716	8449.74
281.784	8444.93
281.852	8433.29
281.92	8427.17
281.989	8441.51
282.057	8424.48
282.125	8473.86
282.193	8471.07
282.261	8469.72
282.329	8464.96
282.397	8467.61
282.465	8474.73
282.533	8488.92
282.601	8478.24
282.67	8452.97
282.738	8441.52
282.806	8456.44
282.874	8442.67
282.942	8444.55
283.01	8441.66
283.078	8455.18
283.146	8449.41
283.214	8463.89
283.282	8471.59
283.35	8480.25
283.418	8471.88
283.486	8474.72
283.554	8434.58
283.622	8431.11
283.69	8432.75
283.758	8427.79
283.826	8424.09
283.894	8438.52
283.962	8461.53
284.03	8472.79
284.098	8476.35
284.165	8475
284.233	8477.55
284.301	8472.11
284.369	8463.93
284.437	8449.59
284.505	8442.09
284.573	8466.58
284.641	8454.93
284.709	8457.1
284.777	8442.28
284.845	8445.69
284.912	8453.3
284.98	8458.73
285.048	8459.75
285.116	8463.02
285.184	8478.08
285.252	8490.16
285.319	8473.27
285.387	8459.26
285.455	8445.64
285.523	8454.21
285.591	8451.95
285.659	8445.45
285.726	8463.59
285.794	8454.89
285.862	8452.86
285.93	8457.58
285.997	8446.9
286.065	8439.73
286.133	8432.51
286.201	8429.14
286.269	8419.9
286.336	8412.06
286.404	8399.64
286.472	8407.78
286.539	8385.84
286.607	8373.71
286.675	8369.14
286.743	8376.64
286.81	8374.19
286.878	8393.05
286.946	8386.6
287.013	8387.76
287.081	8392.62
287.149	8372.02
287.216	8390.16
287.284	8389.92
287.352	8388.43
287.419	8385.64
287.487	8407.87
287.555	8405.9
287.622	8408.26
287.69	8416.58
287.758	8427.22
287.825	8426.21
287.893	8412.35
287.96	8421.92
288.028	8432.94
288.096	8437.7
288.163	8439.68
288.231	8426.93
288.298	8416.58
288.366	8430.44
288.433	8428.42
288.501	8422.35
288.569	8430.15
288.636	8422.93
288.704	8443
288.771	8449.11
288.839	8441.03
288.906	8428.71
288.974	8441.51
289.041	8436.07
289.109	8423.27
289.176	8431.74
289.244	8436.17
289.311	8452.1
289.379	8463.21
289.446	8462.3
289.514	8460.52
289.581	8462.39
289.649	8468.7
289.716	8477.65
289.783	8464.51
289.851	8484.48
289.918	8484.43
289.986	8490.93
290.053	8495.79
290.121	8482.89
290.188	8487.84
290.255	8512.05
290.323	8508.25
290.39	8495.5
290.458	8506.75
290.525	8521.09
290.592	8512.09
290.66	8518.16
290.727	8511.13
290.794	8527.93
290.862	8527.01
290.929	8528.65
290.996	8527.06
291.064	8533.27
291.131	8540.83
291.198	8563.88
291.266	8559.98
291.333	8562.72
291.4	8565.18
291.468	8584.48
291.535	8581.64
291.602	8585.68
291.669	8581.06
291.737	8587.12
291.804	8591.6
291.871	8606.23
291.938	8613.5
292.006	8646.76
292.073	8659.66
292.14	8668.9
292.207	8660.52
292.275	8665.24
292.342	8679.58
292.409	8707.21
292.476	8738.16
292.543	8729.3
292.611	8726.66
292.678	8751.06
292.745	8774.26
292.812	8786.39
292.879	8780.08
292.946	8788.89
293.014	8798.61
293.081	8803.47
293.148	8812.57
293.215	8830.57
293.282	8828.45
293.349	8834.52
293.416	8810.88
293.484	8825.42
293.551	8842.22
293.618	8863.01
293.685	8887.8
293.752	8882.85
293.819	8881.02
293.886	8860.75
293.953	8873.07
294.02	8883.76
294.087	8881.73
294.154	8870.95
294.221	8892.23
294.288	8897.14
294.356	8915.87
294.423	8924.53
294.49	8921.98
294.557	8943.45
294.624	8938.25
294.691	8955.2
294.758	8962.32
294.825	8972.72
294.892	8959.96
294.959	8953.32
295.026	8957.12
295.093	8946.19
295.16	8948.31
295.226	8946.43
295.293	8974.55
295.36	8979.65
295.427	8991.54
295.494	9009.89
295.561	9018.7
295.628	9034.97
295.695	9048.6
295.762	9047.88
295.829	9062.85
295.896	9081.91
295.963	9087.06
296.03	9097.7
296.096	9103.62
296.163	9111.28
296.23	9128.61
296.297	9147.58
296.364	9151.77
296.431	9162.89
296.498	9161.3
296.564	9184.41
296.631	9189.9
296.698	9172.32
296.765	9197.84
296.832	9190.04
296.899	9172.85
296.965	9194.09
297.032	9167.79
297.099	9184.74
297.166	9200.15
297.233	9195.48
297.299	9190.95
297.366	9188.69
297.433	9189.12
297.5	9201.45
297.566	9204.15
297.633	9205.4
297.7	9210.07
297.767	9208.53
297.833	9204.39
297.9	9212.43
297.967	9198.85
298.033	9209.01
298.1	9244.26
298.167	9227.79
298.234	9229.47
298.3	9244.06
298.367	9241.41
298.434	9251.43
298.5	9240.02
298.567	9230.87
298.634	9236.7
298.7	9255.04
298.767	9260.72
298.834	9277.67
298.9	9271.7
298.967	9265.92
299.033	9271.7
299.1	9283.55
299.167	9302.47
299.233	9303.86
299.3	9315.95
299.366	9330.59
299.433	9350.96
299.5	9321.1
299.566	9328.32
299.633	9352.64
299.699	9358.8
299.766	9355.05
299.832	9364.78
299.899	9376.96
299.965	9391.4
300.032	9383.22
300.099	9383.03
300.165	9391.93
300.232	9388.37
300.298	9388.8
300.365	9404.74
300.431	9406.72
300.498	9399.11
300.564	9403.44
300.631	9412.83
300.697	9428.15
300.763	9425.93
300.83	9414.76
300.896	9433.15
300.963	9449.62
301.029	9449.91
301.096	9455.11
301.162	9468.06
301.229	9461.66
301.295	9454.05
301.361	9455.5
301.428	9464.02
301.494	9450.78
301.561	9449.86
301.627	9452.75
301.693	9455.74
301.76	9460.21
301.826	9453.76
301.892	9469.22
301.959	9479.91
302.025	9481.12
302.092	9473.22
302.158	9483.43
302.224	9490.02
302.291	9484.87
302.357	9476.11
302.423	9469.94
302.49	9463.34
302.556	9479.24
302.622	9480.63
302.688	9488.24
302.755	9504.18
302.821	9506.69
302.887	9522.87
302.954	9519.78
303.02	9523.78
303.086	9531.15
303.152	9527.01
303.219	9524.7
303.285	9528.21
303.351	9532.45
303.417	9529.08
303.483	9523.69
303.55	9519.88
303.616	9526.82
303.682	9521.95
303.748	9518.05
303.815	9530.29
303.881	9535.44
303.947	9514.06
304.013	9512.95
304.079	9502.64
304.145	9485.31
304.212	9480.68
304.278	9474.71
304.344	9470.47
304.41	9467.01
304.476	9455.35
304.542	9451.94
304.608	9460.89
304.674	9441.97
304.741	9435.46
304.807	9443.12
304.873	9448.8
304.939	9465.71
305.005	9440.81
305.071	9440.76
305.137	9438.98
305.203	9416.59
305.269	9416.1
305.335	9432.14
305.401	9436.67
305.467	9438.55
305.533	9444.04
305.599	9460.07
305.666	9465.18
305.732	9471.82
305.798	9475.87
305.864	9505.2
305.93	9503.75
305.996	9503.7
306.062	9504.91
306.128	9498.79
306.194	9484.54
306.259	9477.99
306.325	9465.95
306.391	9480.25
306.457	9490.51
306.523	9490.17
306.589	9511.36
306.655	9504.09
306.721	9488.87
306.787	9471.82
306.853	9485.4
306.919	9470.96
306.985	9458.72
307.051	9453.91
307.117	9445.29
307.183	9444.76
307.248	9416.15
307.314	9428.24
307.38	9429.16
307.446	9435.08
307.512	9428.14
307.578	9435.7
307.644	9439.22
307.709	9436.09
307.775	9430.21
307.841	9425.93
307.907	9431.47
307.973	9417.74
308.039	9423.42
308.104	9422.46
308.17	9423.86
308.236	9413.5
308.302	9414.95
308.368	9405.46
308.433	9406.62
308.499	9402.81
308.565	9388.75
308.631	9392.22
308.696	9370.16
308.762	9356.63
308.828	9358.51
308.894	9340.41
308.959	9313.59
309.025	9294.86
309.091	9296.88
309.156	9289.95
309.222	9289.47
309.288	9276.75
309.354	9253.74
309.419	9245.84
309.485	9239.68
309.551	9244.83
309.616	9225.67
309.682	9225.09
309.748	9218.78
309.813	9210.31
309.879	9199.33
309.945	9194.85
310.01	9181.52
310.076	9186.91
310.141	9185.99
310.207	9159.22
310.273	9165.14
310.338	9175.3
310.404	9166.35
310.469	9153.49
310.535	9141.36
310.601	9117.91
310.666	9128.84
310.732	9138.86
310.797	9128.7
310.863	9116.9
310.928	9112.09
310.994	9119.02
311.059	9105.88
311.125	9102.89
311.191	9112.76
311.256	9106.26
311.322	9107.42
311.387	9092.01
311.453	9457.77
311.518	9427.54
311.584	9434.18
311.649	9434.57
311.715	9420.75
311.78	9420.85
311.846	9413.09
311.911	9423.3
311.976	9425.9
312.042	9407.27
312.107	9390.85
312.173	9384.06
312.238	9378.53
312.304	9366.97
312.369	9358.4
312.434	9356.82
312.5	9354.46
312.565	9321.72
312.631	9325.19
312.696	9318.06
312.761	9319.46
312.827	8942.58
312.892	8981.67
312.958	8978.25
313.023	8975.32
313.088	8976.86
313.154	8966.36
313.219	8952.31
313.284	8935.02
313.35	8934.06
313.415	8918.22
313.48	8913.89
313.546	8913.22
313.611	8925.73
313.676	8918.85
313.741	8905.52
313.807	8911.68
313.872	8912.98
313.937	8919.28
314.003	8924.05
314.068	8919.48
314.133	8929.59
314.198	8910.38
314.264	8889.39
314.329	8879.66
314.394	8875.38
314.459	8874.56
314.525	8889
314.59	8884.28
314.655	8875.24
314.72	8882.07
314.785	8888.81
314.851	8884.86
314.916	8870.28
314.981	8846.74
315.046	8839.28
315.111	8834.13
315.176	8824.31
315.242	8826.72
315.307	8821.71
315.372	8803.76
315.437	8792.73
315.502	8783.83
315.567	8798.36
315.632	8784.74
315.698	8789.22
315.763	8793.36
315.828	8780.6
315.893	8781.86
315.958	8777.43
316.023	8769.87
316.088	8745.76
316.153	8725.83
316.218	8720.3
316.283	8701.29
316.348	8679.83
316.413	8680.41
316.479	8662.94
316.544	8629.35
316.609	8598.07
316.674	8570.59
316.739	8535.71
316.804	8513.33
316.869	8481.43
316.934	8447.98
316.999	8420.75
317.064	8366.33
317.129	8314.21
317.194	8277.17
317.259	8229.29
317.324	8179.36
317.389	8135.35
317.454	8096.04
317.518	8061.56
317.583	8037.55
317.648	8017.25
317.713	7991.81
317.778	7930.48
317.843	7901.33
317.908	7862.91
317.973	7821.98
318.038	7791.39
318.103	7759.71
318.168	7722.2
318.233	7688.01
318.297	7640.98
318.362	7607.03
318.427	7573
318.492	7552.75
318.557	7508.39
318.622	7479.39
318.687	7463.15
318.751	7426.09
318.816	7402.68
318.881	7369.85
318.946	7310.15
319.011	7264.68
319.075	7225.99
319.14	7200.19
319.205	7162.08
319.27	7130.51
319.335	7086.84
319.399	7044.36
319.464	7017.12
319.529	6967.93
319.594	6930.65
319.658	6901.68
319.723	6855.8
319.788	6827.08
319.853	6772.02
319.917	6744.56
319.982	6689.37
320.047	6651.71
320.112	6629.19
320.176	6575.36
320.241	6541.93
320.306	6518.36
320.37	6477.36
320.435	6448.65
320.5	6420.32
320.564	6380.62
320.629	6339.24
320.694	6312.22
320.758	6274.93
320.823	6230.97
320.888	6210.29
320.952	6162.83
321.017	6118.58
321.082	6081.4
321.146	6048.05
321.211	6017.87
321.275	5982.22
321.34	5942.23
321.405	5898.77
321.469	5845.82
321.534	5803.96
321.598	5755.28
321.663	5725.01
321.727	5697.53
321.792	5646.03
321.857	5601.38
321.921	5562.55
321.986	5522.48
322.05	5465.3
322.115	5427.24
322.179	5383.4
322.244	5319.14
322.308	5286.27
322.373	5238.65
322.437	5198.07
322.502	5169.26
322.566	5120.44
322.631	5081.59
322.695	5042.03
322.76	4995.05
322.824	4967.32
322.889	4929.41
322.953	4886.56
323.018	4817.46
323.082	4751.6
323.146	4703.36
323.211	4648.55
323.275	4603.46
323.34	4559.77
323.404	4524.95
323.468	4482.17
323.533	4443.46
323.597	4404.59
323.662	4352.64
323.726	4319.4
323.79	4272.1
323.855	4204.79
323.919	4160.9
323.983	4115.61
324.048	4050.68
324.112	4215.21
324.177	4086.05
324.241	3873.69
324.305	3666.45
324.37	3465.85
324.434	3272.28
324.498	3229.37
324.562	3179.66
324.627	3120.42
324.691	3064.71
324.755	3001.8
324.82	2924.94
324.884	2845.78
324.948	2775.43
325.012	2683.07
325.077	2560.88
