Data from 20250704_urea_0.5M_MAYP1162681_11-05-16-769.txt Node
Date: Fri Jul 04 11:05:16 BST 2025
User: adleo
Spectrometer: MAYP116268
Trigger mode: 0
Integration Time (sec): 1.000000E0
Scans to average: 1
Electric dark correction enabled: true
Nonlinearity correction enabled: true
Boxcar width: 10
XAxis mode: Wavelengths
Number of Pixels in Spectrum: 2068
>>>>>Begin Spectral Data<<<<<
179.565	1236.88
179.642	1296.47
179.718	1341.74
179.795	1383.47
179.871	1418.9
179.948	1437.81
180.024	1458.95
180.101	1482.56
180.177	1498.75
180.254	1521.31
180.33	1542.01
180.407	1599.6
180.483	1697.57
180.56	1790.74
180.636	1876.86
180.712	1862.17
180.789	1874.15
180.865	1887.83
180.942	1893.49
181.018	1903.47
181.095	1913.03
181.171	1918.88
181.248	1919.12
181.324	1934.53
181.4	1940.18
181.477	1949.84
181.553	1962.62
181.63	1984.45
181.706	1996.91
181.782	2004.66
181.859	2004.18
181.935	2011.6
182.011	2006.94
182.088	2026.25
182.164	2044.62
182.24	2056.79
182.317	2069.48
182.393	2069.39
182.469	2084.37
182.546	2100.68
182.622	2104.49
182.698	2101.78
182.775	2114.14
182.851	2129.75
182.927	2123.09
183.003	2119.47
183.08	2114.19
183.156	2121.23
183.232	2114.76
183.308	2105.3
183.385	2113.57
183.461	2132.74
183.537	2133.32
183.613	2146.49
183.69	2134.22
183.766	2123.8
183.842	2133.83
183.918	2137.21
183.995	2149.2
184.071	2151.53
184.147	2145.3
184.223	2136.55
184.299	2148.63
184.375	2137.5
184.452	2144.4
184.528	2189.5
184.604	2200.2
184.68	2211.95
184.756	2222.42
184.832	2229.23
184.908	2232.94
184.985	2231.6
185.061	2216.28
185.137	2225.09
185.213	2213.34
185.289	2215.24
185.365	2210.1
185.441	2206.72
185.517	2218.43
185.593	2217.38
185.669	2215
185.745	2226.23
185.822	2242.55
185.898	2234.79
185.974	2246.54
186.05	2235.17
186.126	2203.39
186.202	2196.35
186.278	2195.49
186.354	2184.64
186.43	2191.31
186.506	2195.4
186.582	2194.83
186.658	2200.2
186.734	2180.13
186.81	2182.65
186.886	2183.27
186.962	2192.97
187.038	2190.59
187.114	2185.02
187.19	2190.02
187.266	2177.99
187.341	2177.94
187.417	2170.9
187.493	2170.37
187.569	2169.99
187.645	2167.57
187.721	2159.34
187.797	2167.04
187.873	2166.66
187.949	2164.19
188.025	2158.76
188.101	2157.14
188.176	2164.04
188.252	2160.62
188.328	2169.51
188.404	2169.79
188.48	2168.27
188.556	2162.42
188.632	2161.09
188.707	2163.8
188.783	2161.99
188.859	2159.62
188.935	2148.43
189.011	2155.76
189.086	2151
189.162	2144.77
189.238	2137.4
189.314	2134.36
189.39	2126.27
189.465	2118.56
189.541	2132.69
189.617	2116.09
189.693	2110.96
189.768	2111.24
189.844	2136.94
189.92	2127.67
189.996	2135.05
190.071	2146.32
190.147	2143.37
190.223	2153.56
190.298	2142.28
190.374	2129.77
190.45	2140.13
190.526	2151.46
190.601	2143.13
190.677	2143.8
190.753	2170.6
190.828	2177.49
190.904	2190.91
190.98	2209.09
191.055	2219.75
191.131	2213.32
191.207	2232.83
191.282	2245.62
191.358	2238.77
191.433	2219.82
191.509	2235.09
191.585	2232.43
191.66	2230.28
191.736	2240.08
191.811	2231.47
191.887	2248.89
191.963	2273.59
192.038	2279.11
192.114	2275.3
192.189	2279.68
192.265	2277.06
192.34	2255.5
192.416	2254.4
192.491	2249.55
192.567	2250.74
192.642	2253.35
192.718	2252.74
192.793	2241.65
192.869	2236.65
192.944	2241.03
193.02	2253.4
193.095	2255.78
193.171	2261.21
193.246	2260.68
193.322	2257.92
193.397	2258.59
193.473	2243.36
193.548	2223.7
193.624	2230.18
193.699	2230.41
193.775	2247.84
193.85	2250.78
193.925	2258.49
194.001	2257.54
194.076	2251.31
194.152	2240.98
194.227	2235.22
194.302	2223.52
194.378	2227.99
194.453	2223.76
194.529	2234.75
194.604	2215.72
194.679	2209.82
194.755	2190.37
194.83	2202.41
194.905	2200.74
194.981	2211.31
195.056	2204.65
195.131	2211.07
195.207	2209.6
195.282	2201.7
195.357	2181.42
195.433	2195.03
195.508	2185.37
195.583	2194.36
195.659	2207.55
195.734	2214.78
195.809	2216.02
195.884	2225.62
195.96	2224.67
196.035	2243.33
196.11	2236.09
196.185	2251.98
196.261	2256.69
196.336	2291.38
196.411	2279.15
196.486	2284.53
196.561	2275.91
196.637	2285.33
196.712	2302.04
196.787	2306.52
196.862	2320.89
196.937	2332.36
197.013	2338.97
197.088	2349.01
197.163	2370.68
197.238	2387.87
197.313	2385.49
197.388	2398.01
197.464	2428.78
197.539	2442.34
197.614	2435.25
197.689	2451.05
197.764	2465.63
197.839	2485.67
197.914	2475.15
197.989	2499.53
198.065	2513.86
198.14	2565.7
198.215	2592.13
198.29	2604.75
198.365	2618.71
198.44	2631.9
198.515	2660.24
198.59	2675.77
198.665	2701.78
198.74	2708.22
198.815	2711.08
198.89	2737.18
198.965	2768.11
199.04	2764.58
199.115	2781.06
199.19	2823.13
199.265	2824.18
199.34	2833.86
199.415	2865.7
199.49	2887.52
199.565	2894.67
199.64	2918.12
199.715	2914.16
199.79	2921.74
199.865	2928.27
199.94	2926.84
200.015	2957.59
200.09	2963.22
200.165	2967.6
200.24	2973.99
200.315	3016.17
200.39	3031.52
200.464	3036.2
200.539	3037.87
200.614	3054.98
200.689	3076.34
200.764	3082.31
200.839	3100.94
200.914	3106.23
200.989	3095.97
201.063	3115.67
201.138	3100.66
201.213	3101.85
201.288	3083.45
201.363	3088.36
201.438	3087.79
201.512	3100.04
201.587	3080.29
201.662	3086.3
201.737	3103.14
201.812	3110.58
201.886	3077.26
201.961	3088.71
202.036	3078.61
202.111	3074.94
202.186	3042.01
202.26	3026.7
202.335	3007.82
202.41	3001.24
202.485	2981.98
202.559	2963.92
202.634	2934.41
202.709	2944.03
202.784	2923.34
202.858	2925.3
202.933	2907.42
203.008	2902.47
203.082	2883.07
203.157	2883.45
203.232	2839.05
203.306	2813.68
203.381	2782.32
203.456	2759.06
203.53	2732.26
203.605	2714.4
203.68	2691.47
203.754	2687.09
203.829	2669.51
203.904	2647.17
203.978	2634.06
204.053	2641.97
204.127	2629.4
204.202	2627.73
204.277	2611.82
204.351	2604.2
204.426	2594.53
204.5	2583.81
204.575	2546.53
204.65	2560.39
204.724	2552.1
204.799	2559.38
204.873	2555.76
204.948	2554.95
205.022	2542
205.097	2535.09
205.171	2546.62
205.246	2555
205.32	2553.86
205.395	2554.96
205.469	2545.1
205.544	2549.49
205.618	2529.05
205.693	2542.1
205.767	2528.92
205.842	2550.88
205.916	2546.88
205.991	2536.73
206.065	2547.21
206.14	2564.87
206.214	2557.53
206.289	2550.95
206.363	2566.2
206.438	2568.67
206.512	2578.77
206.586	2600.39
206.661	2607.97
206.735	2589.54
206.81	2591.78
206.884	2610.02
206.958	2602.26
207.033	2621.44
207.107	2636.08
207.181	2675.53
207.256	2671.96
207.33	2698.87
207.405	2714.03
207.479	2742.72
207.553	2761.3
207.628	2752.48
207.702	2772.68
207.776	2776.07
207.851	2793.32
207.925	2817.78
207.999	2832.89
208.073	2843.23
208.148	2859.77
208.222	2868.49
208.296	2918.05
208.371	2956.55
208.445	2991.84
208.519	3041.42
208.593	3082.14
208.668	3102.66
208.742	3134.88
208.816	3169.31
208.89	3220.9
208.965	3259.97
209.039	3307.23
209.113	3367.61
209.187	3434.82
209.261	3479.06
209.336	3552.78
209.41	3626.95
209.484	3685.86
209.558	3764.5
209.632	3840.5
209.707	3920.11
209.781	4012.11
209.855	4101.67
209.929	4197.48
210.003	4282.7
210.077	4368.42
210.151	4505.69
210.226	4633.78
210.3	4760.77
210.374	4885.35
210.448	4989.57
210.522	5102.88
210.596	5224.97
210.67	5345.97
210.744	5513.09
210.818	5668.04
210.892	5813.79
210.966	5940.45
211.041	6093.06
211.115	6230.53
211.189	6395.42
211.263	6556.61
211.337	6708.33
211.411	6875.2
211.485	7023.01
211.559	7194.7
211.633	7352.69
211.707	7480.24
211.781	7655.97
211.855	7785.28
211.929	7951.54
212.003	8107.91
212.077	8298.91
212.151	8482.66
212.225	8672.59
212.299	8838.82
212.373	9009.59
212.447	9183.77
212.52	9396.62
212.594	9582.2
212.668	9777.61
212.742	9956.15
212.816	10144.24
212.89	10334.07
212.964	10526.45
213.038	10718.65
213.112	10920.63
213.186	11142.5
213.26	11318.57
213.333	11471.87
213.407	11670.17
213.481	11859.46
213.555	12062.69
213.629	12237.03
213.703	12422.07
213.777	12620.71
213.85	12788.16
213.924	13015.82
213.998	13213.26
214.072	13400.68
214.146	13582.99
214.219	13772.09
214.293	13955.37
214.367	14138.88
214.441	14329.38
214.515	14499.16
214.588	14663.53
214.662	14813.16
214.736	14963.75
214.81	15148.03
214.883	15327.39
214.957	15488.77
215.031	15650.97
215.105	15795.29
215.178	15951.6
215.252	16105.59
215.326	16234.33
215.4	16385.63
215.473	16498.7
215.547	16635.38
215.621	16771.82
215.694	16926.96
215.768	17047.45
215.842	17174.68
215.915	17307.16
215.989	17426.83
216.063	17555.12
216.136	17693.77
216.21	17831.21
216.284	17973.18
216.357	18110.39
216.431	18234.43
216.504	18375.49
216.578	18519.67
216.652	18658.42
216.725	18780.92
216.799	18909.97
216.873	19034.98
216.946	19162.97
217.02	19268.12
217.093	19382.19
217.167	19464.02
217.24	19549.94
217.314	19655.04
217.387	19750.6
217.461	19841.59
217.535	19955.51
217.608	20043.7
217.682	20132.33
217.755	20233.53
217.829	20318.45
217.902	20401.44
217.976	20489.97
218.049	20566.35
218.123	20631.51
218.196	20721.01
218.27	20792.82
218.343	20846.41
218.417	20926.08
218.49	20998.08
218.563	21087.05
218.637	21158.92
218.71	21254.16
218.784	21336.38
218.857	21424.06
218.931	21505.61
219.004	21573.71
219.077	21640.13
219.151	21713.01
219.224	21769.99
219.298	21833.66
219.371	21909.01
219.444	21962.66
219.518	22021.66
219.591	22076.8
219.665	22171.1
219.738	22224.9
219.811	22269.77
219.885	22343.82
219.958	22403.79
220.031	22449.97
220.105	22509.08
220.178	22563.9
220.251	22594.41
220.325	22635.3
220.398	22677.53
220.471	22721.69
220.544	22769.18
220.618	22800.95
220.691	22839.18
220.764	22878.19
220.838	22918.74
220.911	22942.56
220.984	22988.79
221.057	23018.98
221.131	23045.16
221.204	23041.44
221.277	23083.58
221.35	23147.91
221.424	23158.76
221.497	23175.2
221.57	23190.72
221.643	23210.59
221.716	23227.08
221.79	23257.46
221.863	23275.93
221.936	23278.82
222.009	23291.84
222.082	23315.57
222.155	23322.9
222.229	23342.96
222.302	23362.97
222.375	23379.12
222.448	23393.4
222.521	23401.79
222.594	23408.06
222.667	23407.62
222.74	23423.92
222.814	23422.52
222.887	23410.9
222.96	23434.63
223.033	23448.56
223.106	23464.19
223.179	23472.34
223.252	23479.47
223.325	23473.54
223.398	23476.77
223.471	23485.21
223.544	23486.61
223.617	23485.26
223.69	23476.19
223.763	23467.13
223.837	23476.63
223.91	23463.95
223.983	23446.34
224.056	23431.35
224.129	23436.17
224.202	23453.24
224.275	23447.26
224.348	23432.41
224.42	23419.92
224.493	23391.56
224.566	23376.47
224.639	23370.39
224.712	23350.81
224.785	23339
224.858	23335.33
224.931	23310.45
225.004	23298.88
225.077	23292.85
225.15	23253.31
225.223	23243.91
225.296	23248.06
225.369	23205.77
225.442	23174.19
225.514	23154.27
225.587	23140.72
225.66	23124.14
225.733	23101.38
225.806	23072.78
225.879	23054.61
225.952	23028.96
226.025	23020.18
226.097	23009.47
226.17	22986.96
226.243	22951.86
226.316	22922.49
226.389	22892.6
226.461	22890.28
226.534	22863.96
226.607	22835.56
226.68	22841.64
226.753	22824.91
226.825	22782.04
226.898	22779.49
226.971	22765.89
227.044	22752.49
227.117	22726.84
227.189	22711.27
227.262	22703.55
227.335	22691.5
227.407	22663.49
227.48	22644.83
227.553	22627.96
227.626	22602.79
227.698	22571.64
227.771	22549.47
227.844	22523.58
227.916	22510.27
227.989	22462.98
228.062	22434.2
228.134	22437.96
228.207	22403.11
228.28	22370.95
228.352	22341.02
228.425	22307.17
228.498	22291.31
228.57	22258.34
228.643	22247.97
228.716	22211.05
228.788	22172.87
228.861	22145.05
228.934	22134.16
229.006	22107.74
229.079	22077.85
229.151	22044.59
229.224	22009.83
229.296	21993.93
229.369	21993.3
229.442	21982.89
229.514	21951.27
229.587	21943.17
229.659	21889.66
229.732	21868.41
229.804	21854.23
229.877	21854.67
229.949	21849.61
230.022	21845.85
230.094	21823.43
230.167	21801.74
230.239	21782.56
230.312	21750.26
230.384	21756.34
230.457	21726.36
230.529	21704.76
230.602	21680.95
230.674	21663.12
230.747	21655.16
230.819	21639.93
230.892	21578.77
230.964	21545.84
231.037	21528.15
231.109	21495.91
231.181	21477.74
231.254	21432.48
231.326	21408.38
231.399	21376.81
231.471	21338.68
231.544	21286.24
231.616	21270.87
231.688	21244.94
231.761	21197.85
231.833	21177.94
231.905	21116.78
231.978	21094.46
232.05	21072.25
232.122	21048.15
232.195	21006.7
232.267	20989.83
232.339	20961.44
232.412	20956.52
232.484	20919.7
232.556	20883.61
232.629	20874.74
232.701	20856.66
232.773	20845.92
232.846	20809.15
232.918	20783.99
232.99	20756.23
233.062	20734.73
233.135	20700.18
233.207	20647.79
233.279	20630.68
233.351	20593.81
233.424	20557.86
233.496	20508.08
233.568	20481.48
233.64	20434.39
233.713	20398.92
233.785	20358.87
233.857	20315.31
233.929	20256.42
234.001	20236.18
234.074	20221.62
234.146	20164.37
234.218	20132.42
234.29	20088.52
234.362	20047.46
234.434	19994.25
234.507	19950.4
234.579	19899.65
234.651	19864.38
234.723	19848.62
234.795	19824.81
234.867	19800.24
234.939	19784.04
235.012	19760.72
235.084	19737.06
235.156	19711.03
235.228	19675.18
235.3	19637.83
235.372	19608.44
235.444	19597.84
235.516	19546.18
235.588	19517.89
235.66	19493.17
235.732	19443.72
235.804	19471.1
235.876	19457.41
235.948	19443.05
236.02	19414.42
236.092	19371.97
236.164	19338.62
236.236	19300.17
236.308	19253.71
236.38	19215.26
236.452	19171.64
236.524	19136.37
236.596	19110.88
236.668	19079.84
236.74	19051.56
236.812	19021.1
236.884	18993.63
236.956	18959.9
237.028	18924.62
237.1	18875.18
237.172	18855.62
237.244	18844.68
237.316	18771.76
237.388	18729.74
237.46	18686.61
237.532	18658.18
237.604	18622.28
237.675	18607.1
237.747	18578.28
237.819	18548.31
237.891	18511.73
237.963	18476.55
238.035	18439.74
238.107	18361.86
238.178	18342.34
238.25	18298.83
238.322	18282.88
238.394	18236.03
238.466	18196.47
238.538	18165.43
238.609	18134.83
238.681	18081.1
238.753	18034.79
238.825	17999.61
238.897	17960.14
238.968	17944.24
239.04	17910.12
239.112	17907.13
239.184	17857.06
239.255	17818.03
239.327	17783.42
239.399	17753.5
239.471	17722.12
239.542	17693.06
239.614	17684.1
239.686	17620.78
239.758	17598.85
239.829	17552.39
239.901	17524.49
239.973	17486.13
240.044	17458.08
240.116	17430.46
240.188	17396.83
240.259	17354.03
240.331	17310.37
240.403	17290.95
240.474	17230.32
240.546	17169.93
240.618	17108.73
240.689	17070.17
240.761	17035.23
240.833	17012.39
240.904	16977.44
240.976	16938.7
241.048	16905.54
241.119	16882.65
241.191	16853.34
241.262	16843.08
241.334	16805.58
241.405	16773.82
241.477	16739.65
241.549	16701.72
241.62	16671.12
241.692	16644.08
241.763	16634.97
241.835	16605.09
241.906	16568.27
241.978	16533.18
242.049	16520.17
242.121	16505.51
242.192	16480.55
242.264	16438.71
242.335	16384.73
242.407	16360.25
242.478	16327.18
242.55	16299.66
242.621	16255.52
242.693	16225.63
242.764	16178.98
242.836	16148.66
242.907	16120.22
242.979	16094.39
243.05	16065.71
243.122	16038.38
243.193	15996.5
243.264	15934.9
243.336	15906.13
243.407	15879.57
243.479	15863.66
243.55	15840.48
243.622	15808.38
243.693	15774.06
243.764	15761.38
243.836	15727.69
243.907	15689.56
243.978	15651.29
244.05	15616.25
244.121	15556.96
244.192	15534.64
244.264	15489.19
244.335	15448.41
244.407	15397.66
244.478	15366.76
244.549	15327.38
244.62	15282.36
244.692	15256.86
244.763	15234.93
244.834	15198.53
244.906	15161.8
244.977	15138.86
245.048	15118.28
245.119	15082.08
245.191	15045.64
245.262	14984.9
245.333	14976.32
245.405	14948.99
245.476	14927.97
245.547	14910.47
245.618	14901.32
245.689	14869.6
245.761	14844.48
245.832	14822.5
245.903	14805.78
245.974	14781.34
246.045	14755.35
246.117	14744.41
246.188	14707.39
246.259	14671.86
246.33	14637.73
246.401	14595.89
246.473	14543.64
246.544	14507.49
246.615	14487.48
246.686	14457.4
246.757	14450.07
246.828	14396.95
246.899	14384.95
246.97	14341.8
247.042	14297.84
247.113	14279.96
247.184	14271.14
247.255	14240.67
247.326	14213.77
247.397	14180.32
247.468	14152.31
247.539	14130.52
247.61	14089.01
247.681	14071.03
247.752	14059.08
247.823	14022.06
247.894	14006.97
247.965	13974.04
248.037	13943.19
248.108	13902.26
248.179	13875.41
248.25	13845.38
248.321	13837.57
248.392	13793.94
248.463	13791.1
248.534	13766.23
248.605	13747.33
248.675	13722.07
248.746	13699.12
248.817	13676.8
248.888	13658.1
248.959	13620.11
249.03	13593.26
249.101	13566.07
249.172	13526.06
249.243	13475.3
249.314	13466.28
249.385	13443
249.456	13419.38
249.527	13388.91
249.598	13368.42
249.669	13351.6
249.739	13338.01
249.81	13312.17
249.881	13269.07
249.952	13243.43
250.023	13221.15
250.094	13174.73
250.165	13138.48
250.235	13116.93
250.306	13091.96
250.377	13063.81
250.448	13043.75
250.519	13003.69
250.59	12996.95
250.66	12975.54
250.731	12967.54
250.802	12946.91
250.873	12934.47
250.944	12917.55
251.014	12889.5
251.085	12890.56
251.156	12866.74
251.227	12846.45
251.297	12839.65
251.368	12837.29
251.439	12825.72
251.51	12819.93
251.58	12784.7
251.651	12753.65
251.722	12736.3
251.792	12702.94
251.863	12675.37
251.934	12664.18
252.005	12672.09
252.075	12653.34
252.146	12648.08
252.217	12641.48
252.287	12625.43
252.358	12596.74
252.429	12602.53
252.499	12577.17
252.57	12555.77
252.641	12538.42
252.711	12510.07
252.782	12471.8
252.852	12467.22
252.923	12447.17
252.994	12419.79
253.064	12424.61
253.135	12403.4
253.205	12380.4
253.276	12378.72
253.347	12373.17
253.417	12341.31
253.488	12315.91
253.558	12281.88
253.629	12256.86
253.699	12240.57
253.77	12233.62
253.841	12214.78
253.911	12192.36
253.982	12177.32
254.052	12164.45
254.123	12145.99
254.193	12136.01
254.264	12162.57
254.334	12129.12
254.405	12095.86
254.475	12068.97
254.546	12041.15
254.616	12034.16
254.687	12025.73
254.757	12008.95
254.827	11990.35
254.898	11977.67
254.968	11959.84
255.039	11939.93
255.109	11937.71
255.18	11901.13
255.25	11850.67
255.321	11834.57
255.391	11798.51
255.461	11805.07
255.532	11764.97
255.602	11753.78
255.673	11712.91
255.743	11679.07
255.813	11642.44
255.884	11634.88
255.954	11626.59
256.024	11632.66
256.095	11618.97
256.165	11577.52
256.235	11561.71
256.306	11534.39
256.376	11533.85
256.446	11521.61
256.517	11513.71
256.587	11507.06
256.657	11493.51
256.728	11489.27
256.798	11474.04
256.868	11456.74
256.938	11428.11
257.009	11424.3
257.079	11412.06
257.149	11421.89
257.219	11381.75
257.29	11372.4
257.36	11334.23
257.43	11321.55
257.5	11279.24
257.571	11253.26
257.641	11247.53
257.711	11220.1
257.781	11207.67
257.852	11193.16
257.922	11150.51
257.992	11128.97
258.062	11101.16
258.132	11096.83
258.202	11077.5
258.273	11059.43
258.343	11060.73
258.413	11029.36
258.483	11002.47
258.553	10968.5
258.623	10942.76
258.693	10928.98
258.764	10926.18
258.834	10928.45
258.904	10916.16
258.974	10889.85
259.044	10870.82
259.114	10864.17
259.184	10851.93
259.254	10838
259.324	10795.89
259.394	10797.76
259.464	10798.78
259.535	10777.09
259.605	10754.06
259.675	10726.5
259.745	10714.02
259.815	10683.85
259.885	10665.74
259.955	10687.04
260.025	10665.55
260.095	10650.37
260.165	10637.84
260.235	10642.95
260.305	10613.75
260.375	10577.42
260.445	10591.88
260.515	10594.53
260.585	10590.14
260.655	10568.22
260.725	10561.62
260.795	10560.51
260.865	10562.1
260.934	10538.44
261.004	10530.49
261.074	10512.71
261.144	10517.67
261.214	10512.08
261.284	10498.88
261.354	10494.6
261.424	10459.32
261.494	10463.13
261.564	10452.86
261.634	10450.65
261.703	10411.91
261.773	10406.32
261.843	10402.23
261.913	10387.1
261.983	10350.63
262.053	10339.45
262.123	10325.86
262.192	10301.78
262.262	10293.49
262.332	10256.3
262.402	10244.69
262.472	10234.66
262.541	10200.75
262.611	10196.08
262.681	10170.74
262.751	10167.08
262.821	10148.05
262.89	10123.82
262.96	10112.21
263.03	10112.21
263.1	10103.15
263.169	10096.07
263.239	10090.1
263.309	10102.72
263.379	10092.07
263.448	10082.1
263.518	10072.13
263.588	10066.88
263.657	10068.9
263.727	10069.14
263.797	10059.03
263.867	10047.51
263.936	10016.2
264.006	10017.7
264.076	10005.7
264.145	9989.81
264.215	9962.78
264.285	9961.05
264.354	9929.98
264.424	9916.83
264.494	9894.53
264.563	9873.19
264.633	9876.47
264.702	9860.96
264.772	9823.82
264.842	9804.79
264.911	9797.13
264.981	9766.64
265.05	9751.52
265.12	9734.13
265.19	9722.57
265.259	9720.54
265.329	9713.27
265.398	9704.7
265.468	9719
265.537	9692.51
265.607	9688.9
265.676	9688.42
265.746	9680.95
265.815	9682.64
265.885	9659.57
265.955	9634.63
266.024	9616.76
266.094	9580.25
266.163	9587.24
266.232	9594.51
266.302	9577.08
266.371	9569.42
266.441	9558.49
266.51	9549.34
266.58	9532.77
266.649	9504.93
266.719	9502.77
266.788	9494.19
266.858	9501.85
266.927	9468.33
266.996	9459.95
267.066	9455.86
267.135	9430.34
267.205	9424.22
267.274	9417.77
267.343	9418.69
267.413	9403.18
267.482	9410.94
267.552	9413.06
267.621	9386.42
267.69	9354.4
267.76	9345.54
267.829	9332.01
267.898	9322.43
267.968	9305.05
268.037	9299.94
268.106	9304.33
268.176	9279.29
268.245	9263.44
268.314	9242.3
268.384	9247.7
268.453	9240.43
268.522	9223.23
268.592	9229.11
268.661	9212.93
268.73	9203.78
268.799	9188.66
268.869	9199.4
268.938	9163.05
269.007	9152.89
269.076	9141.67
269.146	9140.95
269.215	9137.48
269.284	9151.49
269.353	9132.62
269.422	9120.83
269.492	9105.76
269.561	9063.06
269.63	9059.5
269.699	9042.5
269.768	9039.42
269.838	9030.51
269.907	9030.99
269.976	9011.55
270.045	8984.44
270.114	8982.42
270.183	8964.08
270.253	8963.17
270.322	8931.16
270.391	8925.24
270.46	8923.79
270.529	8920.95
270.598	8915.99
270.667	8896.11
270.736	8869.54
270.806	8873.92
270.875	8878.54
270.944	8868.77
271.013	8890.76
271.082	8885.18
271.151	8886.62
271.22	8852.16
271.289	8835.27
271.358	8818.08
271.427	8810.91
271.496	8798.93
271.565	8787.85
271.634	8780.06
271.703	8800.9
271.772	8804.23
271.841	8795.03
271.91	8771.93
271.979	8766.68
272.048	8743.53
272.117	8750.75
272.186	8734.91
272.255	8724.04
272.324	8717.59
272.393	8718.55
272.462	8704.78
272.531	8696.69
272.6	8680.62
272.669	8692.31
272.738	8689.66
272.807	8689.04
272.876	8673.21
272.945	8704.44
273.013	8704.35
273.082	8714.12
273.151	8665.21
273.22	8664.68
273.289	8654.77
273.358	8664.2
273.427	8651.16
273.496	8655.97
273.564	8653.71
273.633	8658.76
273.702	8648.85
273.771	8640.72
273.84	8632.34
273.909	8628.68
273.977	8624.55
274.046	8620.21
274.115	8625.89
274.184	8605.49
274.253	8594.37
274.322	8607.85
274.39	8574.16
274.459	8561.26
274.528	8535.56
274.597	8533.78
274.665	8534.74
274.734	8545.52
274.803	8538.11
274.872	8539.74
274.94	8524.44
275.009	8582.32
275.078	8567.98
275.147	8563.94
275.215	8559.75
275.284	8564.32
275.353	8551.62
275.421	8529.68
275.49	8541.13
275.559	8528.52
275.627	8523.95
275.696	8519.19
275.765	8514.04
275.833	8507.3
275.902	8506.63
275.971	8519.04
276.039	8533.19
276.108	8531.12
276.177	8529.24
276.245	8516.4
276.314	8505.91
276.383	8511.92
276.451	8449.32
276.52	8454.71
276.588	8466.41
276.657	8472.57
276.725	8461.16
276.794	8464.34
276.863	8473.87
276.931	8454.76
277	8465.4
277.068	8472.95
277.137	8492.1
277.205	8489.6
277.274	8510.24
277.342	8515.59
277.411	8494.75
277.48	8486.28
277.548	8481.9
277.617	8479.64
277.685	8471.03
277.754	8472.19
277.822	8465.45
277.89	8473.05
277.959	8465.93
278.027	8446.64
278.096	8431.33
278.164	8458.09
278.233	8451.69
278.301	8442.22
278.37	8444.57
278.438	8424.27
278.507	8432.25
278.575	8403.77
278.643	8402.56
278.712	8380.38
278.78	8368.16
278.849	8384.42
278.917	8391.06
278.985	8380.86
279.054	8383.5
279.122	8396.01
279.191	8396.3
279.259	8393.27
279.327	8368.54
279.396	8385.96
279.464	8386.15
279.532	8392.89
279.601	8385.86
279.669	8381.77
279.737	8398.95
279.806	8406.07
279.874	8417.86
279.942	8410.93
280.011	8407.94
280.079	8418.48
280.147	8439.85
280.215	8442.64
280.284	8438.16
280.352	8425.08
280.42	8432.77
280.488	8425.8
280.557	8420.46
280.625	8425.94
280.693	8426.57
280.761	8432.63
280.83	8410.98
280.898	8422.43
280.966	8406.16
281.034	8379.55
281.102	8367.96
281.171	8360.26
281.239	8369.89
281.307	8362.19
281.375	8353.91
281.443	8378.36
281.512	8369.4
281.58	8370.17
281.648	8354.35
281.716	8352.61
281.784	8350.5
281.852	8348.81
281.92	8349.39
281.989	8360.99
282.057	8344.87
282.125	8389
282.193	8386.84
282.261	8391.5
282.329	8384.09
282.397	8386.64
282.465	8391.21
282.533	8408.15
282.601	8401.17
282.67	8376.15
282.738	8368.6
282.806	8377.16
282.874	8367.58
282.942	8371.19
283.01	8371.19
283.078	8384.04
283.146	8372.54
283.214	8386.88
283.282	8383.46
283.35	8396.7
283.418	8393.81
283.486	8395.78
283.554	8354.15
283.622	8355.3
283.69	8354.49
283.758	8353.96
283.826	8363.48
283.894	8370.75
283.962	8392.74
284.03	8407.32
284.098	8407.71
284.165	8404.82
284.233	8406.65
284.301	8402.27
284.369	8394.52
284.437	8384.46
284.505	8373.45
284.573	8401.31
284.641	8393.12
284.709	8405.49
284.777	8384.51
284.845	8387.21
284.912	8396.78
284.98	8401.98
285.048	8401.98
285.116	8404.58
285.184	8416.61
285.252	8413.19
285.319	8394.81
285.387	8385.47
285.455	8368.63
285.523	8380.76
285.591	8378.35
285.659	8372.72
285.726	8381
285.794	8366.71
285.862	8367.48
285.93	8374.94
285.997	8366.9
286.065	8355.93
286.133	8346.74
286.201	8349.29
286.269	8334.04
286.336	8326.24
286.404	8317.1
286.472	8324.27
286.539	8304.16
286.607	8285.83
286.675	8288.43
286.743	8300.07
286.81	8288.62
286.878	8297.37
286.946	8284.43
287.013	8287.32
287.081	8295.26
287.149	8281.11
287.216	8301.32
287.284	8290.88
287.352	8288.57
287.419	8276.97
287.487	8288.47
287.555	8296.84
287.622	8294.58
287.69	8300.84
287.758	8308.78
287.825	8303.34
287.893	8286.98
287.96	8293.09
288.028	8308.2
288.096	8310.27
288.163	8314.74
288.231	8304.11
288.298	8305.6
288.366	8320.85
288.433	8312.48
288.501	8301.8
288.569	8301.32
288.636	8294.78
288.704	8309.84
288.771	8311.91
288.839	8313.64
288.906	8310.56
288.974	8310.99
289.041	8308.78
289.109	8302.04
289.176	8307.86
289.244	8319.89
289.311	8341.4
289.379	8351.17
289.446	8349.19
289.514	8348.23
289.581	8348.04
289.649	8352.18
289.716	8353.76
289.783	8347.32
289.851	8369.01
289.918	8365.74
289.986	8382.25
290.053	8388.93
290.121	8383.3
290.188	8390.62
290.255	8412.8
290.323	8411.21
290.39	8403.95
290.458	8410.92
290.525	8426.66
290.592	8420.64
290.66	8418.57
290.727	8406.3
290.794	8421.32
290.862	8418.09
290.929	8421.41
290.996	8418.81
291.064	8425.07
291.131	8438.98
291.198	8454.67
291.266	8457.94
291.333	8469.58
291.4	8470.64
291.468	8490.08
291.535	8489.46
291.602	8493.36
291.669	8488.69
291.737	8490.9
291.804	8494.37
291.871	8509.86
291.938	8514.91
292.006	8546.3
292.073	8558.33
292.14	8572.09
292.207	8566.8
292.275	8573.72
292.342	8580.13
292.409	8605.44
292.476	8633.21
292.543	8620.31
292.611	8610.3
292.678	8630.28
292.745	8650.97
292.812	8662.76
292.879	8658.57
292.946	8662.47
293.014	8676.14
293.081	8684.76
293.148	8698.66
293.215	8715.12
293.282	8710.41
293.349	8720.27
293.416	8698.47
293.484	8713
293.551	8722.25
293.618	8733.89
293.685	8761.86
293.752	8761.18
293.819	8760.66
293.886	8747.66
293.953	8759.69
294.02	8780.15
294.087	8780.82
294.154	8775.57
294.221	8790.4
294.288	8789.58
294.356	8814.9
294.423	8816.63
294.49	8812.35
294.557	8826.69
294.624	8813.07
294.691	8836.99
294.758	8833.48
294.825	8843.3
294.892	8836.08
294.959	8835.69
295.026	8849.12
295.093	8842.24
295.16	8846.81
295.226	8848.79
295.293	8876.8
295.36	8879.69
295.427	8890.91
295.494	8901.11
295.561	8905.16
295.628	8925.14
295.695	8938.23
295.762	8933.85
295.829	8943.05
295.896	8956.38
295.963	8963.7
296.03	8979.58
296.096	8979.92
296.163	8996.72
296.23	9012.13
296.297	9023.05
296.364	9022.52
296.431	9021.32
296.498	9014.92
296.564	9041.92
296.631	9043.08
296.698	9028.3
296.765	9051.21
296.832	9034.08
296.899	9021.9
296.965	9038.02
297.032	9017.94
297.099	9038.5
297.166	9042.35
297.233	9042.11
297.299	9033.01
297.366	9032.24
297.433	9038.21
297.5	9047.36
297.566	9049.82
297.633	9047.55
297.7	9047.22
297.767	9043.22
297.833	9057.86
297.9	9059.69
297.967	9036.97
298.033	9049.19
298.1	9079.34
298.167	9064.46
298.234	9069.03
298.3	9082.7
298.367	9082.8
298.434	9088.63
298.5	9073.8
298.567	9070.52
298.634	9071.77
298.7	9087.66
298.767	9093.15
298.834	9104.42
298.9	9098.25
298.967	9085.83
299.033	9095.56
299.1	9114.05
299.167	9132.82
299.233	9130.22
299.3	9143.94
299.366	9163.34
299.433	9180.34
299.5	9152.55
299.566	9163.68
299.633	9186.59
299.699	9192.03
299.766	9182.6
299.832	9190.25
299.899	9197.33
299.965	9214.47
300.032	9206.82
300.099	9216.11
300.165	9222.8
300.232	9222.32
300.298	9222.61
300.365	9244.37
300.431	9245.87
300.498	9240.95
300.564	9249.96
300.631	9256.51
300.697	9279.28
300.763	9279.57
300.83	9274.71
300.896	9284.53
300.963	9287.9
301.029	9290.65
301.096	9295.99
301.162	9314.43
301.229	9304.13
301.295	9299.6
301.361	9300.61
301.428	9305.09
301.494	9293.15
301.561	9295.65
301.627	9298.3
301.693	9303.55
301.76	9300.66
301.826	9295.22
301.892	9304.41
301.959	9313.47
302.025	9308.75
302.092	9295.46
302.158	9306.44
302.224	9313.03
302.291	9308.75
302.357	9308.89
302.423	9305.04
302.49	9298.35
302.556	9311.3
302.622	9318.81
302.688	9329.5
302.755	9342.84
302.821	9356.61
302.887	9367.54
302.954	9367.54
303.02	9374.43
303.086	9376.3
303.152	9375.68
303.219	9373.56
303.285	9376.64
303.351	9373.95
303.417	9381.22
303.483	9372.16
303.55	9367.69
303.616	9360.7
303.682	9360.27
303.748	9356.27
303.815	9373.13
303.881	9381.8
303.947	9366.68
304.013	9371.35
304.079	9364.03
304.145	9345.34
304.212	9340.91
304.278	9331.86
304.344	9328.78
304.41	9317.37
304.476	9315.25
304.542	9308.32
304.608	9316.12
304.674	9295.41
304.741	9289.83
304.807	9289.59
304.873	9294.45
304.939	9304.85
305.005	9287.13
305.071	9285.35
305.137	9284.63
305.203	9253.76
305.269	9251.55
305.335	9265.03
305.401	9253.38
305.467	9250.2
305.533	9255.54
305.599	9263.2
305.666	9279.38
305.732	9277.6
305.798	9290.21
305.864	9309.91
305.93	9316.46
305.996	9314.14
306.062	9320.26
306.128	9319.58
306.194	9307.21
306.259	9314.05
306.325	9306.01
306.391	9317.56
306.457	9325.99
306.523	9333.11
306.589	9362.49
306.655	9356.85
306.721	9338.31
306.787	9332.54
306.853	9347.22
306.919	9333.55
306.985	9325.03
307.051	9313.37
307.117	9308.75
307.183	9297.68
307.248	9270.37
307.314	9280.15
307.38	9285.11
307.446	9296.23
307.512	9285.2
307.578	9290.55
307.644	9273.55
307.709	9274.42
307.775	9273.17
307.841	9266.67
307.907	9267.97
307.973	9246.15
308.039	9243.12
308.104	9242.98
308.17	9243.79
308.236	9229.83
308.302	9232.43
308.368	9225.01
308.433	9225.01
308.499	9218.18
308.565	9211.87
308.631	9216.69
308.696	9188.86
308.762	9168.92
308.828	9162.33
308.894	9146.49
308.959	9122.85
309.025	9116.93
309.091	9108.17
309.156	9098.44
309.222	9100.27
309.288	9085.2
309.354	9063.92
309.419	9061.56
309.485	9054.77
309.551	9055.16
309.616	9040.81
309.682	9039.61
309.748	9026.51
309.813	9020.35
309.879	9008.7
309.945	8995.7
310.01	8988.39
310.076	8993.25
310.141	8995.51
310.207	8981.65
310.273	8984.73
310.338	8991.13
310.404	8975.44
310.469	8964.94
310.535	8955.6
310.601	8933.51
310.666	8939.09
310.732	8947.27
310.797	8937.26
310.863	8921.81
310.928	8914.11
310.994	8913.72
311.059	8908.14
311.125	8912.04
311.191	8922.92
311.256	8912.09
311.322	8920.37
311.387	8900.25
311.453	9321.51
311.518	9286.61
311.584	9283.63
311.649	9287.58
311.715	9275.59
311.78	9279.59
311.846	9272.27
311.911	9276.17
311.976	9278.29
312.042	9261.1
312.107	9243.87
312.173	9236.6
312.238	9234.92
312.304	9232.36
312.369	9224.61
312.434	9213.01
312.5	9208.73
312.565	9173.88
312.631	9181.92
312.696	9166.95
312.761	9174.26
312.827	8735.96
312.892	8781.16
312.958	8779.18
313.023	8777.4
313.088	8776.92
313.154	8763.4
313.219	8749.87
313.284	8741.45
313.35	8737.84
313.415	8722.44
313.48	8721.43
313.546	8726.53
313.611	8734.76
313.676	8724.94
313.741	8718.01
313.807	8727.88
313.872	8725.67
313.937	8733.22
314.003	8738.95
314.068	8748.09
314.133	8756.13
314.198	8753.34
314.264	8731
314.329	8714.78
314.394	8707.52
314.459	8707.66
314.525	8729.37
314.59	8724.6
314.655	8715.79
314.72	8720.46
314.785	8731.87
314.851	8724.46
314.916	8702.13
314.981	8686.77
315.046	8679.6
315.111	8670.84
315.176	8652.41
315.242	8649.04
315.307	8645.43
315.372	8628.06
315.437	8613.14
315.502	8596.58
315.567	8599.32
315.632	8584.21
315.698	8592.73
315.763	8593.31
315.828	8580.79
315.893	8579.2
315.958	8576.46
316.023	8569.2
316.088	8553.84
316.153	8528.48
316.218	8521.12
316.283	8505.53
316.348	8487.73
316.413	8488.84
316.479	8476.67
316.544	8452.18
316.609	8426.39
316.674	8389.29
316.739	8354.95
316.804	8324.97
316.869	8292.26
316.934	8259.97
316.999	8232.21
317.064	8183.05
317.129	8139.89
317.194	8109.44
317.259	8055.36
317.324	8011.21
317.389	7970.42
317.454	7930.64
317.518	7897.41
317.583	7878.12
317.648	7864.37
317.713	7832.97
317.778	7765.49
317.843	7732.98
317.908	7695.48
317.973	7664.32
318.038	7639.51
318.103	7606.53
318.168	7582.35
318.233	7557.58
318.297	7513.79
318.362	7474.8
318.427	7438.9
318.492	7410.87
318.557	7362.52
318.622	7340.55
318.687	7314.94
318.751	7272.89
318.816	7241.89
318.881	7211.28
318.946	7158.75
319.011	7107.66
319.075	7065.47
319.14	7036.65
319.205	6992.16
319.27	6959.4
319.335	6910.11
319.399	6869.09
319.464	6844.2
319.529	6788.39
319.594	6744.43
319.658	6712.06
319.723	6674.22
319.788	6646.6
319.853	6599.58
319.917	6572.36
319.982	6516.47
320.047	6485.83
320.112	6460.82
320.176	6411.08
320.241	6379.78
320.306	6350.3
320.37	6308.16
320.435	6283.34
320.5	6254.06
320.564	6219.66
320.629	6177.48
320.694	6149.41
320.758	6112.7
320.823	6069.13
320.888	6041.64
320.952	5997.7
321.017	5958.31
321.082	5922.76
321.146	5887.36
321.211	5852.68
321.275	5817.24
321.34	5776.29
321.405	5732.22
321.469	5687.52
321.534	5648.69
321.598	5600.79
321.663	5568.51
321.727	5541.57
321.792	5494.97
321.857	5455.9
321.921	5419.09
321.986	5381.29
322.05	5321.5
322.115	5282.54
322.179	5240.71
322.244	5185.82
322.308	5156.25
322.373	5112.66
322.437	5068.93
322.502	5045.16
322.566	5000.86
322.631	4959.29
322.695	4923.24
322.76	4876.03
322.824	4841.36
322.889	4798.77
322.953	4756.5
323.018	4691.45
323.082	4626.99
323.146	4575.79
323.211	4525.59
323.275	4478.79
323.34	4435.07
323.404	4404.95
323.468	4362.75
323.533	4318.85
323.597	4276.93
323.662	4222.6
323.726	4190.22
323.79	4146.04
323.855	4079.08
323.919	4031.27
323.983	3992.41
324.048	3931.4
324.112	4065
324.177	3940.35
324.241	3738.52
324.305	3535.29
324.37	3339.95
324.434	3151.97
324.498	3108.81
324.562	3058.19
324.627	3002.01
324.691	2947.18
324.755	2885.44
324.82	2809.85
324.884	2735.28
324.948	2665.06
325.012	2573.53
325.077	2445.56
