Data from 20250704_urea_1M_MAYP1162681_11-32-03-661.txt Node
Date: Fri Jul 04 11:32:03 BST 2025
User: adleo
Spectrometer: MAYP116268
Trigger mode: 0
Integration Time (sec): 1.000000E0
Scans to average: 1
Electric dark correction enabled: true
Nonlinearity correction enabled: true
Boxcar width: 10
XAxis mode: Wavelengths
Number of Pixels in Spectrum: 2068
>>>>>Begin Spectral Data<<<<<
179.565	1254.06
179.642	1314.35
179.718	1355.54
179.795	1395.47
179.871	1427.69
179.948	1446.52
180.024	1469.24
180.101	1493.26
180.177	1508.66
180.254	1531.06
180.33	1555.41
180.407	1612.96
180.483	1712.49
180.56	1808.23
180.636	1893.31
180.712	1878.85
180.789	1889.88
180.865	1900.05
180.942	1905.52
181.018	1918.83
181.095	1932.48
181.171	1935.38
181.248	1936.05
181.324	1954.74
181.4	1962.72
181.477	1976.85
181.553	1992.2
181.63	2014.46
181.706	2031.25
181.782	2040.38
181.859	2038.57
181.935	2042.09
182.011	2036.15
182.088	2052.22
182.164	2068.16
182.24	2085.33
182.317	2097.12
182.393	2096.55
182.469	2111.86
182.546	2127.04
182.622	2130.79
182.698	2126.75
182.775	2139.69
182.851	2152.1
182.927	2142.69
183.003	2136.6
183.08	2130.6
183.156	2137.6
183.232	2129.51
183.308	2117.47
183.385	2123.23
183.461	2143.97
183.537	2146.3
183.613	2159.86
183.69	2150.1
183.766	2143.11
183.842	2150.53
183.918	2157.86
183.995	2170.75
184.071	2175.98
184.147	2169.28
184.223	2160.38
184.299	2173.37
184.375	2162.1
184.452	2171.81
184.528	2223.01
184.604	2236.85
184.68	2250.17
184.756	2257.59
184.832	2264.11
184.908	2270.01
184.985	2271.44
185.061	2254.07
185.137	2262.16
185.213	2253.93
185.289	2253.46
185.365	2244.37
185.441	2240.99
185.517	2250.8
185.593	2246.71
185.669	2242.71
185.745	2254.41
185.822	2268.87
185.898	2261.16
185.974	2268.54
186.05	2260.4
186.126	2228.95
186.202	2221.76
186.278	2215.29
186.354	2206.72
186.43	2214.05
186.506	2210.06
186.582	2208.54
186.658	2218.24
186.734	2199.97
186.81	2201.21
186.886	2206.73
186.962	2218.91
187.038	2215.15
187.114	2208.05
187.19	2215.53
187.266	2205.58
187.341	2206.34
187.417	2198.35
187.493	2199.3
187.569	2203.92
187.645	2196.12
187.721	2181.65
187.797	2189.07
187.873	2194.11
187.949	2188.26
188.025	2179.74
188.101	2183.41
188.176	2188.92
188.252	2181.5
188.328	2189.4
188.404	2187.59
188.48	2182.07
188.556	2173.7
188.632	2174.03
188.707	2171.32
188.783	2170.61
188.859	2166.42
188.935	2155.1
189.011	2165.47
189.086	2157.95
189.162	2147.87
189.238	2143.73
189.314	2141.06
189.39	2134.88
189.465	2130.55
189.541	2147.3
189.617	2136.12
189.693	2129.13
189.768	2131.17
189.844	2159.35
189.92	2148.08
189.996	2160.78
190.071	2173.96
190.147	2177.67
190.223	2188.9
190.298	2184.62
190.374	2169.78
190.45	2181.1
190.526	2192.37
190.601	2185.62
190.677	2188.28
190.753	2216.7
190.828	2221.31
190.904	2237.44
190.98	2253.39
191.055	2260.48
191.131	2251.39
191.207	2271.32
191.282	2283.5
191.358	2275.7
191.433	2257.89
191.509	2273.44
191.585	2267.92
191.66	2269.45
191.736	2276.2
191.811	2265.54
191.887	2282.68
191.963	2305.33
192.038	2312.23
192.114	2310.85
192.189	2315.94
192.265	2313.18
192.34	2291.95
192.416	2294.38
192.491	2291.85
192.567	2294.28
192.642	2297.38
192.718	2298.71
192.793	2286.72
192.869	2282.58
192.944	2285.62
193.02	2292.76
193.095	2294.66
193.171	2301.18
193.246	2300.85
193.322	2298.33
193.397	2296.81
193.473	2280.76
193.548	2260.63
193.624	2266.25
193.699	2267.68
193.775	2282.67
193.85	2283.77
193.925	2293.86
194.001	2291.81
194.076	2281.91
194.152	2269.73
194.227	2261.25
194.302	2251.98
194.378	2256.36
194.453	2254.79
194.529	2263.54
194.604	2253.83
194.679	2246.98
194.755	2227.14
194.83	2237.14
194.905	2233.57
194.981	2244.14
195.056	2236.76
195.131	2244.09
195.207	2242.38
195.282	2228.29
195.357	2208.92
195.433	2224.96
195.508	2215.96
195.583	2221.24
195.659	2234.85
195.734	2242.04
195.809	2242.75
195.884	2251.65
195.96	2250.65
196.035	2265.21
196.11	2264.55
196.185	2272.73
196.261	2278.82
196.336	2310.51
196.411	2294.66
196.486	2301.9
196.561	2295.99
196.637	2304.37
196.712	2322.36
196.787	2327.27
196.862	2346.92
196.937	2357.15
197.013	2361.29
197.088	2368.48
197.163	2390.91
197.238	2411.15
197.313	2411.25
197.388	2427.29
197.464	2456.82
197.539	2470.15
197.614	2464.86
197.689	2476.81
197.764	2493.15
197.839	2516.62
197.914	2512.62
197.989	2538.81
198.065	2550.48
198.14	2603.85
198.215	2629.9
198.29	2642.57
198.365	2654.34
198.44	2665.01
198.515	2693.26
198.59	2709.93
198.665	2737.8
198.74	2750.62
198.815	2748.38
198.89	2773.58
198.965	2799.27
199.04	2795.03
199.115	2810.89
199.19	2850.92
199.265	2857.25
199.34	2869.07
199.415	2902.98
199.49	2925.52
199.565	2930.76
199.64	2955.54
199.715	2954.59
199.79	2964.74
199.865	2970.61
199.94	2968.99
200.015	2999.36
200.09	3005.17
200.165	3013.37
200.24	3020.58
200.315	3060.71
200.39	3079.84
200.464	3084.56
200.539	3084.94
200.614	3101.57
200.689	3126.37
200.764	3135.2
200.839	3151.6
200.914	3158.32
200.989	3146.82
201.063	3157.89
201.138	3142.92
201.213	3143.26
201.288	3120.61
201.363	3126.66
201.438	3124.95
201.512	3140.82
201.587	3123.36
201.662	3125.46
201.737	3134.28
201.812	3142.35
201.886	3106.07
201.961	3112.61
202.036	3100.93
202.111	3100.93
202.186	3071.29
202.26	3051.73
202.335	3030.46
202.41	3023.31
202.485	3001.29
202.559	2980.36
202.634	2954.76
202.709	2968.57
202.784	2949.12
202.858	2949.89
202.933	2928.63
203.008	2922
203.082	2902.51
203.157	2902.7
203.232	2862.34
203.306	2843.51
203.381	2808.61
203.456	2787.93
203.53	2763.84
203.605	2743.03
203.68	2719.63
203.754	2714.72
203.829	2696.38
203.904	2676.32
203.978	2666.46
204.053	2670.41
204.127	2657.64
204.202	2654.41
204.277	2636.06
204.351	2629.54
204.426	2620.06
204.5	2613.77
204.575	2581.58
204.65	2589.63
204.724	2579.58
204.799	2585.29
204.873	2581.28
204.948	2580.09
205.022	2566.48
205.097	2560.42
205.171	2576.52
205.246	2584.24
205.32	2582.9
205.395	2585.33
205.469	2577.15
205.544	2579.34
205.618	2566.95
205.693	2577
205.767	2567.05
205.842	2587.44
205.916	2582.16
205.991	2573.49
206.065	2577.3
206.14	2593.05
206.214	2587.29
206.289	2582.14
206.363	2597.95
206.438	2602.19
206.512	2610.24
206.586	2629.29
206.661	2636.44
206.735	2610.97
206.81	2613.55
206.884	2627.5
206.958	2614.5
207.033	2630.21
207.107	2637.88
207.181	2667.76
207.256	2665.19
207.33	2682.24
207.405	2695.69
207.479	2714.12
207.553	2721.55
207.628	2706.51
207.702	2716.18
207.776	2712.7
207.851	2714.94
207.925	2729.05
207.999	2724.04
208.073	2721.85
208.148	2727
208.222	2716.7
208.296	2753.52
208.371	2769.44
208.445	2782.45
208.519	2813.56
208.593	2827.57
208.668	2828.38
208.742	2831.58
208.816	2832.81
208.89	2850.5
208.965	2846.54
209.039	2859.37
209.113	2881.82
209.187	2908.83
209.261	2909.21
209.336	2931.7
209.41	2955.3
209.484	2961.26
209.558	2992.35
209.632	3011.56
209.707	3026.96
209.781	3058.57
209.855	3082.76
209.929	3111.54
210.003	3126.61
210.077	3136.53
210.151	3200.32
210.226	3249.58
210.3	3296
210.374	3336.1
210.448	3358.82
210.522	3388.7
210.596	3420.25
210.67	3449.22
210.744	3525.2
210.818	3586.62
210.892	3639.77
210.966	3666.4
211.041	3714.4
211.115	3743.82
211.189	3810.4
211.263	3870.41
211.337	3919.14
211.411	3977.4
211.485	4019.82
211.559	4088.01
211.633	4147.3
211.707	4170.22
211.781	4238.99
211.855	4264.68
211.929	4325.97
212.003	4380.43
212.077	4468.78
212.151	4558.57
212.225	4651.71
212.299	4720.8
212.373	4796.38
212.447	4879.15
212.52	5010.34
212.594	5113.79
212.668	5227.22
212.742	5316.89
212.816	5419.52
212.89	5526.8
212.964	5640.85
213.038	5763.03
213.112	5899.53
213.186	6038.39
213.26	6145.44
213.333	6228.95
213.407	6373.77
213.481	6511.55
213.555	6659.08
213.629	6786.71
213.703	6915.52
213.777	7060.87
213.85	7189.62
213.924	7382.28
213.998	7539.73
214.072	7685.89
214.146	7828.76
214.219	7988.34
214.293	8142.52
214.367	8304.98
214.441	8478.28
214.515	8635.17
214.588	8777.96
214.662	8905.32
214.736	9056.85
214.81	9239.75
214.883	9423.15
214.957	9586.66
215.031	9747.09
215.105	9897.47
215.178	10057.14
215.252	10222.35
215.326	10369.43
215.4	10520.64
215.473	10637.2
215.547	10793.13
215.621	10945.4
215.694	11127.08
215.768	11270.83
215.842	11428.7
215.915	11581.33
215.989	11726.98
216.063	11890.47
216.136	12060.08
216.21	12224.82
216.284	12397.43
216.357	12558.09
216.431	12710.12
216.504	12871.99
216.578	13064.03
216.652	13238.18
216.725	13408.44
216.799	13573.11
216.873	13733.63
216.946	13905.39
217.02	14055.11
217.093	14201.51
217.167	14332.15
217.24	14461.09
217.314	14601.03
217.387	14738.66
217.461	14879.89
217.535	15038.38
217.608	15161.59
217.682	15300.36
217.755	15451.81
217.829	15584.8
217.902	15717.06
217.976	15852.02
218.049	15973
218.123	16086.6
218.196	16219.87
218.27	16330.49
218.343	16438.88
218.417	16565.88
218.49	16686.99
218.563	16823.05
218.637	16946.14
218.71	17088.85
218.784	17217.77
218.857	17351.6
218.931	17468.76
219.004	17578.93
219.077	17688.86
219.151	17802.98
219.224	17905.05
219.298	17999.31
219.371	18108.61
219.444	18197.81
219.518	18289.76
219.591	18388.12
219.665	18508.98
219.738	18607.05
219.811	18687.86
219.885	18793.21
219.958	18889.01
220.031	18959.13
220.105	19043.8
220.178	19129.09
220.251	19198.97
220.325	19281.08
220.398	19358.33
220.471	19438.14
220.544	19521.94
220.618	19586.56
220.691	19658.03
220.764	19729.25
220.838	19810.17
220.911	19877.06
220.984	19967.13
221.057	20043.84
221.131	20113.72
221.204	20141.58
221.277	20212.13
221.35	20302.25
221.424	20346.01
221.497	20389.19
221.57	20451.74
221.643	20508.56
221.716	20565.72
221.79	20615.12
221.863	20647.17
221.936	20692.23
222.009	20749.05
222.082	20797.05
222.155	20829.58
222.229	20880.62
222.302	20917.49
222.375	20954.31
222.448	20993.2
222.521	21026.65
222.594	21061.69
222.667	21081.88
222.74	21126.56
222.814	21148.49
222.887	21171.72
222.96	21206.38
223.033	21250
223.106	21280.12
223.179	21311.74
223.252	21340.13
223.325	21359.69
223.398	21393.05
223.471	21419.03
223.544	21436.67
223.617	21464.48
223.69	21495.66
223.763	21511.33
223.837	21537.55
223.91	21562.71
223.983	21551.67
224.056	21548.59
224.129	21559.43
224.202	21583.72
224.275	21587.43
224.348	21591.15
224.42	21599.05
224.493	21598.38
224.566	21604.98
224.639	21615.29
224.712	21621.08
224.785	21617.22
224.858	21621.9
224.931	21617.46
225.004	21608.93
225.077	21608.98
225.15	21580.4
225.223	21579.48
225.296	21600.88
225.369	21579.05
225.442	21564.16
225.514	21576.69
225.587	21581.31
225.66	21591.05
225.733	21598.47
225.806	21595.97
225.879	21587.24
225.952	21570.52
226.025	21578.18
226.097	21580.4
226.17	21574.23
226.243	21538.66
226.316	21532.63
226.389	21529.64
226.461	21537.69
226.534	21544.54
226.607	21537.02
226.68	21555.62
226.753	21549.02
226.825	21514.12
226.898	21524.82
226.971	21507.33
227.044	21498.41
227.117	21496.53
227.189	21491.66
227.262	21486.41
227.335	21491.23
227.407	21484.48
227.48	21472.96
227.553	21460.62
227.626	21436.86
227.698	21421.92
227.771	21428.52
227.844	21405.14
227.916	21393.19
227.989	21362.83
228.062	21339.64
228.134	21347.21
228.207	21332.89
228.28	21311.35
228.352	21301.9
228.425	21293.52
228.498	21295.11
228.57	21271.68
228.643	21274.38
228.716	21250.04
228.788	21225.12
228.861	21184.49
228.934	21174.56
229.006	21155.09
229.079	21140.3
229.151	21114.27
229.224	21087.72
229.296	21062.65
229.369	21077.64
229.442	21070.46
229.514	21045.64
229.587	21040.34
229.659	21000.14
229.732	20979.76
229.804	20974.12
229.877	20982.41
229.949	20974.89
230.022	20983.61
230.094	20970.36
230.167	20941.01
230.239	20909.49
230.312	20896.62
230.384	20912.09
230.457	20905.29
230.529	20895.27
230.602	20881.92
230.674	20873.53
230.747	20867.22
230.819	20868.38
230.892	20813.77
230.964	20803.89
231.037	20793.1
231.109	20767.07
231.181	20756.18
231.254	20720.23
231.326	20689.77
231.399	20661.09
231.471	20626.73
231.544	20569.33
231.616	20555.4
231.688	20540.61
231.761	20516.61
231.833	20488.13
231.905	20430.97
231.978	20403.02
232.05	20384.51
232.122	20364.94
232.195	20339.64
232.267	20331.35
232.339	20304.37
232.412	20303.5
232.484	20266.2
232.556	20241.14
232.629	20240.75
232.701	20227.26
232.773	20216.22
232.846	20193.09
232.918	20170.78
232.99	20156.37
233.062	20152.51
233.135	20133.04
233.207	20092.13
233.279	20088.13
233.351	20067.41
233.424	20050.44
233.496	20017.48
233.568	20007.79
233.64	19971.79
233.713	19951.65
233.785	19928.33
233.857	19902.16
233.929	19851.8
234.001	19847.27
234.074	19834.79
234.146	19795.18
234.218	19763.27
234.29	19739.37
234.362	19711.9
234.434	19665.54
234.507	19616.24
234.579	19567.33
234.651	19537.55
234.723	19518.42
234.795	19497.89
234.867	19468.69
234.939	19452.3
235.012	19431.63
235.084	19410.91
235.156	19386.04
235.228	19348.6
235.3	19313.37
235.372	19288.21
235.444	19285.9
235.516	19231.35
235.588	19207.88
235.66	19174.05
235.732	19136.13
235.804	19157.76
235.876	19129.53
235.948	19123.41
236.02	19102.01
236.092	19078.11
236.164	19051.31
236.236	19017.53
236.308	18971.13
236.38	18943.8
236.452	18915.13
236.524	18892.19
236.596	18874.65
236.668	18856.53
236.74	18826.17
236.812	18793.06
236.884	18768.49
236.956	18740.68
237.028	18704.01
237.1	18661.99
237.172	18649.56
237.244	18648.88
237.316	18577.17
237.388	18549.8
237.46	18505.52
237.532	18490.14
237.604	18447.3
237.675	18435.74
237.747	18422.77
237.819	18392.51
237.891	18360.12
237.963	18312.85
238.035	18264.13
238.107	18197.19
238.178	18172.62
238.25	18139.7
238.322	18137.73
238.394	18089.78
238.466	18052.04
238.538	18030.79
238.609	18005.92
238.681	17953.88
238.753	17909.44
238.825	17887.18
238.897	17859.18
238.968	17846.7
239.04	17810.89
239.112	17819.38
239.184	17764
239.255	17725.26
239.327	17693.11
239.399	17662.13
239.471	17640.58
239.542	17620.82
239.614	17597.84
239.686	17542.03
239.758	17531.81
239.829	17483.77
239.901	17466.8
239.973	17430.71
240.044	17404.44
240.116	17368.25
240.188	17337.36
240.259	17303.19
240.331	17266.46
240.403	17236.05
240.474	17186.27
240.546	17142.17
240.618	17086.51
240.689	17049.93
240.761	17012.72
240.833	17003.04
240.904	16977.59
240.976	16948.34
241.048	16917.11
241.119	16895.76
241.191	16875.47
241.262	16857.2
241.334	16818.64
241.405	16787.61
241.477	16750.4
241.549	16718.88
241.62	16696.76
241.692	16668.08
241.763	16648.22
241.835	16609.72
241.906	16579.88
241.978	16534
242.049	16517.61
242.121	16494.24
242.192	16483.83
242.264	16440.5
242.335	16383.05
242.407	16356.63
242.478	16326.65
242.55	16297.88
242.621	16257.11
242.693	16226.02
242.764	16189.82
242.836	16159.94
242.907	16133.77
242.979	16115.65
243.05	16092.66
243.122	16064.36
243.193	16034.14
243.264	15978.67
243.336	15951.53
243.407	15935.38
243.479	15921.02
243.55	15898.08
243.622	15876.19
243.693	15836.96
243.764	15827.8
243.836	15794.83
243.907	15753.81
243.978	15720.99
244.05	15693.9
244.121	15654.04
244.192	15638.18
244.264	15583.67
244.335	15551.37
244.407	15502.16
244.478	15472.18
244.549	15432.17
244.62	15390.76
244.692	15362.23
244.763	15341.65
244.834	15296.63
244.906	15258.79
244.977	15237.48
245.048	15210.73
245.119	15163.3
245.191	15128.06
245.262	15079.91
245.333	15065.16
245.405	15038.98
245.476	15017.53
245.547	14990.59
245.618	14971.89
245.689	14943.78
245.761	14924.84
245.832	14891.92
245.903	14876.93
245.974	14857.79
246.045	14832.34
246.117	14820.72
246.188	14781.92
246.259	14745.76
246.33	14731.54
246.401	14695.2
246.473	14648.1
246.544	14611.32
246.615	14599.03
246.686	14574.3
246.757	14560.8
246.828	14525.42
246.899	14518.38
246.97	14466.75
247.042	14428.91
247.113	14405.72
247.184	14392.85
247.255	14359.88
247.326	14347.11
247.397	14314.57
247.468	14282.66
247.539	14254.55
247.61	14211.02
247.681	14194.63
247.752	14186.44
247.823	14148.36
247.894	14124.35
247.965	14092.73
248.037	14065.59
248.108	14031.21
248.179	14004.03
248.25	13977.85
248.321	13958.28
248.392	13914.22
248.463	13915.71
248.534	13891.9
248.605	13868.37
248.675	13835.69
248.746	13818.82
248.817	13797.27
248.888	13776.16
248.959	13731.32
249.03	13713.54
249.101	13692.9
249.172	13663.93
249.243	13607.34
249.314	13599.19
249.385	13576.39
249.456	13564.14
249.527	13537.68
249.598	13510.73
249.669	13480.17
249.739	13459.97
249.81	13445.6
249.881	13410.61
249.952	13386.02
250.023	13362.11
250.094	13326.87
250.165	13289.61
250.235	13261.79
250.306	13231.66
250.377	13198.3
250.448	13186.4
250.519	13138.77
250.59	13126.57
250.66	13103.58
250.731	13113.08
250.802	13084.1
250.873	13065.3
250.944	13041.39
251.014	13014.25
251.085	13018.93
251.156	13009.19
251.227	13000.56
251.297	12984.36
251.368	12979.88
251.439	12969.23
251.51	12961.42
251.58	12930.71
251.651	12906.03
251.722	12893.69
251.792	12858.88
251.863	12835.07
251.934	12824.08
252.005	12837.24
252.075	12819.6
252.146	12808.85
252.217	12787.25
252.287	12774.77
252.358	12754.81
252.429	12748.93
252.499	12724.44
252.57	12703.18
252.641	12689.73
252.711	12663.65
252.782	12623.98
252.852	12619.79
252.923	12600.12
252.994	12582.14
253.064	12579.53
253.135	12549.41
253.205	12522.32
253.276	12527.14
253.347	12532.05
253.417	12507.28
253.488	12478.74
253.558	12452.56
253.629	12427.98
253.699	12422.1
253.77	12414.87
253.841	12392.98
253.911	12379.49
253.982	12363.44
254.052	12353.75
254.123	12336.1
254.193	12319.04
254.264	12346.32
254.334	12323.62
254.405	12288.19
254.475	12258.64
254.546	12231.31
254.616	12236.66
254.687	12221.96
254.757	12204.7
254.827	12175.49
254.898	12164.21
254.968	12151.05
255.039	12126.42
255.109	12118.13
255.18	12082.46
255.25	12031.76
255.321	12024.48
255.391	11988.04
255.461	11993.24
255.532	11944.41
255.602	11921.62
255.673	11878.96
255.743	11852.98
255.813	11803.19
255.884	11799.23
255.954	11791.72
256.024	11796.15
256.095	11774.8
256.165	11751.66
256.235	11742.79
256.306	11719.85
256.376	11714.16
256.446	11701.05
256.517	11694.88
256.587	11691.17
256.657	11677
256.728	11671.07
256.798	11649.24
256.868	11629.05
256.938	11601.23
257.009	11599.93
257.079	11591.31
257.149	11602.05
257.219	11550.53
257.29	11540.75
257.36	11501.61
257.43	11483.78
257.5	11444.21
257.571	11418.04
257.641	11405.8
257.711	11375.53
257.781	11369.84
257.852	11353.75
257.922	11312.83
257.992	11287.62
258.062	11259.91
258.132	11254.22
258.202	11237.89
258.273	11221.55
258.343	11228.15
258.413	11201.98
258.483	11178.46
258.553	11150.32
258.623	11128.34
258.693	11127.47
258.764	11130.94
258.834	11133.35
258.904	11120.58
258.974	11096.2
259.044	11078.03
259.114	11069.02
259.184	11048.39
259.254	11024.49
259.324	10983.43
259.394	10980.25
259.464	10981.6
259.535	10965.51
259.605	10937.32
259.675	10908.74
259.745	10900.16
259.815	10868.99
259.885	10847.45
259.955	10864.99
260.025	10836.56
260.095	10813.58
260.165	10799.6
260.235	10792.32
260.305	10767.22
260.375	10737.87
260.445	10744.57
260.515	10744.81
260.585	10738.79
260.655	10729.2
260.725	10727.7
260.795	10724.24
260.865	10723.75
260.934	10698.7
261.004	10688.29
261.074	10676.24
261.144	10678.89
261.214	10668.53
261.284	10652.54
261.354	10649.26
261.424	10616.01
261.494	10627.81
261.564	10620.78
261.634	10615.24
261.703	10583.24
261.773	10574.86
261.843	10568.11
261.913	10556.98
261.983	10523.79
262.053	10513.28
262.123	10490.35
262.192	10462.45
262.262	10460.33
262.332	10432.58
262.402	10422.32
262.472	10411.09
262.541	10384.4
262.611	10383.15
262.681	10360.46
262.751	10357.81
262.821	10339.4
262.89	10312.61
262.96	10294.74
263.03	10291.03
263.1	10278.79
263.169	10264.39
263.239	10258.9
263.309	10269.79
263.379	10259.19
263.448	10247.63
263.518	10238.33
263.588	10227.92
263.657	10233.41
263.727	10226.38
263.797	10219.49
263.867	10210.09
263.936	10173.87
264.006	10169.29
264.076	10148.24
264.145	10132.49
264.215	10109.99
264.285	10106.14
264.354	10079.36
264.424	10064.91
264.494	10038.03
264.563	10017.12
264.633	10022.51
264.702	10008.4
264.772	9971.74
264.842	9955.07
264.911	9945.58
264.981	9915.91
265.05	9899.24
265.12	9879.44
265.19	9869.37
265.259	9863.69
265.329	9850.68
265.398	9848.66
265.468	9861.48
265.537	9847.75
265.607	9842.88
265.676	9839.61
265.746	9831.71
265.815	9837.82
265.885	9820.44
265.955	9799.54
266.024	9785.09
266.094	9751.18
266.163	9755.71
266.232	9763.94
266.302	9747.71
266.371	9743.38
266.441	9736.54
266.51	9736.54
266.58	9720.74
266.649	9687.89
266.719	9687.61
266.788	9679.71
266.858	9686.21
266.927	9651.24
266.996	9638.19
267.066	9631.06
267.135	9606.45
267.205	9600.67
267.274	9586.85
267.343	9593.11
267.413	9585.55
267.482	9594.13
267.552	9598.89
267.621	9571.73
267.69	9531.81
267.76	9524.29
267.829	9512.88
267.898	9501.42
267.968	9477.78
268.037	9473.35
268.106	9479.85
268.176	9450.95
268.245	9441.7
268.314	9423.98
268.384	9423.21
268.453	9408.33
268.522	9395.04
268.592	9398.03
268.661	9383.53
268.73	9372.7
268.799	9344.77
268.869	9346.02
268.938	9308.85
269.007	9289.54
269.076	9278.13
269.146	9288.14
269.215	9279.81
269.284	9287.42
269.353	9269.99
269.422	9258.15
269.492	9238.21
269.561	9198.83
269.63	9194.06
269.699	9177.21
269.768	9163.34
269.838	9154.77
269.907	9161.85
269.976	9140.14
270.045	9112.5
270.114	9110.29
270.183	9095.03
270.253	9098.68
270.322	9074.95
270.391	9068.93
270.46	9081.16
270.529	9079.81
270.598	9075.82
270.667	9071.58
270.736	9048.32
270.806	9044.52
270.875	9048.37
270.944	9043.9
271.013	9069.12
271.082	9059.11
271.151	9055.3
271.22	9034.08
271.289	9022.23
271.358	9007.6
271.427	9008.18
271.496	8999.32
271.565	8982.52
271.634	8978.67
271.703	8979.58
271.772	8986.51
271.841	8977.42
271.91	8946.27
271.979	8931.63
272.048	8904.24
272.117	8900.78
272.186	8890.33
272.255	8888.4
272.324	8889.51
272.393	8884.31
272.462	8871.75
272.531	8869.24
272.6	8855.91
272.669	8864.09
272.738	8858.99
272.807	8855.14
272.876	8827.9
272.945	8854.23
273.013	8857.02
273.082	8860.15
273.151	8830.88
273.22	8820.44
273.289	8809.03
273.358	8823.09
273.427	8818.32
273.496	8825.06
273.564	8820.39
273.633	8822.94
273.702	8803.69
273.771	8790.5
273.84	8784.34
273.909	8775.92
273.977	8773.94
274.046	8767.35
274.115	8769.03
274.184	8751.27
274.253	8741.17
274.322	8760.32
274.39	8732.93
274.459	8719.5
274.528	8689.33
274.597	8687.55
274.665	8688.12
274.734	8702.71
274.803	8686.2
274.872	8679.65
274.94	8661.17
275.009	8690.25
275.078	8668.69
275.147	8668.88
275.215	8666.24
275.284	8678.51
275.353	8661.33
275.421	8632.69
275.49	8649.15
275.559	8640.87
275.627	8633.42
275.696	8626.53
275.765	8623.26
275.833	8613.88
275.902	8610.08
275.971	8631.97
276.039	8645.01
276.108	8645.4
276.177	8640.78
276.245	8636.01
276.314	8629.85
276.383	8640.73
276.451	8601.54
276.52	8607.46
276.588	8619.59
276.657	8623.63
276.725	8606.26
276.794	8609.53
276.863	8621.46
276.931	8593.55
277	8598.17
277.068	8609.09
277.137	8630.03
277.205	8623.53
277.274	8641.53
277.342	8653.27
277.411	8628.88
277.48	8619.88
277.548	8608.13
277.617	8610.78
277.685	8605.49
277.754	8614.05
277.822	8603.18
277.89	8614.68
277.959	8611.5
278.027	8596.25
278.096	8586.57
278.164	8619.16
278.233	8617.67
278.301	8608.91
278.37	8616.85
278.438	8604.34
278.507	8607.32
278.575	8577.63
278.643	8574.6
278.712	8553.33
278.78	8535.09
278.849	8545.14
278.917	8549.86
278.985	8546.35
279.054	8547.07
279.122	8558.33
279.191	8555.97
279.259	8552.07
279.327	8532.29
279.396	8546.2
279.464	8537.64
279.532	8538.26
279.601	8531.42
279.669	8523.39
279.737	8534.89
279.806	8536
279.874	8544.8
279.942	8542.78
280.011	8543.6
280.079	8554.19
280.147	8572.71
280.215	8582.19
280.284	8579.4
280.352	8569.97
280.42	8581.09
280.488	8574.25
280.557	8569.92
280.625	8573
280.693	8576.23
280.761	8580.03
280.83	8563.04
280.898	8571.08
280.966	8559.77
281.034	8525.74
281.102	8517.85
281.171	8512.8
281.239	8520.3
281.307	8511.35
281.375	8502.07
281.443	8527.24
281.512	8524.25
281.58	8531.23
281.648	8514.63
281.716	8512.56
281.784	8509.72
281.852	8500.91
281.92	8493.07
281.989	8501.11
282.057	8478.06
282.125	8522.49
282.193	8515.94
282.261	8516.91
282.329	8522.87
282.397	8525.76
282.465	8532.45
282.533	8539.91
282.601	8532.69
282.67	8510.41
282.738	8507.18
282.806	8516.09
282.874	8499.72
282.942	8500.44
283.01	8496.5
283.078	8507.42
283.146	8505.69
283.214	8518.83
283.282	8521.62
283.35	8538.61
283.418	8531.92
283.486	8539.81
283.554	8494.61
283.622	8499.03
283.69	8497.49
283.758	8490.18
283.826	8494.94
283.894	8503.7
283.962	8528.49
284.03	8545.14
284.098	8550.67
284.165	8537.15
284.233	8534.74
284.301	8529.26
284.369	8525.26
284.437	8512.65
284.505	8499.42
284.573	8514.48
284.641	8501.88
284.709	8506.88
284.777	8483.64
284.845	8493.31
284.912	8500.91
284.98	8502.89
285.048	8495.43
285.116	8495.28
285.184	8506.54
285.252	8504.19
285.319	8490.52
285.387	8476.9
285.455	8455.68
285.523	8460.39
285.591	8464.39
285.659	8466.98
285.726	8480.46
285.794	8461.21
285.862	8461.69
285.93	8465.11
285.997	8461.5
286.065	8455.05
286.133	8447.16
286.201	8448.89
286.269	8430.7
286.336	8425.89
286.404	8419.06
286.472	8429.88
286.539	8416.75
286.607	8400.97
286.675	8406.79
286.743	8413
286.81	8411.41
286.878	8429.07
286.946	8424.16
287.013	8424.78
287.081	8424.88
287.149	8410.64
287.216	8430.84
287.284	8422.28
287.352	8422.42
287.419	8416.12
287.487	8435.71
287.555	8439.89
287.622	8435.13
287.69	8436
287.758	8444.8
287.825	8447.69
287.893	8434.7
287.96	8441.82
288.028	8453.56
288.096	8452.35
288.163	8453.41
288.231	8440.33
288.298	8434.98
288.366	8445.91
288.433	8444.9
288.501	8437.87
288.569	8439.12
288.636	8431.33
288.704	8447.93
288.771	8457.5
288.839	8454.28
288.906	8444.85
288.974	8454.04
289.041	8451.39
289.109	8445.19
289.176	8453.66
289.244	8452.84
289.311	8469.1
289.379	8478.2
289.446	8476.9
289.514	8476.76
289.581	8476.42
289.649	8482
289.716	8484.94
289.783	8483.01
289.851	8501.01
289.918	8500.04
289.986	8508.56
290.053	8515.68
290.121	8511.26
290.188	8510.97
290.255	8534.16
290.323	8530.6
290.39	8525.93
290.458	8537.63
290.525	8552.21
290.592	8541.67
290.66	8548.69
290.727	8536.8
290.794	8549.37
290.862	8556.54
290.929	8561.54
290.996	8563.8
291.064	8572.42
291.131	8588.54
291.198	8596
291.266	8597.16
291.333	8605.43
291.4	8610.29
291.468	8627.86
291.535	8627.33
291.602	8632.96
291.669	8629.21
291.737	8632.63
291.804	8633.64
291.871	8652.07
291.938	8657.7
292.006	8690
292.073	8697.27
292.14	8708.09
292.207	8701.89
292.275	8701.69
292.342	8709.3
292.409	8735.1
292.476	8760.9
292.543	8752.23
292.611	8752.33
292.678	8765.95
292.745	8789.87
292.812	8802
292.879	8798.39
292.946	8803.88
293.014	8813.89
293.081	8823.23
293.148	8834.35
293.215	8848.16
293.282	8838.34
293.349	8851.1
293.416	8831.75
293.484	8851.48
293.551	8862.94
293.618	8882.14
293.685	8906.89
293.752	8898.66
293.819	8895.24
293.886	8884.17
293.953	8889.65
294.02	8902.27
294.087	8910.64
294.154	8897.4
294.221	8915.41
294.288	8914.59
294.356	8932.02
294.423	8940.3
294.49	8928.89
294.557	8947.47
294.624	8936.64
294.691	8958.35
294.758	8959.12
294.825	8965.67
294.892	8951.22
294.959	8952.24
295.026	8958.25
295.093	8948.14
295.16	8953.63
295.226	8954.4
295.293	8975.15
295.36	8982.52
295.427	8991.81
295.494	9003.41
295.561	9013.86
295.628	9030.42
295.695	9046.69
295.762	9049.34
295.829	9063.26
295.896	9082.56
295.963	9086.85
296.03	9101.86
296.096	9103.93
296.163	9114.91
296.23	9129.93
296.297	9147.12
296.364	9147.31
296.431	9157.61
296.498	9154.49
296.564	9177.88
296.631	9181.01
296.698	9166.42
296.765	9183.08
296.832	9177.35
296.899	9160.55
296.965	9177.45
297.032	9155.2
297.099	9163.15
297.166	9175.9
297.233	9166.28
297.299	9159.05
297.366	9167.82
297.433	9166.18
297.5	9184.33
297.566	9183.03
297.633	9180.63
297.7	9186.02
297.767	9187.27
297.833	9190.21
297.9	9189.34
297.967	9172.92
298.033	9184
298.1	9212.5
298.167	9208.65
298.234	9208.75
298.3	9224.2
298.367	9220.01
298.434	9232.58
298.5	9231.72
298.567	9218.33
298.634	9220.74
298.7	9238.84
298.767	9234.46
298.834	9250.11
298.9	9238.98
298.967	9231.86
299.033	9240.96
299.1	9254.06
299.167	9267.82
299.233	9262.09
299.3	9279.19
299.366	9297.82
299.433	9314.38
299.5	9292.67
299.566	9292.86
299.633	9309.13
299.699	9315.49
299.766	9315.15
299.832	9319.39
299.899	9326.08
299.965	9341.25
300.032	9340.63
300.099	9342.84
300.165	9348.52
300.232	9349.97
300.298	9353.1
300.365	9367.59
300.431	9371.01
300.498	9360.08
300.564	9370.67
300.631	9385.21
300.697	9395.33
300.763	9393.5
300.83	9384.73
300.896	9398.65
300.963	9408.09
301.029	9413.33
301.096	9421.09
301.162	9428.21
301.229	9422.58
301.295	9406.88
301.361	9412.95
301.428	9416.37
301.494	9405.58
301.561	9410.06
301.627	9407.8
301.693	9411.36
301.76	9417.24
301.826	9406.69
301.892	9423.06
301.959	9430.62
302.025	9421.28
302.092	9417.77
302.158	9425.9
302.224	9431.88
302.291	9419.93
302.357	9418.49
302.423	9408.81
302.49	9399.9
302.556	9417.24
302.622	9415.17
302.688	9433.8
302.755	9451.09
302.821	9458.61
302.887	9471.65
302.954	9471.56
303.02	9483.93
303.086	9489.18
303.152	9483.16
303.219	9486.25
303.285	9490.48
303.351	9493.42
303.417	9493.85
303.483	9489.81
303.55	9481.33
303.616	9479.7
303.682	9481.91
303.748	9474.21
303.815	9493.28
303.881	9502.96
303.947	9485.52
304.013	9485.24
304.079	9475.56
304.145	9445.84
304.212	9443.19
304.278	9432.55
304.344	9423.5
304.41	9408.28
304.476	9394.46
304.542	9391.43
304.608	9397.3
304.674	9375.01
304.741	9366.43
304.807	9374.43
304.873	9380.26
304.939	9399.81
305.005	9382.76
305.071	9375.68
305.137	9381.08
305.203	9357.29
305.269	9351.89
305.335	9367.88
305.401	9368.17
305.467	9370.48
305.533	9383.68
305.599	9389.12
305.666	9402.55
305.732	9408.04
305.798	9418.59
305.864	9450.52
305.93	9456.82
305.996	9450.95
306.062	9457.79
306.128	9453.31
306.194	9438.04
306.259	9435.3
306.325	9422.1
306.391	9433.52
306.457	9445.79
306.523	9446.08
306.589	9467.99
306.655	9461.44
306.721	9438.09
306.787	9429.95
306.853	9441.07
306.919	9426.29
306.985	9416.23
307.051	9406.55
307.117	9398.12
307.183	9392.01
307.248	9361.04
307.314	9367.06
307.38	9369.8
307.446	9374.76
307.512	9368.36
307.578	9372.65
307.644	9369.42
307.709	9377.99
307.775	9376.07
307.841	9376.98
307.907	9375.73
307.973	9359.79
308.039	9364.65
308.104	9371.59
308.17	9370.86
308.236	9353.05
308.302	9359.69
308.368	9353.96
308.433	9351.51
308.499	9347.41
308.565	9338.36
308.631	9340.33
308.696	9315.2
308.762	9309.23
308.828	9303.16
308.894	9288.43
308.959	9266.67
309.025	9255.79
309.091	9245.43
309.156	9236.91
309.222	9235.95
309.288	9218.85
309.354	9197.38
309.419	9187.27
309.485	9173.06
309.551	9178.51
309.616	9171.48
309.682	9165.75
309.748	9161.17
309.813	9159.29
309.879	9146.25
309.945	9135.42
310.01	9128
310.076	9126.51
310.141	9115.44
310.207	9096.56
310.273	9097
310.338	9102.68
310.404	9089.29
310.469	9074.66
310.535	9056.31
310.601	9029.83
310.666	9037.3
310.732	9048.03
310.797	9038.4
310.863	9026.03
310.928	9013.56
310.994	9015.01
311.059	9007.69
311.125	8999.12
311.191	9009.18
311.256	9003.89
311.322	9006.92
311.387	8987.57
311.453	9386.66
311.518	9364.08
311.584	9366.06
311.649	9374.53
311.715	9368.47
311.78	9364.57
311.846	9357.59
311.911	9365.43
311.976	9375.2
312.042	9363.55
312.107	9344.35
312.173	9337.66
312.238	9333.9
312.304	9329.71
312.369	9315.37
312.434	9298.66
312.5	9294.28
312.565	9257.36
312.631	9265.69
312.696	9254.76
312.761	9257.94
312.827	8851.43
312.892	8888.02
312.958	8884.7
313.023	8875.79
313.088	8866.31
313.154	8853.22
313.219	8843.35
313.284	8834.73
313.35	8822.36
313.415	8808.31
313.48	8806.09
313.546	8807.06
313.611	8817.89
313.676	8811.44
313.741	8801.47
313.807	8817.12
313.872	8816.06
313.937	8826.45
314.003	8832.42
314.068	8836.95
314.133	8840.37
314.198	8831.9
314.264	8808.88
314.329	8801.32
314.394	8797.76
314.459	8799.83
314.525	8821.83
314.59	8818.65
314.655	8804.5
314.72	8813.36
314.785	8817.5
314.851	8812.64
314.916	8797.72
314.981	8779.67
315.046	8772.35
315.111	8766.14
315.176	8745.44
315.242	8749.82
315.307	8748.81
315.372	8724.26
315.437	8712.38
315.502	8704.34
315.567	8718.78
315.632	8703.14
315.698	8702.46
315.763	8697.7
315.828	8683.93
315.893	8677.29
315.958	8672.86
316.023	8668.63
316.088	8651.01
316.153	8632.48
316.218	8621.22
316.283	8599.96
316.348	8586.15
316.413	8577.72
316.479	8566.42
316.544	8542.45
316.609	8516.42
316.674	8478.98
316.739	8449.73
316.804	8421.39
316.869	8387.71
316.934	8349.21
316.999	8327.46
317.064	8277
317.129	8231.48
317.194	8202.67
317.259	8159.46
317.324	8108.81
317.389	8063.26
317.454	8024.63
317.518	7988.99
317.583	7966.38
317.648	7947.86
317.713	7912.99
317.778	7854.99
317.843	7825.94
317.908	7787.38
317.973	7746.84
318.038	7715.73
318.103	7684.95
318.168	7658.51
318.233	7628.79
318.297	7577.68
318.362	7537.44
318.427	7500.91
318.492	7479.9
318.557	7431.93
318.622	7403.76
318.687	7385.44
318.751	7350.41
318.816	7315.52
318.881	7284.08
318.946	7229.58
319.011	7181.52
319.075	7144.04
319.14	7112.23
319.205	7067.54
319.27	7037.37
319.335	6992.21
319.399	6955.31
319.464	6923.36
319.529	6869.47
319.594	6828.25
319.658	6799.52
319.723	6757.07
319.788	6735.41
319.853	6680.5
319.917	6653.95
319.982	6600.88
320.047	6564.62
320.112	6543.54
320.176	6496.97
320.241	6461.92
320.306	6438.2
320.37	6398.5
320.435	6368.26
320.5	6343.58
320.564	6306.72
320.629	6264.72
320.694	6235.55
320.758	6197.15
320.823	6151.85
320.888	6124.6
320.952	6078.73
321.017	6041.36
321.082	6008.78
321.146	5969.53
321.211	5939.55
321.275	5899.74
321.34	5857.64
321.405	5812.74
321.469	5761.57
321.534	5721.77
321.598	5672.19
321.663	5637.61
321.727	5611.77
321.792	5558.69
321.857	5516.21
321.921	5474.7
321.986	5433.34
322.05	5377.09
322.115	5337.88
322.179	5296.2
322.244	5238.57
322.308	5211.07
322.373	5160.57
322.437	5115.01
322.502	5090.47
322.566	5045.4
322.631	5008.04
322.695	4969.01
322.76	4928.84
322.824	4899.19
322.889	4859.13
322.953	4815
323.018	4750.84
323.082	4683.12
323.146	4636.04
323.211	4581.91
323.275	4539.42
323.34	4493.92
323.404	4462.78
323.468	4422.97
323.533	4380.79
323.597	4340.87
323.662	4287.48
323.726	4258.98
323.79	4214.94
323.855	4146.63
323.919	4099.11
323.983	4060.71
324.048	3994.98
324.112	4142.55
324.177	4013.17
324.241	3804.64
324.305	3603.85
324.37	3405.74
324.434	3216.23
324.498	3174.94
324.562	3127.55
324.627	3070.17
324.691	3017.66
324.755	2953.76
324.82	2875.18
324.884	2799.78
324.948	2729.23
325.012	2636.13
325.077	2508.14
