Data from 20250704_urea_0.1M_MAYP1162681_11-18-47-694.txt Node
Date: Fri Jul 04 11:18:47 BST 2025
User: adleo
Spectrometer: MAYP116268
Trigger mode: 0
Integration Time (sec): 1.000000E0
Scans to average: 1
Electric dark correction enabled: true
Nonlinearity correction enabled: true
Boxcar width: 10
XAxis mode: Wavelengths
Number of Pixels in Spectrum: 2068
>>>>>Begin Spectral Data<<<<<
179.565	1239.87
179.642	1299.55
179.718	1349.82
179.795	1389.78
179.871	1425.2
179.948	1441.91
180.024	1461.11
180.101	1482.68
180.177	1497.61
180.254	1522.18
180.33	1546.6
180.407	1603.77
180.483	1702.92
180.56	1795.09
180.636	1881.45
180.712	1869.33
180.789	1878.17
180.865	1892.14
180.942	1900.79
181.018	1912.82
181.095	1928.08
181.171	1933.55
181.248	1935.74
181.324	1946.15
181.4	1953.76
181.477	1963.61
181.553	1977.11
181.63	2000.98
181.706	2017.53
181.782	2025.46
181.859	2024.47
181.935	2029.37
182.011	2026.13
182.088	2045.73
182.164	2065.04
182.24	2079.17
182.317	2089.06
182.393	2087.54
182.469	2103.28
182.546	2118.26
182.622	2122.87
182.698	2114.69
182.775	2123.54
182.851	2137.72
182.927	2132.34
183.003	2129.25
183.08	2122.97
183.156	2133.96
183.232	2128.77
183.308	2118.4
183.385	2125.35
183.461	2143.9
183.537	2143.52
183.613	2157.89
183.69	2146.42
183.766	2140.23
183.842	2148.61
183.918	2153.22
183.995	2167.97
184.071	2171.25
184.147	2164.92
184.223	2152.99
184.299	2167.17
184.375	2158.27
184.452	2162.79
184.528	2213.18
184.604	2220.32
184.68	2231.54
184.756	2238.49
184.832	2243.11
184.908	2245.2
184.985	2244.25
185.061	2229.02
185.137	2238.64
185.213	2225.79
185.289	2226.27
185.365	2215.23
185.441	2213.14
185.517	2225.42
185.593	2220.8
185.669	2218.52
185.745	2229.27
185.822	2245.72
185.898	2236.97
185.974	2246.2
186.05	2235.35
186.126	2203.75
186.202	2200.42
186.278	2197.71
186.354	2185.77
186.43	2197.05
186.506	2197.71
186.582	2199.05
186.658	2204.23
186.734	2185.54
186.81	2186.11
186.886	2190.24
186.962	2204.28
187.038	2198.28
187.114	2190.62
187.19	2198.14
187.266	2185.39
187.341	2183.06
187.417	2175.92
187.493	2174.64
187.569	2178.02
187.645	2173.88
187.721	2158.84
187.797	2164.36
187.873	2169.64
187.949	2166.36
188.025	2155.55
188.101	2158.88
188.176	2166.64
188.252	2162.12
188.328	2170.11
188.404	2171.15
188.48	2163.59
188.556	2154.26
188.632	2155.83
188.707	2159.83
188.783	2155.64
188.859	2151.08
188.935	2142.8
189.011	2151.65
189.086	2146.04
189.162	2137.05
189.238	2134.67
189.314	2135.14
189.39	2130.15
189.465	2122.63
189.541	2138.71
189.617	2123.3
189.693	2116.64
189.768	2116.31
189.844	2141.68
189.92	2131.79
189.996	2141.16
190.071	2153.62
190.147	2156.38
190.223	2167.99
190.298	2157.52
190.374	2147.63
190.45	2161.56
190.526	2171.13
190.601	2166.61
190.677	2168.56
190.753	2198.17
190.828	2204.59
190.904	2218.05
190.98	2234.47
191.055	2241.66
191.131	2233.38
191.207	2255.36
191.282	2268.86
191.358	2262.97
191.433	2246.64
191.509	2262.43
191.585	2257.76
191.66	2260.76
191.736	2267.09
191.811	2254.91
191.887	2271
191.963	2295.17
192.038	2300.45
192.114	2298.69
192.189	2302.93
192.265	2300.45
192.34	2277.55
192.416	2276.89
192.491	2270.22
192.567	2271.22
192.642	2278.36
192.718	2277.84
192.793	2265.8
192.869	2260.66
192.944	2259.76
193.02	2271.04
193.095	2271.8
193.171	2278.94
193.246	2276.8
193.322	2271.23
193.397	2273.04
193.473	2257.76
193.548	2238.2
193.624	2243.91
193.699	2245.05
193.775	2260.9
193.85	2260.05
193.925	2268.04
194.001	2266.9
194.076	2262.52
194.152	2254
194.227	2242.77
194.302	2231.88
194.378	2235.92
194.453	2232.83
194.529	2246.96
194.604	2230.88
194.679	2227.83
194.755	2210.75
194.83	2222.37
194.905	2222.94
194.981	2234.27
195.056	2228.42
195.131	2236.17
195.207	2233.93
195.282	2222.66
195.357	2204.19
195.433	2221.17
195.508	2208.71
195.583	2215.51
195.659	2228.5
195.734	2234.12
195.809	2235.4
195.884	2247.87
195.96	2247.34
196.035	2263.95
196.11	2259
196.185	2269.37
196.261	2270.52
196.336	2302.12
196.411	2287.31
196.486	2291.31
196.561	2281.6
196.637	2291.45
196.712	2308.21
196.787	2309.87
196.862	2324.1
196.937	2332.29
197.013	2338.19
197.088	2351.56
197.163	2373.08
197.238	2391.04
197.313	2389.71
197.388	2404.99
197.464	2435.66
197.539	2446.75
197.614	2439.61
197.689	2452.65
197.764	2467.37
197.839	2487.27
197.914	2478.41
197.989	2503.41
198.065	2518.93
198.14	2570.39
198.215	2595.06
198.29	2603.25
198.365	2619.3
198.44	2631.68
198.515	2660.03
198.59	2676.46
198.665	2706.48
198.74	2712.1
198.815	2712.39
198.89	2738.54
198.965	2768.04
199.04	2762.32
199.115	2780.47
199.19	2822.68
199.265	2827.45
199.34	2838.98
199.415	2875.79
199.49	2897.65
199.565	2906.19
199.64	2930.97
199.715	2930.4
199.79	2938.6
199.865	2947.27
199.94	2945.75
200.015	2981.12
200.09	2986.65
200.165	2994.33
200.24	2997.81
200.315	3043.52
200.39	3059.4
200.464	3061.74
200.539	3061.74
200.614	3080.04
200.689	3104.46
200.764	3109.71
200.839	3127.34
200.914	3135.45
200.989	3124.52
201.063	3139.59
201.138	3120.87
201.213	3120.67
201.288	3102.36
201.363	3107.89
201.438	3108.27
201.512	3124.39
201.587	3105.21
201.662	3109.46
201.737	3122.09
201.812	3130.11
201.886	3095.79
201.961	3108.86
202.036	3098.09
202.111	3098.05
202.186	3068.31
202.26	3048.51
202.335	3033.06
202.41	3031.77
202.485	3017.14
202.559	3000.45
202.634	2977.9
202.709	2993.86
202.784	2980.37
202.858	2983.61
202.933	2970.02
203.008	2971.31
203.082	2955.91
203.157	2964.45
203.232	2934
203.306	2924.12
203.381	2903.05
203.456	2892.13
203.53	2881.58
203.605	2878.29
203.68	2870.23
203.754	2884.43
203.829	2890.91
203.904	2889.01
203.978	2895.16
204.053	2920.53
204.127	2935.07
204.202	2962.87
204.277	2977.89
204.351	3000.4
204.426	3025.78
204.5	3056.11
204.575	3059.11
204.65	3111.31
204.724	3144.44
204.799	3196.85
204.873	3241.53
204.948	3295.08
205.022	3336.69
205.097	3383.06
205.171	3456.47
205.246	3529.7
205.32	3594.81
205.395	3665.51
205.469	3734.61
205.544	3820.35
205.618	3886.69
205.693	3983.54
205.767	4058.74
205.842	4169.17
205.916	4262.85
205.991	4353.07
206.065	4460.77
206.14	4580.86
206.214	4685.87
206.289	4794.24
206.363	4927.56
206.438	5051.28
206.512	5179.21
206.586	5325.28
206.661	5462.02
206.735	5576.17
206.81	5713.99
206.884	5869.12
206.958	6003.86
207.033	6162.5
207.107	6321.19
207.181	6504.5
207.256	6651.29
207.33	6823.15
207.405	6996.5
207.479	7182.06
207.553	7352.83
207.628	7498.43
207.702	7682.14
207.776	7847.11
207.851	8026.83
207.925	8210.02
207.999	8383.71
208.073	8558.89
208.148	8741.18
208.222	8917.49
208.296	9133.77
208.371	9332.91
208.445	9528.5
208.519	9743.25
208.593	9943.78
208.668	10124.75
208.742	10318.04
208.816	10504.31
208.89	10718.47
208.965	10911.99
209.039	11109.22
209.113	11313.29
209.187	11535.46
209.261	11724.42
209.336	11942.59
209.41	12153.12
209.484	12346.93
209.558	12558.72
209.632	12759.37
209.707	12974.16
209.781	13184.61
209.855	13384.03
209.929	13597.38
210.003	13792.12
210.077	13980.75
210.151	14210.39
210.226	14434.92
210.3	14653.37
210.374	14866.14
210.448	15041.41
210.522	15229.25
210.596	15415.98
210.67	15616.93
210.744	15844.14
210.818	16055.69
210.892	16243.96
210.966	16416.6
211.041	16614.84
211.115	16783.29
211.189	16983.83
211.263	17164.76
211.337	17336.57
211.411	17519.03
211.485	17668.43
211.559	17844.1
211.633	18007.18
211.707	18139.76
211.781	18306.98
211.855	18425.67
211.929	18579.4
212.003	18723.74
212.077	18892.74
212.151	19061.12
212.225	19215.05
212.299	19350.56
212.373	19476.72
212.447	19618.64
212.52	19782.26
212.594	19921.72
212.668	20072.61
212.742	20195.7
212.816	20310.2
212.89	20444.61
212.964	20580.62
213.038	20708.57
213.112	20855.38
213.186	20990.76
213.26	21106.28
213.333	21176.75
213.407	21294.25
213.481	21412.33
213.555	21546.71
213.629	21647.89
213.703	21741.64
213.777	21852.46
213.85	21951.91
213.924	22113.99
213.998	22220.09
214.072	22325.14
214.146	22419.97
214.219	22527.96
214.293	22630.84
214.367	22750.65
214.441	22857.83
214.515	22943.03
214.588	23037.09
214.662	23094.04
214.736	23182.71
214.81	23276.15
214.883	23380.68
214.957	23467.62
215.031	23545.98
215.105	23606.93
215.178	23678.97
215.252	23759.37
215.326	23822.45
215.4	23874.58
215.473	23891.13
215.547	23952.62
215.621	24023.24
215.694	24103.02
215.768	24144.6
215.842	24202.68
215.915	24259.74
215.989	24292.01
216.063	24350.72
216.136	24409.29
216.21	24473.11
216.284	24525.5
216.357	24584.74
216.431	24645.19
216.504	24708.05
216.578	24789.35
216.652	24865.57
216.725	24928.15
216.799	24988.71
216.873	25034.69
216.946	25088.15
217.02	25135.38
217.093	25188.56
217.167	25198.79
217.24	25221.47
217.314	25266.54
217.387	25306.73
217.461	25336.07
217.535	25408.41
217.608	25437.32
217.682	25470.04
217.755	25515.94
217.829	25555.85
217.902	25589.15
217.976	25624.62
218.049	25663.67
218.123	25684.14
218.196	25720.77
218.27	25744.38
218.343	25766.2
218.417	25799.55
218.49	25839.81
218.563	25886.96
218.637	25919.11
218.71	25981.58
218.784	26027.63
218.857	26074.02
218.931	26099.84
219.004	26136.68
219.077	26166.76
219.151	26195.91
219.224	26234.1
219.298	26271.33
219.371	26313.67
219.444	26334.72
219.518	26360.5
219.591	26381.07
219.665	26439.16
219.738	26464.94
219.811	26476.68
219.885	26506.9
219.958	26544.42
220.031	26559.96
220.105	26598.5
220.178	26634.57
220.251	26662.97
220.325	26688.66
220.398	26706.72
220.471	26742.6
220.544	26767.42
220.618	26783.07
220.691	26821.7
220.764	26839.66
220.838	26855.21
220.911	26865.11
220.984	26907.17
221.057	26926.88
221.131	26943.3
221.204	26907.51
221.277	26931.22
221.35	26985.8
221.424	26990.24
221.497	27000.19
221.57	27012.6
221.643	27023.18
221.716	27024.97
221.79	27013.71
221.863	27005.26
221.936	27011.97
222.009	27007.72
222.082	27018.88
222.155	27007.53
222.229	27025.5
222.302	27034.24
222.375	27031.59
222.448	27039.89
222.521	27042.02
222.594	27042.12
222.667	27028.21
222.74	27057.81
222.814	27048.39
222.887	27021.68
222.96	27026.12
223.033	27020.52
223.106	27020.23
223.179	27014.63
223.252	27010.38
223.325	27006.37
223.398	27015.55
223.471	27008.3
223.544	27007.63
223.617	26996.32
223.69	26995.12
223.763	26966.81
223.837	26954.88
223.91	26954.4
223.983	26921.37
224.056	26897.99
224.129	26895.77
224.202	26892
224.275	26864.62
224.348	26833.13
224.42	26809.57
224.493	26778.42
224.566	26763.55
224.639	26750.94
224.712	26731.34
224.785	26708.25
224.858	26684.3
224.931	26653.01
225.004	26624.37
225.077	26604.82
225.15	26551.8
225.223	26530.12
225.296	26537.37
225.369	26485.03
225.442	26452.77
225.514	26439.93
225.587	26407
225.66	26374.55
225.733	26352.83
225.806	26328.88
225.879	26316.42
225.952	26279.64
226.025	26272.83
226.097	26263.03
226.17	26242.8
226.243	26192.69
226.316	26170.33
226.389	26151.41
226.461	26128.23
226.534	26109.79
226.607	26078.46
226.68	26088.31
226.753	26067.94
226.825	26013.14
226.898	26017.34
226.971	25988.61
227.044	25957.33
227.117	25938.46
227.189	25929.77
227.262	25920.55
227.335	25887.58
227.407	25850.23
227.48	25831.36
227.553	25811.71
227.626	25777.19
227.698	25739.4
227.771	25721.25
227.844	25674.58
227.916	25639.59
227.989	25596.49
228.062	25560.3
228.134	25559.81
228.207	25510.49
228.28	25464.98
228.352	25428.01
228.425	25393.22
228.498	25369.71
228.57	25334.97
228.643	25309.49
228.716	25266.53
228.788	25227.44
228.861	25199.12
228.934	25191.4
229.006	25161.14
229.079	25117.03
229.151	25077.99
229.224	25033.46
229.296	25011.36
229.369	25014.64
229.442	24994.43
229.514	24958.34
229.587	24936
229.659	24877.42
229.732	24858.61
229.804	24838.87
229.877	24838.15
229.949	24811.9
230.022	24802.4
230.094	24775.96
230.167	24742.91
230.239	24696.26
230.312	24667.74
230.384	24668.76
230.457	24631.17
230.529	24608.84
230.602	24580.81
230.674	24553.17
230.747	24542.46
230.819	24515.44
230.892	24448.19
230.964	24426.63
231.037	24402.03
231.109	24373.18
231.181	24350.85
231.254	24299.53
231.326	24260.56
231.399	24206.53
231.471	24165.53
231.544	24096.07
231.616	24067.71
231.688	24040.45
231.761	24000.95
231.833	23958.27
231.905	23892.91
231.978	23846.8
232.05	23800.45
232.122	23768.81
232.195	23730.52
232.267	23701.44
232.339	23653.02
232.412	23632.91
232.484	23580.14
232.556	23533.8
232.629	23515.57
232.701	23475.45
232.773	23445.65
232.846	23404.76
232.918	23367.43
232.99	23336.04
233.062	23319.45
233.135	23284.25
233.207	23228.03
233.279	23194.9
233.351	23163.9
233.424	23113.61
233.496	23081.64
233.568	23069.54
233.64	23011.34
233.713	22969.05
233.785	22921.7
233.857	22889.88
233.929	22846.05
234.001	22829.76
234.074	22820.5
234.146	22759.7
234.218	22729.47
234.29	22690.71
234.362	22650.98
234.434	22594.58
234.507	22543.47
234.579	22485.14
234.651	22438.86
234.723	22416.68
234.795	22386.17
234.867	22328.56
234.939	22307.35
235.012	22265.26
235.084	22214.64
235.156	22175.5
235.228	22125.37
235.3	22082.08
235.372	22033.49
235.444	22000.47
235.516	21927.53
235.588	21881.01
235.66	21835.03
235.732	21785.28
235.804	21805.62
235.876	21775.88
235.948	21756.75
236.02	21713.61
236.092	21662.76
236.164	21621.11
236.236	21570.89
236.308	21515.94
236.38	21485.62
236.452	21432.8
236.524	21390.72
236.596	21367.05
236.668	21343.39
236.74	21305.02
236.812	21265.5
236.884	21232.82
236.956	21184.19
237.028	21137.73
237.1	21078.5
237.172	21051.99
237.244	21015.79
237.316	20923.15
237.388	20866.91
237.46	20814.81
237.532	20783.82
237.604	20740.35
237.675	20711.43
237.747	20676.06
237.819	20633.94
237.891	20587.77
237.963	20549.89
238.035	20501.17
238.107	20423.72
238.178	20384.15
238.25	20343.96
238.322	20322.7
238.394	20263.57
238.466	20219.81
238.538	20188.25
238.609	20156.64
238.681	20095.14
238.753	20048.4
238.825	20013.55
238.897	19977.31
238.968	19950.71
239.04	19905.65
239.112	19892.64
239.184	19835.29
239.255	19784.89
239.327	19753.37
239.399	19714.19
239.471	19675.69
239.542	19646.1
239.614	19621.52
239.686	19552.95
239.758	19516.27
239.829	19468.42
239.901	19439.75
239.973	19399.61
240.044	19359.66
240.116	19316.62
240.188	19277.2
240.259	19231.52
240.331	19192.29
240.403	19152.44
240.474	19094.27
240.546	19042.66
240.618	18980.26
240.689	18933.95
240.761	18895.68
240.833	18863.06
240.904	18813.81
240.976	18767.93
241.048	18720.08
241.119	18686.01
241.191	18654.35
241.262	18634.25
241.334	18571.95
241.405	18535.08
241.477	18486.94
241.549	18441.4
241.62	18404.44
241.692	18369.88
241.763	18342.37
241.835	18287.86
241.906	18250.61
241.978	18199.58
242.049	18167.92
242.121	18137.65
242.192	18119.87
242.264	18063.39
242.335	18004.02
242.407	17974.33
242.478	17929.61
242.55	17894.38
242.621	17841.23
242.693	17798.87
242.764	17749.47
242.836	17719.4
242.907	17680.46
242.979	17641.14
243.05	17607.21
243.122	17569.72
243.193	17521.52
243.264	17458.3
243.336	17422.92
243.407	17390.06
243.479	17368.95
243.55	17334.01
243.622	17301.91
243.693	17259.98
243.764	17241.62
243.836	17197.57
243.907	17157.62
243.978	17122.39
244.05	17087.64
244.121	17037.95
244.192	17010.1
244.264	16953.32
244.335	16912.21
244.407	16850.19
244.478	16824.26
244.549	16786.81
244.62	16735.53
244.692	16696.54
244.763	16663.91
244.834	16621.3
244.906	16576.43
244.977	16545.2
245.048	16517.83
245.119	16464.81
245.191	16414.98
245.262	16360.85
245.333	16345.43
245.405	16311.06
245.476	16280.12
245.547	16245.18
245.618	16216.07
245.689	16178.13
245.761	16143.72
245.832	16108.58
245.903	16086.61
245.974	16054.94
246.045	16018.41
246.117	15992.18
246.188	15955.7
246.259	15913.14
246.33	15870.43
246.401	15824.16
246.473	15772.01
246.544	15737.16
246.615	15715.42
246.686	15675.99
246.757	15655.51
246.828	15608.08
246.899	15582.24
246.97	15532.65
247.042	15486.42
247.113	15462.42
247.184	15457.02
247.255	15420.05
247.326	15384.04
247.397	15346.49
247.468	15303.98
247.539	15268.02
247.61	15237.84
247.681	15215.53
247.752	15192.82
247.823	15157.92
247.894	15139.99
247.965	15097.09
248.037	15051.64
248.108	15003.19
248.179	14970.12
248.25	14924.04
248.321	14897.43
248.392	14859.16
248.463	14851.06
248.534	14812.84
248.605	14788.3
248.675	14744.53
248.746	14717.97
248.817	14692.91
248.888	14665.77
248.959	14624.65
249.03	14603.25
249.101	14564.2
249.172	14526.46
249.243	14476.95
249.314	14463.11
249.385	14428.16
249.456	14402.09
249.527	14369.07
249.598	14351.52
249.669	14323.7
249.739	14311.03
249.81	14287.5
249.881	14236.02
249.952	14202.56
250.023	14178.27
250.094	14122.2
250.165	14085.42
250.235	14063.59
250.306	14045.61
250.377	14012.01
250.448	13994.84
250.519	13947.75
250.59	13943.12
250.66	13910.68
250.731	13910.43
250.802	13878.04
250.873	13853.17
250.944	13835.86
251.014	13802.4
251.085	13796.57
251.156	13775.07
251.227	13754.73
251.297	13735.35
251.368	13730.43
251.439	13715.01
251.51	13700.06
251.58	13670.8
251.651	13634.4
251.722	13613.05
251.792	13562.67
251.863	13530.66
251.934	13512.49
252.005	13509.45
252.075	13473.11
252.146	13462.5
252.217	13443.17
252.287	13423.98
252.358	13403.01
252.429	13392.41
252.499	13364.3
252.57	13341.6
252.641	13321.64
252.711	13295.56
252.782	13253.14
252.852	13236.41
252.923	13208.16
252.994	13185.6
253.064	13177.74
253.135	13147.52
253.205	13115.9
253.276	13108.76
253.347	13103.55
253.417	13069.71
253.488	13042.86
253.558	13017.99
253.629	12989.93
253.699	12965.35
253.77	12950.98
253.841	12924.18
253.911	12901.96
253.982	12880.84
254.052	12866.81
254.123	12845.56
254.193	12818.85
254.264	12835.29
254.334	12810.56
254.405	12772.57
254.475	12738.01
254.546	12707.35
254.616	12698.19
254.687	12683.73
254.757	12669.8
254.827	12648.11
254.898	12629.11
254.968	12612.53
255.039	12582.16
255.109	12566.74
255.18	12538.01
255.25	12495.2
255.321	12482.33
255.391	12443.86
255.461	12450.18
255.532	12395.71
255.602	12371.17
255.673	12330.68
255.743	12299.2
255.813	12255.73
255.884	12251.39
255.954	12236.88
256.024	12240.54
256.095	12221.94
256.165	12187.71
256.235	12165.2
256.306	12128.04
256.376	12122.59
256.446	12104.42
256.517	12094.49
256.587	12082.29
256.657	12064.26
256.728	12042.72
256.798	12013.99
256.868	11991.96
256.938	11955.33
257.009	11946.12
257.079	11933.59
257.149	11950.27
257.219	11908.91
257.29	11892.67
257.36	11846.64
257.43	11835.17
257.5	11795.93
257.571	11771.74
257.641	11761.18
257.711	11734.62
257.781	11728.45
257.852	11711.15
257.922	11670.42
257.992	11643.67
258.062	11622.08
258.132	11614.7
258.202	11600.53
258.273	11586.07
258.343	11587.23
258.413	11568.58
258.483	11552.19
258.553	11518.7
258.623	11488.47
258.693	11479.85
258.764	11479.12
258.834	11479.27
258.904	11463.6
258.974	11429.87
259.044	11415.36
259.114	11399.94
259.184	11376.08
259.254	11353.05
259.324	11314.97
259.394	11307.94
259.464	11308.13
259.535	11287.7
259.605	11258.44
259.675	11231.84
259.745	11217.19
259.815	11180.85
259.885	11150.11
259.955	11156.76
260.025	11132.66
260.095	11107.26
260.165	11088.9
260.235	11085.43
260.305	11056.13
260.375	11018.5
260.445	11028.33
260.515	11020.23
260.585	11012.04
260.655	10999.8
260.725	10994.79
260.795	10983.85
260.865	10979.17
260.934	10949.39
261.004	10940.43
261.074	10926.55
261.144	10925.49
261.214	10924.67
261.284	10911.13
261.354	10910.36
261.424	10880.38
261.494	10885.25
261.564	10870.94
261.634	10860.19
261.703	10826.7
261.773	10818.6
261.843	10817.54
261.913	10800.24
261.983	10767.04
262.053	10757.65
262.123	10740.98
262.192	10709.56
262.262	10700.31
262.332	10675.35
262.402	10665.9
262.472	10640.75
262.541	10602.55
262.611	10598.88
262.681	10572.81
262.751	10563.13
262.821	10540.2
262.89	10511.72
262.96	10505.5
263.03	10506.27
263.1	10496.73
263.169	10482.81
263.239	10475.05
263.309	10478.28
263.379	10472.16
263.448	10458.48
263.518	10446.48
263.588	10429.81
263.657	10436.31
263.727	10433.42
263.797	10415.65
263.867	10400.08
263.936	10374.84
264.006	10375.66
264.076	10354.32
264.145	10336.15
264.215	10316.3
264.285	10319
264.354	10288.8
264.424	10262.83
264.494	10232.81
264.563	10210.27
264.633	10214.89
264.702	10211.18
264.772	10176.83
264.842	10153.61
264.911	10140.75
264.981	10109
265.05	10090.94
265.12	10069.55
265.19	10055.48
265.259	10053.22
265.329	10047.53
265.398	10038.28
265.468	10054.42
265.537	10033.27
265.607	10024.7
265.676	10021.95
265.746	10005.34
265.815	10005.19
265.885	9985.78
265.955	9965.45
266.024	9951
266.094	9904.95
266.163	9903.36
266.232	9906.83
266.302	9893.68
266.371	9891.27
266.441	9882.6
266.51	9888.05
266.58	9869.84
266.649	9848.65
266.719	9841.23
266.788	9831.35
266.858	9837.28
266.927	9799.8
266.996	9792.96
267.066	9779.91
267.135	9749.9
267.205	9744.94
267.274	9726.79
267.343	9729.15
267.413	9719.71
267.482	9728.33
267.552	9736.13
267.621	9701.02
267.69	9671.2
267.76	9660.61
267.829	9653.48
267.898	9643.99
267.968	9619.91
268.037	9615.77
268.106	9616.25
268.176	9594.53
268.245	9575.8
268.314	9563.18
268.384	9556.48
268.453	9548.63
268.522	9535.1
268.592	9543.48
268.661	9523.11
268.73	9522.82
268.799	9501.44
268.869	9509.96
268.938	9471.82
269.007	9450.3
269.076	9440.57
269.146	9440.14
269.215	9431.8
269.284	9432.53
269.353	9412.45
269.422	9398
269.492	9382.26
269.561	9335.41
269.63	9328.67
269.699	9311.86
269.768	9298.62
269.838	9299.39
269.907	9292.26
269.976	9273.87
270.045	9243.1
270.114	9236.17
270.183	9215.95
270.253	9212.05
270.322	9182.77
270.391	9171.79
270.46	9182.15
270.529	9180.41
270.598	9180.03
270.667	9169.34
270.736	9144.69
270.806	9139.63
270.875	9140.74
270.944	9129.09
271.013	9155.76
271.082	9150.75
271.151	9147.28
271.22	9113.2
271.289	9090.38
271.358	9078.3
271.427	9071.27
271.496	9063.18
271.565	9054.61
271.634	9052.69
271.703	9077.49
271.772	9077.63
271.841	9073.39
271.91	9048.21
271.979	9040.08
272.048	9015.96
272.117	9013.74
272.186	9001.22
272.255	9008.59
272.324	9003.54
272.393	9002.91
272.462	8985.38
272.531	8973.25
272.6	8969.98
272.669	8980.76
272.738	8973.4
272.807	8967.86
272.876	8949.28
272.945	8972.92
273.013	8972.39
273.082	8977.25
273.151	8931.37
273.22	8925.78
273.289	8915.53
273.358	8922.32
273.427	8907.2
273.496	8906.05
273.564	8907.44
273.633	8909.7
273.702	8887.18
273.771	8880.97
273.84	8873.6
273.909	8871.34
273.977	8871.87
274.046	8855.36
274.115	8861.28
274.184	8844.96
274.253	8832.98
274.322	8839.57
274.39	8810.54
274.459	8798.9
274.528	8769.25
274.597	8766.46
274.665	8763.37
274.734	8769.54
274.803	8767.85
274.872	8759.52
274.94	8741.86
275.009	8793.1
275.078	8780.35
275.147	8774.57
275.215	8767.06
275.284	8775.68
275.353	8766.34
275.421	8742.37
275.49	8757.34
275.559	8743.05
275.627	8740.59
275.696	8734.58
275.765	8735.97
275.833	8726.11
275.902	8724.95
275.971	8736.26
276.039	8748.15
276.108	8758.02
276.177	8760.95
276.245	8746.51
276.314	8745.65
276.383	8753.68
276.451	8689.11
276.52	8691.56
276.588	8706.39
276.657	8714.33
276.725	8703.6
276.794	8706.34
276.863	8722.61
276.931	8705.13
277	8713.94
277.068	8724.91
277.137	8750.43
277.205	8747.59
277.274	8772.23
277.342	8779.5
277.411	8762.94
277.48	8747.83
277.548	8727.71
277.617	8724.05
277.685	8717.31
277.754	8724.53
277.822	8717.41
277.89	8732.86
277.959	8723.91
278.027	8704.99
278.096	8690.12
278.164	8714.34
278.233	8706.92
278.301	8688.78
278.37	8693.5
278.438	8682.19
278.507	8681.9
278.575	8645.18
278.643	8648.45
278.712	8626.12
278.78	8611.1
278.849	8617.11
278.917	8629.39
278.985	8627.22
279.054	8628.04
279.122	8637.28
279.191	8633.33
279.259	8627.08
279.327	8600.89
279.396	8617.69
279.464	8617.16
279.532	8623.71
279.601	8616.44
279.669	8609.17
279.737	8626.06
279.806	8622.84
279.874	8627.75
279.942	8628.61
280.011	8631.02
280.079	8633.14
280.147	8647.62
280.215	8650.32
280.284	8649.26
280.352	8635.06
280.42	8644.64
280.488	8634.67
280.557	8626.16
280.625	8627.21
280.693	8628.42
280.761	8633.09
280.83	8618.89
280.898	8628.13
280.966	8610.23
281.034	8582.93
281.102	8571.29
281.171	8563.54
281.239	8578.08
281.307	8576.1
281.375	8563.16
281.443	8590.5
281.512	8583.85
281.58	8590.21
281.648	8578.95
281.716	8580.25
281.784	8582.6
281.852	8578.8
281.92	8581.26
281.989	8590.83
282.057	8573.7
282.125	8613.37
282.193	8605.23
282.261	8605.23
282.329	8598.88
282.397	8607.98
282.465	8610.91
282.533	8625.54
282.601	8619.43
282.67	8596.42
282.738	8588.05
282.806	8600.65
282.874	8584.96
282.942	8592.71
283.01	8582.6
283.078	8593.24
283.146	8588.14
283.214	8596.22
283.282	8599.06
283.35	8608.5
283.418	8600.85
283.486	8608.45
283.554	8570.71
283.622	8577.01
283.69	8575.67
283.758	8571.91
283.826	8572.44
283.894	8580.67
283.962	8601.8
284.03	8614.32
284.098	8607.68
284.165	8599.59
284.233	8592.47
284.301	8587.66
284.369	8578.95
284.437	8575.14
284.505	8564.99
284.573	8585.92
284.641	8571.39
284.709	8569.37
284.777	8549.97
284.845	8564.65
284.912	8569.18
284.98	8575.82
285.048	8570.04
285.116	8574.76
285.184	8586.79
285.252	8585.54
285.319	8566.34
285.387	8554.35
285.455	8528.46
285.523	8544.3
285.591	8542.76
285.659	8549.54
285.726	8566.63
285.794	8551.61
285.862	8548.05
285.93	8545.5
285.997	8536.41
286.065	8536.65
286.133	8533.04
286.201	8532.17
286.269	8511.81
286.336	8505.75
286.404	8501.61
286.472	8511.04
286.539	8490.64
286.607	8474.23
286.675	8481.98
286.743	8492.85
286.81	8488.09
286.878	8513.21
286.946	8500.65
287.013	8504.83
287.081	8508.01
287.149	8490.25
287.216	8506.51
287.284	8500.45
287.352	8509.4
287.419	8505.17
287.487	8518.5
287.555	8520.95
287.622	8526.92
287.69	8531.35
287.758	8535.15
287.825	8525.67
287.893	8514.6
287.96	8517.34
288.028	8533.18
288.096	8530.67
288.163	8533.27
288.231	8523.21
288.298	8518.5
288.366	8534.09
288.433	8532.98
288.501	8519.41
288.569	8523.6
288.636	8522.01
288.704	8539.86
288.771	8544.24
288.839	8536.02
288.906	8529.13
288.974	8538.57
289.041	8531.16
289.109	8526.49
289.176	8540.3
289.244	8550.21
289.311	8565.95
289.379	8583.8
289.446	8584.57
289.514	8582.89
289.581	8585.3
289.649	8584.14
289.716	8589.15
289.783	8583.95
289.851	8603.01
289.918	8609.41
289.986	8612.24
290.053	8615.42
290.121	8618.26
290.188	8618.74
290.255	8650.8
290.323	8645.98
290.39	8639.82
290.458	8651.37
290.525	8666.58
290.592	8657.29
290.66	8657.72
290.727	8653.87
290.794	8662.49
290.862	8663.4
290.929	8670.48
290.996	8670.38
291.064	8686.55
291.131	8695.75
291.198	8706.77
291.266	8704.79
291.333	8706.09
291.4	8716.59
291.468	8737.38
291.535	8726.45
291.602	8731.12
291.669	8727.71
291.737	8734.73
291.804	8744.17
291.871	8753.89
291.938	8763.03
292.006	8795.96
292.073	8813.58
292.14	8822.34
292.207	8818.05
292.275	8815.31
292.342	8828.4
292.409	8855.6
292.476	8880.2
292.543	8872.79
292.611	8875.34
292.678	8890.74
292.745	8914.23
292.812	8927.28
292.879	8920.15
292.946	8932.52
293.014	8948.5
293.081	8954.14
293.148	8971.8
293.215	8984.51
293.282	8985.23
293.349	8994.91
293.416	8973.92
293.484	8982.63
293.551	8990.1
293.618	9011.66
293.685	9039.44
293.752	9031.21
293.819	9026.2
293.886	9012.48
293.953	9023.07
294.02	9036.12
294.087	9043.34
294.154	9035.83
294.221	9053.35
294.288	9057.21
294.356	9075.74
294.423	9083.68
294.49	9075.65
294.557	9086.48
294.624	9075.31
294.691	9094.42
294.758	9090.57
294.825	9101.3
294.892	9098.51
294.959	9106.89
295.026	9105.64
295.093	9097.07
295.16	9102.17
295.226	9103.37
295.293	9132.12
295.36	9139.25
295.427	9148.83
295.494	9163.9
295.561	9172.56
295.628	9191.78
295.695	9207.96
295.762	9204.11
295.829	9211.28
295.896	9229.67
295.963	9237.42
296.03	9244.98
296.096	9254.08
296.163	9268.38
296.23	9286.44
296.297	9301.75
296.364	9295.59
296.431	9305.41
296.498	9310.32
296.564	9334.3
296.631	9339.06
296.698	9318.55
296.765	9333.91
296.832	9326.16
296.899	9312.68
296.965	9329.38
297.032	9304.2
297.099	9320.14
297.166	9330.63
297.233	9327.46
297.299	9320.81
297.366	9324.76
297.433	9336.41
297.5	9346.19
297.566	9353.41
297.633	9356.54
297.7	9357.5
297.767	9356.4
297.833	9361.4
297.9	9356.54
297.967	9337.57
298.033	9352.4
298.1	9385.15
298.167	9377.88
298.234	9381.54
298.3	9390.3
298.367	9391.12
298.434	9400.75
298.5	9393
298.567	9393.38
298.634	9393.29
298.7	9410.04
298.767	9415.68
298.834	9428.05
298.9	9414.96
298.967	9404.7
299.033	9409.75
299.1	9419.72
299.167	9439.99
299.233	9435.32
299.3	9454.3
299.366	9475.24
299.433	9495.23
299.5	9467.1
299.566	9476.11
299.633	9496.67
299.699	9511.36
299.766	9510.64
299.832	9516.56
299.899	9525.47
299.965	9539.48
300.032	9541.12
300.099	9556.63
300.165	9556.34
300.232	9547.87
300.298	9557.06
300.365	9567.8
300.431	9568.67
300.498	9571.32
300.564	9577.87
300.631	9593.86
300.697	9604.26
300.763	9606.14
300.83	9596.94
300.896	9610.71
300.963	9618.03
301.029	9619.76
301.096	9626.22
301.162	9639.17
301.229	9631.71
301.295	9626.7
301.361	9631.42
301.428	9631.42
301.494	9617.79
301.561	9624.87
301.627	9630.6
301.693	9640.62
301.76	9646.88
301.826	9641
301.892	9643.31
301.959	9655.02
302.025	9649.38
302.092	9652.42
302.158	9657.28
302.224	9666
302.291	9660.7
302.357	9657.86
302.423	9653.91
302.49	9641.44
302.556	9653.29
302.622	9656.61
302.688	9669.28
302.755	9678.23
302.821	9688.25
302.887	9694.32
302.954	9691.81
303.02	9700.97
303.086	9699.42
303.152	9699.18
303.219	9697.16
303.285	9709.2
303.351	9715.03
303.417	9723.94
303.483	9715.46
303.55	9709.83
303.616	9708.05
303.682	9708.82
303.748	9697.79
303.815	9715.18
303.881	9724.18
303.947	9705.74
304.013	9716.57
304.079	9706.36
304.145	9688.54
304.212	9686.09
304.278	9681.75
304.344	9680.79
304.41	9670.48
304.476	9660.37
304.542	9657.38
304.608	9670.24
304.674	9653.91
304.741	9644.95
304.807	9640.57
304.873	9642.83
304.939	9657.72
305.005	9639.61
305.071	9639.75
305.137	9646.73
305.203	9620.48
305.269	9616.54
305.335	9628.05
305.401	9617.16
305.467	9616.29
305.533	9624.29
305.599	9634.02
305.666	9640.95
305.732	9637.53
305.798	9651.02
305.864	9677.56
305.93	9678.14
305.996	9674.43
306.062	9669.56
306.128	9667.2
306.194	9655.16
306.259	9657.14
306.325	9652.32
306.391	9665.76
306.457	9677.56
306.523	9683.53
306.589	9702.31
306.655	9695.38
306.721	9684.54
306.787	9678.43
306.853	9691.57
306.919	9672.41
306.985	9669.23
307.051	9653.38
307.117	9649.72
307.183	9635.13
307.248	9605.61
307.314	9611.82
307.38	9612.83
307.446	9622.85
307.512	9612.54
307.578	9620.73
307.644	9612.2
307.709	9609.22
307.775	9605.8
307.841	9599.83
307.907	9598.81
307.973	9585.57
308.039	9594.96
308.104	9592.6
308.17	9596.6
308.236	9586
308.302	9593.08
308.368	9582
308.433	9589.23
308.499	9578.2
308.565	9580.17
308.631	9589.61
308.696	9562.89
308.762	9546.99
308.828	9548.2
308.894	9526.96
308.959	9510.83
309.025	9502.02
309.091	9500.96
309.156	9489.98
309.222	9491.04
309.288	9480.06
309.354	9455.16
309.419	9445.2
309.485	9434.36
309.551	9429.64
309.616	9410.62
309.682	9408.93
309.748	9401.13
309.813	9398.05
309.879	9396.13
309.945	9381.29
310.01	9368.92
310.076	9378.64
310.141	9372.96
310.207	9355.53
310.273	9364.97
310.338	9370.26
310.404	9359.72
310.469	9345.22
310.535	9330.63
310.601	9306.65
310.666	9311.9
310.732	9326.06
310.797	9318.74
310.863	9309.49
310.928	9308.05
310.994	9312.43
311.059	9309.88
311.125	9303.67
311.191	9317.15
311.256	9305.31
311.322	9312.19
311.387	9293.46
311.453	9560.12
311.518	9546.11
311.584	9540.48
311.649	9544
311.715	9529.94
311.78	9527
311.846	9522.09
311.911	9530.47
311.976	9528.25
312.042	9510.97
312.107	9495.17
312.173	9485.06
312.238	9480.92
312.304	9476.44
312.369	9464.55
312.434	9453.48
312.5	9450.54
312.565	9413.75
312.631	9419.53
312.696	9407.49
312.761	9409.46
312.827	9131.49
312.892	9166.35
312.958	9169.91
313.023	9169.62
313.088	9169.24
313.154	9154.75
313.219	9141.41
313.284	9129.81
313.35	9136.21
313.415	9127.02
313.48	9118.45
313.546	9119.7
313.611	9128.41
313.676	9114.93
313.741	9109.64
313.807	9114.98
313.872	9112.86
313.937	9121
314.003	9130.39
314.068	9131.01
314.133	9139.06
314.198	9128.9
314.264	9102.08
314.329	9089.89
314.394	9078.53
314.459	9072.37
314.525	9095.52
314.59	9092.92
314.655	9078.48
314.72	9081.28
314.785	9083.59
314.851	9082.86
314.916	9063.75
314.981	9049.36
315.046	9043.68
315.111	9031.02
315.176	9016.48
315.242	9022.4
315.307	9021.39
315.372	9000.4
315.437	8989.9
315.502	8978.2
315.567	8993.85
315.632	8985.57
315.698	8984.66
315.763	8983.84
315.828	8978.73
315.893	8970.79
315.958	8961.31
316.023	8959.62
316.088	8936.23
316.153	8913.36
316.218	8902.63
316.283	8888
316.348	8865.09
316.413	8860.13
316.479	8847.43
316.544	8822.21
316.609	8790.87
316.674	8750.01
316.739	8717
316.804	8682.59
316.869	8651.74
316.934	8607.41
316.999	8572.57
317.064	8520.11
317.129	8471.32
317.194	8436.28
317.259	8389.55
317.324	8342.7
317.389	8295.88
317.454	8254.12
317.518	8220.3
317.583	8195.19
317.648	8173.01
317.713	8142.61
317.778	8084.49
317.843	8054.42
317.908	8006.66
317.973	7967.84
318.038	7939.85
318.103	7905.37
318.168	7880.02
318.233	7843.13
318.297	7792.3
318.362	7753.59
318.427	7716.28
318.492	7694.55
318.557	7645.41
318.622	7615.45
318.687	7595.16
318.751	7556.81
318.816	7528.97
318.881	7493.83
318.946	7443.2
319.011	7393.59
319.075	7356.96
319.14	7317.32
319.205	7274.68
319.27	7243.79
319.335	7200.15
319.399	7163.14
319.464	7136.85
319.529	7082.61
319.594	7046.32
319.658	7023.26
319.723	6983.39
319.788	6952.02
319.853	6893.74
319.917	6862.72
319.982	6808.86
320.047	6770.92
320.112	6741.81
320.176	6690.47
320.241	6655.03
320.306	6622.32
320.37	6583.24
320.435	6549
320.5	6524.85
320.564	6485.71
320.629	6446.45
320.694	6416.06
320.758	6370.6
320.823	6319.9
320.888	6292.84
320.952	6244.07
321.017	6200.01
321.082	6162.91
321.146	6130.57
321.211	6099.38
321.275	6058.32
321.34	6011.74
321.405	5964.39
321.469	5921.41
321.534	5879.11
321.598	5832.49
321.663	5802.03
321.727	5768.84
321.792	5716.66
321.857	5669.95
321.921	5626.08
321.986	5581.64
322.05	5518.8
322.115	5480.41
322.179	5437.03
322.244	5380.58
322.308	5347.12
322.373	5299.06
322.437	5254.64
322.502	5225.63
322.566	5180.16
322.631	5139.97
322.695	5100.94
322.76	5058.17
322.824	5018.04
322.889	4975.33
322.953	4929.08
323.018	4862.7
323.082	4798.41
323.146	4748.97
323.211	4697.94
323.275	4655.39
323.34	4607.25
323.404	4575.3
323.468	4530.55
323.533	4484.67
323.597	4439
323.662	4390.48
323.726	4351.92
323.79	4305
323.855	4240.84
323.919	4192.3
323.983	4150.74
324.048	4084.96
324.112	4208.17
324.177	4080.83
324.241	3869.14
324.305	3661.27
324.37	3454.94
324.434	3260.46
324.498	3215.53
324.562	3162.91
324.627	3099.48
324.691	3045.42
324.755	2977.08
324.82	2896.21
324.884	2818.91
324.948	2742.54
325.012	2635.45
325.077	2508.44
