Data from 20250704_urea_0.1M_MAYP1162681_11-18-44-695.txt Node
Date: Fri Jul 04 11:18:44 BST 2025
User: adleo
Spectrometer: MAYP116268
Trigger mode: 0
Integration Time (sec): 1.000000E0
Scans to average: 1
Electric dark correction enabled: true
Nonlinearity correction enabled: true
Boxcar width: 10
XAxis mode: Wavelengths
Number of Pixels in Spectrum: 2068
>>>>>Begin Spectral Data<<<<<
179.565	1243.21
179.642	1302.79
179.718	1350.22
179.795	1391.37
179.871	1424.16
179.948	1446.56
180.024	1468.85
180.101	1492.82
180.177	1507.33
180.254	1528.98
180.33	1552.56
180.407	1610.16
180.483	1705.41
180.56	1798.49
180.636	1885.18
180.712	1870.44
180.789	1885.18
180.865	1897.77
180.942	1908.7
181.018	1920.64
181.095	1932.72
181.171	1938.18
181.248	1937.71
181.324	1952.59
181.4	1957.78
181.477	1966.29
181.553	1976.94
181.63	1997.39
181.706	2011.04
181.782	2019.35
181.859	2020.92
181.935	2026.35
182.011	2020.83
182.088	2040.23
182.164	2059.64
182.24	2073.67
182.317	2083.47
182.393	2079.23
182.469	2094.12
182.546	2105.49
182.622	2109.44
182.698	2100.78
182.775	2114.05
182.851	2128.99
182.927	2119.05
183.003	2116.48
183.08	2116.33
183.156	2126.42
183.232	2122.28
183.308	2111.86
183.385	2121.61
183.461	2139.74
183.537	2141.12
183.613	2155.34
183.69	2148.78
183.766	2136.93
183.842	2144.82
183.918	2151.25
183.995	2168.28
184.071	2171.23
184.147	2165.04
184.223	2151.54
184.299	2170.38
184.375	2158.15
184.452	2167.2
184.528	2216.58
184.604	2228.61
184.68	2236.03
184.756	2244.36
184.832	2246.93
184.908	2253.78
184.985	2251.74
185.061	2236.75
185.137	2244.69
185.213	2231.42
185.289	2230.47
185.365	2222.39
185.441	2220.24
185.517	2232.19
185.593	2227.05
185.669	2224.15
185.745	2237.47
185.822	2255.64
185.898	2246.55
185.974	2256.92
186.05	2244.36
186.126	2210.15
186.202	2202.11
186.278	2199.06
186.354	2188.07
186.43	2198.45
186.506	2197.16
186.582	2197.92
186.658	2202.92
186.734	2182.7
186.81	2186.03
186.886	2187.84
186.962	2203.16
187.038	2200.87
187.114	2193.45
187.19	2196.82
187.266	2188.55
187.341	2190.88
187.417	2184.17
187.493	2181.98
187.569	2183.51
187.645	2181.18
187.721	2171.52
187.797	2178.7
187.873	2184.98
187.949	2179.18
188.025	2170.42
188.101	2173.37
188.176	2177.22
188.252	2173.27
188.328	2181.17
188.404	2182.12
188.48	2176.36
188.556	2169.65
188.632	2168.65
188.707	2169.65
188.783	2171.7
188.859	2167.99
188.935	2152.34
189.011	2160.04
189.086	2154.19
189.162	2144.92
189.238	2141.49
189.314	2139.45
189.39	2134.64
189.465	2126.36
189.541	2139.97
189.617	2124.27
189.693	2122.13
189.768	2125.99
189.844	2151.5
189.92	2142.89
189.996	2151.17
190.071	2162.78
190.147	2163.87
190.223	2172.91
190.298	2164.16
190.374	2151.12
190.45	2162.25
190.526	2172.95
190.601	2164.25
190.677	2169.24
190.753	2200.28
190.828	2203.9
190.904	2220.27
190.98	2234.88
191.055	2246.58
191.131	2240.54
191.207	2262.14
191.282	2268.51
191.358	2257.81
191.433	2239.81
191.509	2255.27
191.585	2252.75
191.66	2255.6
191.736	2260.5
191.811	2251.46
191.887	2267.45
191.963	2289.44
192.038	2292.96
192.114	2290.58
192.189	2297.34
192.265	2291.29
192.34	2268.06
192.416	2267.25
192.491	2261.63
192.567	2264.25
192.642	2264.54
192.718	2264.25
192.793	2251.69
192.869	2245.5
192.944	2247.93
193.02	2259.45
193.095	2262.26
193.171	2266.97
193.246	2268.11
193.322	2265.97
193.397	2267.54
193.473	2255.07
193.548	2238.55
193.624	2246.83
193.699	2246.36
193.775	2262.26
193.85	2263.92
193.925	2272.11
194.001	2272.25
194.076	2266.59
194.152	2256.69
194.227	2249.69
194.302	2241.32
194.378	2247.22
194.453	2244.94
194.529	2259.36
194.604	2240.8
194.679	2237.08
194.755	2217.06
194.83	2227.91
194.905	2225.58
194.981	2233.77
195.056	2225.92
195.131	2230.68
195.207	2228.39
195.282	2219.64
195.357	2199.88
195.433	2217.78
195.508	2204.45
195.583	2209.92
195.659	2221.3
195.734	2227.06
195.809	2227.77
195.884	2236.9
195.96	2237
196.035	2255.7
196.11	2253.13
196.185	2267.64
196.261	2269.88
196.336	2304.09
196.411	2289.29
196.486	2295.52
196.561	2290.14
196.637	2300.13
196.712	2318.32
196.787	2318.94
196.862	2336.69
196.937	2350.35
197.013	2354.97
197.088	2365.86
197.163	2391.1
197.238	2408.49
197.313	2407.82
197.388	2420.15
197.464	2451.91
197.539	2463.43
197.614	2452.58
197.689	2462.34
197.764	2479.29
197.839	2499.29
197.914	2490.43
197.989	2515.91
198.065	2531.34
198.14	2580.18
198.215	2606.51
198.29	2616.23
198.365	2630.66
198.44	2641.52
198.515	2667.63
198.59	2682.73
198.665	2710.07
198.74	2719.27
198.815	2719.51
198.89	2744.33
198.965	2777.31
199.04	2772.21
199.115	2789.22
199.19	2838.67
199.265	2843.68
199.34	2851.49
199.415	2886.92
199.49	2912.98
199.565	2920.42
199.64	2943.82
199.715	2944.34
199.79	2953.88
199.865	2960.98
199.94	2963.46
200.015	2993.54
200.09	2997.5
200.165	3002.6
200.24	3007.32
200.315	3046.64
200.39	3065.62
200.464	3072.53
200.539	3071.63
200.614	3087.74
200.689	3109.25
200.764	3113.11
200.839	3127.93
200.914	3136.23
200.989	3123.3
201.063	3138.56
201.138	3120.5
201.213	3121.12
201.288	3100.09
201.363	3102.62
201.438	3106.15
201.512	3122.74
201.587	3105.81
201.662	3112.15
201.737	3126.51
201.812	3139.15
201.886	3102.16
201.961	3113.04
202.036	3099.88
202.111	3102.22
202.186	3073.2
202.26	3058.13
202.335	3037.33
202.41	3034.9
202.485	3019.46
202.559	3003.96
202.634	2979.69
202.709	2994.94
202.784	2980.25
202.858	2985.3
202.933	2972.62
203.008	2971.15
203.082	2956.99
203.157	2962.66
203.232	2928.2
203.306	2918.62
203.381	2894.39
203.456	2884.38
203.53	2874.98
203.605	2873.93
203.68	2865.3
203.754	2877.35
203.829	2880.59
203.904	2880.93
203.978	2891.08
204.053	2917.93
204.127	2931.37
204.202	2958.98
204.277	2973.48
204.351	2996.51
204.426	3023.47
204.5	3051.03
204.575	3051.94
204.65	3098.79
204.724	3139.99
204.799	3193.92
204.873	3236.93
204.948	3288.99
205.022	3334.03
205.097	3384.48
205.171	3456.7
205.246	3525.91
205.32	3591.64
205.395	3661.86
205.469	3724.4
205.544	3810.34
205.618	3873.8
205.693	3972.33
205.767	4046.52
205.842	4156.71
205.916	4247.14
205.991	4335.68
206.065	4445.2
206.14	4570.32
206.214	4680.55
206.289	4784.66
206.363	4917.74
206.438	5043.56
206.512	5174.83
206.586	5322.74
206.661	5457.58
206.735	5569
206.81	5707.82
206.884	5866.45
206.958	5996.04
207.033	6165.52
207.107	6322.28
207.181	6507.45
207.256	6654.73
207.33	6834.63
207.405	7007.92
207.479	7193.91
207.553	7363.56
207.628	7512.24
207.702	7695.68
207.776	7857.1
207.851	8031.86
207.925	8217.07
207.999	8388.63
208.073	8568.15
208.148	8748.76
208.222	8925.75
208.296	9143.04
208.371	9348.65
208.445	9549
208.519	9771.07
208.593	9973.63
208.668	10162.12
208.742	10354.01
208.816	10548.91
208.89	10752.09
208.965	10940.69
209.039	11135.89
209.113	11344.73
209.187	11561.56
209.261	11747.68
209.336	11967.34
209.41	12186.64
209.484	12381.41
209.558	12592.38
209.632	12795.64
209.707	13001.18
209.781	13210.38
209.855	13415.05
209.929	13619.87
210.003	13814.85
210.077	14002.22
210.151	14236.78
210.226	14456.82
210.3	14672.43
210.374	14876.14
210.448	15058.01
210.522	15258.82
210.596	15443.67
210.67	15632.48
210.744	15858.48
210.818	16066.85
210.892	16264.95
210.966	16438.36
211.041	16632.55
211.115	16810.64
211.189	17007.95
211.263	17182.9
211.337	17357.18
211.411	17536.65
211.485	17696.94
211.559	17869.04
211.633	18031.78
211.707	18156.07
211.781	18317.46
211.855	18432.83
211.929	18580.87
212.003	18717.74
212.077	18878.5
212.151	19055.03
212.225	19217.29
212.299	19353.33
212.373	19487.78
212.447	19621.27
212.52	19785.08
212.594	19918.81
212.668	20063.48
212.742	20188.2
212.816	20318.03
212.89	20437.94
212.964	20565.07
213.038	20691.68
213.112	20837.77
213.186	20979.56
213.26	21089.2
213.333	21172.68
213.407	21308.16
213.481	21435.11
213.555	21574.31
213.629	21682.23
213.703	21780.47
213.777	21899.06
213.85	21991.08
213.924	22146.79
213.998	22252.56
214.072	22352.89
214.146	22451.57
214.219	22552.14
214.293	22650.15
214.367	22762.33
214.441	22879.3
214.515	22973.17
214.588	23051.72
214.662	23105.33
214.736	23174.09
214.81	23273.75
214.883	23376.89
214.957	23451.19
215.031	23525.45
215.105	23576.66
215.178	23638.78
215.252	23708.99
215.326	23759
215.4	23815.72
215.473	23829.51
215.547	23889.12
215.621	23956.37
215.694	24038.8
215.768	24095.19
215.842	24148.92
215.915	24208.59
215.989	24247.57
216.063	24299.43
216.136	24370.29
216.21	24430.1
216.284	24515.4
216.357	24572.66
216.431	24618.4
216.504	24686.66
216.578	24761.64
216.652	24834.67
216.725	24893.29
216.799	24966.4
216.873	25017.59
216.946	25087.93
217.02	25140.33
217.093	25189.16
217.167	25215.65
217.24	25247.7
217.314	25290.31
217.387	25339.09
217.461	25363.12
217.535	25416.21
217.608	25447.67
217.682	25484.54
217.755	25546.46
217.829	25580.06
217.902	25629.24
217.976	25670.6
218.049	25706.8
218.123	25738.13
218.196	25786.3
218.27	25825.5
218.343	25838.19
218.417	25881.01
218.49	25915.09
218.563	25956.06
218.637	26003.33
218.71	26056.19
218.784	26090.17
218.857	26122.95
218.931	26157.32
219.004	26210.42
219.077	26257.11
219.151	26299.83
219.224	26323.49
219.298	26343.14
219.371	26375.15
219.444	26383.89
219.518	26406.15
219.591	26432.9
219.665	26485.87
219.738	26512.52
219.811	26514.02
219.885	26542.17
219.958	26579.35
220.031	26591.71
220.105	26632.66
220.178	26645.7
220.251	26657.87
220.325	26686.94
220.398	26719.24
220.471	26736.15
220.544	26751.84
220.618	26758.5
220.691	26771.45
220.764	26787.28
220.838	26811.72
220.911	26819.16
220.984	26857.02
221.057	26888.36
221.131	26893.72
221.204	26865.32
221.277	26896.18
221.35	26948.39
221.424	26957.62
221.497	26966.6
221.57	26977.08
221.643	26992.34
221.716	27018.52
221.79	27023.88
221.863	27038.61
221.936	27040.02
222.009	27040.35
222.082	27054.02
222.155	27052.19
222.229	27079.14
222.302	27087.59
222.375	27079.52
222.448	27081.65
222.521	27066.48
222.594	27058.95
222.667	27054.12
222.74	27067.69
222.814	27047.07
222.887	27031.08
222.96	27039.19
223.033	27039.38
223.106	27049.38
223.179	27046.39
223.252	27026.87
223.325	27011.61
223.398	26990.12
223.471	26978.82
223.544	26980.17
223.617	26970.02
223.69	26967.66
223.763	26935.83
223.837	26937.23
223.91	26936.26
223.983	26916.9
224.056	26910.81
224.129	26912.84
224.202	26910.57
224.275	26884.01
224.348	26864.31
224.42	26833.74
224.493	26793.66
224.566	26771.3
224.639	26743.48
224.712	26711.03
224.785	26689.97
224.858	26670.42
224.931	26646.66
225.004	26624.88
225.077	26609.82
225.15	26555.4
225.223	26532.61
225.296	26539.32
225.369	26491.18
225.442	26457.19
225.514	26435.51
225.587	26411.13
225.66	26381.48
225.733	26357.63
225.806	26346.91
225.879	26322.43
225.952	26284.15
226.025	26279.17
226.097	26269.85
226.17	26253.63
226.243	26216.41
226.316	26199.37
226.389	26186.96
226.461	26174.6
226.534	26149.79
226.607	26116.91
226.68	26117.68
226.753	26091.23
226.825	26033.58
226.898	26014.66
226.971	25998.44
227.044	25977.78
227.117	25950.27
227.189	25929.27
227.262	25908.27
227.335	25886.79
227.407	25848.37
227.48	25832.15
227.553	25814.49
227.626	25778.76
227.698	25752.55
227.771	25730.06
227.844	25679.58
227.916	25650.18
227.989	25601.82
228.062	25566.06
228.134	25554.86
228.207	25526.34
228.28	25489.08
228.352	25462.35
228.425	25446.76
228.498	25415.48
228.57	25374.71
228.643	25350.67
228.716	25313.66
228.788	25274.52
228.861	25228.24
228.934	25213.28
229.006	25184.28
229.079	25132.74
229.151	25091.63
229.224	25033.2
229.296	24994.89
229.369	24998.56
229.442	24974.81
229.514	24933.9
229.587	24913.64
229.659	24862.44
229.732	24838.27
229.804	24817.81
229.877	24816.08
229.949	24802.9
230.022	24791.95
230.094	24757.94
230.167	24721.9
230.239	24688.66
230.312	24660.72
230.384	24659.42
230.457	24631.68
230.529	24600.42
230.602	24584.89
230.674	24548.8
230.747	24536.7
230.819	24520.83
230.892	24453.53
230.964	24421.98
231.037	24401.62
231.109	24370.56
231.181	24344.95
231.254	24294.35
231.326	24248.04
231.399	24197.68
231.471	24138.92
231.544	24077.9
231.616	24054.9
231.688	24020.65
231.761	23971.74
231.833	23925.69
231.905	23858.4
231.978	23818.13
232.05	23775.98
232.122	23747.91
232.195	23717.47
232.267	23692.59
232.339	23644.5
232.412	23625.6
232.484	23589.14
232.556	23542.22
232.629	23527.51
232.701	23488.3
232.773	23452.04
232.846	23417.61
232.918	23391.47
232.99	23359.6
233.062	23332.35
233.135	23293.97
233.207	23251
233.279	23220.58
233.351	23189.72
233.424	23151.34
233.496	23100.67
233.568	23092.37
233.64	23020.82
233.713	22971.78
233.785	22925.54
233.857	22900.71
233.929	22847.67
234.001	22815.37
234.074	22791.17
234.146	22730.51
234.218	22701.24
234.29	22664.17
234.362	22614.56
234.434	22549.52
234.507	22490.47
234.579	22427.6
234.651	22391.83
234.723	22358.81
234.795	22313.59
234.867	22274.01
234.939	22247.74
235.012	22219.87
235.084	22178.56
235.156	22152
235.228	22108.85
235.3	22066.72
235.372	22018.37
235.444	21984.39
235.516	21913.19
235.588	21874.43
235.66	21831
235.732	21773.4
235.804	21781.74
235.876	21753.25
235.948	21730.79
236.02	21701.29
236.092	21666.69
236.164	21615.98
236.236	21563.05
236.308	21514.57
236.38	21479.91
236.452	21428.72
236.524	21381.92
236.596	21358.64
236.668	21329.96
236.74	21299.02
236.812	21263.3
236.884	21221.47
236.956	21185.27
237.028	21138.09
237.1	21087.44
237.172	21062.37
237.244	21036.3
237.316	20953.44
237.388	20909.49
237.46	20854.88
237.532	20821.87
237.604	20773.53
237.675	20744.33
237.747	20713.87
237.819	20666.74
237.891	20622.78
237.963	20578.73
238.035	20537.72
238.107	20456.66
238.178	20419.02
238.25	20370.39
238.322	20346.58
238.394	20295.84
238.466	20245.33
238.538	20216.71
238.609	20178.73
238.681	20115.7
238.753	20065.24
238.825	20026.98
238.897	19984.81
238.968	19954.4
239.04	19900.76
239.112	19878.93
239.184	19829.34
239.255	19785.78
239.327	19760
239.399	19723.13
239.471	19686.36
239.542	19645.01
239.614	19611.38
239.686	19538.32
239.758	19507.67
239.829	19445.46
239.901	19410.04
239.973	19365.22
240.044	19327.92
240.116	19284.41
240.188	19237.76
240.259	19204.46
240.331	19153.24
240.403	19120.37
240.474	19065.24
240.546	19022.26
240.618	18962.79
240.689	18921.63
240.761	18884.1
240.833	18854.22
240.904	18806.27
240.976	18764.01
241.048	18718.95
241.119	18681.84
241.191	18656.4
241.262	18632.11
241.334	18587.25
241.405	18548.21
241.477	18506.86
241.549	18466.67
241.62	18431.83
241.692	18395.21
241.763	18355.6
241.835	18319.69
241.906	18277.91
241.978	18221.48
242.049	18189.82
242.121	18172.23
242.192	18135.56
242.264	18076.33
242.335	18013.68
242.407	17981.63
242.478	17939.18
242.55	17909.83
242.621	17866.6
242.693	17822.84
242.764	17765.21
242.836	17722.94
242.907	17687.09
242.979	17657.21
243.05	17615.57
243.122	17579.19
243.193	17542.42
243.264	17481.65
243.336	17440.06
243.407	17408.83
243.479	17393.02
243.55	17358.71
243.622	17318.47
243.693	17284.54
243.764	17260.34
243.836	17220.34
243.907	17170.85
243.978	17123.62
244.05	17089.16
244.121	17029.2
244.192	16994.94
244.264	16938.55
244.335	16910.26
244.407	16855.08
244.478	16816.67
244.549	16772.9
244.62	16721.05
244.692	16689.86
244.763	16667.36
244.834	16624.36
244.906	16570.1
244.977	16543.44
245.048	16516.98
245.119	16466.38
245.191	16409.27
245.262	16351.96
245.333	16325.16
245.405	16296.1
245.476	16278.75
245.547	16242.7
245.618	16216.91
245.689	16181.77
245.761	16157.05
245.832	16116.13
245.903	16092.75
245.974	16060.22
246.045	16027.83
246.117	16005.22
246.188	15947.24
246.259	15892.63
246.33	15856.14
246.401	15829.34
246.473	15774.92
246.544	15735.02
246.615	15709.37
246.686	15676.84
246.757	15662.28
246.828	15618.13
246.899	15598.22
246.97	15539.18
247.042	15493.87
247.113	15472.95
247.184	15463.65
247.255	15427.98
247.326	15390.96
247.397	15352.16
247.468	15324.29
247.539	15287.23
247.61	15235.36
247.681	15212.85
247.752	15189.09
247.823	15144.79
247.894	15107.38
247.965	15066.17
248.037	15022.74
248.108	14971.16
248.179	14938.48
248.25	14901.55
248.321	14877.02
248.392	14829.2
248.463	14822.02
248.534	14785.38
248.605	14761.04
248.675	14717.32
248.746	14683.48
248.817	14661.89
248.888	14638.65
248.959	14584.76
249.03	14570.97
249.101	14550.53
249.172	14522.86
249.243	14476.01
249.314	14467.52
249.385	14438.84
249.456	14413.53
249.527	14383.65
249.598	14370.97
249.669	14338.96
249.739	14314.57
249.81	14300.83
249.881	14257.83
249.952	14227.46
250.023	14200.32
250.094	14156.45
250.165	14118.66
250.235	14091.91
250.306	14067.03
250.377	14029.87
250.448	14006.44
250.519	13949.55
250.59	13930.61
250.66	13890.02
250.731	13888.28
250.802	13851.89
250.873	13830.73
250.944	13810
251.014	13779.14
251.085	13777.55
251.156	13758.32
251.227	13741.4
251.297	13720.72
251.368	13708.96
251.439	13690.93
251.51	13681.67
251.58	13639.92
251.651	13611
251.722	13598.66
251.792	13553.83
251.863	13527.65
251.934	13518.06
252.005	13523.99
252.075	13505.04
252.146	13495.74
252.217	13483.88
252.287	13469.47
252.358	13444.98
252.429	13442.37
252.499	13404.1
252.57	13375.46
252.641	13359.55
252.711	13340.51
252.782	13294.14
252.852	13285.99
252.923	13255.33
252.994	13230.31
253.064	13224.96
253.135	13188.42
253.205	13154.97
253.276	13146.87
253.347	13137.85
253.417	13102.23
253.488	13071.76
253.558	13035.75
253.629	13008.47
253.699	12981.91
253.77	12965.13
253.841	12933.07
253.911	12902.75
253.982	12890.65
254.052	12874.12
254.123	12853.82
254.193	12824.47
254.264	12847.46
254.334	12813.04
254.405	12776.98
254.475	12731.38
254.546	12709.5
254.616	12705.4
254.687	12686.79
254.757	12669.68
254.827	12642.49
254.898	12629.09
254.968	12606.53
255.039	12575.54
255.109	12568.16
255.18	12537.21
255.25	12491.71
255.321	12478.79
255.391	12441.34
255.461	12441.77
255.532	12391.15
255.602	12358.86
255.673	12315.14
255.743	12277.1
255.813	12231.17
255.884	12225.33
255.954	12223.5
256.024	12215.02
256.095	12194.63
256.165	12159.34
256.235	12147.58
256.306	12124.3
256.376	12108.92
256.446	12094.46
256.517	12081.64
256.587	12074.56
256.657	12055.47
256.728	12044.14
256.798	12019.85
256.868	11997.97
256.938	11966.59
257.009	11954.97
257.079	11946.63
257.149	11955.74
257.219	11918.91
257.29	11908.84
257.36	11869.75
257.43	11856.21
257.5	11812.83
257.571	11789.55
257.641	11783.71
257.711	11743.03
257.781	11728.19
257.852	11710.69
257.922	11674.98
257.992	11660.71
258.062	11630.58
258.132	11623.31
258.202	11603.59
258.273	11593.28
258.343	11594.44
258.413	11565.61
258.483	11546.77
258.553	11515.54
258.623	11485.22
258.693	11468.93
258.764	11465.03
258.834	11463.82
258.904	11448.01
258.974	11422.81
259.044	11399.87
259.114	11385.94
259.184	11373.55
259.254	11348.35
259.324	11314.66
259.394	11304.3
259.464	11304.97
259.535	11284.63
259.605	11254.85
259.675	11224.06
259.745	11201.84
259.815	11170.37
259.885	11147.09
259.955	11161.89
260.025	11133.36
260.095	11119.05
260.165	11105.89
260.235	11100.01
260.305	11066.18
260.375	11036.45
260.445	11041.75
260.515	11036.98
260.585	11027.73
260.655	11016.4
260.725	11006.38
260.795	11005.08
260.865	11005.94
260.934	10976.06
261.004	10969.46
261.074	10954.62
261.144	10958.57
261.214	10950.19
261.284	10930.57
261.354	10924.21
261.424	10889.42
261.494	10900.5
261.564	10877.42
261.634	10864.07
261.703	10829.66
261.773	10822.82
261.843	10813.71
261.913	10796.13
261.983	10769.62
262.053	10758.25
262.123	10734.06
262.192	10712.19
262.262	10696.04
262.332	10660.58
262.402	10649.98
262.472	10627.47
262.541	10588.26
262.611	10579.83
262.681	10562.77
262.751	10557.71
262.821	10543.5
262.89	10514.87
262.96	10499.5
263.03	10510.05
263.1	10496.42
263.169	10488.61
263.239	10485.48
263.309	10491.02
263.379	10479.7
263.448	10463.56
263.518	10453.06
263.588	10436.77
263.657	10437.74
263.727	10433.16
263.797	10421.36
263.867	10406.61
263.936	10377.61
264.006	10380.74
264.076	10362.48
264.145	10343.45
264.215	10320.47
264.285	10314.35
264.354	10282.27
264.424	10260.59
264.494	10226.34
264.563	10205.96
264.633	10205.52
264.702	10193.67
264.772	10156.91
264.842	10138.46
264.911	10133.93
264.981	10099.39
265.05	10086.82
265.12	10060.56
265.19	10049.82
265.259	10048.95
265.329	10040.23
265.398	10029.39
265.468	10038.69
265.537	10017.06
265.607	10006.23
265.676	10002.08
265.746	9989.56
265.815	9992.5
265.885	9978.53
265.955	9955.46
266.024	9943.99
266.094	9903.92
266.163	9903.34
266.232	9905.99
266.302	9891.01
266.371	9876.41
266.441	9868.75
266.51	9865.96
266.58	9855.7
266.649	9831.18
266.719	9828.05
266.788	9816.83
266.858	9828.82
266.927	9795.63
266.996	9786.97
267.066	9784.03
267.135	9757.49
267.205	9751.61
267.274	9737.65
267.343	9741.11
267.413	9730.52
267.482	9733.99
267.552	9750.8
267.621	9717.66
267.69	9690.3
267.76	9683.17
267.829	9676.24
267.898	9665.5
267.968	9642.96
268.037	9635.54
268.106	9629.91
268.176	9604.77
268.245	9591.47
268.314	9569.42
268.384	9565.03
268.453	9561.95
268.522	9551.45
268.592	9555.16
268.661	9537.34
268.73	9526.89
268.799	9499.3
268.869	9506.66
268.938	9472.66
269.007	9441.8
269.076	9438.09
269.146	9440.5
269.215	9428.7
269.284	9428.12
269.353	9412.86
269.422	9398.7
269.492	9386.18
269.561	9349.15
269.63	9342.22
269.699	9327.72
269.768	9321.18
269.838	9318.53
269.907	9311.21
269.976	9280.3
270.045	9254.1
270.114	9248.33
270.183	9241.39
270.253	9239.47
270.322	9212.6
270.391	9203.36
270.46	9213.9
270.529	9211.01
270.598	9202.39
270.667	9192.62
270.736	9175.62
270.806	9169.65
270.875	9175.09
270.944	9160.65
271.013	9180.96
271.082	9173.12
271.151	9164.06
271.22	9135.95
271.289	9124.25
271.358	9112.02
271.427	9117.17
271.496	9103.21
271.565	9091.08
271.634	9083.09
271.703	9106.35
271.772	9110.63
271.841	9101.72
271.91	9069.18
271.979	9056.61
272.048	9036.2
272.117	9037.45
272.186	9020.55
272.255	9022.14
272.324	9022.19
272.393	9018.53
272.462	9004.52
272.531	8993.45
272.6	8988.34
272.669	8992.29
272.738	8978.23
272.807	8970.97
272.876	8945.74
272.945	8973.57
273.013	8973.37
273.082	8973.42
273.151	8932.64
273.22	8927.63
273.289	8916.28
273.358	8932.4
273.427	8924.89
273.496	8920.03
273.564	8919.69
273.633	8920.99
273.702	8896.49
273.771	8877.19
273.84	8877.96
273.909	8876.99
273.977	8876.71
274.046	8867.56
274.115	8873.34
274.184	8860.25
274.253	8854.52
274.322	8867.27
274.39	8840.03
274.459	8822.12
274.528	8798.15
274.597	8783.52
274.665	8779.91
274.734	8789.25
274.803	8778.61
274.872	8767.83
274.94	8753.53
275.009	8805.93
275.078	8793.89
275.147	8793.7
275.215	8793.17
275.284	8800.44
275.353	8787.2
275.421	8761.6
275.49	8772.09
275.559	8759.91
275.627	8749.47
275.696	8738.88
275.765	8738.55
275.833	8728.35
275.902	8733.4
275.971	8742.98
276.039	8763.05
276.108	8761.46
276.177	8758.72
276.245	8750.24
276.314	8747.21
276.383	8753.76
276.451	8688.84
276.52	8687.06
276.588	8704.15
276.657	8713.49
276.725	8702.56
276.794	8706.65
276.863	8717.63
276.931	8691.97
277	8699.82
277.068	8718.49
277.137	8737.26
277.205	8726.96
277.274	8746.93
277.342	8749.05
277.411	8729.9
277.48	8714.35
277.548	8702.85
277.617	8705.78
277.685	8698.95
277.754	8700.68
277.822	8699
277.89	8714.16
277.959	8710.41
278.027	8686.1
278.096	8675.47
278.164	8701.17
278.233	8691.11
278.301	8681.06
278.37	8685.58
278.438	8671.81
278.507	8665.7
278.575	8639.52
278.643	8639.47
278.712	8619.11
278.78	8606.31
278.849	8617.91
278.917	8625.66
278.985	8628.02
279.054	8629.7
279.122	8640.77
279.191	8642.65
279.259	8634.95
279.327	8609.58
279.396	8619.78
279.464	8624.07
279.532	8624.21
279.601	8617.85
279.669	8613.57
279.737	8626.85
279.806	8634.12
279.874	8644.61
279.942	8647.07
280.011	8649.28
280.079	8656.5
280.147	8680.52
280.215	8687.49
280.284	8680.66
280.352	8668.58
280.42	8673.54
280.488	8656.07
280.557	8645.72
280.625	8648.9
280.693	8649.91
280.761	8659.29
280.83	8644.42
280.898	8646.83
280.966	8631.09
281.034	8593.16
281.102	8579.98
281.171	8573.39
281.239	8580.13
281.307	8566.94
281.375	8551.11
281.443	8572.04
281.512	8566.36
281.58	8566.56
281.648	8547.98
281.716	8554.24
281.784	8551.11
281.852	8544.95
281.92	8548.8
281.989	8556.35
282.057	8537.44
282.125	8576
282.193	8567.72
282.261	8571.62
282.329	8568.4
282.397	8577.83
282.465	8587.16
282.533	8604.05
282.601	8592.17
282.67	8569.5
282.738	8561.94
282.806	8572.24
282.874	8555.83
282.942	8564.49
283.01	8555.78
283.078	8563.43
283.146	8556.69
283.214	8568.82
283.282	8572.29
283.35	8586.24
283.418	8587.4
283.486	8589.27
283.554	8548.74
283.622	8550.96
283.69	8551.92
283.758	8547.69
283.826	8542.2
283.894	8549.37
283.962	8569.15
284.03	8583.49
284.098	8586
284.165	8579.5
284.233	8578.92
284.301	8578.06
284.369	8571.03
284.437	8562.94
284.505	8562.94
284.573	8575.94
284.641	8565.49
284.709	8570.79
284.777	8553.8
284.845	8559.48
284.912	8569.15
284.98	8583.16
285.048	8577.67
285.116	8580.27
285.184	8592.01
285.252	8601.01
285.319	8587.44
285.387	8572.42
285.455	8562.75
285.523	8566.65
285.591	8569.24
285.659	8569.39
285.726	8587.68
285.794	8570.55
285.862	8568.24
285.93	8572.81
285.997	8574.88
286.065	8570.31
286.133	8561.16
286.201	8556.93
286.269	8540.8
286.336	8533.06
286.404	8520.3
286.472	8525.02
286.539	8498.61
286.607	8484.65
286.675	8482.44
286.743	8495
286.81	8497.07
286.878	8509.63
286.946	8504.72
287.013	8500.24
287.081	8507.27
287.149	8485.32
287.216	8503.22
287.284	8500.43
287.352	8495.28
287.419	8487.29
287.487	8497.26
287.555	8502.79
287.622	8502.65
287.69	8513.14
287.758	8526.18
287.825	8528.1
287.893	8518.29
287.96	8528.87
288.028	8542.25
288.096	8547.35
288.163	8544.51
288.231	8532.67
288.298	8522.95
288.366	8534.21
288.433	8536.71
288.501	8525.16
288.569	8524.15
288.636	8523.77
288.704	8538.21
288.771	8549.03
288.839	8545.18
288.906	8547.35
288.974	8553.32
289.041	8552.45
289.109	8537.34
289.176	8548.6
289.244	8544.75
289.311	8559.05
289.379	8577.62
289.446	8577
289.514	8572.38
289.581	8572.38
289.649	8569.49
289.716	8574.69
289.783	8576.42
289.851	8602.07
289.918	8605.39
289.986	8622.67
290.053	8624.54
290.121	8618.09
290.188	8616.07
290.255	8640.95
290.323	8634.22
290.39	8630.32
290.458	8641.72
290.525	8661.84
290.592	8652.65
290.66	8666.07
290.727	8664.63
290.794	8673.49
290.862	8679.02
290.929	8691.44
290.996	8691.05
291.064	8703.18
291.131	8717.04
291.198	8722.19
291.266	8716.51
291.333	8718.2
291.4	8722.05
291.468	8737.11
291.535	8742.89
291.602	8741.3
291.669	8735.24
291.737	8737.35
291.804	8735.48
291.871	8749
291.938	8755.36
292.006	8784.05
292.073	8795.99
292.14	8804.75
292.207	8799.55
292.275	8795.65
292.342	8800.9
292.409	8826.6
292.476	8855.34
292.543	8852.12
292.611	8857.41
292.678	8876.95
292.745	8901.31
292.812	8910.99
292.879	8904.05
292.946	8904.87
293.014	8925.71
293.081	8934.23
293.148	8950.41
293.215	8971.68
293.282	8968.17
293.349	8968.75
293.416	8953.1
293.484	8961.48
293.551	8973.27
293.618	8991.08
293.685	9019.29
293.752	9010.96
293.819	9007.79
293.886	8990.74
293.953	8996.91
294.02	9010.53
294.087	9018.04
294.154	9013.9
294.221	9027.33
294.288	9036.82
294.356	9054.34
294.423	9064.21
294.49	9053.14
294.557	9071.38
294.624	9061.51
294.691	9085.44
294.758	9090.4
294.825	9093.14
294.892	9082.6
294.959	9088.04
295.026	9103.16
295.093	9099.74
295.16	9104.89
295.226	9107.2
295.293	9134.6
295.36	9133.88
295.427	9140.76
295.494	9154.01
295.561	9162
295.628	9185.31
295.695	9198.88
295.762	9202.64
295.829	9207.74
295.896	9236.1
295.963	9247.37
296.03	9260.03
296.096	9261.72
296.163	9277.85
296.23	9301.39
296.297	9316.89
296.364	9313.43
296.431	9307.46
296.498	9302.55
296.564	9329.65
296.631	9332.16
296.698	9322.43
296.765	9349.49
296.832	9341.21
296.899	9327.1
296.965	9347.03
297.032	9329.74
297.099	9351.22
297.166	9363.55
297.233	9361.86
297.299	9349.06
297.366	9349.54
297.433	9353.48
297.5	9357.82
297.566	9359.02
297.633	9350.31
297.7	9354.06
297.767	9350.5
297.833	9359.84
297.9	9359.89
297.967	9346.17
298.033	9367.74
298.1	9395.62
298.167	9387.34
298.234	9392.59
298.3	9399.67
298.367	9393.74
298.434	9402.17
298.5	9383.63
298.567	9377.03
298.634	9381.7
298.7	9394.95
298.767	9396.44
298.834	9408.24
298.9	9412.04
298.967	9402.55
299.033	9413.77
299.1	9431.21
299.167	9449.26
299.233	9447.29
299.3	9465.83
299.366	9484.17
299.433	9495.2
299.5	9470.59
299.566	9475.36
299.633	9496.6
299.699	9509.17
299.766	9508.73
299.832	9512.2
299.899	9523.86
299.965	9541.67
300.032	9536.47
300.099	9546.3
300.165	9550.78
300.232	9554.1
300.298	9554.58
300.365	9574.57
300.431	9577.94
300.498	9577.22
300.564	9584.25
300.631	9600.33
300.697	9619.98
300.763	9617.43
300.83	9612.71
300.896	9623.79
300.963	9634.09
301.029	9636.07
301.096	9645.75
301.162	9661.78
301.229	9655.62
301.295	9648.4
301.361	9645.17
301.428	9652.58
301.494	9645.41
301.561	9651.09
301.627	9649.17
301.693	9653.93
301.76	9657.59
301.826	9648.49
301.892	9656.49
301.959	9665.78
302.025	9656.29
302.092	9649.65
302.158	9650.42
302.224	9652.54
302.291	9649.74
302.357	9649.17
302.423	9641.56
302.49	9627.64
302.556	9635.01
302.622	9635.58
302.688	9651.53
302.755	9669.68
302.821	9676.96
302.887	9686.06
302.954	9685.43
303.02	9698.63
303.086	9705.85
303.152	9701.57
303.219	9704.55
303.285	9702.82
303.351	9711.68
303.417	9719.72
303.483	9709.13
303.55	9711.58
303.616	9710.86
303.682	9712.74
303.748	9704.02
303.815	9718.81
303.881	9734.27
303.947	9719.97
304.013	9720.93
304.079	9708.89
304.145	9688.27
304.212	9687.89
304.278	9678.45
304.344	9671.95
304.41	9653.16
304.476	9642.14
304.542	9638.57
304.608	9647.43
304.674	9637.95
304.741	9628.65
304.807	9628.12
304.873	9637.66
304.939	9652.35
305.005	9634.96
305.071	9627.16
305.137	9630.53
305.203	9605.1
305.269	9599.56
305.335	9617.67
305.401	9623.16
305.467	9620.56
305.533	9631.54
305.599	9640.31
305.666	9653.94
305.732	9653.41
305.798	9670.74
305.864	9697.33
305.93	9706.77
305.996	9701.04
306.062	9698.83
306.128	9696.22
306.194	9685.82
306.259	9681.68
306.325	9669.06
306.391	9686.4
306.457	9701.95
306.523	9709.56
306.589	9737.16
306.655	9730.37
306.721	9705.23
306.787	9694.97
306.853	9713.61
306.919	9696.32
306.985	9686.35
307.051	9679.61
307.117	9675.75
307.183	9670.46
307.248	9639
307.314	9637.08
307.38	9640.64
307.446	9646.66
307.512	9636.26
307.578	9641.7
307.644	9638.57
307.709	9642.81
307.775	9635.78
307.841	9626.58
307.907	9620.85
307.973	9600.28
308.039	9598.93
308.104	9606.64
308.17	9600.67
308.236	9583.23
308.302	9584.44
308.368	9578.03
308.433	9576.44
308.499	9568.64
308.565	9552.7
308.631	9559.88
308.696	9538.49
308.762	9523.66
308.828	9521.93
308.894	9508.49
308.959	9488.51
309.025	9472.18
309.091	9462.94
309.156	9456.87
309.222	9461.44
309.288	9451.57
309.354	9432.5
309.419	9434.57
309.485	9428.31
309.551	9435.39
309.616	9422.54
309.682	9425.81
309.748	9417.05
309.813	9408.86
309.879	9400.63
309.945	9393.26
310.01	9386.32
310.076	9390.66
310.141	9390.18
310.207	9375.34
310.273	9375.87
310.338	9378.52
310.404	9372.41
310.469	9358.54
310.535	9349.53
310.601	9328.44
310.666	9335.76
310.732	9345.44
310.797	9332.53
310.863	9319.73
310.928	9314.48
310.994	9317.37
311.059	9305.18
311.125	9301.14
311.191	9313.66
311.256	9307.69
311.322	9308.31
311.387	9284.29
311.453	9572.74
311.518	9545.3
311.584	9546.69
311.649	9551.36
311.715	9538.99
311.78	9542.46
311.846	9534.9
311.911	9535.76
311.976	9534.18
312.042	9511.88
312.107	9495.75
312.173	9485.3
312.238	9477.6
312.304	9474.42
312.369	9465.51
312.434	9456.17
312.5	9446.4
312.565	9412.26
312.631	9411.73
312.696	9405.91
312.761	9415.68
312.827	9119.91
312.892	9163.73
312.958	9157.47
313.023	9156.65
313.088	9157.28
313.154	9136.86
313.219	9129.26
313.284	9120.88
313.35	9115.2
313.415	9109.52
313.48	9105.76
313.546	9109.9
313.611	9122.9
313.676	9109.95
313.741	9095.75
313.807	9108.56
313.872	9114.19
313.937	9124.16
314.003	9141.68
314.068	9149.24
314.133	9153
314.198	9141.59
314.264	9120.25
314.329	9104.61
314.394	9102.92
314.459	9102.78
314.525	9121.79
314.59	9118.57
314.655	9107.69
314.72	9121.84
314.785	9125.31
314.851	9122.23
314.916	9104.32
314.981	9084.91
315.046	9078.46
315.111	9074.66
315.176	9058.87
315.242	9061.32
315.307	9063.06
315.372	9038.98
315.437	9026.47
315.502	9018.57
315.567	9029.5
315.632	9008.75
315.698	9014.24
315.763	9003.65
315.828	8999.12
315.893	8998.49
315.958	8996.04
316.023	8984.01
316.088	8960.03
316.153	8936.83
316.218	8927.83
316.283	8909.44
316.348	8890.72
316.413	8879.94
316.479	8860.79
316.544	8829.07
316.609	8800.53
316.674	8757.35
316.739	8727.13
316.804	8696.47
316.869	8657.39
316.934	8616.48
316.999	8589.72
317.064	8545.02
317.129	8500.64
317.194	8457.72
317.259	8408.15
317.324	8357.3
317.389	8311.45
317.454	8271.03
317.518	8235.72
317.583	8210.46
317.648	8187.22
317.713	8152.87
317.778	8098.22
317.843	8071.77
317.908	8032.28
317.973	7991.44
318.038	7960.37
318.103	7913.29
318.168	7874.28
318.233	7847.97
318.297	7797.96
318.362	7757.18
318.427	7713.09
318.492	7688.66
318.557	7643.47
318.622	7610.38
318.687	7583.32
318.751	7551.26
318.816	7514.96
318.881	7484.67
318.946	7434.96
319.011	7389.57
319.075	7349.39
319.14	7316.61
319.205	7268.31
319.27	7233.9
319.335	7188.01
319.399	7151.58
319.464	7130.63
319.529	7085.71
319.594	7040.15
319.658	7008.58
319.723	6968.61
319.788	6942
319.853	6887.32
319.917	6858.55
319.982	6805.71
320.047	6770.41
320.112	6739.53
320.176	6689.87
320.241	6655.77
320.306	6624.02
320.37	6581.57
320.435	6551.99
320.5	6521.64
320.564	6485.92
320.629	6446.8
320.694	6421.31
320.758	6377.87
320.823	6332.79
320.888	6300.39
320.952	6256.38
321.017	6215.83
321.082	6177.3
321.146	6143.6
321.211	6109.53
321.275	6066.26
321.34	6027.65
321.405	5985.19
321.469	5937.79
321.534	5899.04
321.598	5843.12
321.663	5811.6
321.727	5778.93
321.792	5723.79
321.857	5681.91
321.921	5642.12
321.986	5595.43
322.05	5531.25
322.115	5492.94
322.179	5445.26
322.244	5389.05
322.308	5352.05
322.373	5306.62
322.437	5262.96
322.502	5232.23
322.566	5187.38
322.631	5147.05
322.695	5105.19
322.76	5059.44
322.824	5025.15
322.889	4982.92
322.953	4940.45
323.018	4868.57
323.082	4806.05
323.146	4759.72
323.211	4701.65
323.275	4656.37
323.34	4613.3
323.404	4578.38
323.468	4533.68
323.533	4491.34
323.597	4446.25
323.662	4394.82
323.726	4357.41
323.79	4310.15
323.855	4244.41
323.919	4198.4
323.983	4153.93
324.048	4086.79
324.112	4208.81
324.177	4076.6
324.241	3862.81
324.305	3655.37
324.37	3453.09
324.434	3255.56
324.498	3208.57
324.562	3157.69
324.627	3096.25
324.691	3037.97
324.755	2972.29
324.82	2890.95
324.884	2811.98
324.948	2736.83
325.012	2636.45
325.077	2507.15
