Data from 20250704_urea_0.1M_MAYP1162681_11-18-48-695.txt Node
Date: Fri Jul 04 11:18:48 BST 2025
User: adleo
Spectrometer: MAYP116268
Trigger mode: 0
Integration Time (sec): 1.000000E0
Scans to average: 1
Electric dark correction enabled: true
Nonlinearity correction enabled: true
Boxcar width: 10
XAxis mode: Wavelengths
Number of Pixels in Spectrum: 2068
>>>>>Begin Spectral Data<<<<<
179.565	1243.26
179.642	1297.72
179.718	1344.81
179.795	1382.81
179.871	1420.14
179.948	1436.58
180.024	1457.84
180.101	1482.95
180.177	1500.17
180.254	1524.29
180.33	1546.07
180.407	1601.62
180.483	1700.87
180.56	1796.13
180.636	1882.31
180.712	1867.18
180.789	1880.83
180.865	1896.8
180.942	1906.92
181.018	1913.81
181.095	1927.27
181.171	1930.55
181.248	1932.5
181.324	1946.53
181.4	1956.19
181.477	1963.89
181.553	1977.67
181.63	1998.88
181.706	2013.1
181.782	2020.85
181.859	2020.09
181.935	2026.51
182.011	2023.8
182.088	2040.59
182.164	2057.72
182.24	2071.27
182.317	2082.44
182.393	2080.11
182.469	2094.67
182.546	2104.89
182.622	2111.98
182.698	2104.37
182.775	2119.5
182.851	2133.38
182.927	2127.63
183.003	2122.49
183.08	2118.07
183.156	2125.92
183.232	2121.16
183.308	2107.6
183.385	2115.26
183.461	2132.15
183.537	2133.15
183.613	2146.28
183.69	2135.76
183.766	2125.53
183.842	2134.86
183.918	2141.9
183.995	2154.12
184.071	2156.45
184.147	2151.22
184.223	2139.62
184.299	2154.08
184.375	2140.76
184.452	2148.19
184.528	2197.77
184.604	2207.42
184.68	2218.6
184.756	2229.55
184.832	2237.88
184.908	2244.91
184.985	2245.34
185.061	2230.97
185.137	2240.16
185.213	2229.88
185.289	2232.78
185.365	2224.6
185.441	2222.75
185.517	2235.74
185.593	2234.27
185.669	2233.5
185.745	2245.78
185.822	2262.76
185.898	2255.57
185.974	2267.37
186.05	2259.85
186.126	2223.78
186.202	2218.36
186.278	2215.27
186.354	2204.56
186.43	2210.22
186.506	2210.41
186.582	2206.56
186.658	2211.55
186.734	2192.43
186.81	2195
186.886	2196.28
186.962	2209.89
187.038	2208.32
187.114	2201.27
187.19	2207.84
187.266	2195.04
187.341	2194.71
187.417	2185.29
187.493	2184.77
187.569	2186.01
187.645	2181.68
187.721	2169.45
187.797	2175.73
187.873	2178.3
187.949	2175.63
188.025	2167.3
188.101	2171.06
188.176	2180.72
188.252	2177.06
188.328	2183.62
188.404	2184.52
188.48	2181.9
188.556	2174.58
188.632	2172.58
188.707	2170.01
188.783	2163.25
188.859	2157.5
188.935	2146.08
189.011	2158.88
189.086	2153.88
189.162	2144.27
189.238	2140.85
189.314	2139.14
189.39	2135.61
189.465	2129.76
189.541	2143.47
189.617	2128.29
189.693	2122.35
189.768	2122.11
189.844	2145.67
189.92	2139.06
189.996	2146.24
190.071	2154.71
190.147	2152.47
190.223	2157.52
190.298	2153.95
190.374	2145.05
190.45	2159.61
190.526	2169.22
190.601	2160.56
190.677	2161.75
190.753	2189.12
190.828	2192.97
190.904	2210.72
190.98	2222.04
191.055	2233.7
191.131	2227.47
191.207	2248.21
191.282	2256.48
191.358	2248.11
191.433	2236.26
191.509	2248.81
191.585	2246.2
191.66	2249.1
191.736	2260.42
191.811	2255.33
191.887	2268.04
191.963	2291.6
192.038	2298.88
192.114	2298.93
192.189	2303.07
192.265	2297.98
192.34	2276.93
192.416	2275.41
192.491	2271.41
192.567	2275.98
192.642	2280.08
192.718	2277.32
192.793	2267.51
192.869	2264.33
192.944	2267.42
193.02	2274.18
193.095	2276.7
193.171	2282.22
193.246	2280.84
193.322	2280.08
193.397	2281.41
193.473	2269.94
193.548	2250.9
193.624	2252.85
193.699	2253.66
193.775	2268.94
193.85	2268.56
193.925	2276.98
194.001	2276.46
194.076	2266.04
194.152	2258.57
194.227	2249.71
194.302	2239.49
194.378	2240.63
194.453	2236.16
194.529	2246.58
194.604	2231.83
194.679	2226.74
194.755	2207.66
194.83	2220.18
194.905	2215.9
194.981	2223.37
195.056	2213.29
195.131	2218.47
195.207	2218.57
195.282	2208.15
195.357	2188.96
195.433	2206.95
195.508	2198.53
195.583	2206.42
195.659	2220.75
195.734	2227.32
195.809	2227.22
195.884	2238.97
195.96	2244.11
196.035	2261.05
196.11	2259.38
196.185	2272.14
196.261	2276.23
196.336	2306.59
196.411	2292.97
196.486	2297.21
196.561	2291.5
196.637	2302.1
196.712	2319.34
196.787	2321.81
196.862	2334.8
196.937	2347.89
197.013	2353.41
197.088	2362.98
197.163	2384.45
197.238	2401.65
197.313	2398.32
197.388	2411.65
197.464	2441.31
197.539	2450.45
197.614	2444.41
197.689	2457.84
197.764	2471.6
197.839	2493.79
197.914	2489.45
197.989	2511.74
198.065	2524.12
198.14	2575.24
198.215	2599.91
198.29	2613.35
198.365	2626.11
198.44	2639.11
198.515	2666.74
198.59	2681.65
198.665	2708.71
198.74	2717.34
198.815	2719.72
198.89	2745.06
198.965	2775.23
199.04	2767.8
199.115	2781.04
199.19	2824.06
199.265	2826.07
199.34	2837.5
199.415	2868.49
199.49	2888.65
199.565	2901.75
199.64	2930.21
199.715	2927.25
199.79	2939.98
199.865	2944.41
199.94	2941.12
200.015	2971.88
200.09	2976.45
200.165	2984.32
200.24	2988.75
200.315	3029.36
200.39	3042.38
200.464	3052.1
200.539	3054.01
200.614	3076.13
200.689	3100.35
200.764	3107.51
200.839	3126.29
200.914	3134.58
200.989	3126.14
201.063	3141.97
201.138	3124.34
201.213	3122.52
201.288	3104.45
201.363	3106.98
201.438	3108.36
201.512	3130.62
201.587	3112.74
201.662	3120.7
201.737	3133.39
201.812	3142.31
201.886	3111.19
201.961	3125.22
202.036	3111.49
202.111	3108.67
202.186	3077.36
202.26	3064.2
202.335	3043.26
202.41	3034.82
202.485	3019.38
202.559	3003.17
202.634	2980.33
202.709	2990.52
202.784	2976.51
202.858	2984.71
202.933	2972.5
203.008	2974.79
203.082	2960.3
203.157	2969.6
203.232	2933.61
203.306	2925.12
203.381	2905.62
203.456	2894.36
203.53	2884.15
203.605	2876.48
203.68	2872.29
203.754	2883.43
203.829	2889.39
203.904	2888.77
203.978	2903.89
204.053	2931.88
204.127	2943.27
204.202	2970.69
204.277	2987.09
204.351	3008.94
204.426	3032.65
204.5	3058.88
204.575	3058.21
204.65	3109.13
204.724	3144.02
204.799	3194.66
204.873	3235.91
204.948	3287.3
205.022	3328.05
205.097	3378.2
205.171	3450.94
205.246	3519.92
205.32	3586.97
205.395	3654.38
205.469	3724.29
205.544	3807.31
205.618	3872.41
205.693	3966.62
205.767	4041.62
205.842	4151.38
205.916	4246.5
205.991	4337.78
206.065	4447.11
206.14	4569.44
206.214	4671.53
206.289	4778.36
206.363	4915.17
206.438	5037.38
206.512	5169.77
206.586	5318.1
206.661	5457.44
206.735	5576.2
206.81	5713
206.884	5865.53
206.958	5994.65
207.033	6156.22
207.107	6309.65
207.181	6490.23
207.256	6643.64
207.33	6822.57
207.405	6996.44
207.479	7173.88
207.553	7338.11
207.628	7493.14
207.702	7669.2
207.776	7837.63
207.851	8014.07
207.925	8196.88
207.999	8373.49
208.073	8552.39
208.148	8733.09
208.222	8897.42
208.296	9108.65
208.371	9312.22
208.445	9515.36
208.519	9737.48
208.593	9935.89
208.668	10132.08
208.742	10327.29
208.816	10515.78
208.89	10722.86
208.965	10911.9
209.039	11112.06
209.113	11326.92
209.187	11523.52
209.261	11717.19
209.336	11928.86
209.41	12142.13
209.484	12337.53
209.558	12554.86
209.632	12749.59
209.707	12957.39
209.781	13176.46
209.855	13379.21
209.929	13585.66
210.003	13776.26
210.077	13957.08
210.151	14192.17
210.226	14409.08
210.3	14619.24
210.374	14833.07
210.448	15012.14
210.522	15199.36
210.596	15390.1
210.67	15581.55
210.744	15820.14
210.818	16033.18
210.892	16229.06
210.966	16404.31
211.041	16597.54
211.115	16762.56
211.189	16963.2
211.263	17145.29
211.337	17324.47
211.411	17515.76
211.485	17676.96
211.559	17853.49
211.633	18020.05
211.707	18150.5
211.781	18305.39
211.855	18428.08
211.929	18575.55
212.003	18713.81
212.077	18879.83
212.151	19039
212.225	19193.16
212.299	19327.33
212.373	19462.99
212.447	19606.93
212.52	19774.3
212.594	19912.52
212.668	20062.3
212.742	20190.35
212.816	20315.16
212.89	20438.54
212.964	20557.58
213.038	20681.39
213.112	20823.48
213.186	20967.58
213.26	21067.82
213.333	21153.61
213.407	21280.95
213.481	21405.64
213.555	21529.45
213.629	21634.1
213.703	21737.88
213.777	21857.52
213.85	21958.12
213.924	22100.39
213.998	22207.65
214.072	22311.21
214.146	22415.82
214.219	22514.94
214.293	22612.04
214.367	22711.88
214.441	22815.44
214.515	22911.92
214.588	22997.02
214.662	23057
214.736	23133.86
214.81	23236.27
214.883	23342.73
214.957	23419.11
215.031	23493.12
215.105	23563.23
215.178	23635.71
215.252	23713.02
215.326	23771.61
215.4	23830.79
215.473	23864.12
215.547	23916.4
215.621	23976.5
215.694	24036.17
215.768	24081.99
215.842	24141.85
215.915	24204.8
215.989	24247.63
216.063	24298.48
216.136	24357.04
216.21	24423.65
216.284	24497.95
216.357	24554.63
216.431	24608.81
216.504	24670.75
216.578	24750.31
216.652	24820.6
216.725	24875.56
216.799	24935.53
216.873	24988.46
216.946	25053.17
217.02	25090.66
217.093	25147.3
217.167	25169.79
217.24	25205.84
217.314	25257.95
217.387	25289.94
217.461	25337.14
217.535	25398.71
217.608	25436.6
217.682	25481.29
217.755	25534.38
217.829	25563.91
217.902	25614.01
217.976	25641.67
218.049	25681.1
218.123	25693.7
218.196	25742.69
218.27	25785.65
218.343	25802.35
218.417	25839.18
218.49	25868.19
218.563	25925.68
218.637	25965.12
218.71	26013.44
218.784	26056.16
218.857	26102.12
218.931	26141.94
219.004	26168.68
219.077	26205.04
219.151	26244.48
219.224	26271.71
219.298	26292.18
219.371	26326.22
219.444	26331.48
219.518	26369.58
219.591	26389.9
219.665	26450.65
219.738	26469.52
219.811	26469.67
219.885	26511.87
219.958	26544.08
220.031	26558.85
220.105	26574.11
220.178	26584.3
220.251	26602.36
220.325	26633.02
220.398	26662.77
220.471	26684.26
220.544	26710.53
220.618	26714.63
220.691	26727.28
220.764	26738.78
220.838	26762.54
220.911	26776.69
220.984	26823.43
221.057	26845.07
221.131	26870.27
221.204	26858.2
221.277	26886.89
221.35	26943.64
221.424	26947.89
221.497	26951.7
221.57	26972.32
221.643	26997.63
221.716	27029.17
221.79	27034.82
221.863	27037.52
221.936	27033.85
222.009	27041.48
222.082	27059.35
222.155	27063.51
222.229	27090.75
222.302	27108.52
222.375	27104.32
222.448	27112.1
222.521	27107.99
222.594	27092.25
222.667	27068.78
222.74	27072.25
222.814	27067.91
222.887	27052.11
222.96	27062.64
223.033	27064.19
223.106	27053.95
223.179	27050.33
223.252	27036.94
223.325	27038.44
223.398	27040.71
223.471	27029.7
223.544	27023.47
223.617	27009.08
223.69	27003.14
223.763	26968.75
223.837	26962.52
223.91	26956.67
223.983	26928.37
224.056	26900.02
224.129	26903.84
224.202	26919.58
224.275	26894.86
224.348	26862.16
224.42	26837.05
224.493	26794.36
224.566	26766.16
224.639	26761.09
224.712	26741.67
224.785	26723.75
224.858	26698.21
224.931	26658.46
225.004	26631.86
225.077	26619.79
225.15	26575.85
225.223	26551.27
225.296	26559.14
225.369	26518.97
225.442	26496.66
225.514	26480.77
225.587	26467.4
225.66	26442.1
225.733	26414.19
225.806	26404.82
225.879	26386.18
225.952	26348.48
226.025	26343.75
226.097	26337.95
226.17	26305.03
226.243	26264.86
226.316	26230.96
226.389	26213.44
226.461	26199
226.534	26174.33
226.607	26130.26
226.68	26125.53
226.753	26105.93
226.825	26052.39
226.898	26025.93
226.971	25992.48
227.044	25962.17
227.117	25926.83
227.189	25898.3
227.262	25883.77
227.335	25856.98
227.407	25825.51
227.48	25798.72
227.553	25763.73
227.626	25725.64
227.698	25695.38
227.771	25662.32
227.844	25621.15
227.916	25591.23
227.989	25544.02
228.062	25511.45
228.134	25505.47
228.207	25471.24
228.28	25432.25
228.352	25406.58
228.425	25389.06
228.498	25368.02
228.57	25328.49
228.643	25316.86
228.716	25284.92
228.788	25234.48
228.861	25199.45
228.934	25180.87
229.006	25147.43
229.079	25131.8
229.151	25102.8
229.224	25054.98
229.296	25031.34
229.369	25030.95
229.442	25008.9
229.514	24962.88
229.587	24943.43
229.659	24896.34
229.732	24872.31
229.804	24855.47
229.877	24849.78
229.949	24826.14
230.022	24812.48
230.094	24783.73
230.167	24754.35
230.239	24711.79
230.312	24688.11
230.384	24675.37
230.457	24645.75
230.529	24628.86
230.602	24588.39
230.674	24545.26
230.747	24539.71
230.819	24518.82
230.892	24450.56
230.964	24426.25
231.037	24411.01
231.109	24374.2
231.181	24348.83
231.254	24299.43
231.326	24253.51
231.399	24206.57
231.471	24157.9
231.544	24103.25
231.616	24074.41
231.688	24039
231.761	24004.86
231.833	23962.61
231.905	23894.65
231.978	23853.55
232.05	23809.91
232.122	23786.42
232.195	23764.38
232.267	23732.69
232.339	23693.38
232.412	23683.01
232.484	23623.21
232.556	23583.62
232.629	23572.86
232.701	23547.3
232.773	23516.15
232.846	23478.54
232.918	23432.63
232.99	23398.15
233.062	23365.7
233.135	23341.39
233.207	23292.35
233.279	23261.83
233.351	23225.28
233.424	23181.17
233.496	23123.6
233.568	23109.32
233.64	23050.06
233.713	23010.14
233.785	22972.04
233.857	22927.01
233.929	22868.09
234.001	22862.79
234.074	22845.29
234.146	22778.46
234.218	22729.28
234.29	22679
234.362	22635.85
234.434	22583.06
234.507	22537.79
234.579	22487.7
234.651	22436.35
234.723	22395.33
234.795	22359.31
234.867	22323.21
234.939	22303.01
235.012	22271.39
235.084	22230.02
235.156	22188.47
235.228	22124.89
235.3	22072.68
235.372	22036.33
235.444	22010.3
235.516	21931.34
235.588	21873.54
235.66	21834.88
235.732	21791.93
235.804	21814.98
235.876	21787.5
235.948	21773.43
236.02	21732.5
236.092	21690.14
236.164	21653.12
236.236	21615.81
236.308	21574.65
236.38	21533.77
236.452	21485.48
236.524	21455.59
236.596	21435.59
236.668	21405.37
236.74	21370.48
236.812	21331.15
236.884	21289.84
236.956	21256.97
237.028	21212.92
237.1	21175.95
237.172	21150.02
237.244	21119.95
237.316	21031.69
237.388	20979.21
237.46	20926.96
237.532	20900.98
237.604	20842.43
237.675	20804.64
237.747	20767.34
237.819	20710.86
237.891	20660.5
237.963	20610.47
238.035	20558.95
238.107	20472.44
238.178	20435.96
238.25	20393.65
238.322	20376.44
238.394	20323.24
238.466	20269.41
238.538	20242.27
238.609	20198.42
238.681	20140.59
238.753	20092.83
238.825	20055.87
238.897	20008.69
238.968	19978.23
239.04	19923
239.112	19914.71
239.184	19853.27
239.255	19804.5
239.327	19770.62
239.399	19734.96
239.471	19702.14
239.542	19664.46
239.614	19633.76
239.686	19568.37
239.758	19543.79
239.829	19482.64
239.901	19446.74
239.973	19394.16
240.044	19350.89
240.116	19312.77
240.188	19265.59
240.259	19219.38
240.331	19163.48
240.403	19134.56
240.474	19077.55
240.546	19021.22
240.618	18955.92
240.689	18916.89
240.761	18879.4
240.833	18848.41
240.904	18805.57
240.976	18767.64
241.048	18727.55
241.119	18692.42
241.191	18666.49
241.262	18638.83
241.334	18592.14
241.405	18551.56
241.477	18514.89
241.549	18465.2
241.62	18428.53
241.692	18394.56
241.763	18362.66
241.835	18328.68
241.906	18283
241.978	18224.88
242.049	18204.25
242.121	18175.29
242.192	18150.57
242.264	18090.81
242.335	18032.98
242.407	17999.59
242.478	17952.6
242.55	17914.58
242.621	17871.54
242.693	17827.3
242.764	17770.68
242.836	17728.9
242.907	17699.02
242.979	17666.15
243.05	17631.55
243.122	17589.67
243.193	17552.51
243.264	17493.04
243.336	17449.53
243.407	17421.33
243.479	17400.85
243.55	17367.45
243.622	17327.36
243.693	17279.16
243.764	17258.92
243.836	17212.08
243.907	17169.47
243.978	17123.45
244.05	17093.13
244.121	17035.78
244.192	16997.9
244.264	16949.61
244.335	16915.78
244.407	16855.44
244.478	16812.83
244.549	16773.22
244.62	16725.75
244.692	16685.36
244.763	16656.2
244.834	16617.5
244.906	16570.22
244.977	16539.18
245.048	16517.54
245.119	16474.89
245.191	16438.21
245.262	16378.39
245.333	16356.71
245.405	16321.14
245.476	16297.91
245.547	16262.05
245.618	16237.13
245.689	16202.57
245.761	16165.8
245.832	16128.78
245.903	16094.56
245.974	16066.94
246.045	16032.67
246.117	16012.19
246.188	15969.92
246.259	15923.74
246.33	15880.65
246.401	15832.35
246.473	15782.08
246.544	15727.62
246.615	15699.23
246.686	15662.64
246.757	15647.89
246.828	15605.86
246.899	15588.61
246.97	15537.03
247.042	15492.78
247.113	15464.34
247.184	15450.66
247.255	15413.54
247.326	15377.68
247.397	15351.6
247.468	15316.51
247.539	15285.9
247.61	15239.44
247.681	15207.72
247.752	15188.73
247.823	15147.56
247.894	15132.47
247.965	15092.99
248.037	15057.13
248.108	15017.8
248.179	14978.95
248.25	14945.83
248.321	14919.75
248.392	14875.74
248.463	14874.06
248.534	14839.69
248.605	14820.84
248.675	14777.17
248.746	14753.35
248.817	14725.64
248.888	14699.75
248.959	14648.17
249.03	14618.58
249.101	14591
249.172	14551.81
249.243	14499.41
249.314	14487.36
249.385	14451.01
249.456	14427.01
249.527	14395
249.598	14368
249.669	14346.99
249.739	14324.62
249.81	14298.93
249.881	14246.91
249.952	14205.65
250.023	14176.58
250.094	14122.01
250.165	14090.44
250.235	14065.08
250.306	14046.81
250.377	14006.22
250.448	13988.91
250.519	13939.74
250.59	13926.87
250.66	13904.36
250.731	13892.98
250.802	13867.72
250.873	13844.34
250.944	13817.2
251.014	13783.84
251.085	13777.14
251.156	13750.53
251.227	13731.16
251.297	13715.83
251.368	13708.02
251.439	13694.47
251.51	13672.83
251.58	13638.74
251.651	13611.65
251.722	13592.56
251.792	13542.86
251.863	13515.33
251.934	13505.84
252.005	13508.54
252.075	13475.37
252.146	13460.23
252.217	13450.79
252.287	13427.89
252.358	13405.76
252.429	13399.11
252.499	13364.59
252.57	13347.43
252.641	13330.46
252.711	13296.38
252.782	13257.43
252.852	13248.9
252.923	13225.9
252.994	13212.21
253.064	13211.39
253.135	13174.56
253.205	13144
253.276	13142.89
253.347	13141.35
253.417	13102.01
253.488	13075.74
253.558	13052.55
253.629	13033.56
253.699	13008.97
253.77	12994.7
253.841	12965.64
253.911	12943.51
253.982	12933.63
254.052	12910.73
254.123	12889.52
254.193	12876.5
254.264	12890.48
254.334	12858.33
254.405	12817.31
254.475	12776.28
254.546	12736.76
254.616	12728.03
254.687	12711.93
254.757	12691.68
254.827	12662.23
254.898	12649.55
254.968	12627.04
255.039	12599.9
255.109	12576.62
255.18	12542.3
255.25	12499.64
255.321	12485.13
255.391	12449.84
255.461	12451.87
255.532	12407.42
255.602	12376.28
255.673	12331.26
255.743	12296.84
255.813	12253.75
255.884	12244.78
255.954	12228.54
256.024	12228.25
256.095	12213.84
256.165	12175.76
256.235	12157.83
256.306	12128.52
256.376	12116.23
256.446	12101.86
256.517	12085.33
256.587	12077.04
256.657	12064.79
256.728	12050.05
256.798	12028.74
256.868	12000.88
256.938	11961.5
257.009	11954.75
257.079	11945.93
257.149	11952.97
257.219	11911.27
257.29	11895.8
257.36	11856.52
257.43	11854.16
257.5	11813.82
257.571	11786.39
257.641	11777.47
257.711	11746.53
257.781	11732.02
257.852	11717.75
257.922	11678.9
257.992	11658.71
258.062	11634.37
258.132	11625.07
258.202	11600.82
258.273	11578.36
258.343	11582.32
258.413	11554.94
258.483	11536.29
258.553	11501.92
258.623	11470.16
258.693	11460.52
258.764	11454.59
258.834	11448.23
258.904	11428.37
258.974	11401.05
259.044	11373
259.114	11358.59
259.184	11336.81
259.254	11317.05
259.324	11274.06
259.394	11266.39
259.464	11260.27
259.535	11241.53
259.605	11210.68
259.675	11188.85
259.745	11183.93
259.815	11144.13
259.885	11126.44
259.955	11134.01
260.025	11108.04
260.095	11091.31
260.165	11076.47
260.235	11081.38
260.305	11055.27
260.375	11025.29
260.445	11034.25
260.515	11039.8
260.585	11031.36
260.655	11024.47
260.725	11020.86
260.795	11016.57
260.865	11020.09
260.934	10988.33
261.004	10979.08
261.074	10967.17
261.144	10969.63
261.214	10960.86
261.284	10950.55
261.354	10948.19
261.424	10911.99
261.494	10923.8
261.564	10906.16
261.634	10890.79
261.703	10848.43
261.773	10843.95
261.843	10835.71
261.913	10818.27
261.983	10776.97
262.053	10768.83
262.123	10744.11
262.192	10713.03
262.262	10704.36
262.332	10667.64
262.402	10664.94
262.472	10642.24
262.541	10600.96
262.611	10593.68
262.681	10564.72
262.751	10555.61
262.821	10531.72
262.89	10511.72
262.96	10496.54
263.03	10506.52
263.1	10505.55
263.169	10489.85
263.239	10482.23
263.309	10489.65
263.379	10474.86
263.448	10467.83
263.518	10448.41
263.588	10433.72
263.657	10434.82
263.727	10430.29
263.797	10418.39
263.867	10402.88
263.936	10376.62
264.006	10381.2
264.076	10356.44
264.145	10343.67
264.215	10323.68
264.285	10317.56
264.354	10280.08
264.424	10256.04
264.494	10217.74
264.563	10187.38
264.633	10197.16
264.702	10183.72
264.772	10136.6
264.842	10125.24
264.911	10117.82
264.981	10086.46
265.05	10073.02
265.12	10053.99
265.19	10039.97
265.259	10031.68
265.329	10023.88
265.398	10014.2
265.468	10024.75
265.537	10007.4
265.607	9995.94
265.676	9990.54
265.746	9985.49
265.815	9990.5
265.885	9980.53
265.955	9960.83
266.024	9944.74
266.094	9910.05
266.163	9911.45
266.232	9912.94
266.302	9893.73
266.371	9883.47
266.441	9876.15
266.51	9871.57
266.58	9860.54
266.649	9840.84
266.719	9842.52
266.788	9836.12
266.858	9842.91
266.927	9804.52
266.996	9800.14
267.066	9794.55
267.135	9772.78
267.205	9766.04
267.274	9749.28
267.343	9750.87
267.413	9741.96
267.482	9750.39
267.552	9745.81
267.621	9716
267.69	9688.45
267.76	9679.88
267.829	9668.65
267.898	9664.75
267.968	9640.67
268.037	9634.56
268.106	9626.03
268.176	9593.72
268.245	9577.48
268.314	9552.73
268.384	9551.72
268.453	9535.73
268.522	9522.39
268.592	9530.38
268.661	9503.94
268.73	9499.27
268.799	9472.06
268.869	9474.13
268.938	9438.69
269.007	9423.71
269.076	9409.08
269.146	9415.29
269.215	9410.52
269.284	9417.26
269.353	9393.04
269.422	9387.26
269.492	9365.36
269.561	9328.42
269.63	9328.91
269.699	9307.04
269.768	9305.7
269.838	9302.13
269.907	9301.65
269.976	9274.49
270.045	9233.28
270.114	9234.87
270.183	9220.47
270.253	9213.73
270.322	9187.93
270.391	9182.87
270.46	9187.73
270.529	9194.43
270.598	9188.02
270.667	9177.38
270.736	9152.2
270.806	9155.09
270.875	9155.76
270.944	9146.47
271.013	9174.59
271.082	9168.47
271.151	9167.75
271.22	9137.56
271.289	9124.42
271.358	9111.13
271.427	9108.87
271.496	9108.19
271.565	9094.04
271.634	9084.12
271.703	9112.24
271.772	9113.16
271.841	9099.97
271.91	9082.11
271.979	9066.46
272.048	9045.32
272.117	9038.29
272.186	9025.39
272.255	9026.4
272.324	9023.9
272.393	9017.59
272.462	8996.02
272.531	8983.22
272.6	8970.27
272.669	8979.85
272.738	8966.13
272.807	8962.32
272.876	8945.81
272.945	8969.31
273.013	8973.3
273.082	8984.23
273.151	8936.71
273.22	8936.61
273.289	8928.34
273.358	8928.72
273.427	8920.25
273.496	8918.95
273.564	8914.66
273.633	8915.48
273.702	8892.04
273.771	8875.62
273.84	8878.37
273.909	8877.55
273.977	8873.6
274.046	8865.76
274.115	8869.66
274.184	8853.39
274.253	8844.1
274.322	8852.81
274.39	8824.74
274.459	8804.57
274.528	8773.24
274.597	8773.58
274.665	8765.2
274.734	8773.09
274.803	8757.74
274.872	8747.92
274.94	8736.18
275.009	8792.62
275.078	8779.72
275.147	8775.77
275.215	8769.32
275.284	8770.96
275.353	8760.71
275.421	8737.36
275.49	8754.21
275.559	8740.88
275.627	8733.85
275.696	8724.52
275.765	8724.85
275.833	8717.92
275.902	8721.82
275.971	8735.34
276.039	8742.76
276.108	8748.58
276.177	8749.54
276.245	8745.07
276.314	8745.65
276.383	8753.2
276.451	8686.85
276.52	8685.11
276.588	8698.69
276.657	8709.76
276.725	8693.83
276.794	8691.71
276.863	8702.44
276.931	8676.11
277	8682.99
277.068	8699.74
277.137	8712.25
277.205	8710.81
277.274	8727.94
277.342	8735.21
277.411	8713.17
277.48	8702.25
277.548	8696.09
277.617	8697.82
277.685	8695.17
277.754	8695.36
277.822	8685.35
277.89	8701.67
277.959	8699.41
278.027	8677.94
278.096	8660.96
278.164	8693.93
278.233	8684.06
278.301	8678.58
278.37	8681.56
278.438	8668.13
278.507	8670.44
278.575	8648.3
278.643	8639.93
278.712	8611.49
278.78	8598.2
278.849	8611.87
278.917	8615.57
278.985	8612.11
279.054	8605.18
279.122	8612.25
279.191	8613.31
279.259	8610.04
279.327	8588.67
279.396	8602.19
279.464	8603.78
279.532	8612.25
279.601	8599.88
279.669	8599.92
279.737	8607.96
279.806	8617.11
279.874	8625.77
279.942	8618.02
280.011	8616.43
280.079	8630.44
280.147	8651.95
280.215	8654.69
280.284	8650.36
280.352	8638.96
280.42	8642.37
280.488	8639.53
280.557	8639.1
280.625	8640.54
280.693	8647.62
280.761	8650.84
280.83	8637.27
280.898	8651.18
280.966	8633.86
281.034	8606.57
281.102	8591.79
281.171	8584.14
281.239	8589.39
281.307	8578.56
281.375	8573.6
281.443	8599.69
281.512	8588.14
281.58	8588.33
281.648	8572.31
281.716	8571.01
281.784	8579.28
281.852	8567.25
281.92	8559.5
281.989	8568.55
282.057	8552.33
282.125	8588.63
282.193	8584.3
282.261	8585.79
282.329	8580.11
282.397	8589.06
282.465	8595.99
282.533	8613.27
282.601	8603.31
282.67	8586.27
282.738	8581.89
282.806	8592.53
282.874	8576.16
282.942	8582.42
283.01	8585.11
283.078	8597.82
283.146	8593.58
283.214	8598.68
283.282	8606
283.35	8622.12
283.418	8612.16
283.486	8618.65
283.554	8578.51
283.622	8578.17
283.69	8574.46
283.758	8566.33
283.826	8570.57
283.894	8576.82
283.962	8589.87
284.03	8607.72
284.098	8605.89
284.165	8599.64
284.233	8598.87
284.301	8594.87
284.369	8588.95
284.437	8578.84
284.505	8574.13
284.573	8592.03
284.641	8582.31
284.709	8588.42
284.777	8573.36
284.845	8578.51
284.912	8580.67
284.98	8583.8
285.048	8581.97
285.116	8589.24
285.184	8603.39
285.252	8601.13
285.319	8588.42
285.387	8585.73
285.455	8566.04
285.523	8566.96
285.591	8563.25
285.659	8561.33
285.726	8578.66
285.794	8564.8
285.862	8559.79
285.93	8554.31
285.997	8547.66
286.065	8544.44
286.133	8532.5
286.201	8527.36
286.269	8517.68
286.336	8510.9
286.404	8503.44
286.472	8517.78
286.539	8498.77
286.607	8484.29
286.675	8482.75
286.743	8489.53
286.81	8481.93
286.878	8499.2
286.946	8498.48
287.013	8501.85
287.081	8500.5
287.149	8483.22
287.216	8498.53
287.284	8497.85
287.352	8502.47
287.419	8498.77
287.487	8510.7
287.555	8522.49
287.622	8524.99
287.69	8527.45
287.758	8539.58
287.825	8536.11
287.893	8514.31
287.96	8516.48
288.028	8529.76
288.096	8536.26
288.163	8544.68
288.231	8531.92
288.298	8535.87
288.366	8552.04
288.433	8550.17
288.501	8549.44
288.569	8552.86
288.636	8549.16
288.704	8561.52
288.771	8569.08
288.839	8560.95
288.906	8554.35
288.974	8558.35
289.041	8557.1
289.109	8550.55
289.176	8556.18
289.244	8565.81
289.311	8589.82
289.379	8602.29
289.446	8600.07
289.514	8600.46
289.581	8592.13
289.649	8600.74
289.716	8599.97
289.783	8590.16
289.851	8610.37
289.918	8605.36
289.986	8613.21
290.053	8619.32
290.121	8618.5
290.188	8617.68
290.255	8645.89
290.323	8640.64
290.39	8636.89
290.458	8641.36
290.525	8654.5
290.592	8651.9
290.66	8654.26
290.727	8640.73
290.794	8655.08
290.862	8657.67
290.929	8662.1
290.996	8666.58
291.064	8674.33
291.131	8686.31
291.198	8698.83
291.266	8700.8
291.333	8707.15
291.4	8712.78
291.468	8728.48
291.535	8727.32
291.602	8735.5
291.669	8729.15
291.737	8740.65
291.804	8741.08
291.871	8757.01
291.938	8765.25
292.006	8798.13
292.073	8807.42
292.14	8822.48
292.207	8816.18
292.275	8817.76
292.342	8825.08
292.409	8848.96
292.476	8871.78
292.543	8864.94
292.611	8865.08
292.678	8876.54
292.745	8899.16
292.812	8907.88
292.879	8905.13
292.946	8907.73
293.014	8923.67
293.081	8933.29
293.148	8945.95
293.215	8959
293.282	8960.25
293.349	8974.55
293.416	8948.55
293.484	8969.11
293.551	8979.99
293.618	9001.12
293.685	9028.61
293.752	9024.9
293.819	9020.76
293.886	9012.34
293.953	9016.86
294.02	9028.94
294.087	9041.08
294.154	9040.79
294.221	9058.36
294.288	9058.22
294.356	9076.7
294.423	9081.76
294.49	9079.4
294.557	9096.35
294.624	9092.21
294.691	9111.66
294.758	9107.42
294.825	9117.19
294.892	9104.48
294.959	9105.2
295.026	9112.81
295.093	9103.62
295.16	9108.67
295.226	9121.38
295.293	9145.6
295.36	9153.4
295.427	9165.2
295.494	9176.7
295.561	9182.43
295.628	9210.32
295.695	9226.83
295.762	9230.93
295.829	9238
295.896	9254.52
295.963	9259.53
296.03	9270.45
296.096	9271.27
296.163	9280.71
296.23	9295.64
296.297	9307.53
296.364	9309.41
296.431	9311.62
296.498	9311.43
296.564	9332.47
296.631	9332.8
296.698	9319.47
296.765	9340.51
296.832	9338.15
296.899	9324.86
296.965	9343.4
297.032	9313.1
297.099	9332.51
297.166	9345.7
297.233	9344.89
297.299	9337.9
297.366	9342.24
297.433	9348.11
297.5	9357.94
297.566	9360.54
297.633	9361.45
297.7	9371.27
297.767	9365.54
297.833	9372.43
297.9	9375.51
297.967	9362.22
298.033	9371.13
298.1	9397.81
298.167	9390.35
298.234	9392.37
298.3	9401.9
298.367	9397.23
298.434	9411.68
298.5	9399.5
298.567	9395.26
298.634	9393.76
298.7	9410.18
298.767	9408.4
298.834	9420.2
298.9	9419.53
298.967	9413.46
299.033	9424.1
299.1	9439.47
299.167	9461.57
299.233	9459.59
299.3	9475.29
299.366	9496.09
299.433	9511.89
299.5	9486.46
299.566	9488.92
299.633	9501.58
299.699	9519.5
299.766	9512.66
299.832	9515.65
299.899	9529.18
299.965	9536.5
300.032	9530.48
300.099	9539.49
300.165	9542.95
300.232	9540.11
300.298	9545.94
300.365	9567.08
300.431	9569.63
300.498	9566.89
300.564	9572.28
300.631	9581.77
300.697	9594.19
300.763	9594.87
300.83	9591.59
300.896	9611.82
300.963	9624.05
301.029	9629.59
301.096	9630.12
301.162	9646.25
301.229	9639.8
301.295	9628.24
301.361	9641.15
301.428	9653.62
301.494	9636.38
301.561	9641.24
301.627	9642.59
301.693	9647.21
301.76	9650.83
301.826	9646.54
301.892	9647.65
301.959	9656.27
302.025	9658.48
302.092	9651.74
302.158	9660.07
302.224	9663.11
302.291	9653.48
302.357	9653.43
302.423	9646.93
302.49	9643.94
302.556	9653.72
302.622	9656.32
302.688	9668.07
302.755	9677.7
302.821	9681.12
302.887	9698.56
302.954	9706.12
303.02	9715.94
303.086	9718.21
303.152	9712.91
303.219	9707.32
303.285	9710.55
303.351	9715.89
303.417	9713.63
303.483	9709.44
303.55	9699.91
303.616	9701.54
303.682	9700.19
303.748	9693.02
303.815	9709.15
303.881	9715.99
303.947	9704.87
304.013	9706.51
304.079	9697.35
304.145	9677.27
304.212	9675.2
304.278	9662.77
304.344	9652.85
304.41	9640.09
304.476	9632.67
304.542	9629.73
304.608	9639.08
304.674	9630.5
304.741	9625.16
304.807	9635.66
304.873	9639.85
304.939	9658.05
305.005	9640.43
305.071	9635.23
305.137	9636.81
305.203	9614.85
305.269	9611.34
305.335	9625.11
305.401	9627.23
305.467	9624.87
305.533	9633.93
305.599	9644.42
305.666	9653.48
305.732	9658.44
305.798	9672.94
305.864	9702.7
305.93	9705.11
305.996	9710.36
306.062	9710.46
306.128	9705.93
306.194	9690.18
306.259	9691.96
306.325	9681.75
306.391	9687.92
306.457	9697.69
306.523	9703.57
306.589	9728.18
306.655	9720.62
306.721	9701.98
306.787	9692.78
306.853	9712.09
306.919	9696.78
306.985	9694.71
307.051	9692.54
307.117	9683.29
307.183	9681.85
307.248	9651.07
307.314	9661.62
307.38	9658.58
307.446	9670.24
307.512	9662
307.578	9667.64
307.644	9665.66
307.709	9664.07
307.775	9664.65
307.841	9666.62
307.907	9663.64
307.973	9637.1
308.039	9634.89
308.104	9640.23
308.17	9639.85
308.236	9620.15
308.302	9625.64
308.368	9610.8
308.433	9610.37
308.499	9608.64
308.565	9594.91
308.631	9592.94
308.696	9564.57
308.762	9552.34
308.828	9539.72
308.894	9518.15
308.959	9494.7
309.025	9484.54
309.091	9477.6
309.156	9471.29
309.222	9472.06
309.288	9462
309.354	9446.06
309.419	9446.49
309.485	9432.05
309.551	9432.86
309.616	9422.22
309.682	9415.53
309.748	9410.81
309.813	9400.75
309.879	9390.87
309.945	9375.75
310.01	9375.13
310.076	9381.29
310.141	9374.89
310.207	9367.13
310.273	9370.65
310.338	9379.65
310.404	9359.53
310.469	9354.33
310.535	9339.64
310.601	9320.14
310.666	9322.25
310.732	9332.8
310.797	9321.29
310.863	9309.4
310.928	9304.49
310.994	9307.47
311.059	9308.92
311.125	9310.07
311.191	9326.4
311.256	9317.87
311.322	9326.73
311.387	9304.06
311.453	9558.67
311.518	9541.19
311.584	9537.96
311.649	9544.8
311.715	9532.47
311.78	9535.8
311.846	9516.83
311.911	9527.32
311.976	9526.02
312.042	9511.63
312.107	9498.87
312.173	9491.21
312.238	9487.7
312.304	9482.98
312.369	9478.64
312.434	9460.44
312.5	9449.8
312.565	9416.14
312.631	9419.56
312.696	9406.18
312.761	9405.89
312.827	9139.72
312.892	9168.13
312.958	9161.2
313.023	9156.53
313.088	9147.28
313.154	9130.77
313.219	9126.82
313.284	9111.51
313.35	9105.3
313.415	9093.75
313.48	9088.84
313.546	9089.7
313.611	9097.21
313.676	9082.67
313.741	9068.04
313.807	9075.4
313.872	9079.74
313.937	9085.42
314.003	9093.07
314.068	9098.66
314.133	9106.65
314.198	9096.3
314.264	9077.62
314.329	9075.11
314.394	9070.54
314.459	9070.3
314.525	9097.02
314.59	9095.24
314.655	9089.6
314.72	9095.62
314.785	9100.1
314.851	9094.47
314.916	9075.69
314.981	9066.88
315.046	9066.26
315.111	9060.43
315.176	9047.34
315.242	9046.57
315.307	9043.87
315.372	9025.91
315.437	9015.46
315.502	9005.79
315.567	9022.54
315.632	9006.61
315.698	9008.44
315.763	9008.44
315.828	9005.21
315.893	8995.05
315.958	8995
316.023	8988.36
316.088	8970.74
316.153	8946.92
316.218	8938.83
316.283	8921.07
316.348	8900.86
316.413	8896.62
316.479	8882.95
316.544	8853.69
316.609	8828.51
316.674	8791.94
316.739	8758.68
316.804	8725.04
316.869	8685.72
316.934	8642.31
316.999	8616.42
317.064	8557.17
317.129	8509.72
317.194	8475.03
317.259	8431.42
317.324	8373.31
317.389	8325.14
317.454	8289.92
317.518	8260.81
317.583	8238.63
317.648	8217.17
317.713	8180.42
317.778	8115.33
317.843	8081.03
317.908	8042.5
317.973	7998.92
318.038	7967.99
318.103	7931.39
318.168	7905.47
318.233	7880.36
318.297	7828.47
318.362	7792.93
318.427	7755.48
318.492	7728.4
318.557	7675.66
318.622	7638.92
318.687	7618.01
318.751	7577.92
318.816	7537.58
318.881	7496.91
318.946	7438.93
319.011	7391.48
319.075	7348.37
319.14	7311.85
319.205	7272.34
319.27	7238.65
319.335	7191.36
319.399	7150.51
319.464	7118.94
319.529	7063.73
319.594	7019.9
319.658	6991.32
319.723	6945.91
319.788	6921.55
319.853	6867.94
319.917	6838.59
319.982	6788.59
320.047	6752.85
320.112	6723.55
320.176	6674.23
320.241	6645.27
320.306	6615.59
320.37	6572.71
320.435	6541.55
320.5	6519.7
320.564	6478.89
320.629	6437.9
320.694	6405.01
320.758	6363.97
320.823	6320.82
320.888	6294.42
320.952	6244.51
321.017	6202.13
321.082	6161.44
321.146	6122.04
321.211	6090.65
321.275	6050.6
321.34	6003.4
321.405	5955.62
321.469	5909.9
321.534	5871.63
321.598	5819.4
321.663	5783.75
321.727	5753.54
321.792	5704.82
321.857	5657.86
321.921	5616.72
321.986	5575.78
322.05	5520.76
322.115	5481.02
322.179	5437.26
322.244	5377.02
322.308	5347.31
322.373	5302.31
322.437	5262.11
322.502	5233.44
322.566	5184.37
322.631	5149.07
322.695	5116.45
322.76	5074.54
322.824	5038.1
322.889	4992.7
322.953	4947.41
323.018	4883.19
323.082	4820.62
323.146	4768.36
323.211	4714.37
323.275	4672.48
323.34	4625.96
323.404	4589.6
323.468	4545.04
323.533	4500.07
323.597	4453.97
323.662	4398.39
323.726	4361.26
323.79	4314.43
323.855	4246.02
323.919	4197.01
323.983	4152.48
324.048	4082.28
324.112	4208.48
324.177	4080.56
324.241	3868.26
324.305	3660.87
324.37	3456.54
324.434	3259.52
324.498	3217.37
324.562	3165.61
324.627	3099.73
324.691	3038.56
324.755	2971.37
324.82	2892.22
324.884	2809.57
324.948	2737.82
325.012	2643.51
325.077	2515.07
