Data from 20250704_urea_1.5M_MAYP1162681_11-45-27-596.txt Node
Date: Fri Jul 04 11:45:27 BST 2025
User: adleo
Spectrometer: MAYP116268
Trigger mode: 0
Integration Time (sec): 1.000000E0
Scans to average: 1
Electric dark correction enabled: true
Nonlinearity correction enabled: true
Boxcar width: 10
XAxis mode: Wavelengths
Number of Pixels in Spectrum: 2068
>>>>>Begin Spectral Data<<<<<
179.565	1258.08
179.642	1314.27
179.718	1366.18
179.795	1406.48
179.871	1444.66
179.948	1464.71
180.024	1486.46
180.101	1509.68
180.177	1524.93
180.254	1548.49
180.33	1569.38
180.407	1626.32
180.483	1724.28
180.56	1818.07
180.636	1907.57
180.712	1895.96
180.789	1908.09
180.865	1920.97
180.942	1929.67
181.018	1942.5
181.095	1954.54
181.171	1958.96
181.248	1960.72
181.324	1973.51
181.4	1980.12
181.477	1988.88
181.553	2002.14
181.63	2022.73
181.706	2041.33
181.782	2050.84
181.859	2050.22
181.935	2055.02
182.011	2054.07
182.088	2072.43
182.164	2093.8
182.24	2106.97
182.317	2117.91
182.393	2116.15
182.469	2130.37
182.546	2142.88
182.622	2147.16
182.698	2141.45
182.775	2155.39
182.851	2171.51
182.927	2162.24
183.003	2157.15
183.08	2152.01
183.156	2157.96
183.232	2154.82
183.308	2140.02
183.385	2148.77
183.461	2166.9
183.537	2170.04
183.613	2183.12
183.69	2175.56
183.766	2165.04
183.842	2171.27
183.918	2178.41
183.995	2192.11
184.071	2196.92
184.147	2189.59
184.223	2182.51
184.299	2196.59
184.375	2185.6
184.452	2191.08
184.528	2247.62
184.604	2260.99
184.68	2272.74
184.756	2282.97
184.832	2287.06
184.908	2293.77
184.985	2292.05
185.061	2277.69
185.137	2287.77
185.213	2277.21
185.289	2275.69
185.365	2265.41
185.441	2267.13
185.517	2277.03
185.593	2271.41
185.669	2266.94
185.745	2281.41
185.822	2296.29
185.898	2285.35
185.974	2294.29
186.05	2287.68
186.126	2248.26
186.202	2240.75
186.278	2236.03
186.354	2226.09
186.43	2234.42
186.506	2230.47
186.582	2229.19
186.658	2235.23
186.734	2213.39
186.81	2213.63
186.886	2215.91
186.962	2230.38
187.038	2226.09
187.114	2221.19
187.19	2227.47
187.266	2218.48
187.341	2217.67
187.417	2209.15
187.493	2209.96
187.569	2213.34
187.645	2206.97
187.721	2194.21
187.797	2202.16
187.873	2208.96
187.949	2204.44
188.025	2197.83
188.101	2201.54
188.176	2207.86
188.252	2202.96
188.328	2213.52
188.404	2214.09
188.48	2212.19
188.556	2205.1
188.632	2202.2
188.707	2202.86
188.783	2200.25
188.859	2196.16
188.935	2184.74
189.011	2193.39
189.086	2187.92
189.162	2180.12
189.238	2176.27
189.314	2175.55
189.39	2169.51
189.465	2160.57
189.541	2176.89
189.617	2161.09
189.693	2158.33
189.768	2157.43
189.844	2184.13
189.92	2174.58
189.996	2184.66
190.071	2197.89
190.147	2197.51
190.223	2206.69
190.298	2197.32
190.374	2185.95
190.45	2198.93
190.526	2208.97
190.601	2201.55
190.677	2201.41
190.753	2227.78
190.828	2232.3
190.904	2246.48
190.98	2262.05
191.055	2273.09
191.131	2262.71
191.207	2283.46
191.282	2295.21
191.358	2290.78
191.433	2273.21
191.509	2285.53
191.585	2283.87
191.66	2283.53
191.736	2292.62
191.811	2283.77
191.887	2301.53
191.963	2321.32
192.038	2322.51
192.114	2320.94
192.189	2326.56
192.265	2326.56
192.34	2303.04
192.416	2303.13
192.491	2299.7
192.567	2302.75
192.642	2301.18
192.718	2301.51
192.793	2287.57
192.869	2279.53
192.944	2280.72
193.02	2291.05
193.095	2295.71
193.171	2296.04
193.246	2293.57
193.322	2288.05
193.397	2288.29
193.473	2272.29
193.548	2259.15
193.624	2266.96
193.699	2267.87
193.775	2286.2
193.85	2285.58
193.925	2296.57
194.001	2296.52
194.076	2289.43
194.152	2279.01
194.227	2274.72
194.302	2265.78
194.378	2272.3
194.453	2272.92
194.529	2282.53
194.604	2265.78
194.679	2261.07
194.755	2243.85
194.83	2256.03
194.905	2255.32
194.981	2268.17
195.056	2264.51
195.131	2268.46
195.207	2267.88
195.282	2257.89
195.357	2234.8
195.433	2253.55
195.508	2239.94
195.583	2245.84
195.659	2256.46
195.734	2261.98
195.809	2261.03
195.884	2271.21
195.96	2270.25
196.035	2282.91
196.11	2282.48
196.185	2294
196.261	2299.33
196.336	2334.93
196.411	2320.55
196.486	2326.22
196.561	2318.08
196.637	2323.36
196.712	2339.45
196.787	2343.5
196.862	2359.54
196.937	2372.24
197.013	2375.86
197.088	2387.52
197.163	2411.38
197.238	2430.67
197.313	2429.53
197.388	2444.38
197.464	2474.91
197.539	2486.19
197.614	2479.34
197.689	2492.48
197.764	2509.91
197.839	2528.19
197.914	2519.57
197.989	2542.14
198.065	2555.76
198.14	2606.71
198.215	2636
198.29	2650.29
198.365	2664.06
198.44	2673.77
198.515	2700.55
198.59	2716.22
198.665	2743.19
198.74	2751.62
198.815	2752.48
198.89	2778.73
198.965	2807.42
199.04	2801.08
199.115	2817.62
199.19	2860.78
199.265	2861.64
199.34	2871.17
199.415	2908.61
199.49	2929.14
199.565	2941.15
199.64	2966.18
199.715	2962.5
199.79	2971.8
199.865	2979.24
199.94	2976.28
200.015	3008.28
200.09	3015.1
200.165	3020.96
200.24	3032.31
200.315	3074.45
200.39	3093
200.464	3098.68
200.539	3101.63
200.614	3120.61
200.689	3146.03
200.764	3155.62
200.839	3173.39
200.914	3185.27
200.989	3171.81
201.063	3184.83
201.138	3163.72
201.213	3164.96
201.288	3147.03
201.363	3149.27
201.438	3144.65
201.512	3160.9
201.587	3143.59
201.662	3147.79
201.737	3162.62
201.812	3170.4
201.886	3134.93
201.961	3142.85
202.036	3130.12
202.111	3126.64
202.186	3097.24
202.26	3077.92
202.335	3054.78
202.41	3049.4
202.485	3023.8
202.559	3001.58
202.634	2977.46
202.709	2991.04
202.784	2970.77
202.858	2968.01
202.933	2948.23
203.008	2947.89
203.082	2925.92
203.157	2925.06
203.232	2880.46
203.306	2856.48
203.381	2819.67
203.456	2796.41
203.53	2773.18
203.605	2754.23
203.68	2731.78
203.754	2723.92
203.829	2710.96
203.904	2690.66
203.978	2680.8
204.053	2686.42
204.127	2674.42
204.202	2670.75
204.277	2649.7
204.351	2641.93
204.426	2634.55
204.5	2626.59
204.575	2588.06
204.65	2599.31
204.724	2590.87
204.799	2597.63
204.873	2594.25
204.948	2596.44
205.022	2582.11
205.097	2574.96
205.171	2588.96
205.246	2596.34
205.32	2597.87
205.395	2595.53
205.469	2583.59
205.544	2587.54
205.618	2568.82
205.693	2580.44
205.767	2565.59
205.842	2590.6
205.916	2585.17
205.991	2579.36
206.065	2584.98
206.14	2603.25
206.214	2599.11
206.289	2593.58
206.363	2606.54
206.438	2607.39
206.512	2614.02
206.586	2636.64
206.661	2646.6
206.735	2623.27
206.81	2623.22
206.884	2638.18
206.958	2626.7
207.033	2645.98
207.107	2654.42
207.181	2688.06
207.256	2684.72
207.33	2706.2
207.405	2720.13
207.479	2738.04
207.553	2744.37
207.628	2727.56
207.702	2737.81
207.776	2733.9
207.851	2736.14
207.925	2754.2
207.999	2751.49
208.073	2745.58
208.148	2747.39
208.222	2731.66
208.296	2767.72
208.371	2784.5
208.445	2795.84
208.519	2824.62
208.593	2837.01
208.668	2833.77
208.742	2839.35
208.816	2839.3
208.89	2854.7
208.965	2853.27
209.039	2866.19
209.113	2882.96
209.187	2903.39
209.261	2899.39
209.336	2917.88
209.41	2937
209.484	2936.38
209.558	2963.08
209.632	2979.33
209.707	2991.39
209.781	3016.18
209.855	3030.49
209.929	3051.01
210.003	3057.59
210.077	3059.64
210.151	3110.18
210.226	3145.25
210.3	3175.04
210.374	3204.69
210.448	3211.56
210.522	3223.16
210.596	3237.99
210.67	3250.87
210.744	3304.7
210.818	3341.46
210.892	3369.52
210.966	3371.53
211.041	3395.62
211.115	3395.62
211.189	3425.92
211.263	3454.75
211.337	3468.16
211.411	3493.7
211.485	3497.42
211.559	3524.19
211.633	3538.7
211.707	3524.46
211.781	3547.06
211.855	3525.14
211.929	3535.45
212.003	3531.4
212.077	3560.82
212.151	3590.15
212.225	3623.81
212.299	3638.44
212.373	3653.1
212.447	3677.8
212.52	3739.28
212.594	3773.98
212.668	3824.51
212.742	3850.89
212.816	3882.91
212.89	3916.16
212.964	3955.51
213.038	4007.11
213.112	4069.9
213.186	4134.86
213.26	4164.58
213.333	4176.34
213.407	4245.8
213.481	4310.1
213.555	4388.43
213.629	4444.42
213.703	4496.73
213.777	4571.17
213.85	4625.07
213.924	4731.26
213.998	4808.69
214.072	4883.58
214.146	4955.62
214.219	5039.5
214.293	5126.77
214.367	5222.33
214.441	5332.68
214.515	5417.96
214.588	5490.06
214.662	5548.31
214.736	5627.69
214.81	5739.27
214.883	5855.95
214.957	5945.39
215.031	6043.86
215.105	6130.56
215.178	6228.08
215.252	6336.88
215.326	6418.83
215.4	6511.41
215.473	6592.2
215.547	6694.27
215.621	6794.65
215.694	6914.76
215.768	7011.14
215.842	7117.53
215.915	7222.65
215.989	7319.42
216.063	7434.42
216.136	7557.74
216.21	7684.59
216.284	7821.83
216.357	7948.99
216.431	8068.95
216.504	8210.86
216.578	8361.75
216.652	8503.6
216.725	8633.05
216.799	8768.78
216.873	8902.67
216.946	9047.35
217.02	9169.85
217.093	9292.48
217.167	9402.69
217.24	9521.35
217.314	9646.98
217.387	9771.51
217.461	9891.63
217.535	10032.95
217.608	10149.23
217.682	10279.92
217.755	10421.99
217.829	10536.8
217.902	10668.92
217.976	10795.06
218.049	10907.72
218.123	11016.34
218.196	11144.66
218.27	11259.31
218.343	11370.35
218.417	11493.24
218.49	11613.68
218.563	11745.02
218.637	11878.19
218.71	12024.52
218.784	12140.88
218.857	12273.81
218.931	12402.41
219.004	12530.44
219.077	12654.56
219.151	12777.48
219.224	12894.09
219.298	13009.06
219.371	13139.69
219.444	13234.66
219.518	13351.56
219.591	13469.56
219.665	13609.12
219.738	13726.45
219.811	13840.99
219.885	13952.44
219.958	14073.29
220.031	14176.02
220.105	14290.75
220.178	14394.34
220.251	14490.36
220.325	14612.56
220.398	14715.14
220.471	14815.74
220.544	14917.69
220.618	15000.41
220.691	15101.35
220.764	15199.01
220.838	15291.94
220.911	15378.51
220.984	15493.28
221.057	15584.09
221.131	15664.44
221.204	15711.63
221.277	15813.48
221.35	15916.72
221.424	16004.92
221.497	16085.03
221.57	16172.56
221.643	16255.31
221.716	16337.64
221.79	16400.05
221.863	16473.55
221.936	16541.27
222.009	16616.17
222.082	16694.15
222.155	16762.59
222.229	16845.96
222.302	16918.21
222.375	16983.61
222.448	17051.32
222.521	17108.87
222.594	17170.8
222.667	17229.98
222.74	17302.56
222.814	17352.54
222.887	17405.74
222.96	17472.63
223.033	17536.97
223.106	17591.33
223.179	17656.68
223.252	17712.43
223.325	17774.46
223.398	17816.1
223.471	17867.18
223.544	17911.52
223.617	17957.92
223.69	17999.75
223.763	18031.66
223.837	18071.13
223.91	18115.65
223.983	18153.92
224.056	18184.47
224.129	18224.81
224.202	18278.93
224.275	18306.68
224.348	18342.05
224.42	18373.04
224.493	18384.56
224.566	18410.68
224.639	18450.72
224.712	18462.29
224.785	18478.19
224.858	18502.96
224.931	18532.74
225.004	18552.84
225.077	18581.37
225.15	18576.21
225.223	18602.28
225.296	18655.58
225.369	18663.43
225.442	18679.19
225.514	18696.64
225.587	18724.88
225.66	18748.73
225.733	18766.51
225.806	18795.23
225.879	18803.09
225.952	18800.49
226.025	18837.79
226.097	18869.88
226.17	18878.31
226.243	18879.85
226.316	18902.84
226.389	18921.68
226.461	18937.54
226.534	18962.16
226.607	18972.81
226.68	19004.14
226.753	19019.65
226.825	18993.49
226.898	19017.87
226.971	19038.21
227.044	19056.95
227.117	19071.79
227.189	19086.06
227.262	19101.77
227.335	19117.29
227.407	19123.94
227.48	19139.45
227.553	19137.77
227.626	19131.4
227.698	19142.2
227.771	19163.26
227.844	19152.27
227.916	19159.26
227.989	19152.13
228.062	19147.45
228.134	19170.78
228.207	19173.14
228.28	19166.97
228.352	19179.35
228.425	19178
228.498	19184.46
228.57	19181.43
228.643	19188.99
228.716	19187.02
228.788	19176.27
228.861	19174
228.934	19192.32
229.006	19188.56
229.079	19182.49
229.151	19166.05
229.224	19136.46
229.296	19124.95
229.369	19155.45
229.442	19164.17
229.514	19154.2
229.587	19163.11
229.659	19136.46
229.732	19138.01
229.804	19152.08
229.877	19169.72
229.949	19178.73
230.022	19186.05
230.094	19170.01
230.167	19172.56
230.239	19159.36
230.312	19160.27
230.384	19172.41
230.457	19156.66
230.529	19156.42
230.602	19163.64
230.674	19169.62
230.747	19182.78
230.819	19183.35
230.892	19138.1
230.964	19132.42
231.037	19129.43
231.109	19119.84
231.181	19125.96
231.254	19107.02
231.326	19094.93
231.399	19076.66
231.471	19065.77
231.544	19034.83
231.616	19043.7
231.688	19030.74
231.761	19019.36
231.833	18999.85
231.905	18967.99
231.978	18959.08
232.05	18939.71
232.122	18927.85
232.195	18907.8
232.267	18913.3
232.339	18908.24
232.412	18916.62
232.484	18889.54
232.556	18870.55
232.629	18877.3
232.701	18883.37
232.773	18878.26
232.846	18864.77
232.918	18854.46
232.99	18840.44
233.062	18839.23
233.135	18828
233.207	18803.28
233.279	18796.53
233.351	18786.85
233.424	18770.7
233.496	18753.98
233.568	18769.11
233.64	18741.94
233.713	18735.77
233.785	18716.25
233.857	18698.95
233.929	18663.77
234.001	18678.47
234.074	18683.96
234.146	18645.56
234.218	18613.27
234.29	18600.21
234.362	18583.87
234.434	18548.45
234.507	18519.83
234.579	18479.3
234.651	18457.13
234.723	18442.05
234.795	18427.4
234.867	18412.8
234.939	18407.11
235.012	18391.26
235.084	18374.63
235.156	18365.76
235.228	18335.55
235.3	18308.95
235.372	18285.58
235.444	18290.92
235.516	18241.24
235.588	18219.65
235.66	18203.6
235.732	18178.35
235.804	18210.59
235.876	18193.15
235.948	18195.36
236.02	18179.75
236.092	18166.69
236.164	18139.27
236.236	18109.1
236.308	18084.43
236.38	18064.33
236.452	18033.2
236.524	18008.86
236.596	18008.67
236.668	17983.85
236.74	17969.06
236.812	17956.05
236.884	17950.31
236.956	17930.79
237.028	17901.93
237.1	17871.28
237.172	17872.63
237.244	17873.01
237.316	17806.56
237.388	17780.68
237.46	17742.61
237.532	17727.57
237.604	17704.1
237.675	17703.52
237.747	17693.35
237.819	17667.72
237.891	17649.35
237.963	17622.08
238.035	17596.2
238.107	17524.68
238.178	17521.4
238.25	17495.52
238.322	17485.02
238.394	17438.51
238.466	17410.42
238.538	17401.89
238.609	17386.71
238.681	17334.32
238.753	17292.73
238.825	17274.61
238.897	17249.45
238.968	17250.99
239.04	17225.21
239.112	17225.02
239.184	17181.02
239.255	17157.79
239.327	17136.87
239.399	17113.55
239.471	17095.38
239.542	17076
239.614	17079.04
239.686	17027.71
239.758	17015.18
239.829	16981.98
239.901	16969.3
239.973	16934.12
240.044	16910.65
240.116	16891.23
240.188	16867.75
240.259	16841.01
240.331	16811.51
240.403	16795.03
240.474	16751.89
240.546	16716.9
240.618	16668.27
240.689	16640.66
240.761	16618.97
240.833	16611.5
240.904	16580.56
240.976	16556.56
241.048	16532.17
241.119	16502.29
241.191	16483.15
241.262	16472.26
241.334	16435.97
241.405	16406.76
241.477	16375.67
241.549	16346.75
241.62	16313.21
241.692	16294.7
241.763	16280.43
241.835	16247.66
241.906	16216.86
241.978	16171.07
242.049	16160.71
242.121	16142.11
242.192	16137.05
242.264	16097.09
242.335	16048.7
242.407	16028.89
242.478	15996.88
242.55	15973.89
242.621	15939.91
242.693	15904.2
242.764	15870.31
242.836	15852.38
242.907	15836.04
242.979	15825.68
243.05	15800.42
243.122	15782.98
243.193	15756.23
243.264	15710.34
243.336	15682.96
243.407	15670.91
243.479	15667.54
243.55	15638.38
243.622	15617.31
243.693	15579.81
243.764	15562.41
243.836	15528.14
243.907	15499.41
243.978	15471.79
244.05	15448.85
244.121	15408.02
244.192	15403.15
244.264	15359.05
244.335	15331.48
244.407	15288.87
244.478	15265.3
244.549	15236.91
244.62	15194.29
244.692	15168.84
244.763	15154.58
244.834	15127.29
244.906	15091.29
244.977	15064.82
245.048	15052.15
245.119	15018.31
245.191	14983.46
245.262	14938.34
245.333	14929.18
245.405	14905.8
245.476	14884.44
245.547	14863.77
245.618	14847.28
245.689	14816.33
245.761	14792.71
245.832	14762.44
245.903	14743.64
245.974	14716.07
246.045	14686.37
246.117	14680.3
246.188	14636.43
246.259	14592.86
246.33	14563.31
246.401	14531.49
246.473	14492.98
246.544	14452.24
246.615	14438.46
246.686	14406.55
246.757	14392.9
246.828	14356.75
246.899	14338.67
246.97	14295.87
247.042	14253.93
247.113	14236.24
247.184	14227.41
247.255	14194.49
247.326	14176.22
247.397	14140.69
247.468	14112.54
247.539	14092.97
247.61	14047.99
247.681	14031.7
247.752	14024.08
247.823	13989.52
247.894	13965.37
247.965	13932.44
248.037	13910.99
248.108	13867.89
248.179	13848.9
248.25	13825.18
248.321	13805.8
248.392	13771.96
248.463	13771.91
248.534	13746.12
248.605	13734.99
248.675	13706.35
248.746	13695.31
248.817	13669.96
248.888	13661.28
248.959	13619.63
249.03	13600.73
249.101	13583.04
249.172	13559.8
249.243	13511.69
249.314	13505.86
249.385	13480.31
249.456	13461.32
249.527	13431.24
249.598	13418.51
249.669	13394.65
249.739	13371.99
249.81	13347.41
249.881	13309.08
249.952	13285.61
250.023	13268.3
250.094	13221.39
250.165	13187.65
250.235	13162.78
250.306	13143.93
250.377	13110.52
250.448	13102.18
250.519	13057.69
250.59	13049.3
250.66	13020.57
250.731	13015.79
250.802	12992.27
250.873	12978.53
250.944	12961.18
251.014	12929.65
251.085	12927.24
251.156	12911.24
251.227	12904
251.297	12903.96
251.368	12902.7
251.439	12892.97
251.51	12882.84
251.58	12856.33
251.651	12827.45
251.722	12820.61
251.792	12779.01
251.863	12750.37
251.934	12743.05
252.005	12750.33
252.075	12727.72
252.146	12722.56
252.217	12703.86
252.287	12690.26
252.358	12669.92
252.429	12666.55
252.499	12650.3
252.57	12631.31
252.641	12618.68
252.711	12595.15
252.782	12555.24
252.852	12549.07
252.923	12518.7
252.994	12500.72
253.064	12491.8
253.135	12459.51
253.205	12430.68
253.276	12428.99
253.347	12429.52
253.417	12401.81
253.488	12374.33
253.558	12349.17
253.629	12326.46
253.699	12325.02
253.77	12308.92
253.841	12285.97
253.911	12271.03
253.982	12253.15
254.052	12241.96
254.123	12221.52
254.193	12204.89
254.264	12227.74
254.334	12195.25
254.405	12167.25
254.475	12130.28
254.546	12110.95
254.616	12116.59
254.687	12100.01
254.757	12091.96
254.827	12071.62
254.898	12053.69
254.968	12034.16
255.039	12011.9
255.109	12002.69
255.18	11970.44
255.25	11935.06
255.321	11925.47
255.391	11893.18
255.461	11895.35
255.532	11841.31
255.602	11817.74
255.673	11783.47
255.743	11756.19
255.813	11715.9
255.884	11714.4
255.954	11706.45
256.024	11704.57
256.095	11682.54
256.165	11653.72
256.235	11639.41
256.306	11612.7
256.376	11609.43
256.446	11599.59
256.517	11588.32
256.587	11576.89
256.657	11558.29
256.728	11546.34
256.798	11524.36
256.868	11494.24
256.938	11470.76
257.009	11469.22
257.079	11466.62
257.149	11468.26
257.219	11424.59
257.29	11408.98
257.36	11363.34
257.43	11358.42
257.5	11311.77
257.571	11295.19
257.641	11281.22
257.711	11256.01
257.781	11245.99
257.852	11227.82
257.922	11191.19
257.992	11169.7
258.062	11146.37
258.132	11141.36
258.202	11122.27
258.273	11111.57
258.343	11120.2
258.413	11090.23
258.483	11071.14
258.553	11040.06
258.623	11016.59
258.693	11005.12
258.764	11014.95
258.834	11023.04
258.904	11009.07
258.974	10993.02
259.044	10975.39
259.114	10968.93
259.184	10943.92
259.254	10924.35
259.324	10886.04
259.394	10879.39
259.464	10876.12
259.535	10860.94
259.605	10834.43
259.675	10806.25
259.745	10790.88
259.815	10760.13
259.885	10736.67
259.955	10751.75
260.025	10725.54
260.095	10705.2
260.165	10691.76
260.235	10687.33
260.305	10656.3
260.375	10629.31
260.445	10644.54
260.515	10642.9
260.585	10634.71
260.655	10626.03
260.725	10625.7
260.795	10618.71
260.865	10625.31
260.934	10605.22
261.004	10599.24
261.074	10594.43
261.144	10600.5
261.214	10593.03
261.284	10571.44
261.354	10571.35
261.424	10539.83
261.494	10547.3
261.564	10535.3
261.634	10531.21
261.703	10493.24
261.773	10492.66
261.843	10485.34
261.913	10464.19
261.983	10428.63
262.053	10417.31
262.123	10403.82
262.192	10369.23
262.262	10368.99
262.332	10337.04
262.402	10327.26
262.472	10305.82
262.541	10261.5
262.611	10255.38
262.681	10231.15
262.751	10230.38
262.821	10215.11
262.89	10191.36
262.96	10181.58
263.03	10183.21
263.1	10166.06
263.169	10155.03
263.239	10152.38
263.309	10153.25
263.379	10143.37
263.448	10131.28
263.518	10125.65
263.588	10105.7
263.657	10111.87
263.727	10108.93
263.797	10094.38
263.867	10081.04
263.936	10066.44
264.006	10074.68
264.076	10053.15
264.145	10040.04
264.215	10022.8
264.285	10019.33
264.354	9988.31
264.424	9967.5
264.494	9945.83
264.563	9930.7
264.633	9935.13
264.702	9916.68
264.772	9881.08
264.842	9868.41
264.911	9861.77
264.981	9832.05
265.05	9818.75
265.12	9803.77
265.19	9788.5
265.259	9789.42
265.329	9781.9
265.398	9765.77
265.468	9773.91
265.537	9763.07
265.607	9753.2
265.676	9751.08
265.746	9741.06
265.815	9737.74
265.885	9727.62
265.955	9703.83
266.024	9691.41
266.094	9660.68
266.163	9663.28
266.232	9664.44
266.302	9644.84
266.371	9638.58
266.441	9630.92
266.51	9630.97
266.58	9615.12
266.649	9594.6
266.719	9591.67
266.788	9584.97
266.858	9591.23
266.927	9555.74
266.996	9542.25
267.066	9535.22
267.135	9503.35
267.205	9498.05
267.274	9495.21
267.343	9491.21
267.413	9481.1
267.482	9475.32
267.552	9476.09
267.621	9443.1
267.69	9418.06
267.76	9415.89
267.829	9406.55
267.898	9387.53
267.968	9365.62
268.037	9367.69
268.106	9367.5
268.176	9339.28
268.245	9325.8
268.314	9306.58
268.384	9310.58
268.453	9296.62
268.522	9290.6
268.592	9298.83
268.661	9276.68
268.73	9270.32
268.799	9251.55
268.869	9262.38
268.938	9236.28
269.007	9217.79
269.076	9213.85
269.146	9217.84
269.215	9202.29
269.284	9211.54
269.353	9204.17
269.422	9195.02
269.492	9172.3
269.561	9134.02
269.63	9122.71
269.699	9101.43
269.768	9094.5
269.838	9080.44
269.907	9083.13
269.976	9064.4
270.045	9035.57
270.114	9038.6
270.183	9023.49
270.253	9016.7
270.322	8985.45
270.391	8980.69
270.46	8988.01
270.529	8983.29
270.598	8978.76
270.667	8971.35
270.736	8946.31
270.806	8943.71
270.875	8948.33
270.944	8939.86
271.013	8958.97
271.082	8959.6
271.151	8965.23
271.22	8933.41
271.289	8927.49
271.358	8915.31
271.427	8905.54
271.496	8907.52
271.565	8893.12
271.634	8887.15
271.703	8915.22
271.772	8914.55
271.841	8905.12
271.91	8883.6
271.979	8879.41
272.048	8857.8
272.117	8857.99
272.186	8842.59
272.255	8838.01
272.324	8830.5
272.393	8823.81
272.462	8807.4
272.531	8803.83
272.6	8786.7
272.669	8801.23
272.738	8794.3
272.807	8794.64
272.876	8776.98
272.945	8795.89
273.013	8796.86
273.082	8795.22
273.151	8746.84
273.22	8748.76
273.289	8735.68
273.358	8750.02
273.427	8740.73
273.496	8740.87
273.564	8739.96
273.633	8743.38
273.702	8724.51
273.771	8714.35
273.84	8709.11
273.909	8706.17
273.977	8704.2
274.046	8693.95
274.115	8694.53
274.184	8675.04
274.253	8659.59
274.322	8669.36
274.39	8635.9
274.459	8618.48
274.528	8599.86
274.597	8600.96
274.665	8596.2
274.734	8608.9
274.803	8597.69
274.872	8589.84
274.94	8572.42
275.009	8632.96
275.078	8621.74
275.147	8623.52
275.215	8619
275.284	8625.64
275.353	8617.75
275.421	8589.45
275.49	8608.89
275.559	8599.99
275.627	8592.15
275.696	8588.92
275.765	8589.65
275.833	8581.42
275.902	8581.76
275.971	8590.42
276.039	8606.64
276.108	8610.49
276.177	8608.61
276.245	8594.22
276.314	8590.13
276.383	8595.47
276.451	8521.85
276.52	8521.08
276.588	8535.52
276.657	8545.43
276.725	8537.35
276.794	8539.17
276.863	8554.43
276.931	8527.29
277	8529.84
277.068	8547.3
277.137	8566.17
277.205	8567.42
277.274	8587.44
277.342	8599.9
277.411	8580.22
277.48	8557.6
277.548	8549.37
277.617	8549.76
277.685	8544.13
277.754	8547.21
277.822	8540.38
277.89	8554.33
277.959	8548.66
278.027	8524.69
278.096	8509.53
278.164	8536.19
278.233	8525.7
278.301	8514.64
278.37	8520.51
278.438	8512.33
278.507	8512.42
278.575	8489.71
278.643	8483.45
278.712	8465.79
278.78	8455.15
278.849	8469.44
278.917	8487.35
278.985	8481.96
279.054	8485.57
279.122	8497.07
279.191	8496.3
279.259	8495.53
279.327	8471.22
279.396	8492.49
279.464	8494.85
279.532	8505.49
279.601	8498.89
279.669	8496.05
279.737	8505.68
279.806	8513.14
279.874	8527.82
279.942	8525.55
280.011	8520.74
280.079	8527.53
280.147	8549.28
280.215	8552.45
280.284	8548.6
280.352	8528.44
280.42	8536.81
280.488	8520.65
280.557	8513.81
280.625	8513.76
280.693	8512.46
280.761	8519.92
280.83	8501.15
280.898	8511.74
280.966	8492.01
281.034	8462.99
281.102	8451.35
281.171	8448.65
281.239	8454.62
281.307	8439.85
281.375	8425.61
281.443	8450.68
281.512	8449.33
281.58	8454.38
281.648	8434.9
281.716	8428.74
281.784	8428.64
281.852	8421.76
281.92	8427.58
281.989	8440.48
282.057	8431
282.125	8483.18
282.193	8480.1
282.261	8477.55
282.329	8471.05
282.397	8475.14
282.465	8478.75
282.533	8497.22
282.601	8483.37
282.67	8465.42
282.738	8453.58
282.806	8466.33
282.874	8454.25
282.942	8456.94
283.01	8446.93
283.078	8462.28
283.146	8463.87
283.214	8475.9
283.282	8473.45
283.35	8488.65
283.418	8478.45
283.486	8482.3
283.554	8440.52
283.622	8439.56
283.69	8439.03
283.758	8428.87
283.826	8436.91
283.894	8450.1
283.962	8466.12
284.03	8483.64
284.098	8482.05
284.165	8481.42
284.233	8478.39
284.301	8475.36
284.369	8468.19
284.437	8464.48
284.505	8449.62
284.573	8465.83
284.641	8448.99
284.709	8460.64
284.777	8441.05
284.845	8450.82
284.912	8456.83
284.98	8457.46
285.048	8456.54
285.116	8464.29
285.184	8488.4
285.252	8488.55
285.319	8470.5
285.387	8460.1
285.455	8440.43
285.523	8449.09
285.591	8446.49
285.659	8453.27
285.726	8462.95
285.794	8440.14
285.862	8434.99
285.93	8436.05
285.997	8430.9
286.065	8433.07
286.133	8423.97
286.201	8415.5
286.269	8401.6
286.336	8390.38
286.404	8383.65
286.472	8393.71
286.539	8372.39
286.607	8351.03
286.675	8349.82
286.743	8361.23
286.81	8362.81
286.878	8387.11
286.946	8380.86
287.013	8382.35
287.081	8380.14
287.149	8364.64
287.216	8392.74
287.284	8384.13
287.352	8388.26
287.419	8385.91
287.487	8405.92
287.555	8409.05
287.622	8416.27
287.69	8422.09
287.758	8432.49
287.825	8430.32
287.893	8416.27
287.96	8423.29
288.028	8437.39
288.096	8437.87
288.163	8436.43
288.231	8418.82
288.298	8410.97
288.366	8422.76
288.433	8423.48
288.501	8414.63
288.569	8415.69
288.636	8411.21
288.704	8429.35
288.771	8438.74
288.839	8427.48
288.906	8418.82
288.974	8425.26
289.041	8420.31
289.109	8412.27
289.176	8420.6
289.244	8427.24
289.311	8441.19
289.379	8450.86
289.446	8448.65
289.514	8445.43
289.581	8444.27
289.649	8453.03
289.716	8453.94
289.783	8451.97
289.851	8471.03
289.918	8474.73
289.986	8484.4
290.053	8486.71
290.121	8486.9
290.188	8489.84
290.255	8523.67
290.323	8518.86
290.39	8517.42
290.458	8525.74
290.525	8536.18
290.592	8529.73
290.66	8527.52
290.727	8516.64
290.794	8531.27
290.862	8536.42
290.929	8548.31
290.996	8552.4
291.064	8557.84
291.131	8570.16
291.198	8580.6
291.266	8576.9
291.333	8579.64
291.4	8584.21
291.468	8599.47
291.535	8591.53
291.602	8592.83
291.669	8581.8
291.737	8592.25
291.804	8592.87
291.871	8609.04
291.938	8616.65
292.006	8649.43
292.073	8665.31
292.14	8686.2
292.207	8682.63
292.275	8682.78
292.342	8693.8
292.409	8719.84
292.476	8748.29
292.543	8744.92
292.611	8745.07
292.678	8760.9
292.745	8788.48
292.812	8806.87
292.879	8808.31
292.946	8819.28
293.014	8829.05
293.081	8835.02
293.148	8843.69
293.215	8856.63
293.282	8853.22
293.349	8867.27
293.416	8849.41
293.484	8864.77
293.551	8873.77
293.618	8890.37
293.685	8918.1
293.752	8904.05
293.819	8896.35
293.886	8882.63
293.953	8886.09
294.02	8898.46
294.087	8906.69
294.154	8895.48
294.221	8906.7
294.288	8906.6
294.356	8923.16
294.423	8935.29
294.49	8928.41
294.557	8936.93
294.624	8932.07
294.691	8948.62
294.758	8952.38
294.825	8955.46
294.892	8945.01
294.959	8941.98
295.026	8947.81
295.093	8938.23
295.16	8947.95
295.226	8959.55
295.293	8985.74
295.36	8993.3
295.427	8999.8
295.494	9015.64
295.561	9030.27
295.628	9050.74
295.695	9060.9
295.762	9066.72
295.829	9073.85
295.896	9097.58
295.963	9111.06
296.03	9121.31
296.096	9123.58
296.163	9128.92
296.23	9147.99
296.297	9162.24
296.364	9169.84
296.431	9173.6
296.498	9170.95
296.564	9189.58
296.631	9190.69
296.698	9177.11
296.765	9199.21
296.832	9190.16
296.899	9175.09
296.965	9186.35
297.032	9167.52
297.099	9184.43
297.166	9191.99
297.233	9188.23
297.299	9178.26
297.366	9177.45
297.433	9177.54
297.5	9194.15
297.566	9198.68
297.633	9196.8
297.7	9202.53
297.767	9194.68
297.833	9204.36
297.9	9207.11
297.967	9194.54
298.033	9207.83
298.1	9238.22
298.167	9230.42
298.234	9238.17
298.3	9246.64
298.367	9238.84
298.434	9245.58
298.5	9236.1
298.567	9230.41
298.634	9228.01
298.7	9251.55
298.767	9252.8
298.834	9275.72
298.9	9268.36
298.967	9262.82
299.033	9277.17
299.1	9286.27
299.167	9300.33
299.233	9294.26
299.3	9306.01
299.366	9329.99
299.433	9341.25
299.5	9314.62
299.566	9314.24
299.633	9334.85
299.699	9344.24
299.766	9349.97
299.832	9354.25
299.899	9370.63
299.965	9384.06
300.032	9384.49
300.099	9389.41
300.165	9396.58
300.232	9387.91
300.298	9393.74
300.365	9401.73
300.431	9395.33
300.498	9390.32
300.564	9398.51
300.631	9410.01
300.697	9427.88
300.763	9423.26
300.83	9418.68
300.896	9432.12
300.963	9443.43
301.029	9446.08
301.096	9451.91
301.162	9467.66
301.229	9463.18
301.295	9449.07
301.361	9452.15
301.428	9457.4
301.494	9435.87
301.561	9440.74
301.627	9442.66
301.693	9440.35
301.76	9453.79
301.826	9448.06
301.892	9465.01
301.959	9476.9
302.025	9474.4
302.092	9469.54
302.158	9477
302.224	9480.52
302.291	9473.77
302.357	9469.05
302.423	9457.98
302.49	9448.25
302.556	9455.91
302.622	9460.24
302.688	9468.09
302.755	9480.37
302.821	9495.83
302.887	9516.2
302.954	9511.82
303.02	9525.35
303.086	9540.28
303.152	9531.75
303.219	9532.76
303.285	9530.93
303.351	9535.22
303.417	9543.02
303.483	9531.37
303.55	9525.45
303.616	9521.4
303.682	9518.46
303.748	9512.2
303.815	9525.83
303.881	9540.33
303.947	9521.83
304.013	9518.32
304.079	9514.95
304.145	9493.76
304.212	9486.1
304.278	9481.14
304.344	9480.18
304.41	9462.22
304.476	9445.94
304.542	9440.11
304.608	9449.12
304.674	9433.18
304.741	9425.95
304.807	9421.57
304.873	9426.72
304.939	9441.75
305.005	9429.61
305.071	9430.43
305.137	9436.21
305.203	9410.88
305.269	9408.95
305.335	9422.29
305.401	9420.08
305.467	9421.04
305.533	9435.68
305.599	9443.67
305.666	9445.7
305.732	9445.65
305.798	9457.25
305.864	9484.9
305.93	9495.78
305.996	9489.91
306.062	9494.91
306.128	9489.52
306.194	9483.36
306.259	9487.45
306.325	9475.46
306.391	9483.89
306.457	9491.69
306.523	9498.52
306.589	9530.89
306.655	9519.62
306.721	9503.44
306.787	9494.24
306.853	9506.23
306.919	9484.46
306.985	9474.11
307.051	9473.82
307.117	9469.68
307.183	9468.14
307.248	9439.58
307.314	9444.59
307.38	9445.12
307.446	9453.26
307.512	9445.36
307.578	9442.52
307.644	9435.83
307.709	9438.72
307.775	9436.45
307.841	9430.24
307.907	9428.46
307.973	9406.98
308.039	9406.83
308.104	9416.66
308.17	9416.85
308.236	9406.01
308.302	9411.6
308.368	9400.67
308.433	9391.33
308.499	9381.6
308.565	9365.38
308.631	9364.12
308.696	9341.49
308.762	9339.13
308.828	9336.92
308.894	9319.05
308.959	9300.81
309.025	9291.51
309.091	9282.32
309.156	9274.9
309.222	9277.4
309.288	9262.86
309.354	9236.82
309.419	9237.92
309.485	9222.37
309.551	9229.4
309.616	9213.66
309.682	9211.68
309.748	9206.77
309.813	9202.77
309.879	9197.72
309.945	9187.22
310.01	9184.53
310.076	9186.45
310.141	9174.8
310.207	9149.86
310.273	9152.6
310.338	9157.13
310.404	9142.01
310.469	9129.83
310.535	9124.39
310.601	9106.14
310.666	9108.69
310.732	9126.07
310.797	9115.38
310.863	9100.56
310.928	9093.67
310.994	9094.01
311.059	9088.28
311.125	9083.37
311.191	9093.72
311.256	9085.73
311.322	9095.89
311.387	9077.35
311.453	9485.66
311.518	9462.99
311.584	9464.72
311.649	9470.26
311.715	9454.95
311.78	9459.95
311.846	9453.55
311.911	9450.52
311.976	9448.21
312.042	9437.13
312.107	9420.19
312.173	9409.89
312.238	9404.64
312.304	9396.98
312.369	9386.54
312.434	9373.49
312.5	9370.27
312.565	9334.3
312.631	9333.25
312.696	9324.15
312.761	9330.02
312.827	8909.77
312.892	8946.17
312.958	8944.29
313.023	8941.45
313.088	8947.08
313.154	8931.34
313.219	8923.93
313.284	8915.99
313.35	8915.17
313.415	8905.4
313.48	8902.03
313.546	8906.07
313.611	8915.31
313.676	8905.64
313.741	8899.09
313.807	8909.44
313.872	8911.61
313.937	8924.31
314.003	8943.04
314.068	8948.24
314.133	8948.19
314.198	8939.19
314.264	8922.87
314.329	8915.69
314.394	8911.84
314.459	8912.13
314.525	8936.35
314.59	8933.51
314.655	8921.76
314.72	8925.03
314.785	8923.21
314.851	8918.83
314.916	8901.79
314.981	8886.38
315.046	8875.36
315.111	8860.39
315.176	8847.92
315.242	8850.43
315.307	8842.82
315.372	8814.47
315.437	8800.85
315.502	8791.7
315.567	8802.53
315.632	8783.42
315.698	8784.62
315.763	8778.27
315.828	8766.33
315.893	8755.31
315.958	8759.26
316.023	8752.81
316.088	8733.36
316.153	8715.41
316.218	8706.8
316.283	8688.17
316.348	8679.99
316.413	8682.83
316.479	8674.07
316.544	8640.68
316.609	8612.09
316.674	8586.88
316.739	8549.2
316.804	8521.1
316.869	8485.83
316.934	8448.05
316.999	8421.97
317.064	8369.38
317.129	8329.16
317.194	8294.76
317.259	8251.31
317.324	8192.18
317.389	8154.85
317.454	8115.98
317.518	8084.72
317.583	8062.49
317.648	8042.48
317.713	8002.94
317.778	7948.53
317.843	7920.3
317.908	7887.36
317.973	7850.95
318.038	7820.65
318.103	7790.94
318.168	7752.71
318.233	7727.99
318.297	7678.03
318.362	7644.22
318.427	7609.56
318.492	7586.48
318.557	7539.14
318.622	7508.27
318.687	7488.13
318.751	7443.43
318.816	7416.27
318.881	7381.13
318.946	7326.76
319.011	7280.81
319.075	7244.38
319.14	7204.54
319.205	7163.26
319.27	7130.78
319.335	7083.55
319.399	7045.63
319.464	7023.82
319.529	6973.09
319.594	6932.35
319.658	6906.22
319.723	6858.27
319.788	6829.36
319.853	6770.03
319.917	6740.79
319.982	6689.35
320.047	6652.94
320.112	6629.08
320.176	6574.47
320.241	6545.33
320.306	6514.98
320.37	6474.03
320.435	6441.95
320.5	6415.98
320.564	6372.39
320.629	6327.23
320.694	6301.69
320.758	6255.62
320.823	6211.46
320.888	6182.34
320.952	6136.56
321.017	6090.87
321.082	6056.95
321.146	6022.74
321.211	5996.06
321.275	5959.85
321.34	5915.58
321.405	5872.89
321.469	5825.36
321.534	5785.61
321.598	5731.56
321.663	5700.76
321.727	5667.39
321.792	5616.51
321.857	5571.96
321.921	5539.7
321.986	5495.85
322.05	5434.65
322.115	5400.57
322.179	5353.37
322.244	5307.23
322.308	5273.73
322.373	5230.37
322.437	5186.53
322.502	5160.98
322.566	5113.02
322.631	5075.52
322.695	5038.45
322.76	4994.58
322.824	4963.12
322.889	4926.25
322.953	4885.23
323.018	4822.21
323.082	4759.8
323.146	4709.64
323.211	4657.86
323.275	4612
323.34	4572.91
323.404	4541.25
323.468	4496.26
323.533	4456.32
323.597	4407.98
323.662	4354.26
323.726	4318.19
323.79	4269.03
323.855	4201.81
323.919	4153.62
323.983	4108.05
324.048	4040.92
324.112	4196.77
324.177	4066.42
324.241	3852.96
324.305	3646.43
324.37	3441.39
324.434	3249.78
324.498	3207.77
324.562	3158.43
324.627	3097.53
324.691	3040.52
324.755	2974.93
324.82	2896.78
324.884	2817.65
324.948	2748.18
325.012	2656.02
325.077	2533.33
