Data from 20250704_urea_0.5M_MAYP1162681_11-05-21-764.txt Node
Date: Fri Jul 04 11:05:21 BST 2025
User: adleo
Spectrometer: MAYP116268
Trigger mode: 0
Integration Time (sec): 1.000000E0
Scans to average: 1
Electric dark correction enabled: true
Nonlinearity correction enabled: true
Boxcar width: 10
XAxis mode: Wavelengths
Number of Pixels in Spectrum: 2068
>>>>>Begin Spectral Data<<<<<
179.565	1232.09
179.642	1291.64
179.718	1340.81
179.795	1376.46
179.871	1411.42
179.948	1430.9
180.024	1450.74
180.101	1472.63
180.177	1486.66
180.254	1510.56
180.33	1533.95
180.407	1590.45
180.483	1689.46
180.56	1781.73
180.636	1867.8
180.712	1856.73
180.789	1867.8
180.865	1880.01
180.942	1886.43
181.018	1897.41
181.095	1911.49
181.171	1917.91
181.248	1919
181.324	1931.8
181.4	1941.3
181.477	1951.39
181.553	1964.36
181.63	1984.38
181.706	2000.6
181.782	2011.39
181.859	2011.58
181.935	2015.29
182.011	2009.25
182.088	2024.89
182.164	2046.54
182.24	2060.33
182.317	2071.03
182.393	2071.03
182.469	2084.82
182.546	2099.56
182.622	2104.89
182.698	2096.95
182.775	2109.79
182.851	2124.06
182.927	2116.88
183.003	2112.84
183.08	2108.22
183.156	2115.93
183.232	2116.07
183.308	2106.23
183.385	2114.45
183.461	2133.29
183.537	2134.15
183.613	2147.9
183.69	2139.28
183.766	2125.72
183.842	2134.33
183.918	2138.95
183.995	2150.46
184.071	2157.26
184.147	2153.32
184.223	2143.14
184.299	2157.36
184.375	2146.52
184.452	2153.13
184.528	2203.28
184.604	2213.99
184.68	2223.5
184.756	2230.78
184.832	2234.54
184.908	2239.29
184.985	2238.82
185.061	2219.41
185.137	2231.11
185.213	2221.03
185.289	2222.55
185.365	2218.03
185.441	2216.13
185.517	2228.79
185.593	2224.32
185.669	2217.65
185.745	2228.03
185.822	2242.06
185.898	2233.78
185.974	2241.44
186.05	2232.3
186.126	2200.8
186.202	2194.9
186.278	2192.14
186.354	2183.34
186.43	2187.67
186.506	2182.92
186.582	2180.87
186.658	2189.48
186.734	2169.21
186.81	2173.78
186.886	2174.64
186.962	2184.34
187.038	2181.15
187.114	2172.92
187.19	2179.82
187.266	2168.92
187.341	2170.78
187.417	2163.93
187.493	2164.22
187.569	2167.12
187.645	2159.03
187.721	2144.9
187.797	2153.13
187.873	2158.79
187.949	2155.55
188.025	2150.7
188.101	2157.79
188.176	2162.21
188.252	2157.36
188.328	2164.87
188.404	2164.02
188.48	2162.07
188.556	2156.26
188.632	2156.93
188.707	2158.83
188.783	2158.07
188.859	2156.88
188.935	2145.6
189.011	2156.02
189.086	2148.32
189.162	2140.42
189.238	2140.47
189.314	2138.85
189.39	2130.76
189.465	2122.01
189.541	2137.57
189.617	2125.39
189.693	2118.78
189.768	2123.2
189.844	2150.09
189.92	2140.44
189.996	2148.82
190.071	2158.28
190.147	2157.76
190.223	2165.04
190.298	2155.62
190.374	2143.11
190.45	2155.66
190.526	2163.04
190.601	2153
190.677	2158.14
190.753	2187.89
190.828	2191.7
190.904	2207.45
190.98	2222.67
191.055	2234.33
191.131	2225.1
191.207	2244.99
191.282	2253.93
191.358	2243.75
191.433	2225.28
191.509	2242.45
191.585	2239.54
191.66	2239.02
191.736	2247.73
191.811	2239.97
191.887	2257.48
191.963	2280.37
192.038	2282.99
192.114	2282.94
192.189	2291.46
192.265	2286.56
192.34	2262.71
192.416	2261.28
192.491	2253.9
192.567	2259.57
192.642	2261.8
192.718	2261.19
192.793	2244.44
192.869	2241.44
192.944	2242.96
193.02	2253
193.095	2254.38
193.171	2260.38
193.246	2261.57
193.322	2256.95
193.397	2255.81
193.473	2242.44
193.548	2224.64
193.624	2230.35
193.699	2232.25
193.775	2247.53
193.85	2247.34
193.925	2256.86
194.001	2255.39
194.076	2247.96
194.152	2233.73
194.227	2225.93
194.302	2220.27
194.378	2228.69
194.453	2227.02
194.529	2240.77
194.604	2224.5
194.679	2220.07
194.755	2200.14
194.83	2212.9
194.905	2212.28
194.981	2221.99
195.056	2213.71
195.131	2222.94
195.207	2222.75
195.282	2208.39
195.357	2189.77
195.433	2205.38
195.508	2195.43
195.583	2202.8
195.659	2216.99
195.734	2224.7
195.809	2223.65
195.884	2228.98
195.96	2228.79
196.035	2242.78
196.11	2239.87
196.185	2253.05
196.261	2256.1
196.336	2287.84
196.411	2273.32
196.486	2277.65
196.561	2270.84
196.637	2279.21
196.712	2292.55
196.787	2295.59
196.862	2313.29
196.937	2324.52
197.013	2330.28
197.088	2336.04
197.163	2360.51
197.238	2380.33
197.313	2381.62
197.388	2395.66
197.464	2426.04
197.539	2438.65
197.614	2433.42
197.689	2443.79
197.764	2461.6
197.839	2482.32
197.914	2477.12
197.989	2501.55
198.065	2515.64
198.14	2565.43
198.215	2596.29
198.29	2605.68
198.365	2620.49
198.44	2630.92
198.515	2658.07
198.59	2676.46
198.665	2703.04
198.74	2713.14
198.815	2715.43
198.89	2739.15
198.965	2773.18
199.04	2770.56
199.115	2782.14
199.19	2824.4
199.265	2827.44
199.34	2835.16
199.415	2869.64
199.49	2889.55
199.565	2897.89
199.64	2924.77
199.715	2922.82
199.79	2926.39
199.865	2937.83
199.94	2932.31
200.015	2963.72
200.09	2967.97
200.165	2974.26
200.24	2982.32
200.315	3021.78
200.39	3036.28
200.464	3043.43
200.539	3044.53
200.614	3062.45
200.689	3087.48
200.764	3098.84
200.839	3122
200.914	3132.01
200.989	3119.23
201.063	3132.77
201.138	3115.71
201.213	3112.66
201.288	3094.06
201.363	3103.32
201.438	3100.5
201.512	3118.47
201.587	3104.02
201.662	3109.17
201.737	3124.15
201.812	3132.02
201.886	3096.65
201.961	3104.14
202.036	3093.27
202.111	3085.4
202.186	3053.47
202.26	3042.07
202.335	3016.22
202.41	3005.78
202.485	2986
202.559	2966.84
202.634	2943.05
202.709	2952.34
202.784	2932.32
202.858	2933.7
202.933	2911.87
203.008	2907.06
203.082	2886.66
203.157	2882.56
203.232	2837.63
203.306	2813.55
203.381	2782.71
203.456	2759.89
203.53	2739.47
203.605	2716.33
203.68	2695.45
203.754	2689.74
203.829	2670.06
203.904	2646.91
203.978	2637.38
204.053	2640.62
204.127	2628.85
204.202	2626.76
204.277	2611.8
204.351	2604.66
204.426	2595.7
204.5	2586.94
204.575	2549.7
204.65	2561.47
204.724	2552.51
204.799	2562.13
204.873	2558.65
204.948	2557.79
205.022	2545.03
205.097	2535.79
205.171	2550.69
205.246	2561.31
205.32	2560.03
205.395	2558.41
205.469	2552.6
205.544	2559.42
205.618	2542.18
205.693	2554.51
205.767	2541.66
205.842	2562.38
205.916	2557.95
205.991	2548.38
206.065	2552.43
206.14	2573.41
206.214	2568.13
206.289	2563.03
206.363	2577.79
206.438	2580.99
206.512	2584.7
206.586	2607.46
206.661	2616.14
206.735	2594.52
206.81	2594.1
206.884	2611.95
206.958	2603.48
207.033	2624.76
207.107	2633.86
207.181	2673.89
207.256	2671.13
207.33	2695.71
207.405	2711.02
207.479	2738.84
207.553	2755.56
207.628	2749.94
207.702	2769.33
207.776	2773.67
207.851	2790.58
207.925	2813.57
207.999	2824.72
208.073	2842.07
208.148	2858.23
208.222	2863.28
208.296	2915.98
208.371	2954.67
208.445	2993.44
208.519	3045.69
208.593	3082.03
208.668	3104.21
208.742	3126.36
208.816	3161.65
208.89	3210.42
208.965	3246.18
209.039	3293.83
209.113	3354.49
209.187	3422.22
209.261	3463.89
209.336	3535.36
209.41	3608.62
209.484	3670.31
209.558	3755.83
209.632	3828.25
209.707	3910.39
209.781	4007.03
209.855	4095.25
209.929	4187.75
210.003	4270.97
210.077	4354.87
210.151	4492.23
210.226	4623.59
210.3	4753.05
210.374	4874.27
210.448	4982.22
210.522	5101.8
210.596	5223.07
210.67	5346.42
210.744	5514.16
210.818	5665.74
210.892	5808.65
210.966	5932.95
211.041	6081.48
211.115	6212.19
211.189	6384.72
211.263	6536.89
211.337	6685.39
211.411	6855.48
211.485	7000.92
211.559	7166.21
211.633	7330.21
211.707	7464.36
211.781	7635.33
211.855	7766.9
211.929	7934.31
212.003	8088.85
212.077	8273.25
212.151	8463.36
212.225	8650.45
212.299	8815.81
212.373	8983.72
212.447	9163.29
212.52	9378.92
212.594	9572.74
212.668	9766.41
212.742	9933.25
212.816	10120.12
212.89	10303.01
212.964	10487.78
213.038	10685.8
213.112	10900.93
213.186	11109.56
213.26	11279.56
213.333	11427.84
213.407	11629.51
213.481	11826.28
213.555	12028.73
213.629	12209.77
213.703	12389.95
213.777	12576.92
213.85	12755.89
213.924	12992.42
213.998	13187.35
214.072	13375.45
214.146	13549.22
214.219	13737.8
214.293	13925.46
214.367	14118.52
214.441	14318.61
214.515	14495.23
214.588	14656.67
214.662	14795.93
214.736	14952.1
214.81	15134.99
214.883	15315.46
214.957	15470.91
215.031	15622.51
215.105	15775.45
215.178	15928.58
215.252	16081.13
215.326	16225.39
215.4	16359.05
215.473	16471.78
215.547	16610.92
215.621	16748.71
215.694	16897
215.768	17028.72
215.842	17162.94
215.915	17292.49
215.989	17412.05
216.063	17541.84
216.136	17683.76
216.21	17819.38
216.284	17962.32
216.357	18098.75
216.431	18231.8
216.504	18376.43
216.578	18532.13
216.652	18670.73
216.725	18792.89
216.799	18927.63
216.873	19045.07
216.946	19174.46
217.02	19279.23
217.093	19386.89
217.167	19460.23
217.24	19555.6
217.314	19649.91
217.387	19750.87
217.461	19842.77
217.535	19945.08
217.608	20026.91
217.682	20110.57
217.755	20213.27
217.829	20294.08
217.902	20383.19
217.976	20461.02
218.049	20523
218.123	20587.53
218.196	20668.35
218.27	20736.89
218.343	20790.87
218.417	20867.83
218.49	20935.98
218.563	21027.41
218.637	21098.98
218.71	21214.23
218.784	21288.84
218.857	21376.8
218.931	21445.87
219.004	21526.89
219.077	21599.29
219.151	21674.72
219.224	21737.14
219.298	21797.59
219.371	21872.3
219.444	21913.37
219.518	21988.86
219.591	22054.41
219.665	22144.47
219.738	22201.16
219.811	22253.55
219.885	22326.59
219.958	22394.61
220.031	22437.66
220.105	22483.17
220.178	22536.78
220.251	22561.89
220.325	22618.35
220.398	22659.14
220.471	22706.58
220.544	22740.61
220.618	22775.86
220.691	22818.57
220.764	22858.83
220.838	22899.52
220.911	22929.85
220.984	22984.77
221.057	23009.6
221.131	23050.48
221.204	23038.38
221.277	23076.04
221.35	23136.55
221.424	23152.75
221.497	23172.52
221.57	23204.59
221.643	23234.92
221.716	23262.4
221.79	23273.45
221.863	23288.2
221.936	23301.51
222.009	23321.09
222.082	23336.37
222.155	23347.37
222.229	23363.18
222.302	23384.26
222.375	23392.5
222.448	23409.28
222.521	23415.99
222.594	23425.1
222.667	23421.44
222.74	23449.84
222.814	23456.69
222.887	23452.1
222.96	23465.9
223.033	23481.23
223.106	23488.47
223.179	23498.11
223.252	23499.9
223.325	23509.83
223.398	23507.42
223.471	23517.93
223.544	23519.09
223.617	23522.61
223.69	23520.68
223.763	23505.92
223.837	23496.13
223.91	23498.98
223.983	23468.12
224.056	23452.4
224.129	23452.2
224.202	23462.19
224.275	23445.26
224.348	23426.74
224.42	23406.49
224.493	23379.63
224.566	23358.6
224.639	23351.8
224.712	23335.17
224.785	23312.45
224.858	23289.55
224.931	23270.26
225.004	23238.48
225.077	23220.31
225.15	23183.95
225.223	23167.6
225.296	23180.82
225.369	23147.74
225.442	23116.2
225.514	23111.67
225.587	23108.35
225.66	23091.37
225.733	23062.44
225.806	23042.19
225.879	23023.92
225.952	22988.86
226.025	22978.98
226.097	22977.15
226.17	22958.87
226.243	22913.31
226.316	22896.58
226.389	22889.73
226.461	22873.39
226.534	22860.42
226.607	22839.11
226.68	22848.41
226.753	22832.12
226.825	22780.91
226.898	22784.43
226.971	22763.17
227.044	22750.3
227.117	22722.77
227.189	22703.38
227.262	22700.59
227.335	22690.51
227.407	22666.21
227.48	22657.92
227.553	22637.86
227.626	22598.47
227.698	22575.91
227.771	22558.99
227.844	22529.48
227.916	22495.16
227.989	22475.2
228.062	22446.13
228.134	22442.42
228.207	22411.66
228.28	22374.25
228.352	22357.48
228.425	22331.15
228.498	22324.21
228.57	22281.79
228.643	22267.81
228.716	22236.52
228.788	22210.01
228.861	22173.8
228.934	22156.64
229.006	22126.9
229.079	22095.71
229.151	22066.55
229.224	22023.36
229.296	22010.63
229.369	22009.28
229.442	22001.95
229.514	21958.86
229.587	21950.23
229.659	21897.69
229.732	21873.93
229.804	21862.79
229.877	21865.15
229.949	21856.48
230.022	21848.23
230.094	21828.28
230.167	21801.96
230.239	21769.57
230.312	21745.13
230.384	21741.51
230.457	21713.6
230.529	21696.83
230.602	21678.47
230.674	21666.42
230.747	21657.02
230.819	21635.91
230.892	21581.97
230.964	21564.18
231.037	21544.52
231.109	21507.74
231.181	21497.72
231.254	21461.38
231.326	21430.53
231.399	21391.53
231.471	21353.26
231.544	21295.95
231.616	21269.01
231.688	21243.18
231.761	21206.07
231.833	21156.47
231.905	21104.13
231.978	21076.17
232.05	21042.39
232.122	21006.63
232.195	20956.84
232.267	20935.15
232.339	20906.48
232.412	20888.84
232.484	20846.57
232.556	20813.7
232.629	20811.96
232.701	20787.24
232.773	20760.4
232.846	20724.35
232.918	20700.01
232.99	20670.42
233.062	20650.95
233.135	20639.28
233.207	20591.57
233.279	20568.53
233.351	20552.2
233.424	20520.82
233.496	20483.81
233.568	20468.2
233.64	20429.26
233.713	20407.48
233.785	20372.73
233.857	20332.01
233.929	20291.19
234.001	20277.6
234.074	20253.65
234.146	20194.61
234.218	20167.81
234.29	20125.98
234.362	20091.48
234.434	20037.84
234.507	19984.69
234.579	19936.4
234.651	19895.39
234.723	19870.33
234.795	19850.47
234.867	19806.91
234.939	19784.07
235.012	19763.3
235.084	19738.67
235.156	19723.01
235.228	19677.95
235.3	19637.52
235.372	19610.73
235.444	19590.73
235.516	19530.78
235.588	19506.92
235.66	19477.19
235.732	19421.1
235.804	19457.53
235.876	19437.48
235.948	19413.44
236.02	19392.52
236.092	19355.99
236.164	19320.58
236.236	19289.06
236.308	19240.87
236.38	19216.39
236.452	19172.54
236.524	19129.74
236.596	19103.77
236.668	19073.75
236.74	19046.47
236.812	19016.45
236.884	18983.78
236.956	18952.94
237.028	18909.47
237.1	18854.87
237.172	18844.03
237.244	18831.74
237.316	18748.61
237.388	18704.23
237.46	18663.36
237.532	18635.65
237.604	18599.8
237.675	18577.15
237.747	18550.07
237.819	18511.51
237.891	18473.2
237.963	18433.21
238.035	18389.54
238.107	18315.57
238.178	18284.06
238.25	18241.26
238.322	18235.14
238.394	18187.53
238.466	18149.56
238.538	18130.71
238.609	18108.93
238.681	18043.97
238.753	17996.89
238.825	17963.11
238.897	17934.48
238.968	17914.34
239.04	17868.36
239.112	17862.82
239.184	17813.76
239.255	17768.75
239.327	17739.21
239.399	17705.04
239.471	17684.7
239.542	17656.51
239.614	17650
239.686	17594.83
239.758	17575.64
239.829	17516.61
239.901	17488.08
239.973	17445.62
240.044	17416.56
240.116	17381.38
240.188	17348.32
240.259	17315.79
240.331	17278.49
240.403	17247.89
240.474	17208.99
240.546	17175.64
240.618	17115.4
240.689	17080.51
240.761	17055.35
240.833	17045.42
240.904	17009.62
240.976	16974.96
241.048	16952.07
241.119	16921.76
241.191	16892.89
241.262	16882.09
241.334	16853.51
241.405	16827.83
241.477	16791.39
241.549	16754.66
241.62	16718.28
241.692	16692.83
241.763	16674.47
241.835	16634.99
241.906	16600.82
241.978	16554.89
242.049	16532.34
242.121	16519.32
242.192	16498.26
242.264	16445.34
242.335	16388.32
242.407	16368.8
242.478	16334.44
242.55	16295.78
242.621	16251.39
242.693	16221.13
242.764	16174.04
242.836	16139.38
242.907	16107.96
242.979	16086.41
243.05	16057.98
243.122	16035.9
243.193	16003.03
243.264	15948.42
243.336	15919.21
243.407	15891.45
243.479	15861.85
243.55	15829.42
243.622	15798.57
243.693	15764.06
243.764	15750.61
243.836	15708.14
243.907	15669.58
243.978	15628.81
244.05	15603.55
244.121	15558.05
244.192	15538.28
244.264	15491.48
244.335	15459.04
244.407	15411.18
244.478	15377.82
244.549	15342.3
244.62	15295.3
244.692	15267.49
244.763	15242.33
244.834	15204.05
244.906	15173.06
244.977	15157.73
245.048	15138.55
245.119	15093.82
245.191	15057.66
245.262	15006.18
245.333	14989.99
245.405	14957.88
245.476	14933.2
245.547	14913.68
245.618	14901.68
245.689	14860.56
245.761	14830.58
245.832	14799.05
245.903	14775.19
245.974	14750.51
246.045	14724.48
246.117	14718.55
246.188	14671.89
246.259	14635.16
246.33	14604.5
246.401	14572.54
246.473	14528.33
246.544	14490.64
246.615	14476.18
246.686	14443.35
246.757	14426.24
246.828	14390.13
246.899	14382.8
246.97	14337.73
247.042	14294.39
247.113	14264.31
247.184	14260.55
247.255	14232.98
247.326	14204.93
247.397	14180.87
247.468	14154.26
247.539	14127.56
247.61	14079.69
247.681	14064.6
247.752	14047.24
247.823	14014.17
247.894	13983.42
247.965	13947.6
248.037	13918.39
248.108	13875.2
248.179	13844.44
248.25	13822.55
248.321	13803.61
248.392	13760.32
248.463	13757.67
248.534	13727.68
248.605	13706.23
248.675	13676.49
248.746	13658.07
248.817	13642.79
248.888	13624.81
248.959	13578.92
249.03	13554.48
249.101	13535.63
249.172	13502.08
249.243	13446.69
249.314	13443.02
249.385	13425.57
249.456	13404.56
249.527	13378.86
249.598	13361.89
249.669	13345.31
249.739	13324.82
249.81	13303.32
249.881	13261.38
249.952	13239.74
250.023	13218.24
250.094	13178.8
250.165	13143.47
250.235	13114.83
250.306	13086.44
250.377	13049.27
250.448	13034.57
250.519	12983.47
250.59	12981.35
250.66	12958.45
250.731	12966.07
250.802	12938.64
250.873	12921.05
250.944	12903.11
251.014	12872.79
251.085	12874.19
251.156	12851.82
251.227	12839.14
251.297	12837.79
251.368	12838.18
251.439	12831.24
251.51	12819.48
251.58	12789.54
251.651	12764.33
251.722	12752.86
251.792	12712.8
251.863	12684.7
251.934	12676.36
252.005	12689.27
252.075	12665.17
252.146	12663.05
252.217	12652.59
252.287	12637.31
252.358	12611.23
252.429	12608.82
252.499	12582.31
252.57	12554.88
252.641	12540.56
252.711	12519.83
252.782	12475.34
252.852	12463.1
252.923	12433.93
252.994	12415.81
253.064	12409.54
253.135	12377.1
253.205	12356.71
253.276	12359.17
253.347	12364.52
253.417	12338.63
253.488	12310.97
253.558	12276.93
253.629	12252.35
253.699	12234.37
253.77	12225.26
253.841	12200.87
253.911	12182.79
253.982	12171.13
254.052	12159.56
254.123	12145.1
254.193	12128.28
254.264	12149.82
254.334	12123.89
254.405	12092.51
254.475	12061.66
254.546	12033.03
254.616	12033.32
254.687	12017.99
254.757	12008.3
254.827	11982.66
254.898	11969.36
254.968	11958.46
255.039	11938.08
255.109	11924.05
255.18	11891.71
255.25	11847.07
255.321	11845.05
255.391	11813.86
255.461	11815.07
255.532	11772.6
255.602	11749.03
255.673	11705.03
255.743	11677.99
255.813	11632.15
255.884	11628.11
255.954	11614.85
256.024	11620.25
256.095	11601.55
256.165	11572.29
256.235	11552.39
256.306	11531.37
256.376	11519.32
256.446	11500.62
256.517	11490.74
256.587	11484.14
256.657	11477.78
256.728	11469.68
256.798	11448.09
256.868	11427.51
256.938	11397.91
257.009	11389.53
257.079	11380.95
257.149	11398.35
257.219	11353
257.29	11346.92
257.36	11307.94
257.43	11301.29
257.5	11260.9
257.571	11231.12
257.641	11211.84
257.711	11181.29
257.781	11168.71
257.852	11153.86
257.922	11122.25
257.992	11103.07
258.062	11080.85
258.132	11066.97
258.202	11041.38
258.273	11024.66
258.343	11026.4
258.413	11005.53
258.483	10989.05
258.553	10959.56
258.623	10932.66
258.693	10923.07
258.764	10920.28
258.834	10923.17
258.904	10903.89
258.974	10882.07
259.044	10868.72
259.114	10858.84
259.184	10848.82
259.254	10825.16
259.324	10789.45
259.394	10785.74
259.464	10785.26
259.535	10769.41
259.605	10747.1
259.675	10725.99
259.745	10708.69
259.815	10673.71
259.885	10648.46
259.955	10660.17
260.025	10636.85
260.095	10620.28
260.165	10614.4
260.235	10615.94
260.305	10586.65
260.375	10564.19
260.445	10572.67
260.515	10574.79
260.585	10574.21
260.655	10559.04
260.725	10557.25
260.795	10558.17
260.865	10553.21
260.934	10527.19
261.004	10510.08
261.074	10498.71
261.144	10500.83
261.214	10495.63
261.284	10480.64
261.354	10482.96
261.424	10456.11
261.494	10465.89
261.564	10443.15
261.634	10432.22
261.703	10393.24
261.773	10390.73
261.843	10382.98
261.913	10365.25
261.983	10331.24
262.053	10319.24
262.123	10307
262.192	10281.52
262.262	10275.25
262.332	10250.83
262.402	10250.68
262.472	10241.43
262.541	10202.9
262.611	10197.79
262.681	10170.62
262.751	10171.15
262.821	10149.9
262.89	10117.58
262.96	10099.99
263.03	10113.19
263.1	10109.15
263.169	10103.7
263.239	10097.68
263.309	10101.44
263.379	10099.08
263.448	10089.16
263.518	10080.73
263.588	10069.7
263.657	10070.95
263.727	10064.2
263.797	10048.02
263.867	10025.42
263.936	9999.8
264.006	10007.07
264.076	9991.95
264.145	9980.58
264.215	9958.61
264.285	9953.36
264.354	9929.43
264.424	9909.82
264.494	9876.25
264.563	9851.44
264.633	9863.67
264.702	9849.42
264.772	9818.06
264.842	9796.48
264.911	9790.46
264.981	9764.98
265.05	9750.38
265.12	9730.68
265.19	9714.74
265.259	9713.44
265.329	9705.64
265.398	9692.49
265.468	9702.65
265.537	9683.24
265.607	9684.25
265.676	9680.35
265.746	9673.08
265.815	9673.76
265.885	9661.38
265.955	9640.96
266.024	9623.29
266.094	9585.86
266.163	9590.39
266.232	9590.25
266.302	9578.35
266.371	9570.89
266.441	9560.15
266.51	9555.04
266.58	9541.56
266.649	9520.27
266.719	9515.21
266.788	9509.24
266.858	9521.91
266.927	9487.76
266.996	9482.95
267.066	9471.82
267.135	9445.96
267.205	9442.59
267.274	9431.13
267.343	9431.71
267.413	9425.6
267.482	9432.68
267.552	9432.63
267.621	9398.39
267.69	9371.9
267.76	9360.44
267.829	9356.98
267.898	9346.14
267.968	9323.13
268.037	9323.27
268.106	9320.24
268.176	9292.74
268.245	9280.37
268.314	9263.42
268.384	9259.61
268.453	9247.09
268.522	9230.19
268.592	9239.87
268.661	9217.67
268.73	9211.99
268.799	9197.45
268.869	9209.92
268.938	9182.33
269.007	9162.01
269.076	9155.08
269.146	9157.63
269.215	9153.16
269.284	9153.97
269.353	9136.31
269.422	9126.87
269.492	9105.4
269.561	9070.98
269.63	9076.13
269.699	9054.27
269.768	9039.59
269.838	9033.62
269.907	9031.64
269.976	9013.06
270.045	8974.84
270.114	8976.33
270.183	8966.8
270.253	8959
270.322	8922.47
270.391	8914.52
270.46	8921.98
270.529	8919.58
270.598	8915.77
270.667	8900.95
270.736	8876.25
270.806	8869.66
270.875	8871.24
270.944	8859.26
271.013	8879.24
271.082	8864.89
271.151	8866.29
271.22	8843.37
271.289	8832.21
271.358	8820.94
271.427	8820.03
271.496	8819.07
271.565	8802.36
271.634	8793.12
271.703	8822.78
271.772	8829.9
271.841	8819.46
271.91	8797.41
271.979	8792.02
272.048	8769.93
272.117	8772
272.186	8756.6
272.255	8759.58
272.324	8758.47
272.393	8755.54
272.462	8741.87
272.531	8737.77
272.6	8729.54
272.669	8732.43
272.738	8718.76
272.807	8713.81
272.876	8689.41
272.945	8717.42
273.013	8721.95
273.082	8727.38
273.151	8680.21
273.22	8680.16
273.289	8672.36
273.358	8684.11
273.427	8674.29
273.496	8676.98
273.564	8669.43
273.633	8676.12
273.702	8653.69
273.771	8639.2
273.84	8639.49
273.909	8637.18
273.977	8631.74
274.046	8617.26
274.115	8624.67
274.184	8612.59
274.253	8604.12
274.322	8617.83
274.39	8583.04
274.459	8567.64
274.528	8537.37
274.597	8526.88
274.665	8520.43
274.734	8530.92
274.803	8518.21
274.872	8507.34
274.94	8489.68
275.009	8552.51
275.078	8541.01
275.147	8545.77
275.215	8539.13
275.284	8546.83
275.353	8535.71
275.421	8512.19
275.49	8534.95
275.559	8519.21
275.627	8516.71
275.696	8509.45
275.765	8508.53
275.833	8503.14
275.902	8499.87
275.971	8514.11
276.039	8528.6
276.108	8531.68
276.177	8521.76
276.245	8508.05
276.314	8502.37
276.383	8512.33
276.451	8445.12
276.52	8446.32
276.588	8455.37
276.657	8462.15
276.725	8451.23
276.794	8451.76
276.863	8468.94
276.931	8441.79
277	8453.73
277.068	8466.04
277.137	8487.94
277.205	8486.35
277.274	8503.68
277.342	8518.64
277.411	8500.6
277.48	8489.72
277.548	8477.84
277.617	8480.77
277.685	8478.22
277.754	8484.38
277.822	8477.31
277.89	8495.65
277.959	8488.96
278.027	8470.19
278.096	8465.43
278.164	8492.38
278.233	8487.28
278.301	8476.07
278.37	8479.68
278.438	8460.43
278.507	8456.68
278.575	8429.39
278.643	8421.64
278.712	8405.09
278.78	8386.23
278.849	8392.1
278.917	8399.65
278.985	8391.61
279.054	8391.33
279.122	8403.74
279.191	8399.51
279.259	8395.8
279.327	8367.79
279.396	8381.31
279.464	8381.12
279.532	8383.05
279.601	8373.47
279.669	8374.86
279.737	8384.73
279.806	8387.52
279.874	8403.11
279.942	8405.32
280.011	8403.3
280.079	8413.4
280.147	8428.37
280.215	8431.59
280.284	8426.54
280.352	8412.59
280.42	8416.82
280.488	8411
280.557	8400.03
280.625	8407.92
280.693	8409.27
280.761	8416.53
280.83	8398.97
280.898	8408.83
280.966	8396.51
281.034	8368.65
281.102	8344.12
281.171	8343.11
281.239	8352.11
281.307	8348.06
281.375	8330.99
281.443	8354.18
281.512	8348.6
281.58	8354.81
281.648	8343.88
281.716	8349.22
281.784	8353.7
281.852	8353.46
281.92	8351.68
281.989	8366.93
282.057	8345.57
282.125	8385.28
282.193	8380.47
282.261	8387.44
282.329	8381.96
282.397	8380.71
282.465	8379.55
282.533	8396.53
282.601	8383.4
282.67	8361.69
282.738	8349.42
282.806	8363.09
282.874	8349.56
282.942	8350.33
283.01	8346.34
283.078	8354.52
283.146	8352.26
283.214	8360.63
283.282	8363.23
283.35	8375.26
283.418	8364
283.486	8371.41
283.554	8330.93
283.622	8334.35
283.69	8327.8
283.758	8327.95
283.826	8336.51
283.894	8354.12
283.962	8376.69
284.03	8395.5
284.098	8397.38
284.165	8392.57
284.233	8397.29
284.301	8394.11
284.369	8393.05
284.437	8383.76
284.505	8373.85
284.573	8393.77
284.641	8379.53
284.709	8390.7
284.777	8373.71
284.845	8378.57
284.912	8387.71
284.98	8394.35
285.048	8383.86
285.116	8392.76
285.184	8403.3
285.252	8400.94
285.319	8380.01
285.387	8364.66
285.455	8347.24
285.523	8351.29
285.591	8346.62
285.659	8345.85
285.726	8351.19
285.794	8333.82
285.862	8328.77
285.93	8330.02
285.997	8317.75
286.065	8315.59
286.133	8298.21
286.201	8296.68
286.269	8283.78
286.336	8273.05
286.404	8263.77
286.472	8277.72
286.539	8255.35
286.607	8240.96
286.675	8241.39
286.743	8248.75
286.81	8247.79
286.878	8259.72
286.946	8253.47
287.013	8255.68
287.081	8251.16
287.149	8242.02
287.216	8265.3
287.284	8261.31
287.352	8266.6
287.419	8259.91
287.487	8276.13
287.555	8286.43
287.622	8287.58
287.69	8298.07
287.758	8311.21
287.825	8306.83
287.893	8294.08
287.96	8306.25
288.028	8317.46
288.096	8320.06
288.163	8326.99
288.231	8317.99
288.298	8313.8
288.366	8332.76
288.433	8334.11
288.501	8330.5
288.569	8336.22
288.636	8327.32
288.704	8346.67
288.771	8353.59
288.839	8349.46
288.906	8341.76
288.974	8352.44
289.041	8346.38
289.109	8332.62
289.176	8340.99
289.244	8352.93
289.311	8360.96
289.379	8365.44
289.446	8363.13
289.514	8361.1
289.581	8364.14
289.649	8367.94
289.716	8370.58
289.783	8361.1
289.851	8381.12
289.918	8382.37
289.986	8382.61
290.053	8389.3
290.121	8379.96
290.188	8380.93
290.255	8410.81
290.323	8407.53
290.39	8389.68
290.458	8398.77
290.525	8416.43
290.592	8408.44
290.66	8406.33
290.727	8407.19
290.794	8421.92
290.862	8426.3
290.929	8432.17
290.996	8427.31
291.064	8434.62
291.131	8452.09
291.198	8460.99
291.266	8459.02
291.333	8458.35
291.4	8470.47
291.468	8484.33
291.535	8488.9
291.602	8492.03
291.669	8482.17
291.737	8487.55
291.804	8498.48
291.871	8515.32
291.938	8522.2
292.006	8556.38
292.073	8567.83
292.14	8575.43
292.207	8567.83
292.275	8567.64
292.342	8576.01
292.409	8601.47
292.476	8633
292.543	8622.41
292.611	8624.48
292.678	8640.36
292.745	8667.74
292.812	8672.56
292.879	8671.79
292.946	8669.14
293.014	8682.86
293.081	8694.5
293.148	8708.51
293.215	8722.03
293.282	8715.63
293.349	8723.48
293.416	8701.43
293.484	8713.75
293.551	8726.12
293.618	8745.13
293.685	8770.79
293.752	8766.98
293.819	8761.83
293.886	8742.96
293.953	8746.76
294.02	8757.26
294.087	8763.32
294.154	8760.63
294.221	8779.31
294.288	8776.61
294.356	8803.18
294.423	8806.4
294.49	8798.51
294.557	8810.11
294.624	8800
294.691	8817.57
294.758	8816.66
294.825	8824.65
294.892	8818.2
294.959	8821.28
295.026	8826.43
295.093	8819.64
295.16	8823.1
295.226	8828.74
295.293	8855.79
295.36	8866.48
295.427	8885.2
295.494	8898.83
295.561	8907.73
295.628	8923.19
295.695	8938.74
295.762	8932.09
295.829	8945
295.896	8958.67
295.963	8966.47
296.03	8978.59
296.096	8989.09
296.163	9006.56
296.23	9024.76
296.297	9036.75
296.364	9035.11
296.431	9042.28
296.498	9043.44
296.564	9065.68
296.631	9063.22
296.698	9049.17
296.765	9063.27
296.832	9042.76
296.899	9028.03
296.965	9044.02
297.032	9026.97
297.099	9044.4
297.166	9053.26
297.233	9047.43
297.299	9044.4
297.366	9045.94
297.433	9050.51
297.5	9060.82
297.566	9058.17
297.633	9051.04
297.7	9053.64
297.767	9056.53
297.833	9058.31
297.9	9052.73
297.967	9035.25
298.033	9051.96
298.1	9081.09
298.167	9073.48
298.234	9081.47
298.3	9084.27
298.367	9075.02
298.434	9085.13
298.5	9077.96
298.567	9076.8
298.634	9077.91
298.7	9097.55
298.767	9097.07
298.834	9108.05
298.9	9098.85
298.967	9094.23
299.033	9105.98
299.1	9122.3
299.167	9136.12
299.233	9136.21
299.3	9155.42
299.366	9178.19
299.433	9192.49
299.5	9164.42
299.566	9170.58
299.633	9187.73
299.699	9207.56
299.766	9203.23
299.832	9200.73
299.899	9211.08
299.965	9222.2
300.032	9222.15
300.099	9231.78
300.165	9240.4
300.232	9236.16
300.298	9235.25
300.365	9248.49
300.431	9253.16
300.498	9243.43
300.564	9246.8
300.631	9257.69
300.697	9275.31
300.763	9275.89
300.83	9274.54
300.896	9288.74
300.963	9298.08
301.029	9301.65
301.096	9301.45
301.162	9319.08
301.229	9320.67
301.295	9309.45
301.361	9313.25
301.428	9310.79
301.494	9294.47
301.561	9300.97
301.627	9310.51
301.693	9316.91
301.76	9322.74
301.826	9316.52
301.892	9335.93
301.959	9347.39
302.025	9342.86
302.092	9332.32
302.158	9336.36
302.224	9340.07
302.291	9333.28
302.357	9325.82
302.423	9318.88
302.49	9311.9
302.556	9318.02
302.622	9323.17
302.688	9335.55
302.755	9348.98
302.821	9357.74
302.887	9369.64
302.954	9367.95
303.02	9368.14
303.086	9373.1
303.152	9367.13
303.219	9362.27
303.285	9366.89
303.351	9371.23
303.417	9373.44
303.483	9365.88
303.55	9355.15
303.616	9350.38
303.682	9352.11
303.748	9347.97
303.815	9366.75
303.881	9379.66
303.947	9369.21
304.013	9364.78
304.079	9355.77
304.145	9333.14
304.212	9338
304.278	9329
304.344	9326.88
304.41	9317.15
304.476	9307.67
304.542	9301.31
304.608	9309.4
304.674	9290.53
304.741	9285.08
304.807	9291.83
304.873	9295.58
304.939	9312
305.005	9294.42
305.071	9289.8
305.137	9294.28
305.203	9266.69
305.269	9265.1
305.335	9270.93
305.401	9271.41
305.467	9266.26
305.533	9283.3
305.599	9286.86
305.666	9295.15
305.732	9294.81
305.798	9306.41
305.864	9331.94
305.93	9341.42
305.996	9341.52
306.062	9343.83
306.128	9333.91
306.194	9317.78
306.259	9316.48
306.325	9308.97
306.391	9318.31
306.457	9326.83
306.523	9330.73
306.589	9357.65
306.655	9346.67
306.721	9333.09
306.787	9317.01
306.853	9334.49
306.919	9310.32
306.985	9312
307.051	9301.84
307.117	9288.89
307.183	9282.73
307.248	9254.22
307.314	9260.67
307.38	9261.44
307.446	9266.88
307.512	9259.33
307.578	9264.67
307.644	9260.1
307.709	9258.46
307.775	9257.16
307.841	9254.17
307.907	9254.08
307.973	9230.19
308.039	9231.25
308.104	9236.64
308.17	9242.76
308.236	9226.29
308.302	9232.93
308.368	9216.85
308.433	9215.79
308.499	9214.4
308.565	9205.1
308.631	9209.92
308.696	9182.14
308.762	9170.39
308.828	9164.85
308.894	9147.86
308.959	9125.52
309.025	9114.01
309.091	9110.69
309.156	9105.49
309.222	9107.18
309.288	9100.77
309.354	9083.49
309.419	9081.66
309.485	9071.36
309.551	9072.13
309.616	9063.13
309.682	9057.4
309.748	9048.35
309.813	9040.31
309.879	9035.11
309.945	9022.5
310.01	9016.24
310.076	9021.82
310.141	9014.7
310.207	8997.75
310.273	9003.81
310.338	9007.57
310.404	8991.01
310.469	8982.34
310.535	8969.25
310.601	8945.52
310.666	8946.14
310.732	8956.49
310.797	8944.99
310.863	8934.01
310.928	8922.07
310.994	8917.59
311.059	8912.39
311.125	8906.52
311.191	8914.03
311.256	8901.66
311.322	8910.9
311.387	8889.05
311.453	9313.83
311.518	9284.76
311.584	9286.11
311.649	9289.14
311.715	9279.03
311.78	9286.97
311.846	9273.88
311.911	9275.81
311.976	9278.07
312.042	9257.71
312.107	9242.16
312.173	9230.89
312.238	9224.3
312.304	9221.94
312.369	9212.46
312.434	9204.32
312.5	9205.82
312.565	9177.61
312.631	9179.05
312.696	9165.43
312.761	9169.96
312.827	8736.32
312.892	8776.42
312.958	8768.67
313.023	8769.05
313.088	8768.67
313.154	8753.7
313.219	8748.12
313.284	8738.68
313.35	8733.53
313.415	8720.92
313.48	8717.31
313.546	8718.47
313.611	8723.95
313.676	8717.75
313.741	8714.33
313.807	8724.1
313.872	8723.67
313.937	8731.56
314.003	8741.67
314.068	8746
314.133	8754.9
314.198	8740.18
314.264	8719.57
314.329	8711.97
314.394	8703.45
314.459	8699.89
314.525	8717.26
314.59	8707.83
314.655	8700.08
314.72	8710.38
314.785	8720.92
314.851	8715.67
314.916	8696.13
314.981	8680.59
315.046	8672.55
315.111	8659.85
315.176	8645.65
315.242	8640.79
315.307	8638.48
315.372	8625.48
315.437	8612.73
315.502	8600.55
315.567	8611.81
315.632	8595.06
315.698	8600.41
315.763	8594.49
315.828	8585.49
315.893	8582.84
315.958	8589.43
316.023	8583.66
316.088	8559.88
316.153	8539.43
316.218	8529.18
316.283	8515.62
316.348	8499.21
316.413	8493.05
316.479	8485.02
316.544	8450.86
316.609	8425.83
316.674	8394.99
316.739	8357.85
316.804	8328.94
316.869	8297.18
316.934	8259.99
316.999	8229.54
317.064	8173.01
317.129	8132.89
317.194	8106.67
317.259	8062.55
317.324	8008.54
317.389	7963.81
317.454	7929.32
317.518	7895.8
317.583	7872.52
317.648	7851.98
317.713	7820.48
317.778	7766.72
317.843	7737.52
317.908	7700.6
317.973	7665.88
318.038	7636.55
318.103	7599.49
318.168	7567.95
318.233	7536.79
318.297	7489.39
318.362	7457.76
318.427	7424.55
318.492	7395.51
318.557	7343.32
318.622	7313.85
318.687	7289.77
318.751	7255.37
318.816	7223.16
318.881	7188.81
318.946	7134.21
319.011	7089.62
319.075	7052.04
319.14	7020.05
319.205	6975.02
319.27	6947.74
319.335	6905.65
319.399	6867.94
319.464	6845.75
319.529	6799.59
319.594	6764.33
319.658	6738.92
319.723	6700.36
319.788	6678.03
319.853	6630.14
319.917	6602.35
319.982	6550
320.047	6517.11
320.112	6483.74
320.176	6436.17
320.241	6406.16
320.306	6381.68
320.37	6345.72
320.435	6317.88
320.5	6293.54
320.564	6257.74
320.629	6217.77
320.694	6188.2
320.758	6146.22
320.823	6101.54
320.888	6074.39
320.952	6025.74
321.017	5982.08
321.082	5941.98
321.146	5906.47
321.211	5872.75
321.275	5830.98
321.34	5790.47
321.405	5745.53
321.469	5705.69
321.534	5664.84
321.598	5610.47
321.663	5582.7
321.727	5548.76
321.792	5498.28
321.857	5453.02
321.921	5413.47
321.986	5370.11
322.05	5308.97
322.115	5275.57
322.179	5231.54
322.244	5175.06
322.308	5140.8
322.373	5099.08
322.437	5062.15
322.502	5032.39
322.566	4991.77
322.631	4960.17
322.695	4922.63
322.76	4877.63
322.824	4841.76
322.889	4799.31
322.953	4757.49
323.018	4691.89
323.082	4629.16
323.146	4583.04
323.211	4532.36
323.275	4490.96
323.34	4449.59
323.404	4424.14
323.468	4377.02
323.533	4335.5
323.597	4288.61
323.662	4240.45
323.726	4207.45
323.79	4161.26
323.855	4097.32
323.919	4047.26
323.983	4002.28
324.048	3936.17
324.112	4105.19
324.177	3980.98
324.241	3778.67
324.305	3580.93
324.37	3382.06
324.434	3194.61
324.498	3152.07
324.562	3103.16
324.627	3043.8
324.691	2990.14
324.755	2922.12
324.82	2850.86
324.884	2776.59
324.948	2715.81
325.012	2625.17
325.077	2503.19
