Data from 20250704_urea_1.5M_MAYP1162681_11-45-42-594.txt Node
Date: Fri Jul 04 11:45:42 BST 2025
User: adleo
Spectrometer: MAYP116268
Trigger mode: 0
Integration Time (sec): 1.000000E0
Scans to average: 1
Electric dark correction enabled: true
Nonlinearity correction enabled: true
Boxcar width: 10
XAxis mode: Wavelengths
Number of Pixels in Spectrum: 2068
>>>>>Begin Spectral Data<<<<<
179.565	1268.02
179.642	1329.66
179.718	1377.51
179.795	1415.11
179.871	1446.95
179.948	1466.03
180.024	1488.73
180.101	1509.68
180.177	1525.22
180.254	1547
180.33	1570.84
180.407	1628.1
180.483	1728.44
180.56	1823.7
180.636	1911.68
180.712	1900.93
180.789	1913.2
180.865	1924.75
180.942	1932.45
181.018	1941.53
181.095	1956.42
181.171	1960.6
181.248	1962.17
181.324	1976.87
181.4	1985.57
181.477	1997.89
181.553	2013.1
181.63	2036.5
181.706	2055.48
181.782	2062.8
181.859	2064.75
181.935	2068.41
182.011	2064.75
182.088	2080.97
182.164	2101.24
182.24	2118.27
182.317	2128.92
182.393	2124.88
182.469	2140.81
182.546	2154.89
182.622	2159.79
182.698	2153.7
182.775	2166.78
182.851	2178.25
182.927	2172.49
183.003	2165.31
183.08	2157.27
183.156	2162.84
183.232	2154.94
183.308	2140.57
183.385	2148.99
183.461	2167.55
183.537	2169.55
183.613	2183.72
183.69	2173.87
183.766	2163.93
183.842	2169.35
183.918	2172.78
183.995	2187.76
184.071	2192.19
184.147	2185.29
184.223	2176.92
184.299	2189.39
184.375	2176.92
184.452	2187.06
184.528	2234.69
184.604	2249.11
184.68	2263.09
184.756	2273.51
184.832	2282.18
184.908	2290.17
184.985	2290.64
185.061	2273.7
185.137	2283.46
185.213	2269.95
185.289	2270.52
185.365	2261.38
185.441	2261.29
185.517	2275
185.593	2270.57
185.669	2269.72
185.745	2282.28
185.822	2296.41
185.898	2289.36
185.974	2300.16
186.05	2288.17
186.126	2253.67
186.202	2246.72
186.278	2242.1
186.354	2233.06
186.43	2237.58
186.506	2235.68
186.582	2238.44
186.658	2246.96
186.734	2225.36
186.81	2229.73
186.886	2234.63
186.962	2250.38
187.038	2245.34
187.114	2238.34
187.19	2245.76
187.266	2234.16
187.341	2233.16
187.417	2227.68
187.493	2226.68
187.569	2228.49
187.645	2223.59
187.721	2213.41
187.797	2220.92
187.873	2230.44
187.949	2222.55
188.025	2215.41
188.101	2219.07
188.176	2219.73
188.252	2213.79
188.328	2223.68
188.404	2223.49
188.48	2220.49
188.556	2211.4
188.632	2210.17
188.707	2211.21
188.783	2209.17
188.859	2201.99
188.935	2192.28
189.011	2198.46
189.086	2193.52
189.162	2185.19
189.238	2182.71
189.314	2177.86
189.39	2171.01
189.465	2159.92
189.541	2178.72
189.617	2165.59
189.693	2158.88
189.768	2160.93
189.844	2184.2
189.92	2175.64
189.996	2184.16
190.071	2192.25
190.147	2191.87
190.223	2203.19
190.298	2196.2
190.374	2181.69
190.45	2195.24
190.526	2203.57
190.601	2197.53
190.677	2199.48
190.753	2226.33
190.828	2232.37
190.904	2250.88
190.98	2269.4
191.055	2281.01
191.131	2270.49
191.207	2292.24
191.282	2304.13
191.358	2298.32
191.433	2283.14
191.509	2296.65
191.585	2296.17
191.66	2294.74
191.736	2300.07
191.811	2286.27
191.887	2301.03
191.963	2326.44
192.038	2330.01
192.114	2330.39
192.189	2334.53
192.265	2330.3
192.34	2308.73
192.416	2306.35
192.491	2300.02
192.567	2299.64
192.642	2302.21
192.718	2302.11
192.793	2288.07
192.869	2283.31
192.944	2287.64
193.02	2296.83
193.095	2303.97
193.171	2307.54
193.246	2311.35
193.322	2310.96
193.397	2316.25
193.473	2301.82
193.548	2283.88
193.624	2289.78
193.699	2289.44
193.775	2305.73
193.85	2306.39
193.925	2315.25
194.001	2316.15
194.076	2308.34
194.152	2297.54
194.227	2290.3
194.302	2281.55
194.378	2286.12
194.453	2283.31
194.529	2292.21
194.604	2277.32
194.679	2267.32
194.755	2249.86
194.83	2262.1
194.905	2257.53
194.981	2265.15
195.056	2257.72
195.131	2263.96
195.207	2261.82
195.282	2253.2
195.357	2236.3
195.433	2250.77
195.508	2236.73
195.583	2241.34
195.659	2257.53
195.734	2267.91
195.809	2267.14
195.884	2275.94
195.96	2275.33
196.035	2292.55
196.11	2289.46
196.185	2301.5
196.261	2305.97
196.336	2335.86
196.411	2320.77
196.486	2329.19
196.561	2321.1
196.637	2330.81
196.712	2346.09
196.787	2351.56
196.862	2366.94
196.937	2373.74
197.013	2382.17
197.088	2395.69
197.163	2417.59
197.238	2432.84
197.313	2429.74
197.388	2445.12
197.464	2477.27
197.539	2486.83
197.614	2479.6
197.689	2493.02
197.764	2512.36
197.839	2531.79
197.914	2527.93
197.989	2552.17
198.065	2566.55
198.14	2619.02
198.215	2647.02
198.29	2658.89
198.365	2671.65
198.44	2681.46
198.515	2711.95
198.59	2728.72
198.665	2752.93
198.74	2763.22
198.815	2762.84
198.89	2788.61
198.965	2819.5
199.04	2818.84
199.115	2837.75
199.19	2881.73
199.265	2883.83
199.34	2892.55
199.415	2927.36
199.49	2948.94
199.565	2957.19
199.64	2980.88
199.715	2979.55
199.79	2986.27
199.865	2992.7
199.94	2992.09
200.015	3024.56
200.09	3031.09
200.165	3035.81
200.24	3044.73
200.315	3085.72
200.39	3104.89
200.464	3110.85
200.539	3110.95
200.614	3124.44
200.689	3151.48
200.764	3153.92
200.839	3173.56
200.914	3178.28
200.989	3168.73
201.063	3180.08
201.138	3163.41
201.213	3163.45
201.288	3144.85
201.363	3149.24
201.438	3152.53
201.512	3168.69
201.587	3150.33
201.662	3151.95
201.737	3165.59
201.812	3170.07
201.886	3133.37
201.961	3142.39
202.036	3132.14
202.111	3126.51
202.186	3096.05
202.26	3073.59
202.335	3054.51
202.41	3047.64
202.485	3030.34
202.559	3009.46
202.634	2985.1
202.709	2994.05
202.784	2971.79
202.858	2970.31
202.933	2947.15
203.008	2940.23
203.082	2919.93
203.157	2920.21
203.232	2880.38
203.306	2858.44
203.381	2828.79
203.456	2808.63
203.53	2784.97
203.605	2761.92
203.68	2740.28
203.754	2734.23
203.829	2721.41
203.904	2699.64
203.978	2688.2
204.053	2693.06
204.127	2682.92
204.202	2679.73
204.277	2662.96
204.351	2659.38
204.426	2650.9
204.5	2646.81
204.575	2610.37
204.65	2620.14
204.724	2608.32
204.799	2615.8
204.873	2609.03
204.948	2609.08
205.022	2596.6
205.097	2589.64
205.171	2603.6
205.246	2612.13
205.32	2610.13
205.395	2608.17
205.469	2597.42
205.544	2603.18
205.618	2585.75
205.693	2598.18
205.767	2582.95
205.842	2603.24
205.916	2595.24
205.991	2585.43
206.065	2590.24
206.14	2606.37
206.214	2601.18
206.289	2598.89
206.363	2610.85
206.438	2615.28
206.512	2621.85
206.586	2641.09
206.661	2645.29
206.735	2623.24
206.81	2621.48
206.884	2637.29
206.958	2624.24
207.033	2642.48
207.107	2649.15
207.181	2678.26
207.256	2668.74
207.33	2692.64
207.405	2706.38
207.479	2725.72
207.553	2734.72
207.628	2718.29
207.702	2730.3
207.776	2725.25
207.851	2727.58
207.925	2741.21
207.999	2740.26
208.073	2738.07
208.148	2739.97
208.222	2727.97
208.296	2761.35
208.371	2779.28
208.445	2790.81
208.519	2819.78
208.593	2834.36
208.668	2829.31
208.742	2833.41
208.816	2833.03
208.89	2847.19
208.965	2843.75
209.039	2852.43
209.113	2872.83
209.187	2893.83
209.261	2890.4
209.336	2910.56
209.41	2933.16
209.484	2934.02
209.558	2957.76
209.632	2969.01
209.707	2981.88
209.781	3007.1
209.855	3026.41
209.929	3044.31
210.003	3050.08
210.077	3053.37
210.151	3105.59
210.226	3139.98
210.3	3172.63
210.374	3203.14
210.448	3208.49
210.522	3222.61
210.596	3235.15
210.67	3247.56
210.744	3302.05
210.818	3339.1
210.892	3364.73
210.966	3365.73
211.041	3387.87
211.115	3389.3
211.189	3422.41
211.263	3448.28
211.337	3466.03
211.411	3488.13
211.485	3491.86
211.559	3520.49
211.633	3537.38
211.707	3518.32
211.781	3544.36
211.855	3522.06
211.929	3533.32
212.003	3535.13
212.077	3564.94
212.151	3603.62
212.225	3637.82
212.299	3649.44
212.373	3664.72
212.447	3689.28
212.52	3744.17
212.594	3783.59
212.668	3828.68
212.742	3856.39
212.816	3893.29
212.89	3926.07
212.964	3969.06
213.038	4021.94
213.112	4082.38
213.186	4147.83
213.26	4182.23
213.333	4192.28
213.407	4256.95
213.481	4319.96
213.555	4394.33
213.629	4450.66
213.703	4501.34
213.777	4571.28
213.85	4628.1
213.924	4737.22
213.998	4818.49
214.072	4895.1
214.146	4964.74
214.219	5049.81
214.293	5134.55
214.367	5221.33
214.441	5323.53
214.515	5403.49
214.588	5472.22
214.662	5534.12
214.736	5611.4
214.81	5720.49
214.883	5835.1
214.957	5931.44
215.031	6025.58
215.105	6117.33
215.178	6219.03
215.252	6324.42
215.326	6411.9
215.4	6507.41
215.473	6580.09
215.547	6678.08
215.621	6786.58
215.694	6910.06
215.768	7003.69
215.842	7106.8
215.915	7216.82
215.989	7314.78
216.063	7425.3
216.136	7552.01
216.21	7681.43
216.284	7820.26
216.357	7948.77
216.431	8068.72
216.504	8200.33
216.578	8353.08
216.652	8492.45
216.725	8615.64
216.799	8752.38
216.873	8886.19
216.946	9029.13
217.02	9155.44
217.093	9287.27
217.167	9392.67
217.24	9502.37
217.314	9634.35
217.387	9759.74
217.461	9888.63
217.535	10038.52
217.608	10167.61
217.682	10300.96
217.755	10430.74
217.829	10549.17
217.902	10683.84
217.976	10814.31
218.049	10935.55
218.123	11050
218.196	11179.96
218.27	11300.83
218.343	11414.13
218.417	11534.67
218.49	11654.1
218.563	11784.23
218.637	11912.53
218.71	12059.15
218.784	12191.42
218.857	12323.48
218.931	12455.84
219.004	12573.51
219.077	12691.46
219.151	12811.39
219.224	12932.44
219.298	13043.45
219.371	13169.03
219.444	13258.01
219.518	13375.92
219.591	13495.33
219.665	13633.1
219.738	13743.78
219.811	13846.03
219.885	13965.67
219.958	14088.79
220.031	14193.11
220.105	14307.88
220.178	14405.11
220.251	14495.88
220.325	14602.65
220.398	14704.65
220.471	14803.04
220.544	14907.88
220.618	15001.93
220.691	15106.29
220.764	15195.17
220.838	15300.11
220.911	15385.67
220.984	15506.27
221.057	15600.16
221.131	15693.53
221.204	15743.75
221.277	15845.98
221.35	15966.63
221.424	16042.97
221.497	16118.84
221.57	16197.79
221.643	16280.16
221.716	16366.87
221.79	16439.07
221.863	16513.34
221.936	16583.85
222.009	16661.21
222.082	16739.72
222.155	16807.91
222.229	16886.52
222.302	16960.35
222.375	17025.71
222.448	17100.89
222.521	17156.02
222.594	17209.23
222.667	17251.59
222.74	17328.51
222.814	17382.63
222.887	17424.61
222.96	17489.62
223.033	17555.16
223.106	17615.64
223.179	17676.7
223.252	17731.01
223.325	17794.19
223.398	17843.35
223.471	17894.19
223.544	17927.59
223.617	17971.97
223.69	18019.39
223.763	18056.31
223.837	18097.41
223.91	18143.92
223.983	18167.68
224.056	18197.27
224.129	18253.46
224.202	18306.32
224.275	18341.21
224.348	18368.2
224.42	18396.05
224.493	18414.51
224.566	18439.81
224.639	18478.17
224.712	18507.32
224.785	18528.96
224.858	18549.25
224.931	18573.44
225.004	18600.81
225.077	18642.59
225.15	18643.17
225.223	18657.96
225.296	18705.29
225.369	18719.6
225.442	18739.36
225.514	18769.24
225.587	18800.85
225.66	18817.57
225.733	18841.38
225.806	18860.94
225.879	18874.63
225.952	18880.22
226.025	18912.5
226.097	18942.86
226.17	18961.37
226.243	18949.9
226.316	18956.5
226.389	18968.5
226.461	18986.81
226.534	18995.44
226.607	19003.39
226.68	19036.06
226.753	19050.42
226.825	19033.6
226.898	19049.31
226.971	19057.22
227.044	19066.42
227.117	19074.28
227.189	19085.7
227.262	19108.88
227.335	19120.06
227.407	19129.79
227.48	19147.77
227.553	19161.21
227.626	19166.37
227.698	19170.08
227.771	19183.33
227.844	19189.3
227.916	19206.22
227.989	19203.38
228.062	19209.11
228.134	19234.89
228.207	19245.21
228.28	19244.39
228.352	19242.46
228.425	19250.75
228.498	19266.75
228.57	19261.16
228.643	19271.56
228.716	19272.05
228.788	19253.83
228.861	19242.89
228.934	19251.61
229.006	19253.06
229.079	19243.76
229.151	19227.62
229.224	19205.35
229.296	19208.53
229.369	19237.45
229.442	19242.99
229.514	19234.27
229.587	19245.01
229.659	19220.53
229.732	19215.71
229.804	19221.59
229.877	19246.27
229.949	19250.27
230.022	19263.95
230.094	19263.71
230.167	19265.73
230.239	19249.74
230.312	19252.53
230.384	19279.37
230.457	19274.07
230.529	19272.82
230.602	19265.64
230.674	19272.63
230.747	19283.81
230.819	19289.25
230.892	19248.87
230.964	19240.19
231.037	19232.63
231.109	19213.3
231.181	19219.52
231.254	19201.4
231.326	19192.29
231.399	19173.6
231.471	19155.57
231.544	19108.25
231.616	19102.66
231.688	19097.36
231.761	19083.38
231.833	19077.75
231.905	19035.48
231.978	19031.1
232.05	19016.5
232.122	19007.05
232.195	18981.66
232.267	18984.5
232.339	18968.45
232.412	18974.62
232.484	18955.97
232.556	18943.44
232.629	18963.68
232.701	18944.21
232.773	18939.63
232.846	18921.95
232.918	18909.27
232.99	18902.62
233.062	18914.19
233.135	18908.41
233.207	18873.61
233.279	18864.89
233.351	18846.97
233.424	18837.13
233.496	18805.76
233.568	18806.49
233.64	18776.17
233.713	18764.22
233.785	18743.74
233.857	18733.43
233.929	18698.64
234.001	18702.78
234.074	18698.49
234.146	18654.25
234.218	18641.39
234.29	18614.69
234.362	18592.19
234.434	18557.68
234.507	18531.61
234.579	18490.02
234.651	18470.41
234.723	18457.93
234.795	18445.59
234.867	18419.86
234.939	18414.56
235.012	18397.21
235.084	18382.27
235.156	18380.39
235.228	18355.62
235.3	18332.15
235.372	18312.06
235.444	18307.04
235.516	18265.55
235.588	18255.72
235.66	18236.01
235.732	18204.78
235.804	18248.97
235.876	18237.17
235.948	18237.99
236.02	18214.86
236.092	18197.6
236.164	18171.39
236.236	18147.97
236.308	18119.53
236.38	18098.72
236.452	18067.92
236.524	18059.1
236.596	18063.97
236.668	18045.9
236.74	18029.37
236.812	18006.09
236.884	17990.67
236.956	17971.11
237.028	17935.73
237.1	17897.71
237.172	17891.16
237.244	17900.89
237.316	17840.65
237.388	17811.59
237.46	17781.33
237.532	17776.94
237.604	17748.7
237.675	17736.17
237.747	17727.88
237.819	17705.71
237.891	17689.47
237.963	17662.58
238.035	17631.84
238.107	17553.72
238.178	17539.98
238.25	17509.62
238.322	17518.73
238.394	17473.91
238.466	17443.36
238.538	17432.32
238.609	17416.32
238.681	17379.4
238.753	17339.45
238.825	17317.48
238.897	17300.46
238.968	17294.15
239.04	17256.85
239.112	17266.25
239.184	17233.04
239.255	17201.14
239.327	17184.66
239.399	17162.25
239.471	17142.73
239.542	17122.29
239.614	17121.96
239.686	17072.89
239.758	17059.69
239.829	17020.22
239.901	17009.9
239.973	16988.17
240.044	16967.88
240.116	16944.94
240.188	16913.18
240.259	16886.14
240.331	16850.19
240.403	16832.21
240.474	16784.3
240.546	16750.23
240.618	16694.47
240.689	16665.45
240.761	16641.36
240.833	16619.33
240.904	16589.83
240.976	16562.75
241.048	16539.37
241.119	16520.82
241.191	16503.13
241.262	16496.77
241.334	16464.62
241.405	16440.23
241.477	16407.31
241.549	16380.08
241.62	16351.98
241.692	16337.19
241.763	16319.02
241.835	16282.15
241.906	16252.26
241.978	16207.73
242.049	16197.27
242.121	16185.51
242.192	16175.63
242.264	16130.51
242.335	16087.95
242.407	16068.58
242.478	16038.55
242.55	16014.26
242.621	15972.42
242.693	15949.77
242.764	15914.92
242.836	15883.98
242.907	15858.67
242.979	15846.82
243.05	15824.02
243.122	15804.3
243.193	15774.9
243.264	15723.71
243.336	15705.88
243.407	15688.58
243.479	15692.58
243.55	15667.66
243.622	15645.2
243.693	15616.23
243.764	15610.83
243.836	15578.24
243.907	15543.54
243.978	15516.21
244.05	15493.65
244.121	15459.72
244.192	15439.67
244.264	15387.32
244.335	15360.13
244.407	15314.39
244.478	15283.78
244.549	15251.34
244.62	15211.04
244.692	15183.57
244.763	15170.12
244.834	15137.68
244.906	15105.43
244.977	15083.98
245.048	15074.2
245.119	15037.76
245.191	14999.58
245.262	14952.39
245.333	14945.59
245.405	14934.99
245.476	14913.54
245.547	14888.08
245.618	14871.21
245.689	14836.12
245.761	14824.84
245.832	14793.7
245.903	14776.78
245.974	14756.15
246.045	14733.93
246.117	14723.52
246.188	14686.16
246.259	14655.4
246.33	14632.36
246.401	14600.16
246.473	14549.35
246.544	14515.37
246.615	14499.12
246.686	14469.43
246.757	14455.5
246.828	14416.31
246.899	14398.04
246.97	14353.54
247.042	14317.58
247.113	14297.38
247.184	14297.05
247.255	14260.55
247.326	14240.45
247.397	14213.12
247.468	14187.76
247.539	14163.56
247.61	14117.38
247.681	14097.14
247.752	14077.85
247.823	14030.76
247.894	14007.28
247.965	13977.54
248.037	13944.13
248.108	13908.36
248.179	13887.54
248.25	13860.2
248.321	13843.72
248.392	13806.65
248.463	13811.47
248.534	13780.61
248.605	13752.7
248.675	13723.49
248.746	13709.46
248.817	13691.87
248.888	13676.3
248.959	13636.33
249.03	13610.59
249.101	13594.73
249.172	13567.4
249.243	13522.42
249.314	13529.31
249.385	13509.36
249.456	13490.89
249.527	13468.24
249.598	13456.52
249.669	13435.12
249.739	13419.93
249.81	13402.29
249.881	13359.39
249.952	13325.26
250.023	13300.91
250.094	13264.95
250.165	13228.07
250.235	13210.86
250.306	13180.68
250.377	13149.11
250.448	13130.69
250.519	13088.76
250.59	13083.93
250.66	13059.01
250.731	13054.91
250.802	13020.83
250.873	13001.94
250.944	12983.67
251.014	12944.18
251.085	12938.3
251.156	12912.75
251.227	12899.45
251.297	12895.54
251.368	12893.91
251.439	12888.6
251.51	12893.18
251.58	12865.08
251.651	12837.94
251.722	12818.32
251.792	12786.65
251.863	12759.56
251.934	12747.6
252.005	12766.79
252.075	12744.71
252.146	12737.48
252.217	12733.91
252.287	12725.57
252.358	12697.37
252.429	12690.33
252.499	12672.35
252.57	12646.42
252.641	12641.02
252.711	12620.77
252.782	12580.67
252.852	12572.38
252.923	12551.89
252.994	12521.04
253.064	12518.15
253.135	12492.84
253.205	12468.4
253.276	12461.6
253.347	12456.25
253.417	12431.09
253.488	12397.35
253.558	12372.33
253.629	12351.07
253.699	12328.95
253.77	12315.64
253.841	12296.46
253.911	12283.06
253.982	12267.97
254.052	12262.23
254.123	12243.19
254.193	12223.09
254.264	12242.18
254.334	12216.58
254.405	12185.88
254.475	12162.36
254.546	12139.85
254.616	12130.35
254.687	12116.81
254.757	12113.62
254.827	12096.51
254.898	12080.85
254.968	12056.6
255.039	12028.26
255.109	12023.92
255.18	11990.86
255.25	11944.44
255.321	11936.53
255.391	11902.84
255.461	11906.07
255.532	11848.04
255.602	11826.78
255.673	11791.11
255.743	11766.39
255.813	11720.21
255.884	11713.03
255.954	11703.97
256.024	11706.57
256.095	11694.38
256.165	11652.78
256.235	11634.42
256.306	11606.08
256.376	11598.22
256.446	11593.93
256.517	11585.11
256.587	11576.05
256.657	11560.97
256.728	11553.25
256.798	11538.02
256.868	11519.57
256.938	11489.59
257.009	11486.55
257.079	11474.98
257.149	11476.09
257.219	11429.92
257.29	11422.26
257.36	11384.81
257.43	11372.42
257.5	11333.24
257.571	11308.76
257.641	11307.26
257.711	11278.01
257.781	11275.16
257.852	11264.99
257.922	11227.07
257.992	11210.05
258.062	11186.1
258.132	11182.1
258.202	11163.02
258.273	11143.93
258.343	11149.67
258.413	11127.6
258.483	11114.82
258.553	11086.34
258.623	11066.25
258.693	11052.46
258.764	11048.32
258.834	11044.27
258.904	11031.45
258.974	11005.53
259.044	10985.19
259.114	10979.56
259.184	10958.11
259.254	10931.85
259.324	10889.54
259.394	10880.09
259.464	10876.58
259.535	10858.99
259.605	10837.21
259.675	10815.14
259.745	10800.68
259.815	10768.68
259.885	10743.92
259.955	10757.75
260.025	10726.96
260.095	10709.76
260.165	10700.55
260.235	10706.39
260.305	10679.55
260.375	10648.32
260.445	10659.6
260.515	10664.08
260.585	10649.91
260.655	10638.97
260.725	10639.5
260.795	10637.48
260.865	10642.3
260.934	10620.04
261.004	10610.79
261.074	10595.9
261.144	10599.37
261.214	10599.7
261.284	10583.51
261.354	10583.8
261.424	10553.35
261.494	10563.95
261.564	10552.43
261.634	10541.54
261.703	10499.48
261.773	10495.48
261.843	10486.23
261.913	10469.08
261.983	10435.25
262.053	10430.19
262.123	10412.95
262.192	10382.84
262.262	10381.63
262.332	10351.37
262.402	10343.71
262.472	10323.82
262.541	10289.08
262.611	10280.85
262.681	10255.6
262.751	10253.53
262.821	10239.46
262.89	10211.27
262.96	10201.93
263.03	10203.08
263.1	10195.76
263.169	10191.62
263.239	10182.27
263.309	10186.71
263.379	10178.76
263.448	10168.64
263.518	10153.42
263.588	10140.07
263.657	10144.02
263.727	10135.69
263.797	10117
263.867	10100.28
263.936	10077.26
264.006	10082.6
264.076	10062.08
264.145	10047.2
264.215	10014.63
264.285	10000.81
264.354	9972.34
264.424	9956.98
264.494	9931.64
264.563	9916.18
264.633	9921.86
264.702	9908.52
264.772	9877.98
264.842	9861.41
264.911	9853.31
264.981	9825.76
265.05	9815.65
265.12	9794.55
265.19	9781.01
265.259	9780.2
265.329	9775.33
265.398	9768.64
265.468	9781.74
265.537	9761.9
265.607	9754.28
265.676	9760.69
265.746	9758.09
265.815	9756.65
265.885	9737.28
265.955	9717.92
266.024	9696.15
266.094	9654.78
266.163	9660.51
266.232	9660.85
266.302	9639.9
266.371	9633.25
266.441	9624.06
266.51	9623.72
266.58	9614.04
266.649	9597.23
266.719	9595.11
266.788	9586.87
266.858	9595.11
266.927	9559.04
266.996	9557.26
267.066	9556
267.135	9529.81
267.205	9523.64
267.274	9515.26
267.343	9520.13
267.413	9504.81
267.482	9515.51
267.552	9522.78
267.621	9489.16
267.69	9461.96
267.76	9456.56
267.829	9445.34
267.898	9435.09
267.968	9411.3
268.037	9404.17
268.106	9399.07
268.176	9376.1
268.245	9358.04
268.314	9330.25
268.384	9325.2
268.453	9310.37
268.522	9296.64
268.592	9302.61
268.661	9285.28
268.73	9278.1
268.799	9253.74
268.869	9265.82
268.938	9228.99
269.007	9210.98
269.076	9208.72
269.146	9211.08
269.215	9202.36
269.284	9209.2
269.353	9193.31
269.422	9180.22
269.492	9166.45
269.561	9128.9
269.63	9123.26
269.699	9106.6
269.768	9098.71
269.838	9092.59
269.907	9093.56
269.976	9063.23
270.045	9030.97
270.114	9027.07
270.183	9021.78
270.253	9021.73
270.322	8992.17
270.391	8987.31
270.46	8985.09
270.529	8982.59
270.598	8975.37
270.667	8965.88
270.736	8940.27
270.806	8941.09
270.875	8944.7
270.944	8925.59
271.013	8949.8
271.082	8944.65
271.151	8946.19
271.22	8924.82
271.289	8914.9
271.358	8899.79
271.427	8902.97
271.496	8896.13
271.565	8879.96
271.634	8872.25
271.703	8894.02
271.772	8893.15
271.841	8879.19
271.91	8857.68
271.979	8851.13
272.048	8825.38
272.117	8826.2
272.186	8815.85
272.255	8815.8
272.324	8809.16
272.393	8808.1
272.462	8793.08
272.531	8779.51
272.6	8763.09
272.669	8766.27
272.738	8757.84
272.807	8758.28
272.876	8739.41
272.945	8769.64
273.013	8774.41
273.082	8769.11
273.151	8719.82
273.22	8718.66
273.289	8713.66
273.358	8727.9
273.427	8713.9
273.496	8722.32
273.564	8721.55
273.633	8726.12
273.702	8704.51
273.771	8699.41
273.84	8696.76
273.909	8696.76
273.977	8696.23
274.046	8691.13
274.115	8701.09
274.184	8683.63
274.253	8679.2
274.322	8683.82
274.39	8649.98
274.459	8634.39
274.528	8612.83
274.597	8610.95
274.665	8610.32
274.734	8619.13
274.803	8607.34
274.872	8604.16
274.94	8596.27
275.009	8654.59
275.078	8634.42
275.147	8633.32
275.215	8629.66
275.284	8635.63
275.353	8617.19
275.421	8595.63
275.49	8608.92
275.559	8595.54
275.627	8588.42
275.696	8574.7
275.765	8578.84
275.833	8571.62
275.902	8572.3
275.971	8582.83
276.039	8596.41
276.108	8602.57
276.177	8602.95
276.245	8595.44
276.314	8592.65
276.383	8594.72
276.451	8529.86
276.52	8537.94
276.588	8551.61
276.657	8552.53
276.725	8545.84
276.794	8549.3
276.863	8560.95
276.931	8537.08
277	8539.29
277.068	8553.19
277.137	8574.51
277.205	8573.17
277.274	8589.53
277.342	8601.94
277.411	8582.46
277.48	8566.05
277.548	8551.03
277.617	8549.68
277.685	8546.99
277.754	8551.08
277.822	8545.84
277.89	8553.83
277.959	8548.92
278.027	8527.84
278.096	8520.62
278.164	8548.92
278.233	8539.01
278.301	8531.79
278.37	8539.06
278.438	8526.31
278.507	8521.54
278.575	8493.25
278.643	8483.33
278.712	8466.15
278.78	8447.19
278.849	8458.5
278.917	8478.18
278.985	8475.01
279.054	8476.74
279.122	8487.04
279.191	8479.53
279.259	8475.68
279.327	8454.79
279.396	8466.68
279.464	8463.89
279.532	8467.16
279.601	8464.75
279.669	8468.36
279.737	8482.08
279.806	8485.78
279.874	8494.54
279.942	8498
280.011	8491.08
280.079	8503.49
280.147	8522.07
280.215	8523.99
280.284	8522.98
280.352	8498.78
280.42	8508.35
280.488	8498.73
280.557	8494.59
280.625	8496.27
280.693	8500.27
280.761	8507.68
280.83	8496.03
280.898	8510.75
280.966	8497.67
281.034	8458.2
281.102	8438.33
281.171	8429.33
281.239	8441.03
281.307	8435.3
281.375	8428.47
281.443	8459.65
281.512	8452.67
281.58	8459.7
281.648	8445.56
281.716	8444.98
281.784	8449.79
281.852	8445.75
281.92	8448.06
281.989	8450.42
282.057	8441.37
282.125	8475.16
282.193	8465.05
282.261	8460.96
282.329	8456.34
282.397	8461.4
282.465	8475.01
282.533	8493.82
282.601	8486.65
282.67	8464.08
282.738	8459.85
282.806	8470.24
282.874	8456.48
282.942	8469.91
283.01	8458.55
283.078	8475.77
283.146	8472.79
283.214	8483.23
283.282	8477.41
283.35	8486.02
283.418	8480.1
283.486	8486.55
283.554	8448.05
283.622	8454.98
283.69	8457.05
283.758	8450.74
283.826	8452.96
283.894	8462.44
283.962	8484.62
284.03	8498.05
284.098	8496.03
284.165	8489.48
284.233	8486.69
284.301	8480.68
284.369	8464.89
284.437	8465.28
284.505	8459.79
284.573	8479.86
284.641	8473.41
284.709	8488.47
284.777	8471.73
284.845	8481.83
284.912	8482.41
284.98	8488.86
285.048	8483.9
285.116	8492.76
285.184	8508.11
285.252	8507.96
285.319	8485.15
285.387	8469.08
285.455	8456.9
285.523	8470.18
285.591	8473.74
285.659	8477.98
285.726	8489.19
285.794	8478.27
285.862	8468.26
285.93	8463.45
285.997	8450.94
286.065	8447.52
286.133	8434.19
286.201	8432.17
286.269	8419.46
286.336	8411.09
286.404	8404.45
286.472	8411.24
286.539	8386.7
286.607	8371.2
286.675	8375.63
286.743	8385.11
286.81	8387.95
286.878	8403.49
286.946	8393.92
287.013	8389.49
287.081	8391.9
287.149	8377.6
287.216	8397.33
287.284	8394.49
287.352	8391.32
287.419	8388.67
287.487	8399.4
287.555	8404.75
287.622	8402.24
287.69	8408.64
287.758	8428.9
287.825	8426.4
287.893	8417.88
287.96	8425.82
288.028	8438.81
288.096	8437.22
288.163	8437.99
288.231	8424.57
288.298	8416.39
288.366	8428.71
288.433	8428.37
288.501	8418.41
288.569	8428.13
288.636	8416.15
288.704	8429.23
288.771	8443
288.839	8434.67
288.906	8431.26
288.974	8440.83
289.041	8444.15
289.109	8435.2
289.176	8434.96
289.244	8439.05
289.311	8445.6
289.379	8455.27
289.446	8454.79
289.514	8458.35
289.581	8462.29
289.649	8466.48
289.716	8471.97
289.783	8464.89
289.851	8483.08
289.918	8480.38
289.986	8486.45
290.053	8497.03
290.121	8497.8
290.188	8500.26
290.255	8531.59
290.323	8526.92
290.39	8514.5
290.458	8522.3
290.525	8536.3
290.592	8535.53
290.66	8538.8
290.727	8535.48
290.794	8552.23
290.862	8550.93
290.929	8551.03
290.996	8548.04
291.064	8550.35
291.131	8561.04
291.198	8568.21
291.266	8564.36
291.333	8566.76
291.4	8573.6
291.468	8586.98
291.535	8587.7
291.602	8590.49
291.669	8584.81
291.737	8594.34
291.804	8599.44
291.871	8613.69
291.938	8620.23
292.006	8653.64
292.073	8666.44
292.14	8680.79
292.207	8672.8
292.275	8678.04
292.342	8689.02
292.409	8713.27
292.476	8749.57
292.543	8743.26
292.611	8746.58
292.678	8773.01
292.745	8797.7
292.812	8808.43
292.879	8805.45
292.946	8810.4
293.014	8826.48
293.081	8836.49
293.148	8845.45
293.215	8862.82
293.282	8858.39
293.349	8870.67
293.416	8849.73
293.484	8859.83
293.551	8870.71
293.618	8888.62
293.685	8917.89
293.752	8912.16
293.819	8912.45
293.886	8893.67
293.953	8895.89
294.02	8908.74
294.087	8911.92
294.154	8911.1
294.221	8928.34
294.288	8932.81
294.356	8949.85
294.423	8956.4
294.49	8942.83
294.557	8956.83
294.624	8950.19
294.691	8973.88
294.758	8973.01
294.825	8975.42
294.892	8968.15
294.959	8964.39
295.026	8976.52
295.093	8964.97
295.16	8967.57
295.226	8972.67
295.293	9000.11
295.36	9015.18
295.427	9030.88
295.494	9046.77
295.561	9049.17
295.628	9066.61
295.695	9074.65
295.762	9074.84
295.829	9080.33
295.896	9104.4
295.963	9110.8
296.03	9120.33
296.096	9122.98
296.163	9131.98
296.23	9147.63
296.297	9161.35
296.364	9159.86
296.431	9157.83
296.498	9153.98
296.564	9184.6
296.631	9179.4
296.698	9163.95
296.765	9174.88
296.832	9163.99
296.899	9142.81
296.965	9167.41
297.032	9144.39
297.099	9169.05
297.166	9181.42
297.233	9177.95
297.299	9171.79
297.366	9174.73
297.433	9174.54
297.5	9182.77
297.566	9185.95
297.633	9184.46
297.7	9191.48
297.767	9193.22
297.833	9205.83
297.9	9210.74
297.967	9191.53
298.033	9214.36
298.1	9247.1
298.167	9244.84
298.234	9248.64
298.3	9260.87
298.367	9248.78
298.434	9257.64
298.5	9243.1
298.567	9235.54
298.634	9237.03
298.7	9256.97
298.767	9257.31
298.834	9275.55
298.9	9268.43
298.967	9257.55
299.033	9270.69
299.1	9277.87
299.167	9299.58
299.233	9292.12
299.3	9305.21
299.366	9324.04
299.433	9334.3
299.5	9309.35
299.566	9313.11
299.633	9330.97
299.699	9344.36
299.766	9351.1
299.832	9357.98
299.899	9370.75
299.965	9384.56
300.032	9387.55
300.099	9391.69
300.165	9399.97
300.232	9397.86
300.298	9400.84
300.365	9417.93
300.431	9417.84
300.498	9421.16
300.564	9425.35
300.631	9438.3
300.697	9449.14
300.763	9444.71
300.83	9444.66
300.896	9455.74
300.963	9467.63
301.029	9471.39
301.096	9474.9
301.162	9480.58
301.229	9471.72
301.295	9458.87
301.361	9461.27
301.428	9462.67
301.494	9447.31
301.561	9447.89
301.627	9449.62
301.693	9457.57
301.76	9461.66
301.826	9458.34
301.892	9468.16
301.959	9476.11
302.025	9470.13
302.092	9471.87
302.158	9481.79
302.224	9485.93
302.291	9479.53
302.357	9472.01
302.423	9463.49
302.49	9452.08
302.556	9464.6
302.622	9467.34
302.688	9476.3
302.755	9490.41
302.821	9496.91
302.887	9507.46
302.954	9505.53
303.02	9512.46
303.086	9515.98
303.152	9515.02
303.219	9507.79
303.285	9515.74
303.351	9518.92
303.417	9522.72
303.483	9516.27
303.55	9514.01
303.616	9513.86
303.682	9510.4
303.748	9507.03
303.815	9525.04
303.881	9539.39
303.947	9531.88
304.013	9536.4
304.079	9530.62
304.145	9508.18
304.212	9510.97
304.278	9505.53
304.344	9500.81
304.41	9493.93
304.476	9482.23
304.542	9478.61
304.608	9480.59
304.674	9458.82
304.741	9455.88
304.807	9455.26
304.873	9458.82
304.939	9469.85
305.005	9449.77
305.071	9447.02
305.137	9447.31
305.203	9422.17
305.269	9414.42
305.335	9420.05
305.401	9421.45
305.467	9420.78
305.533	9435.42
305.599	9435.08
305.666	9443.31
305.732	9445.19
305.798	9453.14
305.864	9484.83
305.93	9488.1
305.996	9491.33
306.062	9494.36
306.128	9488.73
306.194	9482.32
306.259	9478.61
306.325	9470.86
306.391	9480.3
306.457	9497.2
306.523	9504.66
306.589	9532.89
306.655	9530.67
306.721	9515.36
306.787	9499.99
306.853	9517.96
306.919	9496
306.985	9490.12
307.051	9477.51
307.117	9473.08
307.183	9467.59
307.248	9440.09
307.314	9446.97
307.38	9448.27
307.446	9450.3
307.512	9444.86
307.578	9448.27
307.644	9445.43
307.709	9444.33
307.775	9437.05
307.841	9430.41
307.907	9429.98
307.973	9410.28
308.039	9413.31
308.104	9415.67
308.17	9420.82
308.236	9406.52
308.302	9412.15
308.368	9401.9
308.433	9407.24
308.499	9400.98
308.565	9388.99
308.631	9392.12
308.696	9367.71
308.762	9360.58
308.828	9362.8
308.894	9340.51
308.959	9318.36
309.025	9306.8
309.091	9308.82
309.156	9305.5
309.222	9309.4
309.288	9292.02
309.354	9267.03
309.419	9260.43
309.485	9246.09
309.551	9240.79
309.616	9230.63
309.682	9228.56
309.748	9228.7
309.813	9226.49
309.879	9217.77
309.945	9204.73
310.01	9189.85
310.076	9198.32
310.141	9193.12
310.207	9174.73
310.273	9185.18
310.338	9186.33
310.404	9171.31
310.469	9154.55
310.535	9142.71
310.601	9113.53
310.666	9119.65
310.732	9129.76
310.797	9119.45
310.863	9109.25
310.928	9104.53
310.994	9101.49
311.059	9099.57
311.125	9092.2
311.191	9099.47
311.256	9088.11
311.322	9094.47
311.387	9074.73
311.453	9440.87
311.518	9414.97
311.584	9414.25
311.649	9417.24
311.715	9410.21
311.78	9416.32
311.846	9404.09
311.911	9412.62
311.976	9419.93
312.042	9409.44
312.107	9393.02
312.173	9381.71
312.238	9377.95
312.304	9376.36
312.369	9363.9
312.434	9349.4
312.5	9342.33
312.565	9309.93
312.631	9318.45
312.696	9309.01
312.761	9321.82
312.827	8937.81
312.892	8972.19
312.958	8964.97
313.023	8957.26
313.088	8955.67
313.154	8942.24
313.219	8934.21
313.284	8920.15
313.35	8913.79
313.415	8899.64
313.48	8897.91
313.546	8900.85
313.611	8915.09
313.676	8902.96
313.741	8897.72
313.807	8907.49
313.872	8907.2
313.937	8914.81
314.003	8926.5
314.068	8932.04
314.133	8933.24
314.198	8923.28
314.264	8907.58
314.329	8902.48
314.394	8899.54
314.459	8903.68
314.525	8921.74
314.59	8922.46
314.655	8915.09
314.72	8921.93
314.785	8926.07
314.851	8919.67
314.916	8905.42
314.981	8887.56
315.046	8880.2
315.111	8868.16
315.176	8858.39
315.242	8866.57
315.307	8866.86
315.372	8851.17
315.437	8839.33
315.502	8828.3
315.567	8843.23
315.632	8823.35
315.698	8827.1
315.763	8820.75
315.828	8805.63
315.893	8805.73
315.958	8801.78
316.023	8787.97
316.088	8767.95
316.153	8748.41
316.218	8745.38
316.283	8728.53
316.348	8707.84
316.413	8706.59
316.479	8697.11
316.544	8656.74
316.609	8622.66
316.674	8584.07
316.739	8545.86
316.804	8514.63
316.869	8479.6
316.934	8443.22
316.999	8419.54
317.064	8366.66
317.129	8329.42
317.194	8290.88
317.259	8234.87
317.324	8182.49
317.389	8143.14
317.454	8103.88
317.518	8068.38
317.583	8038.12
317.648	8015.37
317.713	7980.79
317.778	7923.59
317.843	7898.24
317.908	7859.25
317.973	7827.27
318.038	7802.88
318.103	7764.27
318.168	7734.6
318.233	7705.61
318.297	7655.12
318.362	7614.77
318.427	7574.97
318.492	7550.93
318.557	7504.02
318.622	7479.02
318.687	7457.2
318.751	7418.51
318.816	7386.73
318.881	7355.54
318.946	7301.75
319.011	7255.51
319.075	7222.55
319.14	7188.91
319.205	7139.17
319.27	7113.22
319.335	7066.85
319.399	7022.84
319.464	6999.44
319.529	6947.27
319.594	6910.94
319.658	6880.44
319.723	6844.22
319.788	6821.6
319.853	6761.74
319.917	6740.42
319.982	6689.79
320.047	6656.7
320.112	6631.92
320.176	6578.33
320.241	6546.59
320.306	6518.02
320.37	6477.26
320.435	6443.61
320.5	6416.67
320.564	6383.31
320.629	6340.45
320.694	6310.26
320.758	6271.48
320.823	6227.7
320.888	6200.5
320.952	6153.37
321.017	6112.92
321.082	6072.76
321.146	6036.53
321.211	6008.8
321.275	5965.15
321.34	5919.63
321.405	5875.07
321.469	5828.64
321.534	5793.78
321.598	5740.5
321.663	5708.75
321.727	5679.98
321.792	5630.01
321.857	5585.56
321.921	5543.27
321.986	5503.98
322.05	5445.65
322.115	5407.02
322.179	5361.68
322.244	5311.03
322.308	5276.72
322.373	5231.35
322.437	5191.58
322.502	5165.46
322.566	5118.98
322.631	5085.16
322.695	5048.96
322.76	5004.56
322.824	4970.8
322.889	4927.81
322.953	4887.07
323.018	4823.72
323.082	4760.87
323.146	4714.4
323.211	4663.28
323.275	4623.36
323.34	4578.58
323.404	4542.75
323.468	4498.25
323.533	4456.58
323.597	4410.01
323.662	4359.44
323.726	4329.88
323.79	4282.86
323.855	4215.65
323.919	4170.79
323.983	4126.08
324.048	4057.14
324.112	4209.33
324.177	4080.61
324.241	3870.74
324.305	3664.26
324.37	3463.66
324.434	3268.41
324.498	3225
324.562	3173.96
324.627	3110.88
324.691	3057.33
324.755	2996.53
324.82	2921.19
324.884	2844.49
324.948	2773.19
325.012	2678.81
325.077	2546.83
