Data from 20250704_urea_1M_MAYP1162681_11-32-25-654.txt Node
Date: Fri Jul 04 11:32:25 BST 2025
User: adleo
Spectrometer: MAYP116268
Trigger mode: 0
Integration Time (sec): 1.000000E0
Scans to average: 1
Electric dark correction enabled: true
Nonlinearity correction enabled: true
Boxcar width: 10
XAxis mode: Wavelengths
Number of Pixels in Spectrum: 2068
>>>>>Begin Spectral Data<<<<<
179.565	1248.99
179.642	1307.29
179.718	1351.78
179.795	1391.13
179.871	1426.49
179.948	1444.21
180.024	1465.6
180.101	1488.5
180.177	1504.52
180.254	1527.57
180.33	1551.18
180.407	1608.02
180.483	1708.02
180.56	1800.82
180.636	1887.27
180.712	1872.72
180.789	1888.46
180.865	1899.05
180.942	1906.18
181.018	1915.55
181.095	1926.68
181.171	1932.29
181.248	1931.34
181.324	1946.22
181.4	1956.87
181.477	1969.81
181.553	1984.69
181.63	2006.8
181.706	2022.83
181.782	2029.68
181.859	2031.43
181.935	2037.81
182.011	2034.15
182.088	2051.98
182.164	2070.87
182.24	2084.76
182.317	2097.83
182.393	2095.79
182.469	2111.91
182.546	2126.8
182.622	2133.31
182.698	2128.7
182.775	2139.59
182.851	2155.72
182.927	2149.34
183.003	2142.45
183.08	2131.18
183.156	2140.88
183.232	2134.98
183.308	2124.61
183.385	2131.27
183.461	2148.78
183.537	2146.73
183.613	2160.53
183.69	2150.49
183.766	2140.59
183.842	2147.63
183.918	2149.58
183.995	2160.09
184.071	2165.28
184.147	2159.48
184.223	2148.35
184.299	2162.1
184.375	2151.97
184.452	2159.63
184.528	2210.78
184.604	2223.44
184.68	2240.61
184.756	2248.03
184.832	2255.79
184.908	2260.64
184.985	2264.26
185.061	2247.13
185.137	2258.36
185.213	2246.42
185.289	2248.79
185.365	2241.61
185.441	2241.23
185.517	2256.99
185.593	2255.8
185.669	2251.13
185.745	2263.12
185.822	2279.2
185.898	2271.16
185.974	2281.77
186.05	2272.68
186.126	2235.03
186.202	2226.66
186.278	2218.57
186.354	2210.58
186.43	2216.72
186.506	2215.67
186.582	2212.67
186.658	2221.86
186.734	2199.83
186.81	2202.64
186.886	2200.54
186.962	2214.25
187.038	2211.25
187.114	2202.54
187.19	2208.96
187.266	2199.87
187.341	2199.87
187.417	2193.74
187.493	2192.79
187.569	2194.31
187.645	2189.79
187.721	2179.41
187.797	2186.46
187.873	2196.64
187.949	2189.74
188.025	2181.41
188.101	2184.12
188.176	2190.78
188.252	2183.12
188.328	2194.3
188.404	2194.73
188.48	2194.35
188.556	2187.92
188.632	2188.68
188.707	2187.45
188.783	2182.12
188.859	2177.12
188.935	2165.37
189.011	2172.6
189.086	2166.7
189.162	2157.81
189.238	2153.76
189.314	2152.57
189.39	2146.53
189.465	2135.73
189.541	2154.24
189.617	2137.88
189.693	2130.94
189.768	2132.7
189.844	2159.16
189.92	2147.94
189.996	2158.83
190.071	2169.11
190.147	2166.92
190.223	2177.15
190.298	2169.78
190.374	2158.27
190.45	2169.02
190.526	2177.63
190.601	2171.54
190.677	2172.3
190.753	2199.24
190.828	2203.57
190.904	2217.42
190.98	2233.21
191.055	2241.64
191.131	2231.74
191.207	2254.81
191.282	2266.84
191.358	2257.9
191.433	2243.52
191.509	2259.02
191.585	2255.07
191.66	2256.03
191.736	2264.35
191.811	2250.55
191.887	2269.35
191.963	2295.72
192.038	2301.72
192.114	2300.05
192.189	2305.19
192.265	2302.29
192.34	2282.01
192.416	2282.48
192.491	2278.25
192.567	2279.29
192.642	2282.43
192.718	2278.63
192.793	2265.78
192.869	2262.64
192.944	2267.16
193.02	2272.68
193.095	2276.63
193.171	2281.01
193.246	2280.44
193.322	2278.29
193.397	2282.77
193.473	2267.72
193.548	2248.3
193.624	2256.2
193.699	2257.78
193.775	2272.68
193.85	2274.86
193.925	2283.81
194.001	2281.53
194.076	2277.05
194.152	2266.49
194.227	2261.06
194.302	2253.31
194.378	2261.21
194.453	2257.83
194.529	2269.25
194.604	2255.17
194.679	2248.17
194.755	2230.62
194.83	2242.38
194.905	2239.43
194.981	2246.52
195.056	2237.34
195.131	2243.28
195.207	2239.9
195.282	2229.77
195.357	2209.35
195.433	2227.81
195.508	2216.39
195.583	2222.53
195.659	2234.81
195.734	2243.95
195.809	2243.8
195.884	2254.79
195.96	2253.41
196.035	2268.97
196.11	2265.69
196.185	2278.82
196.261	2283.34
196.336	2314.37
196.411	2300.8
196.486	2307.99
196.561	2302.61
196.637	2313.6
196.712	2330.26
196.787	2331.69
196.862	2347.02
196.937	2360.29
197.013	2364.39
197.088	2373.29
197.163	2399.24
197.238	2416.72
197.313	2416.82
197.388	2429.67
197.464	2459.91
197.539	2469.19
197.614	2460.63
197.689	2475.62
197.764	2492.39
197.839	2512.24
197.914	2506.15
197.989	2530
198.065	2542.86
198.14	2596.81
198.215	2621.43
198.29	2630.48
198.365	2645.53
198.44	2656.24
198.515	2684.12
198.59	2695.17
198.665	2724.89
198.74	2732.47
198.815	2732.85
198.89	2757.82
198.965	2789.08
199.04	2785.84
199.115	2802.94
199.19	2847.01
199.265	2846.44
199.34	2859.41
199.415	2895.22
199.49	2918.23
199.565	2927.29
199.64	2951.64
199.715	2945.25
199.79	2956.07
199.865	2966.22
199.94	2966.22
200.015	2998.26
200.09	3003.84
200.165	3017.57
200.24	3023.15
200.315	3062.37
200.39	3077.63
200.464	3081.83
200.539	3081.4
200.614	3093.89
200.689	3120.07
200.764	3128.71
200.839	3150.87
200.914	3153.25
200.989	3142.23
201.063	3154.44
201.138	3136.05
201.213	3136.91
201.288	3117.64
201.363	3118.79
201.438	3118.17
201.512	3130.37
201.587	3113.01
201.662	3115.2
201.737	3122.5
201.812	3130.03
201.886	3097.2
201.961	3110.32
202.036	3099.5
202.111	3097.83
202.186	3073.91
202.26	3053.06
202.335	3029.83
202.41	3016.49
202.485	2996.09
202.559	2975.11
202.634	2948.27
202.709	2959.99
202.784	2940.4
202.858	2941.4
202.933	2925.62
203.008	2919.09
203.082	2900.41
203.157	2902.03
203.232	2860.29
203.306	2840.79
203.381	2808.9
203.456	2785.12
203.53	2760.41
203.605	2740.74
203.68	2715.62
203.754	2706.48
203.829	2691.18
203.904	2671.79
203.978	2664.12
204.053	2669.6
204.127	2655.88
204.202	2654.69
204.277	2635.93
204.351	2627.3
204.426	2617.25
204.5	2608.34
204.575	2575.67
204.65	2585.68
204.724	2574.19
204.799	2580.62
204.873	2577.43
204.948	2578.19
205.022	2566.95
205.097	2558.56
205.171	2574.57
205.246	2586.14
205.32	2586.19
205.395	2586.38
205.469	2574.34
205.544	2580.63
205.618	2562.1
205.693	2575.49
205.767	2562.11
205.842	2583.4
205.916	2575.5
205.991	2569.88
206.065	2578.97
206.14	2593.4
206.214	2590.49
206.289	2582.58
206.363	2596.87
206.438	2598.2
206.512	2602.49
206.586	2622.64
206.661	2628.88
206.735	2605.02
206.81	2605.64
206.884	2618.12
206.958	2607.79
207.033	2627.73
207.107	2636.41
207.181	2672.91
207.256	2668.62
207.33	2689.72
207.405	2700.35
207.479	2724.98
207.553	2733.46
207.628	2714.17
207.702	2723.94
207.776	2717.84
207.851	2722.93
207.925	2736.52
207.999	2735.47
208.073	2737.85
208.148	2737.61
208.222	2727.7
208.296	2757.23
208.371	2772.25
208.445	2787.74
208.519	2817.42
208.593	2830.71
208.668	2825.75
208.742	2828.33
208.816	2831.95
208.89	2846.54
208.965	2848.35
209.039	2858.6
209.113	2876.67
209.187	2902.72
209.261	2903.01
209.336	2928.03
209.41	2953.58
209.484	2958.88
209.558	2986.29
209.632	3003.36
209.707	3024.05
209.781	3054.42
209.855	3081.99
209.929	3109.15
210.003	3125.99
210.077	3135.57
210.151	3197.88
210.226	3247.32
210.3	3292.17
210.374	3330.56
210.448	3355.76
210.522	3384.06
210.596	3414.85
210.67	3445.63
210.744	3516.01
210.818	3578.81
210.892	3629.1
210.966	3655.69
211.041	3705.21
211.115	3739.07
211.189	3798.68
211.263	3854.85
211.337	3903.15
211.411	3962.66
211.485	4005.21
211.559	4069.45
211.633	4132.04
211.707	4157.06
211.781	4226.79
211.855	4248.98
211.929	4307.74
212.003	4354.63
212.077	4435.45
212.151	4526.83
212.225	4620.4
212.299	4691.86
212.373	4766.83
212.447	4850.56
212.52	4971.25
212.594	5073.92
212.668	5186.5
212.742	5276.01
212.816	5377.47
212.89	5482.62
212.964	5600.14
213.038	5721.11
213.112	5846.7
213.186	5980
213.26	6085.7
213.333	6164.5
213.407	6310.84
213.481	6447.17
213.555	6595.87
213.629	6731.37
213.703	6859.21
213.777	6996.05
213.85	7128.68
213.924	7313.74
213.998	7468.88
214.072	7618.96
214.146	7763.99
214.219	7925.83
214.293	8090.64
214.367	8257.23
214.441	8437.46
214.515	8588.67
214.588	8730.68
214.662	8866.35
214.736	9013.3
214.81	9195.42
214.883	9382.81
214.957	9539.43
215.031	9699.99
215.105	9864.72
215.178	10020.92
215.252	10182.04
215.326	10339.75
215.4	10491.83
215.473	10618.31
215.547	10776.26
215.621	10936.58
215.694	11104.61
215.768	11245.86
215.842	11400.8
215.915	11551.16
215.989	11694.7
216.063	11844.54
216.136	12011.93
216.21	12178.5
216.284	12364.07
216.357	12530.13
216.431	12689.63
216.504	12858.2
216.578	13055.11
216.652	13218.03
216.725	13388.29
216.799	13561.11
216.873	13717.44
216.946	13891.69
217.02	14042.24
217.093	14189.51
217.167	14318.5
217.24	14461.96
217.314	14604.26
217.387	14744.82
217.461	14885.34
217.535	15038.67
217.608	15175.81
217.682	15318.97
217.755	15464.97
217.829	15581.04
217.902	15712.39
217.976	15835.97
218.049	15959.8
218.123	16059.47
218.196	16189.22
218.27	16300.03
218.343	16407.31
218.417	16534.99
218.49	16639.62
218.563	16768.93
218.637	16896.6
218.71	17033.57
218.784	17147.84
218.857	17274.35
218.931	17394.93
219.004	17516.72
219.077	17634.74
219.151	17742.5
219.224	17843.27
219.298	17948.85
219.371	18062.64
219.444	18154.34
219.518	18256.7
219.591	18361.18
219.665	18497.46
219.738	18586.95
219.811	18679.86
219.885	18779.33
219.958	18865.78
220.031	18963.85
220.105	19062.25
220.178	19137.67
220.251	19213.33
220.325	19308.7
220.398	19383.1
220.471	19456.74
220.544	19541.12
220.618	19605.79
220.691	19691.67
220.764	19770.84
220.838	19845.68
220.911	19908.43
220.984	19995.65
221.057	20069.39
221.131	20128.03
221.204	20154.35
221.277	20240.66
221.35	20327.07
221.424	20383.12
221.497	20434.15
221.57	20484.9
221.643	20542.39
221.716	20599.41
221.79	20640.03
221.863	20684.95
221.936	20735.46
222.009	20787.27
222.082	20830.88
222.155	20866.55
222.229	20918.84
222.302	20953.88
222.375	20993.54
222.448	21047.71
222.521	21076.3
222.594	21106.85
222.667	21132.83
222.74	21173.46
222.814	21199.58
222.887	21220.4
222.96	21262.58
223.033	21309.09
223.106	21333.47
223.179	21358.73
223.252	21390.78
223.325	21425.39
223.398	21449.25
223.471	21461.39
223.544	21474.12
223.617	21494.65
223.69	21522.75
223.763	21523.28
223.837	21551.38
223.91	21569.55
223.983	21558.23
224.056	21565.99
224.129	21586.13
224.202	21615.54
224.275	21621.99
224.348	21610.96
224.42	21604.64
224.493	21585.99
224.566	21590.13
224.639	21601.99
224.712	21586.13
224.785	21591.1
224.858	21591.82
224.931	21583.68
225.004	21591.92
225.077	21596.79
225.15	21560.2
225.223	21550.51
225.296	21577.51
225.369	21555
225.442	21541.45
225.514	21540.01
225.587	21532.73
225.66	21533.16
225.733	21526.42
225.806	21525.6
225.879	21533.98
225.952	21523.91
226.025	21541.31
226.097	21545.41
226.17	21540.63
226.243	21527.81
226.316	21524.78
226.389	21525.26
226.461	21520.05
226.534	21516.39
226.607	21513.88
226.68	21547.24
226.753	21539.91
226.825	21499.28
226.898	21506.03
226.971	21507.81
227.044	21514.07
227.117	21508.77
227.189	21502.36
227.262	21500.68
227.335	21502.41
227.407	21486.22
227.48	21481.44
227.553	21467.47
227.626	21451.75
227.698	21431.94
227.771	21427.75
227.844	21392.23
227.916	21376.08
227.989	21356.32
228.062	21331.59
228.134	21340.46
228.207	21316.07
228.28	21294.87
228.352	21295.3
228.425	21279.68
228.498	21266.38
228.57	21239.01
228.643	21246.19
228.716	21225.94
228.788	21206.28
228.861	21171.24
228.934	21161.94
229.006	21150.76
229.079	21129.02
229.151	21101.21
229.224	21077.26
229.296	21061.01
229.369	21076.39
229.442	21078.22
229.514	21055.52
229.587	21059.62
229.659	21022.07
229.732	21012.24
229.804	21012.05
229.877	21011.56
229.949	21012.24
230.022	21017.73
230.094	20995.9
230.167	20975.56
230.239	20954.55
230.312	20936.91
230.384	20960
230.457	20946.65
230.529	20923.66
230.602	20918.55
230.674	20908.67
230.747	20901.39
230.819	20908.86
230.892	20853.82
230.964	20830.64
231.037	20821.05
231.109	20802.5
231.181	20792.95
231.254	20763.27
231.326	20738.01
231.399	20708.81
231.471	20681.72
231.544	20634.54
231.616	20631.36
231.688	20606.2
231.761	20567.79
231.833	20534.97
231.905	20477.72
231.978	20456.61
232.05	20437.09
232.122	20414.2
232.195	20379.88
232.267	20376.22
232.339	20343.45
232.412	20337.86
232.484	20303.59
232.556	20270.58
232.629	20254.2
232.701	20238.87
232.773	20218.78
232.846	20196.66
232.918	20173.62
232.99	20149.09
233.062	20139.21
233.135	20116.13
233.207	20087.94
233.279	20079.12
233.351	20069.91
233.424	20039.89
233.496	20009.24
233.568	20006.88
233.64	19963.12
233.713	19940.28
233.785	19906.06
233.857	19874.21
233.929	19838.26
234.001	19848.28
234.074	19841.73
234.146	19810.31
234.218	19772.53
234.29	19740.05
234.362	19704.05
234.434	19672.39
234.507	19629.88
234.579	19580.39
234.651	19545.69
234.723	19519.53
234.795	19505.5
234.867	19470.57
234.939	19463.1
235.012	19435.44
235.084	19412.35
235.156	19394.14
235.228	19358.38
235.3	19326.91
235.372	19311.59
235.444	19300.46
235.516	19230.68
235.588	19197.57
235.66	19164.37
235.732	19129.57
235.804	19170.2
235.876	19153.14
235.948	19135.16
236.02	19108.08
236.092	19080.76
236.164	19054.16
236.236	19018.16
236.308	18979.13
236.38	18954.74
236.452	18912.43
236.524	18887.42
236.596	18866.89
236.668	18841.74
236.74	18822.41
236.812	18806.99
236.884	18777.55
236.956	18742.8
237.028	18707.77
237.1	18682.81
237.172	18677.41
237.244	18667.24
237.316	18593.37
237.388	18559.54
237.46	18517.18
237.532	18509.32
237.604	18476.22
237.675	18460.17
237.747	18437.81
237.819	18397.86
237.891	18363.88
237.963	18330.82
238.035	18289.96
238.107	18221.05
238.178	18200.61
238.25	18160.13
238.322	18143.17
238.394	18087.56
238.466	18049.44
238.538	18028.67
238.609	17999.85
238.681	17946.84
238.753	17904.63
238.825	17864.53
238.897	17836.1
238.968	17824.92
239.04	17774.65
239.112	17765.11
239.184	17721.98
239.255	17682.22
239.327	17660.15
239.399	17637.16
239.471	17619.57
239.542	17603.04
239.614	17581.65
239.686	17524.63
239.758	17510.8
239.829	17466.03
239.901	17450.42
239.973	17427.86
240.044	17395.24
240.116	17357.69
240.188	17312.97
240.259	17283.23
240.331	17247.81
240.403	17226.32
240.474	17173.4
240.546	17138.27
240.618	17093.64
240.689	17058.41
240.761	17037.93
240.833	17029.16
240.904	16987.13
240.976	16945.06
241.048	16911.37
241.119	16898.17
241.191	16882.45
241.262	16870.65
241.334	16836.86
241.405	16807.75
241.477	16769.92
241.549	16742.16
241.62	16715.55
241.692	16704.66
241.763	16684.32
241.835	16659.89
241.906	16617.67
241.978	16577.04
242.049	16560.41
242.121	16549.47
242.192	16531.73
242.264	16485.17
242.335	16425.31
242.407	16405.07
242.478	16370.66
242.55	16347.52
242.621	16304
242.693	16262.12
242.764	16218.98
242.836	16180.66
242.907	16153.53
242.979	16125.48
243.05	16099.55
243.122	16071.35
243.193	16031.97
243.264	15969.89
243.336	15930.27
243.407	15907.28
243.479	15899.57
243.55	15865.25
243.622	15832.57
243.693	15800.38
243.764	15790.5
243.836	15748.9
243.907	15711.49
243.978	15684.65
244.05	15643.92
244.121	15599.67
244.192	15584.82
244.264	15543.71
244.335	15522.5
244.407	15479.46
244.478	15457.48
244.549	15415.78
244.62	15377.12
244.692	15355.24
244.763	15345.07
244.834	15311.76
244.906	15276.33
244.977	15247.61
245.048	15239.36
245.119	15192.9
245.191	15153.37
245.262	15096.97
245.333	15091.62
245.405	15067.52
245.476	15041.49
245.547	15021.34
245.618	15003.46
245.689	14974.68
245.761	14950.72
245.832	14917.08
245.903	14889.17
245.974	14859.48
246.045	14838.6
246.117	14831.23
246.188	14789.15
246.259	14746.34
246.33	14720.45
246.401	14693.17
246.473	14644.72
246.544	14608.48
246.615	14598.21
246.686	14569.43
246.757	14561.14
246.828	14520.94
246.899	14506.47
246.97	14460.05
247.042	14428.43
247.113	14403.51
247.184	14395.02
247.255	14361.14
247.326	14336.17
247.397	14312.16
247.468	14291.09
247.539	14260.29
247.61	14217.39
247.681	14200.27
247.752	14187.45
247.823	14154.43
247.894	14129.31
247.965	14100.63
248.037	14061.2
248.108	14018.59
248.179	13992.99
248.25	13967.78
248.321	13946.61
248.392	13909.59
248.463	13911.18
248.534	13882.02
248.605	13865.19
248.675	13838.05
248.746	13816.36
248.817	13798.09
248.888	13777.26
248.959	13729.4
249.03	13718.36
249.101	13690.35
249.172	13658.92
249.243	13614.86
249.314	13607.48
249.385	13584.34
249.456	13562.31
249.527	13539.61
249.598	13515.36
249.669	13495.02
249.739	13471.35
249.81	13456.69
249.881	13422.22
249.952	13402.22
250.023	13377.05
250.094	13340.51
250.165	13301.56
250.235	13278.33
250.306	13252.68
250.377	13223.18
250.448	13211.71
250.519	13161.76
250.59	13161.76
250.66	13138.09
250.731	13134.72
250.802	13108.83
250.873	13092.59
250.944	13081.98
251.014	13057.16
251.085	13070.17
251.156	13048.82
251.227	13044.67
251.297	13043.42
251.368	13031.56
251.439	13012.37
251.51	13006.49
251.58	12967.44
251.651	12945.41
251.722	12936.3
251.792	12896.92
251.863	12873.2
251.934	12869.73
252.005	12886.84
252.075	12859.99
252.146	12851.12
252.217	12846.64
252.287	12831.55
252.358	12804.75
252.429	12800.56
252.499	12776.41
252.57	12751
252.641	12745.75
252.711	12710.7
252.782	12666.35
252.852	12674.02
252.923	12654.4
252.994	12635.26
253.064	12638.73
253.135	12605.23
253.205	12574.96
253.276	12572.45
253.347	12567.34
253.417	12533.89
253.488	12500.77
253.558	12480.52
253.629	12455.7
253.699	12433.57
253.77	12427.16
253.841	12410.68
253.911	12391.2
253.982	12371.63
254.052	12358.08
254.123	12342.13
254.193	12329.84
254.264	12343.91
254.334	12308.24
254.405	12270.93
254.475	12237.62
254.546	12216.46
254.616	12213.57
254.687	12197.42
254.757	12184.41
254.827	12160.84
254.898	12144.55
254.968	12125.8
255.039	12094.37
255.109	12085.79
255.18	12055.95
255.25	12003.85
255.321	11995.12
255.391	11958.68
255.461	11963.16
255.532	11909.47
255.602	11880.45
255.673	11842.81
255.743	11817.21
255.813	11772.1
255.884	11770.22
255.954	11766.17
256.024	11765.2
256.095	11745.2
256.165	11712.33
256.235	11698.06
256.306	11675.22
256.376	11674.45
256.446	11669.96
256.517	11658.93
256.587	11650.83
256.657	11638.06
256.728	11629.33
256.798	11605.14
256.868	11589.33
256.938	11559.4
257.009	11564.7
257.079	11558.63
257.149	11571.64
257.219	11528.5
257.29	11518.77
257.36	11483.15
257.43	11472.02
257.5	11427.49
257.571	11408.59
257.641	11404.93
257.711	11379.72
257.781	11369.22
257.852	11355.19
257.922	11313.41
257.992	11300.01
258.062	11276.59
258.132	11265.5
258.202	11251.67
258.273	11234.9
258.343	11234.75
258.413	11207.57
258.483	11188.68
258.553	11153.31
258.623	11126.42
258.693	11111.43
258.764	11109.5
258.834	11108.05
258.904	11086.85
258.974	11064.15
259.044	11044.83
259.114	11035.29
259.184	11019.14
259.254	11007.05
259.324	10964.69
259.394	10957.75
259.464	10956.01
259.535	10942.76
259.605	10923.77
259.675	10903.25
259.745	10895.01
259.815	10864.12
259.885	10844.6
259.955	10858.34
260.025	10831.26
260.095	10809.33
260.165	10802.93
260.235	10808.85
260.305	10786.01
260.375	10765.24
260.445	10775.8
260.515	10775.55
260.585	10765.19
260.655	10754.98
260.725	10745.2
260.795	10742.35
260.865	10747.22
260.934	10723.8
261.004	10714.79
261.074	10702.21
261.144	10702.99
261.214	10694.6
261.284	10680.29
261.354	10687.47
261.424	10654.02
261.494	10670.69
261.564	10659.66
261.634	10652.29
261.703	10612.68
261.773	10609.65
261.843	10602.76
261.913	10588.25
261.983	10550.77
262.053	10548.84
262.123	10531.4
262.192	10503.79
262.262	10496.85
262.332	10463.9
262.402	10453.44
262.472	10434.99
262.541	10396.31
262.611	10386.72
262.681	10361.57
262.751	10354.58
262.821	10328.23
262.89	10301.39
262.96	10287.08
263.03	10289.92
263.1	10280.24
263.169	10269.5
263.239	10256.44
263.309	10263.24
263.379	10253.46
263.448	10245.32
263.518	10225.27
263.588	10211.78
263.657	10214.29
263.727	10210.77
263.797	10195.55
263.867	10183.22
263.936	10148.97
264.006	10155.61
264.076	10134.66
264.145	10121.41
264.215	10104.36
264.285	10100.41
264.354	10068.04
264.424	10043.09
264.494	10010.42
264.563	9982.44
264.633	9989.47
264.702	9979.45
264.772	9939.71
264.842	9919.62
264.911	9916.3
264.981	9897.94
265.05	9884.36
265.12	9866.44
265.19	9850.64
265.259	9850.2
265.329	9839.99
265.398	9835.99
265.468	9844.91
265.537	9832.05
265.607	9822.41
265.676	9817.21
265.746	9812.06
265.815	9818.13
265.885	9807.29
265.955	9786.24
266.024	9776.03
266.094	9733.84
266.163	9733.41
266.232	9737.12
266.302	9729.17
266.371	9722.52
266.441	9713.04
266.51	9708.22
266.58	9701.43
266.649	9681.97
266.719	9681.49
266.788	9668.34
266.858	9675.71
266.927	9637.85
266.996	9628.22
267.066	9625.14
267.135	9605.68
267.205	9596.29
267.274	9582.9
267.343	9582.85
267.413	9576.06
267.482	9583.58
267.552	9589.45
267.621	9565.8
267.69	9533.59
267.76	9519.77
267.829	9511.39
267.898	9497.81
267.968	9471.9
268.037	9462.85
268.106	9463.33
268.176	9438
268.245	9425.81
268.314	9411.6
268.384	9414.35
268.453	9406.07
268.522	9392.82
268.592	9388.3
268.661	9368.12
268.73	9366.44
268.799	9349.53
268.869	9358.73
268.938	9325.36
269.007	9315.1
269.076	9297.24
269.146	9298.73
269.215	9288.38
269.284	9288.77
269.353	9271.05
269.422	9266.76
269.492	9248.56
269.561	9205.95
269.63	9200.42
269.699	9186.55
269.768	9176.97
269.838	9172.78
269.907	9170.61
269.976	9150.29
270.045	9120.06
270.114	9125.5
270.183	9105.72
270.253	9094.74
270.322	9062.87
270.391	9060.32
270.46	9061.13
270.529	9066.62
270.598	9064.99
270.667	9054.83
270.736	9034.03
270.806	9030.8
270.875	9031.91
270.944	9019.06
271.013	9044.72
271.082	9033.79
271.151	9029.65
271.22	8999.9
271.289	8988.92
271.358	8979.29
271.427	8974.96
271.496	8973.37
271.565	8954.79
271.634	8951.37
271.703	8953.83
271.772	8962.01
271.841	8950.02
271.91	8925.47
271.979	8915.36
272.048	8892.06
272.117	8888.16
272.186	8878.01
272.255	8877.48
272.324	8874.11
272.393	8867.51
272.462	8847.87
272.531	8842.96
272.6	8837.66
272.669	8847.1
272.738	8832.75
272.807	8819.61
272.876	8799.25
272.945	8825.39
273.013	8827.27
273.082	8832.28
273.151	8814.27
273.22	8807.34
273.289	8801.04
273.358	8817.79
273.427	8804.6
273.496	8809.51
273.564	8814.18
273.633	8813.46
273.702	8792.42
273.771	8786.79
273.84	8782.8
273.909	8781.16
273.977	8785.49
274.046	8768.41
274.115	8771.73
274.184	8755.7
274.253	8753.63
274.322	8764.12
274.39	8732.64
274.459	8717.96
274.528	8685.62
274.597	8681.19
274.665	8679.41
274.734	8688.99
274.803	8671.57
274.872	8671.28
274.94	8655.54
275.009	8690.98
275.078	8678.75
275.147	8682.27
275.215	8672.93
275.284	8680.44
275.353	8677.21
275.421	8646.7
275.49	8665.42
275.559	8658.78
275.627	8654.88
275.696	8645.11
275.765	8643.19
275.833	8635.06
275.902	8638.23
275.971	8652.14
276.039	8667.78
276.108	8670.33
276.177	8666.77
276.245	8659.17
276.314	8650.12
276.383	8658.01
276.451	8611.98
276.52	8613.23
276.588	8619.3
276.657	8623.87
276.725	8617.42
276.794	8613.81
276.863	8628.3
276.931	8601.73
277	8604.71
277.068	8613.09
277.137	8633.59
277.205	8634.94
277.274	8650.34
277.342	8655.2
277.411	8642.54
277.48	8623.77
277.548	8614.05
277.617	8607.6
277.685	8600.72
277.754	8605.19
277.822	8592.2
277.89	8610.4
277.959	8604.53
278.027	8582.68
278.096	8576.66
278.164	8603.23
278.233	8592.41
278.301	8585.24
278.37	8593.75
278.438	8577.82
278.507	8580.42
278.575	8552.03
278.643	8545.34
278.712	8530.47
278.78	8519.01
278.849	8522.62
278.917	8536.96
278.985	8534.32
279.054	8542.4
279.122	8555.11
279.191	8555.25
279.259	8552.99
279.327	8530.17
279.396	8541.19
279.464	8546.63
279.532	8550.63
279.601	8537.87
279.669	8532.82
279.737	8541.09
279.806	8544.8
279.874	8556.2
279.942	8555.53
280.011	8549.71
280.079	8559.62
280.147	8574.3
280.215	8580.51
280.284	8579.98
280.352	8565.88
280.42	8572.28
280.488	8562.08
280.557	8553.03
280.625	8553.61
280.693	8552.16
280.761	8553.13
280.83	8540.28
280.898	8549.18
280.966	8531.66
281.034	8505.43
281.102	8491.77
281.171	8483.49
281.239	8493.75
281.307	8483.59
281.375	8473.97
281.443	8500.05
281.512	8494.37
281.58	8501.73
281.648	8480.75
281.716	8478.73
281.784	8473.97
281.852	8464.06
281.92	8461.41
281.989	8476.09
282.057	8460.45
282.125	8513.25
282.193	8505.94
282.261	8506.23
282.329	8506.03
282.397	8507.96
282.465	8505.84
282.533	8523.26
282.601	8513.3
282.67	8488.22
282.738	8485.67
282.806	8494.53
282.874	8478.84
282.942	8483.65
283.01	8474.7
283.078	8483.79
283.146	8484.66
283.214	8495.49
283.282	8500.54
283.35	8512.62
283.418	8505.16
283.486	8511.56
283.554	8461.45
283.622	8458.51
283.69	8459.14
283.758	8452.59
283.826	8460.63
283.894	8480.07
283.962	8497.54
284.03	8513.76
284.098	8515.49
284.165	8508.22
284.233	8505.24
284.301	8502.55
284.369	8495.33
284.437	8486.42
284.505	8480.41
284.573	8492.63
284.641	8482.48
284.709	8488.74
284.777	8473.29
284.845	8479.4
284.912	8477.28
284.98	8487.2
285.048	8488.74
285.116	8493.6
285.184	8503.89
285.252	8500.43
285.319	8485.51
285.387	8477.71
285.455	8460.58
285.523	8469.39
285.591	8468.33
285.659	8474.64
285.726	8487.77
285.794	8467.13
285.862	8468.38
285.93	8468.43
285.997	8462.8
286.065	8458.62
286.133	8447.84
286.201	8442.73
286.269	8424.59
286.336	8423.58
286.404	8412.03
286.472	8420.07
286.539	8389.04
286.607	8375.52
286.675	8379.37
286.743	8383.5
286.81	8376.05
286.878	8394.81
286.946	8382.11
287.013	8380.28
287.081	8382.54
287.149	8372.24
287.216	8392.6
287.284	8385.91
287.352	8393.22
287.419	8387.06
287.487	8403.42
287.555	8410.88
287.622	8411.84
287.69	8421.18
287.758	8433.21
287.825	8428.93
287.893	8416.22
287.96	8435.03
288.028	8445.19
288.096	8444.18
288.163	8447.69
288.231	8440.57
288.298	8440.13
288.366	8454.76
288.433	8454.95
288.501	8444.85
288.569	8446.29
288.636	8446.68
288.704	8458.76
288.771	8462.51
288.839	8457.31
288.906	8447.69
288.974	8451.73
289.041	8447.5
289.109	8435.03
289.176	8446.01
289.244	8453.37
289.311	8473.24
289.379	8476.37
289.446	8475.94
289.514	8477.14
289.581	8472.86
289.649	8475.12
289.716	8470.84
289.783	8459.24
289.851	8477.09
289.918	8471.94
289.986	8479.64
290.053	8483.54
290.121	8483.68
290.188	8489.07
290.255	8518.43
290.323	8515.5
290.39	8513.14
290.458	8519.92
290.525	8537.39
290.592	8529.83
290.66	8533.25
290.727	8518.86
290.794	8537.53
290.862	8543.26
290.929	8544.12
290.996	8542.97
291.064	8554.18
291.131	8568.52
291.198	8585.75
291.266	8588.83
291.333	8598.79
291.4	8602.55
291.468	8620.16
291.535	8618.82
291.602	8618.43
291.669	8607.41
291.737	8612.32
291.804	8609.33
291.871	8629.02
291.938	8628.01
292.006	8658.53
292.073	8669.79
292.14	8687.26
292.207	8681.43
292.275	8677.63
292.342	8690.96
292.409	8719.55
292.476	8745.88
292.543	8733.42
292.611	8734.19
292.678	8749.74
292.745	8771.11
292.812	8788.87
292.879	8782.95
292.946	8790.6
293.014	8798.35
293.081	8813.99
293.148	8830.93
293.215	8852.5
293.282	8846.53
293.349	8862.51
293.416	8833.14
293.484	8853.07
293.551	8858.8
293.618	8872.18
293.685	8901.88
293.752	8892.98
293.819	8889.66
293.886	8872.04
293.953	8878.78
294.02	8889.75
294.087	8897.84
294.154	8887.54
294.221	8896.64
294.288	8896.06
294.356	8909.59
294.423	8925.76
294.49	8914.5
294.557	8925.91
294.624	8915.32
294.691	8939.19
294.758	8941.89
294.825	8955.51
294.892	8945.69
294.959	8942.61
295.026	8949.25
295.093	8934.62
295.16	8935.48
295.226	8936.49
295.293	8962.2
295.36	8968.22
295.427	8982.37
295.494	8988.15
295.561	8996.24
295.628	9016.37
295.695	9033.02
295.762	9035.43
295.829	9035.14
295.896	9056.27
295.963	9062.29
296.03	9073.41
296.096	9075.63
296.163	9087.04
296.23	9101.14
296.297	9108.03
296.364	9113.9
296.431	9121.22
296.498	9126.47
296.564	9153.33
296.631	9162.38
296.698	9146.06
296.765	9169.12
296.832	9156.17
296.899	9138.84
296.965	9159.3
297.032	9134.98
297.099	9153.66
297.166	9162.86
297.233	9162.91
297.299	9153.13
297.366	9159.06
297.433	9160.69
297.5	9175.57
297.566	9175.09
297.633	9177.11
297.7	9182.12
297.767	9181.93
297.833	9188.91
297.9	9187.85
297.967	9171
298.033	9175.24
298.1	9210
298.167	9202.59
298.234	9212.7
298.3	9225.6
298.367	9220.74
298.434	9230.56
298.5	9213.95
298.567	9211.25
298.634	9211.49
298.7	9228.44
298.767	9229.21
298.834	9241.97
298.9	9234.02
298.967	9219.15
299.033	9231.33
299.1	9255.21
299.167	9270.57
299.233	9266.29
299.3	9284.58
299.366	9304.27
299.433	9324.07
299.5	9297.63
299.566	9306.05
299.633	9320.93
299.699	9334.8
299.766	9332.92
299.832	9343.9
299.899	9357.53
299.965	9367.31
300.032	9369.62
300.099	9376.65
300.165	9383.87
300.232	9385.8
300.298	9385.41
300.365	9410.21
300.431	9408.62
300.498	9400.82
300.564	9407.51
300.631	9419.31
300.697	9432.02
300.763	9431.01
300.83	9427.59
300.896	9441.07
300.963	9446.03
301.029	9451.47
301.096	9451.04
301.162	9460.29
301.229	9452.73
301.295	9437.46
301.361	9441.79
301.428	9445.36
301.494	9430.14
301.561	9430.48
301.627	9425.81
301.693	9426.92
301.76	9427.83
301.826	9417.67
301.892	9426.58
301.959	9431.92
302.025	9428.65
302.092	9422.29
302.158	9427.06
302.224	9430.43
302.291	9417.33
302.357	9414.88
302.423	9403.08
302.49	9391.23
302.556	9405.44
302.622	9403.56
302.688	9424.41
302.755	9436.12
302.821	9441.85
302.887	9456.2
302.954	9454.94
303.02	9467.99
303.086	9474.83
303.152	9476.08
303.219	9478.35
303.285	9478.11
303.351	9485.09
303.417	9487.16
303.483	9478.59
303.55	9473.73
303.616	9471.75
303.682	9474.98
303.748	9470.26
303.815	9490.05
303.881	9509.36
303.947	9495.97
304.013	9502.76
304.079	9486.78
304.145	9467.61
304.212	9462.46
304.278	9449.02
304.344	9447.43
304.41	9433.61
304.476	9423.6
304.542	9419.12
304.608	9414.06
304.674	9396.34
304.741	9389.41
304.807	9389.02
304.873	9392.87
304.939	9414.06
305.005	9394.66
305.071	9395.67
305.137	9394.94
305.203	9367.59
305.269	9365.33
305.335	9375.44
305.401	9362.73
305.467	9360.9
305.533	9371.35
305.599	9379.2
305.666	9389.45
305.732	9390.32
305.798	9404.28
305.864	9430.14
305.93	9430.58
305.996	9437.56
306.062	9433.52
306.128	9430.24
306.194	9420.85
306.259	9423.74
306.325	9404.81
306.391	9418.83
306.457	9427.78
306.523	9433.61
306.589	9460
306.655	9450.42
306.721	9432.79
306.787	9424.41
306.853	9436.36
306.919	9414.35
306.985	9405.49
307.051	9401.4
307.117	9395.04
307.183	9391.86
307.248	9362.49
307.314	9364.08
307.38	9368.12
307.446	9381.89
307.512	9369.37
307.578	9372.46
307.644	9361.48
307.709	9365.04
307.775	9359.65
307.841	9349.1
307.907	9342.6
307.973	9311.68
308.039	9309.95
308.104	9317.94
308.17	9318.52
308.236	9305.23
308.302	9313.27
308.368	9303.5
308.433	9302.25
308.499	9290.98
308.565	9272.92
308.631	9275.62
308.696	9254.58
308.762	9242.54
308.828	9243.02
308.894	9231.76
308.959	9211.68
309.025	9205.42
309.091	9198.78
309.156	9191.41
309.222	9188.9
309.288	9184.76
309.354	9175.33
309.419	9175.28
309.485	9162.76
309.551	9168.63
309.616	9157.27
309.682	9151.45
309.748	9147.93
309.813	9139.8
309.879	9132.24
309.945	9121.36
310.01	9109.56
310.076	9114.23
310.141	9100.46
310.207	9081.15
310.273	9082.6
310.338	9080.91
310.404	9060.74
310.469	9049.77
310.535	9035.85
310.601	9017.99
310.666	9019.82
310.732	9031.09
310.797	9012.84
310.863	9000.28
310.928	8989.39
310.994	8991.22
311.059	8993.97
311.125	8992.19
311.191	9004.32
311.256	8997.44
311.322	9007.55
311.387	8993.49
311.453	9373.94
311.518	9357.52
311.584	9350.49
311.649	9352.81
311.715	9346.02
311.78	9353.86
311.846	9343.75
311.911	9351.51
311.976	9357.91
312.042	9339.71
312.107	9319.35
312.173	9314.92
312.238	9306.4
312.304	9305
312.369	9295.38
312.434	9278.53
312.5	9268.51
312.565	9229.43
312.631	9234.33
312.696	9218.11
312.761	9220.57
312.827	8834.44
312.892	8872.76
312.958	8870.5
313.023	8862.99
313.088	8864.87
313.154	8851.73
313.219	8841.71
313.284	8829.15
313.35	8825.3
313.415	8816.78
313.48	8811.44
313.546	8815.19
313.611	8827.56
313.676	8812.26
313.741	8807.88
313.807	8817.26
313.872	8822.65
313.937	8839.11
314.003	8843.11
314.068	8851.92
314.133	8858.18
314.198	8842.58
314.264	8818.8
314.329	8811.48
314.394	8813.65
314.459	8807.34
314.525	8823.7
314.59	8820.29
314.655	8810.28
314.72	8813.26
314.785	8821.25
314.851	8819.04
314.916	8800.03
314.981	8780.58
315.046	8776.35
315.111	8758.83
315.176	8745.69
315.242	8748.19
315.307	8741.02
315.372	8724.12
315.437	8709.06
315.502	8696.78
315.567	8704
315.632	8686.72
315.698	8689.95
315.763	8683.98
315.828	8673.78
315.893	8665.84
315.958	8665.5
316.023	8655.39
316.088	8636.72
316.153	8608.61
316.218	8598.27
316.283	8585.52
316.348	8568.24
316.413	8567.33
316.479	8556.12
316.544	8524.31
316.609	8496.35
316.674	8460.7
316.739	8425.1
316.804	8395.6
316.869	8366.64
316.934	8332.62
316.999	8302.07
317.064	8254.48
317.129	8202.81
317.194	8170.87
317.259	8127.28
317.324	8079.66
317.389	8041.28
317.454	8004.76
317.518	7971.29
317.583	7949.35
317.648	7923.19
317.713	7893.85
317.778	7835.03
317.843	7808.24
317.908	7769.1
317.973	7725.48
318.038	7702.74
318.103	7666.11
318.168	7635.38
318.233	7606.53
318.297	7554.7
318.362	7521.91
318.427	7478.56
318.492	7461.63
318.557	7415.59
318.622	7388.48
318.687	7369.44
318.751	7331.19
318.816	7298.6
318.881	7268.27
318.946	7214.68
319.011	7170.23
319.075	7129.04
319.14	7096.04
319.205	7057.5
319.27	7029.59
319.335	6986.06
319.399	6943.92
319.464	6923.31
319.529	6871.44
319.594	6828.49
319.658	6802.45
319.723	6765.13
319.788	6737.33
319.853	6684.92
319.917	6656.36
319.982	6603.58
320.047	6561.6
320.112	6537.5
320.176	6485.74
320.241	6454.82
320.306	6425.77
320.37	6385.83
320.435	6356.4
320.5	6329.14
320.564	6287.52
320.629	6244
320.694	6214.72
320.758	6174.99
320.823	6130.74
320.888	6108.52
320.952	6063.42
321.017	6024.27
321.082	5982.1
321.146	5950.96
321.211	5915.85
321.275	5880.41
321.34	5839.55
321.405	5796.67
321.469	5749.43
321.534	5714.96
321.598	5665.57
321.663	5637.31
321.727	5609.46
321.792	5558.4
321.857	5517.6
321.921	5480.69
321.986	5437.9
322.05	5381.74
322.115	5344.59
322.179	5301.66
322.244	5242.4
322.308	5216.52
322.373	5170
322.437	5132.3
322.502	5104.03
322.566	5064.12
322.631	5022.46
322.695	4982.57
322.76	4939
322.824	4905.33
322.889	4861.58
322.953	4817.11
323.018	4748.16
323.082	4687.71
323.146	4641.25
323.211	4585.55
323.275	4543.96
323.34	4501.05
323.404	4466.9
323.468	4423.5
323.533	4379.98
323.597	4336.71
323.662	4280.55
323.726	4248.65
323.79	4200.88
323.855	4137.54
323.919	4085.62
323.983	4047.9
324.048	3987.23
324.112	4149.01
324.177	4019.87
324.241	3812.3
324.305	3608.35
324.37	3411.44
324.434	3217.44
324.498	3175.95
324.562	3129.68
324.627	3068.17
324.691	3016.78
324.755	2956.78
324.82	2880.88
324.884	2807.26
324.948	2741.21
325.012	2648.19
325.077	2524.67
