Data from 20250704_urea_1M_MAYP1162681_11-32-15-656.txt Node
Date: Fri Jul 04 11:32:15 BST 2025
User: adleo
Spectrometer: MAYP116268
Trigger mode: 0
Integration Time (sec): 1.000000E0
Scans to average: 1
Electric dark correction enabled: true
Nonlinearity correction enabled: true
Boxcar width: 10
XAxis mode: Wavelengths
Number of Pixels in Spectrum: 2068
>>>>>Begin Spectral Data<<<<<
179.565	1248.28
179.642	1305.13
179.718	1352.38
179.795	1392.89
179.871	1426.4
179.948	1444.24
180.024	1467.14
180.101	1490.11
180.177	1507.4
180.254	1532.25
180.33	1554.82
180.407	1611.61
180.483	1711.66
180.56	1805.45
180.636	1894.05
180.712	1877.4
180.789	1891.86
180.865	1904.4
180.942	1914.62
181.018	1924.79
181.095	1934.73
181.171	1942.39
181.248	1944.2
181.324	1958.7
181.4	1965.41
181.477	1978.87
181.553	1992.65
181.63	2013.91
181.706	2031.51
181.782	2038.4
181.859	2034.98
181.935	2041.16
182.011	2037.16
182.088	2052.2
182.164	2071.32
182.24	2086.06
182.317	2097.62
182.393	2095.57
182.469	2111.41
182.546	2125.06
182.622	2130.72
182.698	2128.82
182.775	2140.95
182.851	2154.98
182.927	2148.66
183.003	2145.8
183.08	2140.33
183.156	2150.99
183.232	2147.18
183.308	2136.91
183.385	2145.47
183.461	2166.11
183.537	2168.11
183.613	2183.95
183.69	2174.68
183.766	2164.73
183.842	2171.11
183.918	2176.96
183.995	2192.09
184.071	2198.42
184.147	2190.38
184.223	2178.15
184.299	2189.86
184.375	2178.06
184.452	2184.44
184.528	2231.11
184.604	2239.34
184.68	2249.14
184.756	2257.71
184.832	2263.66
184.908	2268.51
184.985	2271.7
185.061	2253.86
185.137	2263.9
185.213	2251
185.289	2252.72
185.365	2245.3
185.441	2244.73
185.517	2256.96
185.593	2252.2
185.669	2247.92
185.745	2259
185.822	2277.74
185.898	2268.84
185.974	2278.55
186.05	2271.5
186.126	2238.87
186.202	2231.97
186.278	2229.49
186.354	2218.02
186.43	2225.12
186.506	2224.12
186.582	2220.03
186.658	2228.11
186.734	2206.89
186.81	2210.56
186.886	2214.36
186.962	2228.3
187.038	2225.83
187.114	2218.02
187.19	2225.35
187.266	2214.84
187.341	2217.45
187.417	2210.6
187.493	2211.46
187.569	2214.22
187.645	2209.51
187.721	2199.99
187.797	2209.31
187.873	2212.31
187.949	2206.98
188.025	2199.13
188.101	2199.56
188.176	2203.51
188.252	2197.8
188.328	2205.12
188.404	2202.89
188.48	2197.37
188.556	2191.61
188.632	2187.42
188.707	2186.81
188.783	2186.19
188.859	2180.05
188.935	2168.01
189.011	2176.77
189.086	2170.2
189.162	2161.26
189.238	2159.07
189.314	2156.03
189.39	2151.7
189.465	2145.23
189.541	2162.93
189.617	2146.28
189.693	2141.24
189.768	2146.9
189.844	2173.74
189.92	2167.18
189.996	2179.93
190.071	2189.78
190.147	2186.45
190.223	2199.87
190.298	2193.73
190.374	2179.65
190.45	2190.54
190.526	2201.2
190.601	2194.15
190.677	2196.2
190.753	2225.62
190.828	2229.04
190.904	2242.65
190.98	2254.79
191.055	2265.64
191.131	2254.69
191.207	2277.15
191.282	2289.18
191.358	2277.67
191.433	2262.58
191.509	2274.56
191.585	2271.23
191.66	2277.04
191.736	2286.7
191.811	2273.75
191.887	2290.6
191.963	2314.4
192.038	2321.92
192.114	2317.78
192.189	2320.4
192.265	2317.3
192.34	2293.88
192.416	2291.88
192.491	2287.6
192.567	2292.12
192.642	2294.55
192.718	2296.35
192.793	2281.79
192.869	2276.18
192.944	2278.08
193.02	2285.03
193.095	2290.03
193.171	2291.69
193.246	2287.69
193.322	2282.6
193.397	2286.31
193.473	2270.6
193.548	2251.52
193.624	2255.99
193.699	2260.08
193.775	2278.6
193.85	2281.03
193.925	2289.5
194.001	2290.21
194.076	2284.03
194.152	2272.89
194.227	2266.94
194.302	2257.66
194.378	2263.32
194.453	2260.42
194.529	2275.18
194.604	2260.61
194.679	2253.1
194.755	2236.21
194.83	2250.25
194.905	2248.25
194.981	2255.63
195.056	2251.92
195.131	2257.82
195.207	2259.01
195.282	2246.69
195.357	2223.46
195.433	2236.59
195.508	2224.36
195.583	2229.26
195.659	2243.45
195.734	2252.63
195.809	2250.59
195.884	2260.24
195.96	2260.72
196.035	2276.9
196.11	2271
196.185	2282.51
196.261	2284.41
196.336	2314.44
196.411	2299.87
196.486	2308.53
196.561	2302.59
196.637	2310.58
196.712	2328.15
196.787	2331.15
196.862	2347.99
196.937	2360.94
197.013	2367.41
197.088	2379.02
197.163	2401.93
197.238	2420.98
197.313	2421.22
197.388	2435.31
197.464	2465.6
197.539	2475.26
197.614	2465.94
197.689	2481.41
197.764	2497.27
197.839	2520.5
197.914	2515.5
197.989	2535.41
198.065	2546.69
198.14	2599.54
198.215	2623.54
198.29	2633.65
198.365	2644.74
198.44	2654.65
198.515	2682.8
198.59	2697.29
198.665	2723.63
198.74	2733.3
198.815	2730.49
198.89	2753.88
198.965	2783.1
199.04	2776.19
199.115	2793.86
199.19	2837.6
199.265	2837.88
199.34	2851.99
199.415	2885.8
199.49	2906.62
199.565	2918.82
199.64	2941.79
199.715	2937.55
199.79	2944.98
199.865	2949.99
199.94	2948.8
200.015	2976.59
200.09	2978.97
200.165	2988.56
200.24	2997.19
200.315	3035.46
200.39	3054.29
200.464	3060.25
200.539	3064.4
200.614	3083.33
200.689	3108.22
200.764	3114.52
200.839	3134.25
200.914	3137.35
200.989	3124.56
201.063	3140.44
201.138	3125.1
201.213	3129.15
201.288	3109.79
201.363	3118.52
201.438	3120.76
201.512	3138.11
201.587	3125.52
201.662	3132.53
201.737	3143.74
201.812	3149.84
201.886	3118.72
201.961	3130.37
202.036	3118.59
202.111	3109.05
202.186	3080.89
202.26	3064.19
202.335	3045.31
202.41	3038.06
202.485	3018.61
202.559	3001.79
202.634	2973.75
202.709	2982.09
202.784	2960.45
202.858	2958.78
202.933	2939.09
203.008	2933.32
203.082	2910.87
203.157	2912.64
203.232	2869.66
203.306	2845.2
203.381	2814.6
203.456	2790.86
203.53	2763.72
203.605	2741.24
203.68	2723.66
203.754	2717.99
203.829	2699.55
203.904	2676.92
203.978	2666.53
204.053	2675.15
204.127	2660.44
204.202	2659.63
204.277	2639.48
204.351	2632.19
204.426	2626.14
204.5	2616.18
204.575	2579.18
204.65	2589.67
204.724	2579.7
204.799	2589.65
204.873	2589.89
204.948	2587.79
205.022	2576.41
205.097	2569.65
205.171	2584.65
205.246	2588.79
205.32	2586.84
205.395	2587.36
205.469	2578.75
205.544	2585.47
205.618	2563.7
205.693	2575.94
205.767	2563.18
205.842	2586
205.916	2580.76
205.991	2568.66
206.065	2574.85
206.14	2590.89
206.214	2586.27
206.289	2578.12
206.363	2591.12
206.438	2592.32
206.512	2600.84
206.586	2619.8
206.661	2626.95
206.735	2605.85
206.81	2607.52
206.884	2621.52
206.958	2609.05
207.033	2626.38
207.107	2628.38
207.181	2663.45
207.256	2659.87
207.33	2678.16
207.405	2691.47
207.479	2708.57
207.553	2717.81
207.628	2700.28
207.702	2712.38
207.776	2705.57
207.851	2709.33
207.925	2724.06
207.999	2721.49
208.073	2718.73
208.148	2723.54
208.222	2712.91
208.296	2744.49
208.371	2764.27
208.445	2782.1
208.519	2815.21
208.593	2828.46
208.668	2830.74
208.742	2833.65
208.816	2834.27
208.89	2851.96
208.965	2848.81
209.039	2862.92
209.113	2885.23
209.187	2911.19
209.261	2911.28
209.336	2938.26
209.41	2963.1
209.484	2964.24
209.558	2990.94
209.632	3007.72
209.707	3025.6
209.781	3054.78
209.855	3079.25
209.929	3105.41
210.003	3115.62
210.077	3124.68
210.151	3187.36
210.226	3232.84
210.3	3274.77
210.374	3318.46
210.448	3338.88
210.522	3373.53
210.596	3404.89
210.67	3436.92
210.744	3511.08
210.818	3571.97
210.892	3621.21
210.966	3644.79
211.041	3697.55
211.115	3729.88
211.189	3797.95
211.263	3856.47
211.337	3906.3
211.411	3972.64
211.485	4015.25
211.559	4081.24
211.633	4138.14
211.707	4166.56
211.781	4236.48
211.855	4266.42
211.929	4323.98
212.003	4377.96
212.077	4460.99
212.151	4552.03
212.225	4641.11
212.299	4715.56
212.373	4790.95
212.447	4873.67
212.52	4997.56
212.594	5098.56
212.668	5213.43
212.742	5298.59
212.816	5398.82
212.89	5503.78
212.964	5615.93
213.038	5738.25
213.112	5872.54
213.186	6012.35
213.26	6117.1
213.333	6199.41
213.407	6341.92
213.481	6480.13
213.555	6628.85
213.629	6755.47
213.703	6882.15
213.777	7027.31
213.85	7154.91
213.924	7346.23
213.998	7506.65
214.072	7657.17
214.146	7800.99
214.219	7963.61
214.293	8126.45
214.367	8297.67
214.441	8473.27
214.515	8622.79
214.588	8764.29
214.662	8891.3
214.736	9038.93
214.81	9219.27
214.883	9405.26
214.957	9559.71
215.031	9716.96
215.105	9869.41
215.178	10030.66
215.252	10192.4
215.326	10336.34
215.4	10485.96
215.473	10601.22
215.547	10753.77
215.621	10912.56
215.694	11089.55
215.768	11232.15
215.842	11387.37
215.915	11535.34
215.989	11677.03
216.063	11838.98
216.136	12010.08
216.21	12184.22
216.284	12365.45
216.357	12527.41
216.431	12684.6
216.504	12860.88
216.578	13051.28
216.652	13228.18
216.725	13391.26
216.799	13563.16
216.873	13725.46
216.946	13891.19
217.02	14044.68
217.093	14195.03
217.167	14328.41
217.24	14462.37
217.314	14609.68
217.387	14748.61
217.461	14883.24
217.535	15040.05
217.608	15175.25
217.682	15311.81
217.755	15465.86
217.829	15586.07
217.902	15721.47
217.976	15851.95
218.049	15971.58
218.123	16083.98
218.196	16217.15
218.27	16337.45
218.343	16442.71
218.417	16568.27
218.49	16684.03
218.563	16813.54
218.637	16932.39
218.71	17059.19
218.784	17189.5
218.857	17311.05
218.931	17432.5
219.004	17551.05
219.077	17664.98
219.151	17767.2
219.224	17872.01
219.298	17965.51
219.371	18084.15
219.444	18168.97
219.518	18271.38
219.591	18369.88
219.665	18502.26
219.738	18592.52
219.811	18670.73
219.885	18774.87
219.958	18874.87
220.031	18965.08
220.105	19056.3
220.178	19150.22
220.251	19236.34
220.325	19321.88
220.398	19404.33
220.471	19483.6
220.544	19571.12
220.618	19635.02
220.691	19711.21
220.764	19779.06
220.838	19852.55
220.911	19908.89
220.984	20007.97
221.057	20077.12
221.131	20143.62
221.204	20170.56
221.277	20250.23
221.35	20354.95
221.424	20409.55
221.497	20463.05
221.57	20521.89
221.643	20581.12
221.716	20633.07
221.79	20670.71
221.863	20700.88
221.936	20743.48
222.009	20782.71
222.082	20826.43
222.155	20857.46
222.229	20914.57
222.302	20958.09
222.375	20999.59
222.448	21041.81
222.521	21064.46
222.594	21092.27
222.667	21111.4
222.74	21150.06
222.814	21176.23
222.887	21189.82
222.96	21238.21
223.033	21280.29
223.106	21310.94
223.179	21348.54
223.252	21386.91
223.325	21415.3
223.398	21451.64
223.471	21480.9
223.544	21506.39
223.617	21523.45
223.69	21554.06
223.763	21563.65
223.837	21585.73
223.91	21604.72
223.983	21608.81
224.056	21612.28
224.129	21628.38
224.202	21655.42
224.275	21658.7
224.348	21648.19
224.42	21644.63
224.493	21622.74
224.566	21608.09
224.639	21614.26
224.712	21604.42
224.785	21586.3
224.858	21587.41
224.931	21581.34
225.004	21570.11
225.077	21581.29
225.15	21558.87
225.223	21555.26
225.296	21570.68
225.369	21551.12
225.442	21544.99
225.514	21539.69
225.587	21548.13
225.66	21562.93
225.733	21569.14
225.806	21571.75
225.879	21578.06
225.952	21569.19
226.025	21584.9
226.097	21605.73
226.17	21605.29
226.243	21587.8
226.316	21578.25
226.389	21578.11
226.461	21574.3
226.534	21576.33
226.607	21563.12
226.68	21585
226.753	21583.46
226.825	21561.72
226.898	21575.65
226.971	21564.47
227.044	21575.55
227.117	21567.21
227.189	21559.41
227.262	21550.78
227.335	21544.37
227.407	21522.49
227.48	21515.45
227.553	21498.24
227.626	21475.68
227.698	21464.26
227.771	21456.26
227.844	21441.51
227.916	21426.81
227.989	21401.75
228.062	21385.65
228.134	21401.89
228.207	21381.89
228.28	21355.48
228.352	21337.79
228.425	21321.11
228.498	21313.11
228.57	21283.37
228.643	21281.97
228.716	21262.89
228.788	21242.31
228.861	21220.47
228.934	21218.93
229.006	21204.47
229.079	21188.86
229.151	21166.4
229.224	21124.42
229.296	21114.3
229.369	21127.5
229.442	21128.03
229.514	21104.61
229.587	21100.46
229.659	21056.32
229.732	21036.31
229.804	21037.08
229.877	21047.98
229.949	21042.39
230.022	21042.19
230.094	21032.36
230.167	21012.94
230.239	20976.02
230.312	20964.6
230.384	20977.85
230.457	20968.55
230.529	20950.43
230.602	20938.43
230.674	20926.09
230.747	20942.09
230.819	20938.38
230.892	20884.98
230.964	20857.36
231.037	20843.48
231.109	20814.09
231.181	20802.33
231.254	20777.6
231.326	20762.09
231.399	20725.36
231.471	20698.66
231.544	20654.47
231.616	20640.54
231.688	20623.38
231.761	20600.01
231.833	20563.43
231.905	20502.66
231.978	20476.15
232.05	20456.68
232.122	20428.92
232.195	20402.03
232.267	20378.7
232.339	20344.58
232.412	20340.2
232.484	20313.59
232.556	20286.94
232.629	20289.02
232.701	20272.92
232.773	20252.68
232.846	20220.29
232.918	20203.86
232.99	20180.54
233.062	20173.79
233.135	20153.11
233.207	20108.3
233.279	20095.67
233.351	20093.89
233.424	20078.9
233.496	20039.72
233.568	20028.83
233.64	19986.33
233.713	19959.68
233.785	19926.86
233.857	19904.4
233.929	19863.92
234.001	19865.9
234.074	19856.64
234.146	19807.39
234.218	19777.71
234.29	19755.2
234.362	19726.14
234.434	19689.61
234.507	19643.11
234.579	19594.68
234.651	19554.54
234.723	19541.91
234.795	19512.08
234.867	19460.52
234.939	19441.53
235.012	19420.04
235.084	19397.1
235.156	19388.14
235.228	19351.8
235.3	19324.24
235.372	19296.09
235.444	19280.43
235.516	19225.3
235.588	19198.27
235.66	19171.04
235.732	19130.9
235.804	19156.05
235.876	19137.5
235.948	19116.25
236.02	19099.87
236.092	19069.94
236.164	19050.33
236.236	19015.2
236.308	18990.86
236.38	18972.4
236.452	18929.47
236.524	18905.27
236.596	18886.43
236.668	18857.9
236.74	18830.97
236.812	18804.75
236.884	18784.85
236.956	18753
237.028	18713.86
237.1	18674.25
237.172	18659.75
237.244	18651.84
237.316	18583.56
237.388	18533.92
237.46	18493.83
237.532	18479.03
237.604	18445.25
237.675	18426.22
237.747	18402.03
237.819	18358.27
237.891	18329.31
237.963	18300.97
238.035	18258.9
238.107	18190.52
238.178	18179
238.25	18149.36
238.322	18143
238.394	18094.76
238.466	18057.32
238.538	18034.62
238.609	18012.02
238.681	17962.29
238.753	17918.67
238.825	17885.23
238.897	17867.3
238.968	17851.54
239.04	17807.54
239.112	17800.94
239.184	17756.03
239.255	17718.39
239.327	17697.86
239.399	17668.46
239.471	17641.86
239.542	17621.04
239.614	17614.1
239.686	17551.16
239.758	17526.92
239.829	17479.16
239.901	17453.67
239.973	17427.55
240.044	17395.02
240.116	17366.97
240.188	17336.8
240.259	17302.73
240.331	17273.04
240.403	17249.04
240.474	17206.87
240.546	17165.91
240.618	17119.84
240.689	17091.74
240.761	17064.51
240.833	17050.87
240.904	17015.45
240.976	16986
241.048	16960.55
241.119	16934.96
241.191	16913.61
241.262	16898.33
241.334	16865.95
241.405	16837.56
241.477	16799.87
241.549	16769.07
241.62	16744.06
241.692	16720.98
241.763	16703.48
241.835	16667.86
241.906	16638.46
241.978	16593.16
242.049	16579.62
242.121	16552.05
242.192	16527.85
242.264	16482.16
242.335	16427.89
242.407	16400.37
242.478	16362.39
242.55	16326.92
242.621	16286
242.693	16255.35
242.764	16222.48
242.836	16190.57
242.907	16164.93
242.979	16151.05
243.05	16121.84
243.122	16096.1
243.193	16060.24
243.264	16006.11
243.336	15975.51
243.407	15954.69
243.479	15942.69
243.55	15910.83
243.622	15888.22
243.693	15852.55
243.764	15843.59
243.836	15803.87
243.907	15771.24
243.978	15746.22
244.05	15728.34
244.121	15680.86
244.192	15655.7
244.264	15603.69
244.335	15566.72
244.407	15519.63
244.478	15490.71
244.549	15469.65
244.62	15419.81
244.692	15392.43
244.763	15370.54
244.834	15327.6
244.906	15284.7
244.977	15266.53
245.048	15250.86
245.119	15216.54
245.191	15185.98
245.262	15124.14
245.333	15115.02
245.405	15087.31
245.476	15062.34
245.547	15031.44
245.618	15017.7
245.689	14989.26
245.761	14969.31
245.832	14944.63
245.903	14929.11
245.974	14901.63
246.045	14867.4
246.117	14858.29
246.188	14820.69
246.259	14791.34
246.33	14765.4
246.401	14742.36
246.473	14691.36
246.544	14655.45
246.615	14632.94
246.686	14599.44
246.757	14596.69
246.828	14562.66
246.899	14555.86
246.97	14509.54
247.042	14471.98
247.113	14453.57
247.184	14447.74
247.255	14423.54
247.326	14401.12
247.397	14367.38
247.468	14342.6
247.539	14319.08
247.61	14278.44
247.681	14260.65
247.752	14240.36
247.823	14206.52
247.894	14177.88
247.965	14145.01
248.037	14114.68
248.108	14074.87
248.179	14045.17
248.25	14015.72
248.321	13993.16
248.392	13949.24
248.463	13943.84
248.534	13915.98
248.605	13888.93
248.675	13854.32
248.746	13823.42
248.817	13798.69
248.888	13783.36
248.959	13740.03
249.03	13718.91
249.101	13692.11
249.172	13658.6
249.243	13611.31
249.314	13602.2
249.385	13575.3
249.456	13556.89
249.527	13535.58
249.598	13517.26
249.669	13487.37
249.739	13472.14
249.81	13455.94
249.881	13418.54
249.952	13402.77
250.023	13385.85
250.094	13346.23
250.165	13314.75
250.235	13289.39
250.306	13268.42
250.377	13229.42
250.448	13212.69
250.519	13169.45
250.59	13165.16
250.66	13141.25
250.731	13147.13
250.802	13128.77
250.873	13110.74
250.944	13093.09
251.014	13063.4
251.085	13062.87
251.156	13053.85
251.227	13048.17
251.297	13041.03
251.368	13035.34
251.439	13026.71
251.51	13013.17
251.58	12988.1
251.651	12955.37
251.722	12947.51
251.792	12907.89
251.863	12883.59
251.934	12878.91
252.005	12885.37
252.075	12859.49
252.146	12849.7
252.217	12835.58
252.287	12824.39
252.358	12802.27
252.429	12803.91
252.499	12775.37
252.57	12758.45
252.641	12750.83
252.711	12719.35
252.782	12676.69
252.852	12672.06
252.923	12638.71
252.994	12626.99
253.064	12613.59
253.135	12583.51
253.205	12558.98
253.276	12566.4
253.347	12570.98
253.417	12541.43
253.488	12519.21
253.558	12493.23
253.629	12479.39
253.699	12459.92
253.77	12442.9
253.841	12418.51
253.911	12393.44
253.982	12376.28
254.052	12368.43
254.123	12341.58
254.193	12327.93
254.264	12351.65
254.334	12326.05
254.405	12297.18
254.475	12258.33
254.546	12241.65
254.616	12244.54
254.687	12231.91
254.757	12205.45
254.827	12180.92
254.898	12164.72
254.968	12143.8
255.039	12118.35
255.109	12100.13
255.18	12070.77
255.25	12026.57
255.321	12019.97
255.391	11990.23
255.461	11992.4
255.532	11935.57
255.602	11916.63
255.673	11877.39
255.743	11842.01
255.813	11797.86
255.884	11791.35
255.954	11782.48
256.024	11784.6
256.095	11768.6
256.165	11737.66
256.235	11724.4
256.306	11704.35
256.376	11701.51
256.446	11694.18
256.517	11688.45
256.587	11685.46
256.657	11668.16
256.728	11659.38
256.798	11642.37
256.868	11616.54
256.938	11590.61
257.009	11589.3
257.079	11580.53
257.149	11586.22
257.219	11548.82
257.29	11542.07
257.36	11501.01
257.43	11498.41
257.5	11455.27
257.571	11432.18
257.641	11421
257.711	11394.21
257.781	11379.17
257.852	11364.71
257.922	11322.97
257.992	11299.41
258.062	11282.2
258.132	11274.3
258.202	11250.2
258.273	11228.66
258.343	11234.59
258.413	11214.06
258.483	11197.67
258.553	11165.67
258.623	11141.67
258.693	11135.26
258.764	11132.18
258.834	11135.98
258.904	11111.26
258.974	11089.57
259.044	11070.54
259.114	11058.68
259.184	11043.84
259.254	11022.01
259.324	10981.63
259.394	10975.89
259.464	10982.3
259.535	10961.15
259.605	10943.75
259.675	10922.45
259.745	10918.35
259.815	10889.39
259.885	10868.53
259.955	10879.37
260.025	10857.26
260.095	10840.77
260.165	10823.72
260.235	10827.67
260.305	10804.01
260.375	10779.48
260.445	10785.5
260.515	10787.33
260.585	10784.54
260.655	10767.63
260.725	10766.52
260.795	10756.16
260.865	10756.06
260.934	10727.68
261.004	10717.51
261.074	10697.32
261.144	10703.54
261.214	10693.61
261.284	10673.28
261.354	10667.16
261.424	10639.02
261.494	10648.56
261.564	10631.31
261.634	10627.84
261.703	10582.93
261.773	10574.5
261.843	10570.69
261.913	10554.94
261.983	10519.52
262.053	10512.25
262.123	10499.09
262.192	10469.22
262.262	10470.81
262.332	10442.63
262.402	10434.48
262.472	10408.18
262.541	10373.83
262.611	10368.72
262.681	10340.64
262.751	10340.59
262.821	10321.32
262.89	10291.44
262.96	10283.78
263.03	10291.01
263.1	10277.86
263.169	10277.04
263.239	10268.66
263.309	10266.73
263.379	10260.95
263.448	10245.29
263.518	10231.9
263.588	10221.11
263.657	10229.2
263.727	10220.96
263.797	10203.57
263.867	10188.49
263.936	10169.9
264.006	10172.5
264.076	10149.81
264.145	10136.9
264.215	10115.94
264.285	10112.86
264.354	10085.02
264.424	10058.28
264.494	10029.38
264.563	10007.94
264.633	10016.71
264.702	10008.23
264.772	9979.76
264.842	9958.52
264.911	9959
264.981	9925.23
265.05	9905.63
265.12	9882.89
265.19	9867.23
265.259	9866.17
265.329	9859.04
265.398	9850.33
265.468	9864.44
265.537	9847
265.607	9838.91
265.676	9835.97
265.746	9829.04
265.815	9830.58
265.885	9815.74
265.955	9791.71
266.024	9774.08
266.094	9736.32
266.163	9738.01
266.232	9736.27
266.302	9722.55
266.371	9709.45
266.441	9704.2
266.51	9705.74
266.58	9683.44
266.649	9660.61
266.719	9661.91
266.788	9652.57
266.858	9657.62
266.927	9627.42
266.996	9616.88
267.066	9606.57
267.135	9580.04
267.205	9576.86
267.274	9569.87
267.343	9573.63
267.413	9562.46
267.482	9568.05
267.552	9566.99
267.621	9535.54
267.69	9507.51
267.76	9498.55
267.829	9491.96
267.898	9478.42
267.968	9457.43
268.037	9458.78
268.106	9464.8
268.176	9442.35
268.245	9431.81
268.314	9413.94
268.384	9411.63
268.453	9410.28
268.522	9408.93
268.592	9414.57
268.661	9391.59
268.73	9381.67
268.799	9363.42
268.869	9373.15
268.938	9346.62
269.007	9326.68
269.076	9319.8
269.146	9325.19
269.215	9322.06
269.284	9329
269.353	9318.5
269.422	9305.12
269.492	9293.95
269.561	9251.58
269.63	9252.3
269.699	9238.53
269.768	9235.64
269.838	9223.17
269.907	9216.62
269.976	9191.58
270.045	9158.12
270.114	9156.39
270.183	9138.96
270.253	9130.29
270.322	9104.34
270.391	9092.16
270.46	9099.29
270.529	9107.33
270.598	9103.53
270.667	9090
270.736	9061.88
270.806	9059.52
270.875	9060.82
270.944	9044.5
271.013	9069.68
271.082	9054.9
271.151	9053.21
271.22	9025.87
271.289	9019.8
271.358	9006.32
271.427	8999.2
271.496	8996.94
271.565	8977.87
271.634	8972.19
271.703	8974.5
271.772	8971.28
271.841	8961.94
271.91	8940.66
271.979	8923.23
272.048	8901.47
272.117	8903.25
272.186	8896.61
272.255	8893.63
272.324	8897.09
272.393	8897.62
272.462	8876.05
272.531	8864.93
272.6	8848.13
272.669	8847.27
272.738	8833.55
272.807	8833.45
272.876	8812.47
272.945	8843.47
273.013	8853.29
273.082	8859.65
273.151	8838.42
273.22	8841.21
273.289	8836.93
273.358	8847.8
273.427	8835.77
273.496	8832.5
273.564	8829.08
273.633	8831.78
273.702	8810.74
273.771	8798.23
273.84	8787.49
273.909	8788.99
273.977	8789.27
274.046	8784.36
274.115	8794.42
274.184	8778.45
274.253	8771.28
274.322	8785.81
274.39	8745.76
274.459	8726.31
274.528	8701.72
274.597	8697
274.665	8690.75
274.734	8696.81
274.803	8681.02
274.872	8678.9
274.94	8670
275.009	8702.07
275.078	8686.09
275.147	8689.46
275.215	8681.37
275.284	8689.5
275.353	8674.97
275.421	8649.61
275.49	8662.03
275.559	8650.14
275.627	8646.96
275.696	8636.33
275.765	8635.07
275.833	8631.47
275.902	8629.88
275.971	8638.78
276.039	8647.54
276.108	8648.65
276.177	8644.65
276.245	8630.94
276.314	8621.89
276.383	8621.94
276.451	8580.1
276.52	8583.8
276.588	8590.73
276.657	8599.45
276.725	8588.28
276.794	8590.25
276.863	8604.88
276.931	8581.54
277	8586.54
277.068	8600.21
277.137	8617.78
277.205	8613.5
277.274	8625.62
277.342	8635.87
277.411	8614.99
277.48	8609.07
277.548	8601.32
277.617	8601.51
277.685	8602.81
277.754	8606.9
277.822	8603.82
277.89	8615.71
277.959	8606.19
278.027	8590.45
278.096	8581.59
278.164	8612.69
278.233	8604.07
278.301	8593.05
278.37	8598.11
278.438	8587.76
278.507	8587.66
278.575	8562.68
278.643	8557.15
278.712	8541.32
278.78	8531.02
278.849	8543.58
278.917	8551.42
278.985	8548.77
279.054	8548.15
279.122	8557.58
279.191	8558.69
279.259	8552.05
279.327	8533.18
279.396	8550.55
279.464	8546.94
279.532	8551.52
279.601	8545.45
279.669	8544.58
279.737	8561.09
279.806	8559.6
279.874	8571.25
279.942	8564.7
280.011	8559.07
280.079	8573.75
280.147	8591.6
280.215	8598.73
280.284	8594.15
280.352	8584.62
280.42	8588.57
280.488	8582.56
280.557	8571.15
280.625	8570.77
280.693	8569.66
280.761	8571.97
280.83	8556.38
280.898	8569.32
280.966	8546.85
281.034	8513.11
281.102	8498.05
281.171	8489.82
281.239	8497.72
281.307	8481.4
281.375	8469.66
281.443	8498.63
281.512	8488.82
281.58	8492.52
281.648	8476.78
281.716	8484.92
281.784	8480.92
281.852	8478.85
281.92	8481.02
281.989	8496.56
282.057	8477.46
282.125	8523.72
282.193	8519.29
282.261	8520.35
282.329	8516.74
282.397	8528.33
282.465	8534.44
282.533	8548.64
282.601	8541.13
282.67	8517.89
282.738	8513.03
282.806	8523.32
282.874	8503.83
282.942	8510.91
283.01	8505.42
283.078	8506.19
283.146	8495.7
283.214	8504.17
283.282	8504.89
283.35	8514.76
283.418	8509.9
283.486	8521.11
283.554	8478.51
283.622	8482.94
283.69	8479.52
283.758	8466.77
283.826	8469.17
283.894	8477.45
283.962	8503.82
284.03	8513.4
284.098	8520.18
284.165	8516.29
284.233	8520.96
284.301	8515.47
284.369	8504.35
284.437	8497.52
284.505	8494.44
284.573	8510.61
284.641	8500.21
284.709	8505.51
284.777	8491.79
284.845	8500.94
284.912	8503.39
284.98	8511.72
285.048	8501.85
285.116	8506.9
285.184	8527.98
285.252	8525.24
285.319	8510.66
285.387	8499.11
285.455	8485.97
285.523	8490.3
285.591	8490.68
285.659	8490.16
285.726	8505.51
285.794	8493.48
285.862	8490.88
285.93	8489.1
285.997	8481.64
286.065	8475.19
286.133	8468.5
286.201	8463.4
286.269	8443.72
286.336	8431.83
286.404	8427.41
286.472	8440.3
286.539	8418.61
286.607	8398.92
286.675	8400.27
286.743	8407.73
286.81	8397.14
286.878	8404.94
286.946	8400.61
287.013	8398.87
287.081	8400.89
287.149	8385.69
287.216	8410.95
287.284	8409.99
287.352	8416.77
287.419	8414.41
287.487	8431.59
287.555	8433.33
287.622	8438.33
287.69	8446.37
287.758	8461.57
287.825	8455.08
287.893	8442.28
287.96	8456.27
288.028	8467.73
288.096	8466.28
288.163	8468.16
288.231	8458.3
288.298	8461.62
288.366	8471.1
288.433	8471.72
288.501	8464.41
288.569	8473.6
288.636	8459.21
288.704	8472.35
288.771	8482.36
288.839	8475.33
288.906	8470.62
288.974	8474.85
289.041	8463.3
289.109	8450.7
289.176	8460.18
289.244	8461.67
289.311	8474.76
289.379	8483.56
289.446	8485.44
289.514	8491.84
289.581	8496.22
289.649	8502.43
289.716	8505.12
289.783	8499.2
289.851	8516.77
289.918	8512.05
289.986	8517.3
290.053	8522.59
290.121	8518.89
290.188	8515.95
290.255	8545.21
290.323	8539.29
290.39	8539.77
290.458	8552.95
290.525	8568.93
290.592	8561.13
290.66	8564.5
290.727	8555.55
290.794	8565.18
290.862	8568.06
290.929	8569.17
290.996	8565.51
291.064	8575.91
291.131	8586.69
291.198	8601.51
291.266	8597.33
291.333	8602.38
291.4	8609.5
291.468	8632.17
291.535	8624.04
291.602	8628.03
291.669	8621.29
291.737	8625.19
291.804	8623.65
291.871	8644.44
291.938	8651.81
292.006	8682.52
292.073	8692.91
292.14	8708.36
292.207	8702.93
292.275	8704.99
292.342	8713.37
292.409	8742.73
292.476	8764.3
292.543	8753.8
292.611	8758.71
292.678	8783.65
292.745	8809.59
292.812	8817.53
292.879	8812.72
292.946	8821.62
293.014	8840.01
293.081	8847.56
293.148	8863.01
293.215	8884.43
293.282	8870.48
293.349	8881.55
293.416	8858.1
293.484	8873.17
293.551	8878.46
293.618	8896.42
293.685	8916.97
293.752	8908.31
293.819	8896.08
293.886	8884.24
293.953	8892.42
294.02	8902.43
294.087	8903.06
294.154	8897.91
294.221	8911.25
294.288	8907.83
294.356	8925.73
294.423	8928.05
294.49	8918.66
294.557	8933.25
294.624	8922.22
294.691	8949.56
294.758	8948.17
294.825	8959.77
294.892	8949.95
294.959	8951.25
295.026	8958.33
295.093	8952.4
295.16	8956.54
295.226	8963.33
295.293	8988.56
295.36	8995.34
295.427	9001.99
295.494	9015.95
295.561	9020.33
295.628	9043.35
295.695	9059.67
295.762	9066.6
295.829	9076.52
295.896	9091.49
295.963	9091.83
296.03	9100.88
296.096	9103.77
296.163	9114.26
296.23	9126.45
296.297	9141.51
296.364	9147.24
296.431	9151.29
296.498	9153.21
296.564	9173.48
296.631	9178.24
296.698	9161.39
296.765	9181.42
296.832	9167.31
296.899	9152.92
296.965	9176.56
297.032	9152.38
297.099	9174.2
297.166	9180.84
297.233	9169.38
297.299	9165.72
297.366	9171.02
297.433	9166.25
297.5	9177.09
297.566	9178.44
297.633	9179.54
297.7	9186.62
297.767	9178.39
297.833	9183.69
297.9	9186.19
297.967	9174.49
298.033	9189.08
298.1	9224.71
298.167	9215.81
298.234	9230.44
298.3	9240.79
298.367	9226.3
298.434	9230.1
298.5	9216.09
298.567	9207.18
298.634	9213.59
298.7	9231.83
298.767	9235.73
298.834	9258.07
298.9	9249.41
298.967	9241.27
299.033	9248.25
299.1	9259.04
299.167	9276.18
299.233	9273.82
299.3	9280.99
299.366	9300.15
299.433	9315.28
299.5	9282.72
299.566	9288.55
299.633	9301.26
299.699	9315.03
299.766	9316.14
299.832	9324.33
299.899	9332.18
299.965	9346.04
300.032	9334.87
300.099	9341.18
300.165	9344.99
300.232	9338.92
300.298	9340.41
300.365	9362.13
300.431	9365.79
300.498	9361.89
300.564	9365.45
300.631	9374.26
300.697	9394.54
300.763	9396.99
300.83	9389.48
300.896	9404.65
300.963	9412.83
301.029	9416.64
301.096	9421.21
301.162	9441.68
301.229	9438.02
301.295	9426.6
301.361	9432.05
301.428	9446.49
301.494	9434.21
301.561	9437
301.627	9438.11
301.693	9439.32
301.76	9439.89
301.826	9429.68
301.892	9437.82
301.959	9450.58
302.025	9441.19
302.092	9436.96
302.158	9438.98
302.224	9442.83
302.291	9436.09
302.357	9433.2
302.423	9426.31
302.49	9413.17
302.556	9426.7
302.622	9422.75
302.688	9434.89
302.755	9449.58
302.821	9449.58
302.887	9462.39
302.954	9460.12
303.02	9470.19
303.086	9471.2
303.152	9469.75
303.219	9468.84
303.285	9473.27
303.351	9482.52
303.417	9490.22
303.483	9476.45
303.55	9472.74
303.616	9471.58
303.682	9469.66
303.748	9464.12
303.815	9483.34
303.881	9496.68
303.947	9475.1
304.013	9481.79
304.079	9473.46
304.145	9447.22
304.212	9446.3
304.278	9435.37
304.344	9430.8
304.41	9414.76
304.476	9408.94
304.542	9400.94
304.608	9408.41
304.674	9389.1
304.741	9379.75
304.807	9384.47
304.873	9393.72
304.939	9407.25
305.005	9388.85
305.071	9390.68
305.137	9391.5
305.203	9362.46
305.269	9352.93
305.335	9363.33
305.401	9364.48
305.467	9364.34
305.533	9380.42
305.599	9385.96
305.666	9396.7
305.732	9400.17
305.798	9416.39
305.864	9443.27
305.93	9447.74
305.996	9448.85
306.062	9457.18
306.128	9452.8
306.194	9436.57
306.259	9434.45
306.325	9421.02
306.391	9435.46
306.457	9438.55
306.523	9442.35
306.589	9466.77
306.655	9462.24
306.721	9441.05
306.787	9424.34
306.853	9438.31
306.919	9416.11
306.985	9415.29
307.051	9404.12
307.117	9397.09
307.183	9390.83
307.248	9363.52
307.314	9367.57
307.38	9370.65
307.446	9373.35
307.512	9362.8
307.578	9368.24
307.644	9364.2
307.709	9372.62
307.775	9366.12
307.841	9369.35
307.907	9373.11
307.973	9348.74
308.039	9348.69
308.104	9355.86
308.17	9359.19
308.236	9347.24
308.302	9350.85
308.368	9341.03
308.433	9345.12
308.499	9336.22
308.565	9322.3
308.631	9322.83
308.696	9295.34
308.762	9281.28
308.828	9281.71
308.894	9265.05
308.959	9251.52
309.025	9236.36
309.091	9227.55
309.156	9222.87
309.222	9220.66
309.288	9208.53
309.354	9190.33
309.419	9189.22
309.485	9179.73
309.551	9180.41
309.616	9164.66
309.682	9161.05
309.748	9154.94
309.813	9142.95
309.879	9142.61
309.945	9137.17
310.01	9130
310.076	9132.45
310.141	9127.88
310.207	9107.46
310.273	9110.02
310.338	9106.07
310.404	9093.07
310.469	9079.01
310.535	9067.31
310.601	9040.59
310.666	9044.3
310.732	9059.75
310.797	9044.78
310.863	9031.49
310.928	9022.68
310.994	9021.43
311.059	9020.47
311.125	9018.4
311.191	9031.16
311.256	9018.79
311.322	9017.29
311.387	8995.39
311.453	9355.44
311.518	9328.49
311.584	9334.07
311.649	9338.31
311.715	9329.6
311.78	9335.95
311.846	9325.55
311.911	9331.14
311.976	9339.13
312.042	9317.66
312.107	9299.08
312.173	9295.42
312.238	9293.54
312.304	9288.29
312.369	9274.04
312.434	9260.23
312.5	9246.65
312.565	9217.05
312.631	9216.61
312.696	9207.13
312.761	9218.39
312.827	8850.88
312.892	8886.5
312.958	8872.88
313.023	8866.57
313.088	8866.91
313.154	8844.96
313.219	8837.84
313.284	8822.05
313.35	8808.18
313.415	8802.84
313.48	8800.87
313.546	8800.92
313.611	8804.72
313.676	8797.64
313.741	8794.47
313.807	8805.54
313.872	8810.74
313.937	8817.62
314.003	8829.17
314.068	8837.16
314.133	8840.58
314.198	8831.58
314.264	8810.21
314.329	8803.66
314.394	8804.38
314.459	8802.17
314.525	8825.51
314.59	8821.23
314.655	8812.66
314.72	8828.88
314.785	8826.76
314.851	8812.42
314.916	8794.71
314.981	8780.08
315.046	8771.27
315.111	8761.74
315.176	8745.86
315.242	8750.28
315.307	8742.29
315.372	8722.27
315.437	8708.26
315.502	8696.09
315.567	8705.18
315.632	8693.92
315.698	8696.13
315.763	8687.95
315.828	8681.98
315.893	8677.02
315.958	8675.24
316.023	8667.88
316.088	8649.25
316.153	8629.91
316.218	8626.49
316.283	8611.53
316.348	8598.25
316.413	8595.89
316.479	8579.24
316.544	8546.81
316.609	8518.13
316.674	8487.86
316.739	8454.67
316.804	8426.95
316.869	8391.39
316.934	8354.87
316.999	8327.11
317.064	8278.71
317.129	8234.78
317.194	8197.16
317.259	8144.38
317.324	8090.32
317.389	8050.73
317.454	8015.66
317.518	7985.94
317.583	7963.9
317.648	7937.83
317.713	7905.8
317.778	7844.77
317.843	7819.67
317.908	7785.24
317.973	7743.44
318.038	7717.04
318.103	7683.58
318.168	7651.32
318.233	7625.83
318.297	7577.95
318.362	7541.12
318.427	7503.14
318.492	7484.54
318.557	7439.12
318.622	7415.94
318.687	7399.85
318.751	7358.18
318.816	7321.6
318.881	7285.98
318.946	7231.38
319.011	7192.6
319.075	7146.99
319.14	7121.19
319.205	7077.32
319.27	7044.65
319.335	7001.32
319.399	6957.4
319.464	6931.41
319.529	6880.35
319.594	6839.46
319.658	6808.1
319.723	6768.86
319.788	6740.38
319.853	6684.85
319.917	6660.07
319.982	6610.41
320.047	6577.75
320.112	6552.11
320.176	6504.82
320.241	6473.94
320.306	6446.82
320.37	6401.31
320.435	6372.12
320.5	6342.88
320.564	6305.02
320.629	6261.97
320.694	6239.07
320.758	6203.56
320.823	6158.55
320.888	6134.36
320.952	6087.53
321.017	6052.61
321.082	6015.04
321.146	5977.52
321.211	5945.43
321.275	5903.99
321.34	5864.08
321.405	5816.79
321.469	5769.41
321.534	5724.87
321.598	5677.2
321.663	5645.07
321.727	5617.97
321.792	5573.48
321.857	5532.77
321.921	5495.53
321.986	5454.6
322.05	5391.2
322.115	5351.42
322.179	5309.06
322.244	5248.6
322.308	5216.31
322.373	5171.23
322.437	5122.75
322.502	5103.96
322.566	5053.52
322.631	5014.39
322.695	4974.12
322.76	4932.7
322.824	4896.93
322.889	4858.49
322.953	4812.21
323.018	4747.91
323.082	4682.63
323.146	4628.27
323.211	4575.76
323.275	4531.64
323.34	4487.68
323.404	4452.19
323.468	4409.56
323.533	4364.93
323.597	4324.68
323.662	4273.41
323.726	4240.88
323.79	4202.87
323.855	4134.74
323.919	4091
323.983	4049.54
324.048	3985.76
324.112	4140.1
324.177	4017.09
324.241	3809.41
324.305	3605.85
324.37	3407.55
324.434	3217.09
324.498	3178.41
324.562	3127.36
324.627	3069.69
324.691	3017.87
324.755	2958.82
324.82	2883.67
324.884	2810.54
324.948	2742.76
325.012	2653.31
325.077	2526.98
