Data from 20250704_urea_0.1M_MAYP1162681_11-18-41-695.txt Node
Date: Fri Jul 04 11:18:41 BST 2025
User: adleo
Spectrometer: MAYP116268
Trigger mode: 0
Integration Time (sec): 1.000000E0
Scans to average: 1
Electric dark correction enabled: true
Nonlinearity correction enabled: true
Boxcar width: 10
XAxis mode: Wavelengths
Number of Pixels in Spectrum: 2068
>>>>>Begin Spectral Data<<<<<
179.565	1240.13
179.642	1297.88
179.718	1343.75
179.795	1384.56
179.871	1418.4
179.948	1438.16
180.024	1459.64
180.101	1483.39
180.177	1499.07
180.254	1523.02
180.33	1546.92
180.407	1603.05
180.483	1700.63
180.56	1793.85
180.636	1881.21
180.712	1871.89
180.789	1884.39
180.865	1894.61
180.942	1905.45
181.018	1917.43
181.095	1932.36
181.171	1937.4
181.248	1939.3
181.324	1955.14
181.4	1961.61
181.477	1973.49
181.553	1987.04
181.63	2007.4
181.706	2022.85
181.782	2031.69
181.859	2030.98
181.935	2036.21
182.011	2031.5
182.088	2050.15
182.164	2070.51
182.24	2083.78
182.317	2094.1
182.393	2090.63
182.469	2108.22
182.546	2121.69
182.622	2127.35
182.698	2122.73
182.775	2132.2
182.851	2147.13
182.927	2139.24
183.003	2135.15
183.08	2128.49
183.156	2136.53
183.232	2130.58
183.308	2120.16
183.385	2127.25
183.461	2143.28
183.537	2142.19
183.613	2155.7
183.69	2147.99
183.766	2135.81
183.842	2144.65
183.918	2146.75
183.995	2162.54
184.071	2165.73
184.147	2158.07
184.223	2144.61
184.299	2156.84
184.375	2147.04
184.452	2155.52
184.528	2206.24
184.604	2217.75
184.68	2229.26
184.756	2237.83
184.832	2241.97
184.908	2246.1
184.985	2245.49
185.061	2231.36
185.137	2244.25
185.213	2234.07
185.289	2234.55
185.365	2227.75
185.441	2224.99
185.517	2236.5
185.593	2231.41
185.669	2225.89
185.745	2238.45
185.822	2256.38
185.898	2245.44
185.974	2254.81
186.05	2242.67
186.126	2208.7
186.202	2200.94
186.278	2197.71
186.354	2187.67
186.43	2194.9
186.506	2193.81
186.582	2192.86
186.658	2197.61
186.734	2173.21
186.81	2174.49
186.886	2177.44
186.962	2191.57
187.038	2188.48
187.114	2182.39
187.19	2188.48
187.266	2180.11
187.341	2178.3
187.417	2172.68
187.493	2173.97
187.569	2177.39
187.645	2172.59
187.721	2157.93
187.797	2165.45
187.873	2170.49
187.949	2162.64
188.025	2159.69
188.101	2163.83
188.176	2171.54
188.252	2167.97
188.328	2180.1
188.404	2181.86
188.48	2175.01
188.556	2168.01
188.632	2167.87
188.707	2170.92
188.783	2171.39
188.859	2165.64
188.935	2155.88
189.011	2161.88
189.086	2155.74
189.162	2149.7
189.238	2147.27
189.314	2147.7
189.39	2142.18
189.465	2133.95
189.541	2152.56
189.617	2136.34
189.693	2128.87
189.768	2130.44
189.844	2154.99
189.92	2143.63
189.996	2152.53
190.071	2164.13
190.147	2162.47
190.223	2169.75
190.298	2162.33
190.374	2148.48
190.45	2160.42
190.526	2170.7
190.601	2164.94
190.677	2166.13
190.753	2194.36
190.828	2197.97
190.904	2213.68
190.98	2229.24
191.055	2240.9
191.131	2233.85
191.207	2254.79
191.282	2264.82
191.358	2257.3
191.433	2241.45
191.509	2255.39
191.585	2249.3
191.66	2251.11
191.736	2259
191.811	2249.96
191.887	2264.39
191.963	2287.99
192.038	2295.13
192.114	2290.13
192.189	2295.22
192.265	2291.84
192.34	2269.08
192.416	2268.7
192.491	2262.56
192.567	2264.94
192.642	2265.94
192.718	2264.52
192.793	2253.67
192.869	2252.57
192.944	2254.85
193.02	2263.42
193.095	2268.27
193.171	2274.65
193.246	2275.46
193.322	2271.99
193.397	2275.55
193.473	2264.22
193.548	2245.71
193.624	2253.23
193.699	2255.23
193.775	2272.08
193.85	2275.84
193.925	2285.79
194.001	2285.07
194.076	2280.31
194.152	2268.23
194.227	2260.52
194.302	2251.24
194.378	2252.52
194.453	2247.67
194.529	2259.95
194.604	2244.44
194.679	2236.87
194.755	2220.04
194.83	2228.22
194.905	2229.03
194.981	2237.41
195.056	2227.94
195.131	2230.7
195.207	2227.42
195.282	2219.42
195.357	2195.67
195.433	2209.71
195.508	2194.95
195.583	2201.19
195.659	2213.56
195.734	2223.8
195.809	2224.18
195.884	2234.21
195.96	2236.78
196.035	2253.72
196.11	2248.39
196.185	2262.62
196.261	2268.42
196.336	2300.69
196.411	2288.45
196.486	2291.12
196.561	2283.65
196.637	2292.78
196.712	2309.2
196.787	2311.68
196.862	2324.48
196.937	2339.52
197.013	2344.47
197.088	2356.22
197.163	2378.08
197.238	2393.75
197.313	2393.6
197.388	2405.22
197.464	2435.27
197.539	2444.98
197.614	2435.98
197.689	2448.41
197.764	2463.27
197.839	2486.84
197.914	2482.12
197.989	2502.64
198.065	2517.26
198.14	2567.91
198.215	2593.34
198.29	2609.44
198.365	2623.83
198.44	2638.11
198.515	2666.51
198.59	2684.18
198.665	2711.72
198.74	2720.49
198.815	2720.77
198.89	2745.07
198.965	2776.52
199.04	2773.9
199.115	2793.33
199.19	2840.93
199.265	2842.74
199.34	2855.23
199.415	2885.13
199.49	2903.33
199.565	2917.29
199.64	2941.36
199.715	2939.45
199.79	2948.65
199.865	2952.8
199.94	2952.61
200.015	2981.45
200.09	2984.12
200.165	2991.84
200.24	2997.52
200.315	3039.37
200.39	3056.1
200.464	3061.58
200.539	3066.16
200.614	3082.47
200.689	3105.79
200.764	3109.03
200.839	3128.33
200.914	3135.11
200.989	3123.89
201.063	3137.29
201.138	3118.95
201.213	3121.62
201.288	3104.21
201.363	3112.51
201.438	3114.37
201.512	3128.24
201.587	3115.03
201.662	3120.99
201.737	3132.87
201.812	3144.03
201.886	3114.1
201.961	3130.14
202.036	3119.03
202.111	3116.26
202.186	3084.76
202.26	3066.4
202.335	3046.94
202.41	3046.18
202.485	3031.59
202.559	3015.67
202.634	2996.31
202.709	3010.27
202.784	2996.44
202.858	2999.78
202.933	2984.85
203.008	2984.66
203.082	2973.84
203.157	2977.28
203.232	2945.34
203.306	2935.47
203.381	2912.05
203.456	2898.99
203.53	2884.87
203.605	2879
203.68	2871.56
203.754	2885.38
203.829	2891.24
203.904	2889.77
203.978	2897.49
204.053	2922.76
204.127	2935.92
204.202	2960.72
204.277	2969.39
204.351	2994.15
204.426	3021.96
204.5	3047.76
204.575	3053.3
204.65	3099.91
204.724	3137.96
204.799	3190.89
204.873	3235.76
204.948	3288.36
205.022	3331.49
205.097	3384.56
205.171	3460.32
205.246	3535.41
205.32	3603.72
205.395	3673.94
205.469	3742.65
205.544	3825.24
205.618	3893.39
205.693	3992.44
205.767	4068.78
205.842	4185.41
205.916	4269.29
205.991	4356.73
206.065	4468.99
206.14	4589.9
206.214	4702.96
206.289	4809.03
206.363	4937.75
206.438	5061.41
206.512	5191.89
206.586	5338.94
206.661	5475.36
206.735	5584.92
206.81	5717.65
206.884	5871.35
206.958	5996.81
207.033	6155.78
207.107	6315.75
207.181	6498.73
207.256	6650.2
207.33	6826.58
207.405	6996.6
207.479	7186.52
207.553	7358.1
207.628	7505.73
207.702	7688.88
207.776	7848.09
207.851	8023.04
207.925	8208.72
207.999	8374.98
208.073	8556.58
208.148	8745
208.222	8915.73
208.296	9136.78
208.371	9334.04
208.445	9525.96
208.519	9747
208.593	9947.91
208.668	10132.06
208.742	10323.23
208.816	10512.54
208.89	10721.16
208.965	10914.34
209.039	11110.03
209.113	11322.25
209.187	11538.36
209.261	11725.44
209.336	11944.04
209.41	12156.01
209.484	12351.55
209.558	12571.97
209.632	12770.99
209.707	12963.51
209.781	13183.36
209.855	13393.77
209.929	13608.27
210.003	13809.86
210.077	13995.88
210.151	14239.69
210.226	14456.46
210.3	14670.29
210.374	14874.48
210.448	15059.05
210.522	15247.32
210.596	15434.83
210.67	15623.63
210.744	15851.47
210.818	16066.39
210.892	16258.27
210.966	16435.55
211.041	16630.41
211.115	16794.47
211.189	16977.81
211.263	17159.41
211.337	17330.69
211.411	17503.85
211.485	17665.49
211.559	17842.65
211.633	18003.33
211.707	18120.72
211.781	18288.04
211.855	18400.42
211.929	18552.03
212.003	18690.77
212.077	18849.52
212.151	19007.82
212.225	19168.83
212.299	19301.93
212.373	19426.17
212.447	19573.49
212.52	19735.8
212.594	19871.65
212.668	20033.87
212.742	20175.99
212.816	20314.73
212.89	20444.9
212.964	20573.44
213.038	20709.84
213.112	20852.74
213.186	21001.37
213.26	21112.8
213.333	21197.87
213.407	21340.43
213.481	21463.96
213.555	21589.86
213.629	21701.34
213.703	21813.46
213.777	21932.24
213.85	22032.61
213.924	22183.54
213.998	22285.07
214.072	22400.54
214.146	22508.19
214.219	22603.84
214.293	22697.9
214.367	22796.68
214.441	22900.73
214.515	22994.61
214.588	23057.58
214.662	23110.76
214.736	23189.74
214.81	23290.94
214.883	23390.13
214.957	23464.82
215.031	23544.19
215.105	23606.63
215.178	23679.26
215.252	23758.88
215.326	23804.27
215.4	23856.74
215.473	23892.14
215.547	23956.34
215.621	24010.94
215.694	24077.51
215.768	24122.66
215.842	24179.72
215.915	24241.36
215.989	24281.74
216.063	24337.56
216.136	24411.94
216.21	24488.93
216.284	24565.45
216.357	24624.54
216.431	24671.44
216.504	24736.61
216.578	24808.12
216.652	24877.25
216.725	24924.34
216.799	24973.99
216.873	25032.03
216.946	25098.85
217.02	25135.96
217.093	25176.3
217.167	25200.47
217.24	25235.36
217.314	25288.25
217.387	25321.35
217.461	25366.86
217.535	25432.64
217.608	25470.04
217.682	25506
217.755	25551.61
217.829	25571.59
217.902	25608.75
217.976	25660.4
218.049	25693.94
218.123	25724.01
218.196	25776.87
218.27	25816.49
218.343	25839.57
218.417	25874.03
218.49	25904.92
218.563	25949.96
218.637	25992.97
218.71	26051.86
218.784	26090.58
218.857	26134.22
218.931	26179.5
219.004	26205.33
219.077	26228.74
219.151	26256.45
219.224	26289.72
219.298	26320.38
219.371	26363.06
219.444	26391.45
219.518	26414.77
219.591	26438.14
219.665	26490.87
219.738	26508.49
219.811	26531.86
219.885	26576.67
219.958	26607.14
220.031	26630.07
220.105	26666
220.178	26691.59
220.251	26702.36
220.325	26720.81
220.398	26735.49
220.471	26756.06
220.544	26786.77
220.618	26801.84
220.691	26823.23
220.764	26848.64
220.838	26856.22
220.911	26869.74
220.984	26904.03
221.057	26926.73
221.131	26952.9
221.204	26937.35
221.277	26967.97
221.35	26999.07
221.424	27001.59
221.497	27017.91
221.57	27019.02
221.643	27027.86
221.716	27031.96
221.79	27036.17
221.863	27046.26
221.936	27047.95
222.009	27054.28
222.082	27060.51
222.155	27059.2
222.229	27081.62
222.302	27081.76
222.375	27084.22
222.448	27084.85
222.521	27070.41
222.594	27064.08
222.667	27042.88
222.74	27059.3
222.814	27046.55
222.887	27043.75
222.96	27057.37
223.033	27057.03
223.106	27070.99
223.179	27072.59
223.252	27075.44
223.325	27067.76
223.398	27060.51
223.471	27047.52
223.544	27047.62
223.617	27029.07
223.69	27021.97
223.763	26987.49
223.837	26975.12
223.91	26964.26
223.983	26939.58
224.056	26917.32
224.129	26906.31
224.202	26899.3
224.275	26869.46
224.348	26845.89
224.42	26812.23
224.493	26761.18
224.566	26733.85
224.639	26710.62
224.712	26684.83
224.785	26664.88
224.858	26649.67
224.931	26627.36
225.004	26622.44
225.077	26595.73
225.15	26558.7
225.223	26537.45
225.296	26543.64
225.369	26501.87
225.442	26476.76
225.514	26462.9
225.587	26453.25
225.66	26435.19
225.733	26426.06
225.806	26401.2
225.879	26377.97
225.952	26339.31
226.025	26338.2
226.097	26332.4
226.17	26307.44
226.243	26254.1
226.316	26225.47
226.389	26206.1
226.461	26184.81
226.534	26156.38
226.607	26130.89
226.68	26130.99
226.753	26105.64
226.825	26054.13
226.898	26042.83
226.971	26012.13
227.044	25988.91
227.117	25958.55
227.189	25929.39
227.262	25903.76
227.335	25885.8
227.407	25848.1
227.48	25841.06
227.553	25807.56
227.626	25764.26
227.698	25736.02
227.771	25720.58
227.844	25671.78
227.916	25635.29
227.989	25597.36
228.062	25559.86
228.134	25547.65
228.207	25503.05
228.28	25467.14
228.352	25435
228.425	25406.34
228.498	25394.9
228.57	25347.22
228.643	25323.43
228.716	25290.08
228.788	25245.44
228.861	25200.42
228.934	25189.75
229.006	25158.68
229.079	25129.58
229.151	25103.52
229.224	25047.07
229.296	25028.97
229.369	25025.89
229.442	25005.38
229.514	24965.82
229.587	24948.11
229.659	24891.17
229.732	24859.43
229.804	24843.12
229.877	24842.15
229.949	24824.3
230.022	24803.79
230.094	24782.86
230.167	24754.05
230.239	24712.85
230.312	24686.94
230.384	24678.02
230.457	24649.51
230.529	24615.64
230.602	24572.56
230.674	24536.67
230.747	24529.58
230.819	24499.28
230.892	24439.99
230.964	24413.85
231.037	24387.61
231.109	24350.99
231.181	24333.29
231.254	24296.01
231.326	24249.12
231.399	24203.73
231.471	24153.61
231.544	24098.86
231.616	24070.93
231.688	24038.52
231.761	23991.06
231.833	23944.28
231.905	23888.42
231.978	23844.92
232.05	23800.69
232.122	23773.25
232.195	23735.59
232.267	23706.26
232.339	23661.22
232.412	23645.59
232.484	23601.56
232.556	23553.53
232.629	23534.96
232.701	23500.67
232.773	23466.34
232.846	23426.03
232.918	23400.27
232.99	23370.62
233.062	23337.97
233.135	23298.09
233.207	23247.46
233.279	23224.03
233.351	23194.9
233.424	23153.68
233.496	23107.92
233.568	23095.96
233.64	23046.93
233.713	23003.19
233.785	22970.74
233.857	22943.45
233.929	22889.6
234.001	22873.49
234.074	22848.9
234.146	22789.21
234.218	22747.12
234.29	22703.78
234.362	22665.79
234.434	22602.1
234.507	22551.28
234.579	22498.93
234.651	22452.26
234.723	22414.37
234.795	22378.36
234.867	22339.41
234.939	22304.46
235.012	22270.28
235.084	22230.41
235.156	22200.62
235.228	22148.6
235.3	22091.48
235.372	22041.78
235.444	22014.88
235.516	21940.45
235.588	21914.9
235.66	21868.67
235.732	21816.9
235.804	21832.66
235.876	21800.8
235.948	21773.71
236.02	21724.6
236.092	21680.16
236.164	21642.37
236.236	21605.11
236.308	21560.48
236.38	21515.12
236.452	21473.04
236.524	21423.54
236.596	21384.84
236.668	21351.72
236.74	21319.14
236.812	21279.48
236.884	21242.32
236.956	21190.75
237.028	21136.86
237.1	21075.8
237.172	21053.24
237.244	21032.32
237.316	20955.59
237.388	20901.27
237.46	20844.45
237.532	20823.29
237.604	20770.52
237.675	20740.59
237.747	20699.24
237.819	20652.06
237.891	20605.41
237.963	20550.08
238.035	20504.11
238.107	20421.84
238.178	20380.97
238.25	20334.51
238.322	20315.14
238.394	20271.38
238.466	20222.13
238.538	20187.14
238.609	20152.3
238.681	20087.53
238.753	20028.98
238.825	19988.78
238.897	19951.63
238.968	19929.99
239.04	19880.98
239.112	19875.25
239.184	19822.38
239.255	19779.3
239.327	19741.32
239.399	19707.59
239.471	19678.15
239.542	19649.86
239.614	19639.74
239.686	19577.19
239.758	19549.77
239.829	19491.02
239.901	19449.77
239.973	19410.45
240.044	19380.96
240.116	19334.02
240.188	19293.2
240.259	19253.64
240.331	19204.63
240.403	19167.33
240.474	19105.02
240.546	19052.06
240.618	18989.41
240.689	18944.36
240.761	18910.19
240.833	18882.34
240.904	18831.59
240.976	18791.79
241.048	18749.28
241.119	18707.36
241.191	18668.13
241.262	18642.01
241.334	18601.58
241.405	18550.07
241.477	18511.27
241.549	18459.66
241.62	18419.71
241.692	18393.26
241.763	18369.31
241.835	18322.99
241.906	18281.21
241.978	18222.23
242.049	18191.1
242.121	18156.11
242.192	18125.94
242.264	18061.13
242.335	17996.79
242.407	17976.12
242.478	17923.78
242.55	17888.02
242.621	17846.58
242.693	17808.36
242.764	17758.73
242.836	17711.11
242.907	17692.03
242.979	17661.04
243.05	17624.8
243.122	17594.34
243.193	17542.73
243.264	17473.19
243.336	17433.72
243.407	17403.69
243.479	17393.62
243.55	17365.72
243.622	17331.36
243.693	17288.51
243.764	17269.19
243.836	17226.39
243.907	17174.15
243.978	17139.01
244.05	17096.31
244.121	17039.4
244.192	17009.13
244.264	16955.73
244.335	16917.71
244.407	16857.94
244.478	16815.24
244.549	16777.94
244.62	16727.62
244.692	16697.65
244.763	16679.19
244.834	16640.05
244.906	16597.59
244.977	16556.87
245.048	16524.38
245.119	16472.81
245.191	16425.2
245.262	16368.27
245.333	16349.72
245.405	16317.47
245.476	16285.86
245.547	16250.67
245.618	16223.68
245.689	16185.8
245.761	16160.83
245.832	16127.86
245.903	16101.35
245.974	16079.04
246.045	16035.76
246.117	16014.4
246.188	15956.85
246.259	15908.22
246.33	15868.02
246.401	15825.9
246.473	15776.73
246.544	15738.03
246.615	15720.34
246.686	15678.45
246.757	15662.84
246.828	15613.86
246.899	15595.6
246.97	15548.36
247.042	15511.34
247.113	15484.49
247.184	15472.97
247.255	15419.71
247.326	15384.71
247.397	15344.56
247.468	15307.54
247.539	15278.53
247.61	15235
247.681	15211.48
247.752	15191.81
247.823	15152.48
247.894	15125.19
247.965	15092.99
248.037	15052.99
248.108	15005.89
248.179	14978.42
248.25	14938.46
248.321	14923.03
248.392	14875.74
248.463	14863.11
248.534	14825.51
248.605	14788.45
248.675	14752.34
248.746	14739.95
248.817	14719.18
248.888	14701.44
248.959	14646.15
249.03	14625.52
249.101	14597.32
249.172	14562.46
249.243	14504.38
249.314	14486.54
249.385	14459.93
249.456	14432.26
249.527	14397.65
249.598	14376.92
249.669	14351.13
249.739	14326.98
249.81	14302.35
249.881	14261.76
249.952	14232.45
250.023	14201.89
250.094	14165.4
250.165	14130.4
250.235	14093.38
250.306	14057.13
250.377	14016.49
250.448	13997.3
250.519	13942.83
250.59	13925.91
250.66	13901.61
250.731	13893.51
250.802	13869.6
250.873	13835.57
250.944	13810.07
251.014	13770.73
251.085	13767.31
251.156	13745.95
251.227	13734.24
251.297	13718.09
251.368	13704.79
251.439	13692.93
251.51	13683.14
251.58	13651.33
251.651	13619.51
251.722	13608.57
251.792	13565.95
251.863	13538.04
251.934	13525.94
252.005	13535.73
252.075	13506.42
252.146	13493.74
252.217	13481.01
252.287	13461.15
252.358	13437.58
252.429	13433.43
252.499	13413.57
252.57	13385.9
252.641	13365.41
252.711	13334.75
252.782	13298.4
252.852	13292.19
252.923	13262.68
252.994	13240.12
253.064	13228.75
253.135	13192.25
253.205	13153.83
253.276	13157.4
253.347	13146.94
253.417	13113.58
253.488	13081.96
253.558	13058.14
253.629	13024.16
253.699	13002.51
253.77	12992.15
253.841	12969.93
253.911	12944.52
253.982	12917.33
254.052	12898.92
254.123	12879.59
254.193	12848.4
254.264	12859.92
254.334	12826.47
254.405	12789.93
254.475	12754.5
254.546	12733.29
254.616	12728.08
254.687	12717.33
254.757	12700.02
254.827	12670.33
254.898	12654.33
254.968	12633.5
255.039	12606.51
255.109	12601.25
255.18	12570.02
255.25	12515.59
255.321	12497.42
255.391	12455.63
255.461	12464.59
255.532	12415.71
255.602	12395.18
255.673	12362.21
255.743	12323.74
255.813	12273.61
255.884	12263.29
255.954	12252.98
256.024	12243.48
256.095	12214.66
256.165	12169.68
256.235	12149.01
256.306	12127.51
256.376	12115.84
256.446	12103.69
256.517	12085.47
256.587	12072.75
256.657	12048.46
256.728	12040.94
256.798	12021.46
256.868	12007.87
256.938	11978.71
257.009	11972.15
257.079	11957.6
257.149	11962.8
257.219	11922.6
257.29	11911.8
257.36	11875.61
257.43	11862.01
257.5	11816.76
257.571	11788.41
257.641	11784.56
257.711	11749.23
257.781	11734.72
257.852	11721.66
257.922	11677.51
257.992	11654.61
258.062	11629.79
258.132	11626.03
258.202	11596.92
258.273	11582.8
258.343	11576.44
258.413	11543.66
258.483	11519.71
258.553	11480.81
258.623	11454.26
258.693	11446.16
258.764	11449.34
258.834	11449.24
258.904	11425.43
258.974	11402.4
259.044	11387.8
259.114	11374.73
259.184	11358.83
259.254	11338.54
259.324	11292.76
259.394	11289.77
259.464	11287.65
259.535	11264.61
259.605	11230.97
259.675	11204.32
259.745	11185.09
259.815	11159.16
259.885	11141.19
259.955	11148.61
260.025	11121.63
260.095	11104.85
260.165	11084.23
260.235	11075.7
260.305	11040.18
260.375	11013.39
260.445	11027.75
260.515	11029.48
260.585	11018.11
260.655	11003.07
260.725	10998.78
260.795	10993.2
260.865	10985.1
260.934	10958.45
261.004	10955.85
261.074	10945.87
261.144	10945.34
261.214	10941.82
261.284	10928.28
261.354	10915.66
261.424	10890.79
261.494	10899.75
261.564	10881.73
261.634	10875.18
261.703	10841.54
261.773	10834.55
261.843	10827.71
261.913	10803.04
261.983	10768.59
262.053	10766.37
262.123	10748.01
262.192	10716.16
262.262	10712.21
262.332	10685.28
262.402	10677.85
262.472	10658.48
262.541	10621.67
262.611	10618.93
262.681	10590.84
262.751	10571.85
262.821	10558.94
262.89	10529.55
262.96	10519.72
263.03	10523.62
263.1	10506.85
263.169	10487.1
263.239	10477.08
263.309	10478.23
263.379	10470.38
263.448	10458.14
263.518	10438.05
263.588	10422.97
263.657	10429.23
263.727	10422.87
263.797	10404.85
263.867	10385.73
263.936	10352.82
264.006	10355.95
264.076	10335.09
264.145	10313.12
264.215	10292.31
264.285	10288.12
264.354	10256.57
264.424	10229.44
264.494	10197.36
264.563	10179.39
264.633	10189.65
264.702	10178.33
264.772	10145.37
264.842	10123.6
264.911	10113.72
264.981	10089.01
265.05	10075.91
265.12	10051.05
265.19	10041.8
265.259	10043.72
265.329	10039.97
265.398	10028.45
265.468	10036.74
265.537	10022.58
265.607	10023.35
265.676	10022.53
265.746	10004.32
265.815	10003.07
265.885	9987.7
265.955	9963.81
266.024	9945.22
266.094	9905.53
266.163	9915.41
266.232	9921.38
266.302	9911.17
266.371	9907.89
266.441	9897.39
266.51	9892.48
266.58	9876.58
266.649	9851.73
266.719	9844.45
266.788	9835.59
266.858	9843.63
266.927	9805.97
266.996	9793.69
267.066	9783.62
267.135	9757.56
267.205	9756.41
267.274	9749.04
267.343	9752.36
267.413	9745.72
267.482	9748.41
267.552	9756.02
267.621	9717.83
267.69	9687.29
267.76	9674.34
267.829	9659.02
267.898	9649.19
267.968	9627.57
268.037	9623.86
268.106	9623.09
268.176	9596.94
268.245	9577.53
268.314	9557.01
268.384	9558.65
268.453	9554.51
268.522	9544.83
268.592	9548.01
268.661	9529.32
268.73	9514.58
268.799	9499.56
268.869	9500.67
268.938	9469.03
269.007	9450.44
269.076	9441.82
269.146	9440.71
269.215	9433.3
269.284	9437.82
269.353	9419.53
269.422	9406.04
269.492	9390.59
269.561	9346.43
269.63	9342.97
269.699	9328.57
269.768	9319.13
269.838	9310.41
269.907	9301.07
269.976	9274.16
270.045	9240.79
270.114	9231.06
270.183	9228.27
270.253	9218.16
270.322	9193.12
270.391	9187.63
270.46	9193.85
270.529	9194.42
270.598	9190.91
270.667	9180.12
270.736	9156.62
270.806	9150.99
270.875	9160.72
270.944	9145.89
271.013	9166.54
271.082	9152.77
271.151	9153.21
271.22	9128.7
271.289	9120.71
271.358	9109.35
271.427	9107.61
271.496	9105.21
271.565	9097.55
271.634	9081.67
271.703	9104.78
271.772	9103.24
271.841	9090.29
271.91	9062.17
271.979	9051.92
272.048	9025.82
272.117	9023.32
272.186	9009.12
272.255	9007.15
272.324	8997.66
272.393	8991.89
272.462	8982.69
272.531	8981.1
272.6	8963.67
272.669	8969.26
272.738	8955.25
272.807	8948.51
272.876	8923.48
272.945	8948.56
273.013	8943.65
273.082	8947.21
273.151	8901.47
273.22	8901.76
273.289	8896.47
273.358	8908.31
273.427	8894.98
273.496	8893.15
273.564	8891.17
273.633	8897.38
273.702	8882.32
273.771	8874.85
273.84	8868.12
273.909	8861.14
273.977	8857.38
274.046	8847.32
274.115	8852.66
274.184	8839.48
274.253	8835.43
274.322	8854.54
274.39	8823.54
274.459	8813.19
274.528	8786.91
274.597	8781.47
274.665	8775.65
274.734	8787.59
274.803	8773.96
274.872	8772.9
274.94	8761.5
275.009	8815.92
275.078	8794.74
275.147	8788.87
275.215	8780.92
275.284	8790.07
275.353	8778.56
275.421	8755.46
275.49	8768.41
275.559	8760.66
275.627	8757.53
275.696	8752.53
275.765	8745.69
275.833	8737.13
275.902	8739.77
275.971	8750.65
276.039	8771.97
276.108	8775.1
276.177	8770.19
276.245	8759.31
276.314	8751.23
276.383	8755.85
276.451	8694.5
276.52	8700.56
276.588	8716.35
276.657	8722.65
276.725	8718.66
276.794	8716.06
276.863	8723.86
276.931	8700.99
277	8704.89
277.068	8708.84
277.137	8720.83
277.205	8717.7
277.274	8733.82
277.342	8744.46
277.411	8728.38
277.48	8705.47
277.548	8697.53
277.617	8692.53
277.685	8691.37
277.754	8695.03
277.822	8690.36
277.89	8699.8
277.959	8701
278.027	8677.13
278.096	8667.74
278.164	8687.96
278.233	8681.08
278.301	8670.25
278.37	8674.63
278.438	8655.18
278.507	8659.9
278.575	8631.36
278.643	8633.29
278.712	8615.29
278.78	8592.09
278.849	8601.09
278.917	8613.41
278.985	8602.34
279.054	8607.25
279.122	8622.17
279.191	8619.33
279.259	8616.39
279.327	8595.89
279.396	8607.58
279.464	8607.68
279.532	8616.06
279.601	8612.3
279.669	8607.73
279.737	8622.94
279.806	8626.11
279.874	8644.55
279.942	8641.47
280.011	8638.24
280.079	8644.79
280.147	8661.78
280.215	8676.26
280.284	8673.18
280.352	8662.45
280.42	8673.18
280.488	8665.82
280.557	8653.06
280.625	8654.12
280.693	8656.86
280.761	8656.14
280.83	8633.38
280.898	8647.81
280.966	8625.24
281.034	8595.26
281.102	8587.17
281.171	8582.12
281.239	8594.39
281.307	8579.86
281.375	8569.22
281.443	8597.62
281.512	8588.57
281.58	8598.73
281.648	8576.73
281.716	8574.04
281.784	8569.61
281.852	8560.03
281.92	8554.69
281.989	8560.08
282.057	8545.74
282.125	8586.23
282.193	8581.99
282.261	8584.11
282.329	8579.63
282.397	8585.36
282.465	8591.42
282.533	8609.18
282.601	8594.5
282.67	8571.93
282.738	8568.37
282.806	8582.42
282.874	8572.65
282.942	8576.84
283.01	8569.33
283.078	8579.39
283.146	8576.98
283.214	8583.81
283.282	8589.83
283.35	8600.8
283.418	8597.58
283.486	8602.49
283.554	8558.15
283.622	8563.06
283.69	8563.97
283.758	8554.01
283.826	8561.42
283.894	8565.32
283.962	8580.15
284.03	8597.85
284.098	8601.46
284.165	8596.03
284.233	8595.93
284.301	8583.61
284.369	8574.9
284.437	8566.67
284.505	8561.28
284.573	8573.17
284.641	8564.02
284.709	8570.81
284.777	8557.91
284.845	8566.09
284.912	8574.95
284.98	8580.38
285.048	8574.37
285.116	8576.05
285.184	8592.37
285.252	8589.34
285.319	8576.1
285.387	8567.92
285.455	8554.01
285.523	8560.99
285.591	8558.3
285.659	8563.25
285.726	8583.03
285.794	8568.45
285.862	8563.45
285.93	8562.34
285.997	8564.27
286.065	8559.02
286.133	8551.76
286.201	8548.48
286.269	8532.17
286.336	8524.32
286.404	8518.84
286.472	8531.25
286.539	8516.05
286.607	8501.52
286.675	8498.29
286.743	8506.66
286.81	8501.22
286.878	8513.54
286.946	8504.16
287.013	8504.64
287.081	8501.18
287.149	8482.5
287.216	8508.68
287.284	8505.55
287.352	8507.57
287.419	8500.69
287.487	8521.14
287.555	8521.19
287.622	8519.41
287.69	8527.02
287.758	8533.51
287.825	8531.06
287.893	8522.88
287.96	8528.79
288.028	8535.24
288.096	8543.47
288.163	8551.99
288.231	8540.49
288.298	8536.54
288.366	8555.31
288.433	8553.44
288.501	8545.4
288.569	8545.98
288.636	8535.87
288.704	8547.04
288.771	8557
288.839	8549.54
288.906	8540.35
288.974	8549.97
289.041	8550.31
289.109	8543.09
289.176	8556.81
289.244	8561.23
289.311	8572.64
289.379	8580.29
289.446	8585.39
289.514	8585.39
289.581	8580.39
289.649	8585.83
289.716	8590.74
289.783	8578.7
289.851	8601.13
289.918	8599.2
289.986	8613.64
290.053	8620.72
290.121	8620.47
290.188	8618.5
290.255	8650.99
290.323	8649.79
290.39	8644.39
290.458	8655.37
290.525	8667.4
290.592	8661.04
290.66	8662.39
290.727	8652.62
290.794	8670
290.862	8670.28
290.929	8669.76
290.996	8670.53
291.064	8677.36
291.131	8691.13
291.198	8700.03
291.266	8696.9
291.333	8698.1
291.4	8701.62
291.468	8716.3
291.535	8711.44
291.602	8720.78
291.669	8707.68
291.737	8708.36
291.804	8717.74
291.871	8727.8
291.938	8738.97
292.006	8770.45
292.073	8784.51
292.14	8796.88
292.207	8792.74
292.275	8792.11
292.342	8803.81
292.409	8832.16
292.476	8858.54
292.543	8847.81
292.611	8855.46
292.678	8872.98
292.745	8904.42
292.812	8918.52
292.879	8914.04
292.946	8924.68
293.014	8936.04
293.081	8954.43
293.148	8974.65
293.215	8984.23
293.282	8981.48
293.349	8990.1
293.416	8965.83
293.484	8986.44
293.551	9000.06
293.618	9013.49
293.685	9041.37
293.752	9042.47
293.819	9039.2
293.886	9025.05
293.953	9035.59
294.02	9046.42
294.087	9055.13
294.154	9045.84
294.221	9061.49
294.288	9066.11
294.356	9086.62
294.423	9093.27
294.49	9078.49
294.557	9091.49
294.624	9084.55
294.691	9105.83
294.758	9111.8
294.825	9124.7
294.892	9112.23
294.959	9114.21
295.026	9122.97
295.093	9117.63
295.16	9118.54
295.226	9121.04
295.293	9154.41
295.36	9161.92
295.427	9170.73
295.494	9180.75
295.561	9198.03
295.628	9216.53
295.695	9229.82
295.762	9230.68
295.829	9241.95
295.896	9271.46
295.963	9274.88
296.03	9283.26
296.096	9291.54
296.163	9296.5
296.23	9309.21
296.297	9323.08
296.364	9321.73
296.431	9323.22
296.498	9319.42
296.564	9343.4
296.631	9342.1
296.698	9320.23
296.765	9336.22
296.832	9326.83
296.899	9310.03
296.965	9321.39
297.032	9303.33
297.099	9320.62
297.166	9333.38
297.233	9324.81
297.299	9310.12
297.366	9313.3
297.433	9323.17
297.5	9335.11
297.566	9340.36
297.633	9342.19
297.7	9350.96
297.767	9349.51
297.833	9359.24
297.9	9371.04
297.967	9353.27
298.033	9373.49
298.1	9409.23
298.167	9402.44
298.234	9411.73
298.3	9433.16
298.367	9428.15
298.434	9436.19
298.5	9423.53
298.567	9413.37
298.634	9418.13
298.7	9436.48
298.767	9441.34
298.834	9446.25
298.9	9439.03
298.967	9428.82
299.033	9436.48
299.1	9447.27
299.167	9463.54
299.233	9459.64
299.3	9467.44
299.366	9484.44
299.433	9495.81
299.5	9462.38
299.566	9471.53
299.633	9488.34
299.699	9497.54
299.766	9499.03
299.832	9508.28
299.899	9524.22
299.965	9535.73
300.032	9533.99
300.099	9545.31
300.165	9555.09
300.232	9561.69
300.298	9563.32
300.365	9578.44
300.431	9583.12
300.498	9578.78
300.564	9588.08
300.631	9599.63
300.697	9615.09
300.763	9618.85
300.83	9614.18
300.896	9631.51
300.963	9641.53
301.029	9646.3
301.096	9653.77
301.162	9664.99
301.229	9657.04
301.295	9649.43
301.361	9654.39
301.428	9657.47
301.494	9645.48
301.561	9642.11
301.627	9645.96
301.693	9648.03
301.76	9654.15
301.826	9648.71
301.892	9662.87
301.959	9672.93
302.025	9669.18
302.092	9666.05
302.158	9673.99
302.224	9677.8
302.291	9670.24
302.357	9662.63
302.423	9659.83
302.49	9638.11
302.556	9650.11
302.622	9654.49
302.688	9664.31
302.755	9679.25
302.821	9687.53
302.887	9695.91
302.954	9693.98
303.02	9700.15
303.086	9711.85
303.152	9708.82
303.219	9699.76
303.285	9699.23
303.351	9702.7
303.417	9709.15
303.483	9696.68
303.55	9686.52
303.616	9693.46
303.682	9699.14
303.748	9701.98
303.815	9713.83
303.881	9740.22
303.947	9726.83
304.013	9726.83
304.079	9719.99
304.145	9703.95
304.212	9705.21
304.278	9694.27
304.344	9698.42
304.41	9686.91
304.476	9670.92
304.542	9668.75
304.608	9682.47
304.674	9667.83
304.741	9658.15
304.807	9659.6
304.873	9668.65
304.939	9685.6
305.005	9661.42
305.071	9660.46
305.137	9662.68
305.203	9635.75
305.269	9625.78
305.335	9638.31
305.401	9639.27
305.467	9637.39
305.533	9643.89
305.599	9648.61
305.666	9659.93
305.732	9660.56
305.798	9674.33
305.864	9702.46
305.93	9708.43
305.996	9711.18
306.062	9718.16
306.128	9717.34
306.194	9713.54
306.259	9714.5
306.325	9707.56
306.391	9721.58
306.457	9731.5
306.523	9734.44
306.589	9760.3
306.655	9755.87
306.721	9734.2
306.787	9720.81
306.853	9731.79
306.919	9710.02
306.985	9705.06
307.051	9694.75
307.117	9687.1
307.183	9676.36
307.248	9644.71
307.314	9649.87
307.38	9650.16
307.446	9652.85
307.512	9648.18
307.578	9642.64
307.644	9637.97
307.709	9642.98
307.775	9633.88
307.841	9627.04
307.907	9628.58
307.973	9608.64
308.039	9600.5
308.104	9608.4
308.17	9602.04
308.236	9591.98
308.302	9597.9
308.368	9587.11
308.433	9590.48
308.499	9583.84
308.565	9580.8
308.631	9588.56
308.696	9561.54
308.762	9546.03
308.828	9540.01
308.894	9520.75
308.959	9502.31
309.025	9490.65
309.091	9479
309.156	9466.19
309.222	9466.81
309.288	9446.4
309.354	9428.72
309.419	9430.22
309.485	9416.35
309.551	9427.18
309.616	9413.55
309.682	9410.42
309.748	9406.33
309.813	9398.82
309.879	9389.57
309.945	9374.12
310.01	9367.42
310.076	9374.26
310.141	9366.22
310.207	9351.15
310.273	9347.68
310.338	9358.37
310.404	9344.93
310.469	9332.61
310.535	9331.4
310.601	9307.18
310.666	9312.14
310.732	9318.4
310.797	9305.98
310.863	9296.2
310.928	9284.5
310.994	9284.36
311.059	9285.8
311.125	9281.42
311.191	9293.6
311.256	9286.91
311.322	9293.51
311.387	9277.09
311.453	9578.65
311.518	9557.9
311.584	9557.23
311.649	9571.19
311.715	9554.87
311.78	9555.97
311.846	9553.37
311.911	9560.16
311.976	9565.94
312.042	9559.73
312.107	9548.08
312.173	9538.3
312.238	9528.43
312.304	9523.72
312.369	9513.08
312.434	9495.31
312.5	9486.4
312.565	9455.1
312.631	9460.3
312.696	9450.58
312.761	9451.64
312.827	9139.39
312.892	9175.79
312.958	9171.74
313.023	9163.8
313.088	9160.96
313.154	9148.78
313.219	9136.84
313.284	9127.69
313.35	9117.1
313.415	9101.16
313.48	9094.71
313.546	9101.59
313.611	9118.11
313.676	9112.23
313.741	9105.4
313.807	9117.15
313.872	9125.09
313.937	9131.25
314.003	9140.88
314.068	9142.66
314.133	9147.86
314.198	9142.52
314.264	9122.54
314.329	9121.72
314.394	9110.07
314.459	9111.37
314.525	9131.39
314.59	9123.5
314.655	9115.17
314.72	9124.89
314.785	9128.12
314.851	9126.29
314.916	9108.53
314.981	9088.93
315.046	9081.37
315.111	9076.08
315.176	9062.84
315.242	9065.77
315.307	9065.15
315.372	9040.88
315.437	9033.33
315.502	9023.46
315.567	9025.57
315.632	9008.82
315.698	9002.18
315.763	9003.62
315.828	8989.76
315.893	8983.16
315.958	8986.72
316.023	8976.66
316.088	8956.49
316.153	8938.44
316.218	8928.67
316.283	8911.3
316.348	8890.74
316.413	8887.18
316.479	8869.47
316.544	8843.38
316.609	8805.6
316.674	8765.31
316.739	8734.76
316.804	8702.17
316.869	8661.8
316.934	8621.08
316.999	8590.71
317.064	8532.63
317.129	8487.2
317.194	8455.88
317.259	8405.68
317.324	8348.82
317.389	8301.13
317.454	8260.43
317.518	8221.94
317.583	8197.3
317.648	8173.83
317.713	8141.84
317.778	8073.24
317.843	8042.98
317.908	8002.38
317.973	7966.79
318.038	7939.51
318.103	7900.85
318.168	7861.03
318.233	7837.51
318.297	7788.36
318.362	7748.07
318.427	7713.79
318.492	7690.22
318.557	7643.88
318.622	7616.99
318.687	7596.23
318.751	7555.46
318.816	7525.03
318.881	7491.48
318.946	7435.42
319.011	7384.56
319.075	7348.51
319.14	7320.97
319.205	7274.3
319.27	7238.02
319.335	7195.82
319.399	7154.2
319.464	7124.03
319.529	7076.13
319.594	7036.67
319.658	7011.06
319.723	6974.31
319.788	6944.1
319.853	6881.98
319.917	6852.44
319.982	6796.42
320.047	6759.48
320.112	6735.33
320.176	6683.02
320.241	6648.54
320.306	6618.81
320.37	6580.74
320.435	6543.38
320.5	6517.78
320.564	6479.33
320.629	6435.02
320.694	6402.76
320.758	6361.52
320.823	6320.05
320.888	6292.6
320.952	6236.3
321.017	6197.28
321.082	6157.45
321.146	6126.79
321.211	6097.62
321.275	6052.18
321.34	6009.78
321.405	5960.08
321.469	5909.57
321.534	5869.81
321.598	5819.02
321.663	5786.83
321.727	5757.57
321.792	5708.13
321.857	5662.61
321.921	5619.79
321.986	5577.57
322.05	5520.52
322.115	5484.85
322.179	5437.98
322.244	5384.35
322.308	5354.16
322.373	5302.7
322.437	5262.16
322.502	5234.54
322.566	5190.08
322.631	5155.44
322.695	5116.6
322.76	5076.66
322.824	5040.45
322.889	4996.16
322.953	4952.88
323.018	4883.73
323.082	4812.97
323.146	4762.34
323.211	4707.86
323.275	4666.69
323.34	4620.38
323.404	4583.25
323.468	4538.21
323.533	4497.06
323.597	4449
323.662	4399.68
323.726	4365.28
323.79	4316.59
323.855	4247.83
323.919	4199.91
323.983	4155.2
324.048	4085.91
324.112	4207.97
324.177	4080.39
324.241	3869.23
324.305	3659.55
324.37	3458.04
324.434	3265.33
324.498	3221.3
324.562	3168.56
324.627	3106.17
324.691	3051.68
324.755	2982.72
324.82	2899.28
324.884	2816.54
324.948	2742.14
325.012	2640.04
325.077	2510.53
