Data from 20250704_urea_1.5M_MAYP1162681_11-45-28-596.txt Node
Date: Fri Jul 04 11:45:28 BST 2025
User: adleo
Spectrometer: MAYP116268
Trigger mode: 0
Integration Time (sec): 1.000000E0
Scans to average: 1
Electric dark correction enabled: true
Nonlinearity correction enabled: true
Boxcar width: 10
XAxis mode: Wavelengths
Number of Pixels in Spectrum: 2068
>>>>>Begin Spectral Data<<<<<
179.565	1262.35
179.642	1322.76
179.718	1369.72
179.795	1411.33
179.871	1445.39
179.948	1466.9
180.024	1484.23
180.101	1506.57
180.177	1518.95
180.254	1542.56
180.33	1566.77
180.407	1625.13
180.483	1725
180.56	1819.78
180.636	1906.72
180.712	1894.11
180.789	1907.43
180.865	1920.45
180.942	1930.95
181.018	1943.17
181.095	1959.3
181.171	1963.06
181.248	1963.96
181.324	1978.08
181.4	1984.03
181.477	1996.2
181.553	2006.52
181.63	2029.54
181.706	2046.99
181.782	2057.26
181.859	2057.97
181.935	2062.92
182.011	2060.02
182.088	2077.76
182.164	2097.12
182.24	2111.39
182.317	2119.47
182.393	2115.48
182.469	2131.08
182.546	2144.21
182.622	2148.16
182.698	2139.17
182.775	2151.92
182.851	2166.19
182.927	2159.19
183.003	2154.11
183.08	2147.59
183.156	2158.86
183.232	2155.58
183.308	2143.88
183.385	2151.87
183.461	2168.62
183.537	2168.28
183.613	2180.56
183.69	2170.99
183.766	2161.57
183.842	2168.8
183.918	2174.08
183.995	2189.11
184.071	2190.45
184.147	2182.07
184.223	2169.66
184.299	2184.36
184.375	2172.42
184.452	2179.75
184.528	2230.39
184.604	2243.37
184.68	2256.79
184.756	2263.5
184.832	2270.35
184.908	2276.01
184.985	2275.72
185.061	2259.31
185.137	2270.59
185.213	2259.69
185.289	2262.21
185.365	2249.61
185.441	2248.9
185.517	2263.13
185.593	2260.51
185.669	2257.27
185.745	2268.41
185.822	2287.01
185.898	2276.16
185.974	2285.2
186.05	2274.25
186.126	2239.08
186.202	2232.56
186.278	2228.9
186.354	2219.14
186.43	2224.9
186.506	2221.05
186.582	2221.95
186.658	2231.13
186.734	2210.82
186.81	2210.49
186.886	2211.34
186.962	2230.37
187.038	2227.66
187.114	2220.9
187.19	2226.61
187.266	2218.95
187.341	2218.95
187.417	2208.15
187.493	2212.77
187.569	2216.72
187.645	2213.53
187.721	2201.49
187.797	2208.39
187.873	2211.86
187.949	2208.87
188.025	2201.53
188.101	2206.72
188.176	2213.38
188.252	2206.05
188.328	2212.47
188.404	2214.19
188.48	2209.67
188.556	2200.96
188.632	2198.96
188.707	2197.06
188.783	2195.44
188.859	2189.88
188.935	2177.79
189.011	2191.35
189.086	2183.4
189.162	2174.7
189.238	2170.08
189.314	2167.66
189.39	2161.33
189.465	2154.62
189.541	2168.9
189.617	2152.58
189.693	2148.2
189.768	2151.58
189.844	2176.57
189.92	2168.68
189.996	2179.33
190.071	2190.8
190.147	2188.85
190.223	2197.56
190.298	2191.32
190.374	2179.19
190.45	2190.51
190.526	2201.27
190.601	2191.56
190.677	2191.75
190.753	2220.74
190.828	2223.02
190.904	2240.25
190.98	2255.57
191.055	2265.33
191.131	2254.62
191.207	2278.89
191.282	2285.12
191.358	2273.56
191.433	2259.27
191.509	2275.97
191.585	2272.21
191.66	2274.26
191.736	2282.16
191.811	2276.97
191.887	2297.49
191.963	2318.43
192.038	2322.85
192.114	2325.18
192.189	2330.94
192.265	2327.23
192.34	2302.71
192.416	2303.23
192.491	2296.85
192.567	2299.52
192.642	2303
192.718	2302.23
192.793	2290.1
192.869	2288.05
192.944	2291.1
193.02	2298.33
193.095	2297.24
193.171	2300.9
193.246	2299.85
193.322	2297.57
193.397	2295.43
193.473	2276.62
193.548	2259.49
193.624	2266.63
193.699	2260.78
193.775	2273.72
193.85	2275.63
193.925	2285.29
194.001	2286.52
194.076	2281.86
194.152	2271.48
194.227	2263.11
194.302	2257.16
194.378	2258.4
194.453	2257.49
194.529	2270.63
194.604	2256.16
194.679	2251.97
194.755	2233.09
194.83	2246.33
194.905	2245.95
194.981	2255.04
195.056	2249.18
195.131	2257.23
195.207	2257.42
195.282	2250.99
195.357	2234.57
195.433	2251.75
195.508	2241.28
195.583	2248.23
195.659	2261.13
195.734	2269.03
195.809	2267.74
195.884	2276.45
195.96	2276.97
196.035	2292.49
196.11	2288.68
196.185	2300.19
196.261	2303
196.336	2336.93
196.411	2321.55
196.486	2326.41
196.561	2321.08
196.637	2331.4
196.712	2346.3
196.787	2347.88
196.862	2367.39
196.937	2374.86
197.013	2379.81
197.088	2389.47
197.163	2413.71
197.238	2430.05
197.313	2430.96
197.388	2446.15
197.464	2476.39
197.539	2489.05
197.614	2479.96
197.689	2493.43
197.764	2510.05
197.839	2533.72
197.914	2527.05
197.989	2548.91
198.065	2562.43
198.14	2615.33
198.215	2638.43
198.29	2651.44
198.365	2665.15
198.44	2671.3
198.515	2704.12
198.59	2719.89
198.665	2749.05
198.74	2755.53
198.815	2756.82
198.89	2777.35
198.965	2806.86
199.04	2802.81
199.115	2818.38
199.19	2865.36
199.265	2868.37
199.34	2879.76
199.415	2913.19
199.49	2934.15
199.565	2946.26
199.64	2971.28
199.715	2965.03
199.79	2975.85
199.865	2983
199.94	2980.62
200.015	3010.94
200.09	3013.8
200.165	3020.86
200.24	3026.01
200.315	3067.82
200.39	3085.89
200.464	3090.94
200.539	3092.04
200.614	3111.21
200.689	3136.77
200.764	3142.59
200.839	3158.18
200.914	3163.47
200.989	3151.35
201.063	3165.85
201.138	3148.55
201.213	3149.17
201.288	3131.38
201.363	3137.06
201.438	3133.81
201.512	3153.02
201.587	3136.95
201.662	3140
201.737	3153.74
201.812	3164.57
201.886	3128.15
201.961	3135.93
202.036	3126.01
202.111	3123.3
202.186	3094.03
202.26	3074.33
202.335	3048.62
202.41	3043.71
202.485	3028.51
202.559	3007.63
202.634	2983.45
202.709	2989.31
202.784	2968.24
202.858	2968.48
202.933	2948.17
203.008	2941.78
203.082	2920.1
203.157	2919.43
203.232	2878.07
203.306	2854.42
203.381	2820.14
203.456	2798.6
203.53	2775.04
203.605	2756.65
203.68	2734.58
203.754	2726.49
203.829	2712.43
203.904	2692.94
203.978	2681.79
204.053	2685.8
204.127	2674.17
204.202	2670.55
204.277	2653.69
204.351	2646.36
204.426	2635.97
204.5	2626.82
204.575	2594.82
204.65	2605.59
204.724	2598.11
204.799	2604.82
204.873	2599.2
204.948	2597.48
205.022	2584.63
205.097	2576.62
205.171	2592.81
205.246	2599.2
205.32	2597.63
205.395	2598.72
205.469	2591.49
205.544	2596.25
205.618	2576.44
205.693	2586.35
205.767	2572.06
205.842	2593.16
205.916	2587.11
205.991	2576.21
206.065	2584.69
206.14	2598.3
206.214	2590.72
206.289	2583.29
206.363	2597.53
206.438	2599.63
206.512	2607.3
206.586	2628.35
206.661	2636.78
206.735	2613.78
206.81	2613.83
206.884	2627.78
206.958	2615.69
207.033	2634.54
207.107	2641.17
207.181	2670.56
207.256	2665.94
207.33	2684.33
207.405	2700.59
207.479	2721.21
207.553	2733.41
207.628	2712.45
207.702	2723.74
207.776	2720.22
207.851	2723.27
207.925	2737.61
207.999	2737.57
208.073	2734.18
208.148	2737.09
208.222	2724.27
208.296	2756.99
208.371	2776.4
208.445	2790.51
208.519	2818.76
208.593	2828.1
208.668	2825.38
208.742	2835.3
208.816	2837.16
208.89	2854.7
208.965	2850.12
209.039	2857.75
209.113	2870.57
209.187	2894.81
209.261	2893.43
209.336	2916.17
209.41	2937.66
209.484	2939.14
209.558	2958.31
209.632	2971.36
209.707	2984.47
209.781	3008.98
209.855	3023.57
209.929	3044.05
210.003	3050.15
210.077	3049.82
210.151	3102.56
210.226	3141.01
210.3	3173.1
210.374	3198.84
210.448	3206.57
210.522	3219.11
210.596	3235.76
210.67	3254.56
210.744	3308.48
210.818	3344.96
210.892	3368.3
210.966	3369.3
211.041	3393.68
211.115	3399.55
211.189	3433.86
211.263	3458.72
211.337	3473.04
211.411	3498.96
211.485	3502.4
211.559	3524.49
211.633	3541.33
211.707	3526.28
211.781	3552.18
211.855	3529.16
211.929	3542.67
212.003	3539.57
212.077	3574.43
212.151	3606.63
212.225	3640.92
212.299	3654.97
212.373	3673.45
212.447	3702.94
212.52	3763.37
212.594	3796.96
212.668	3844.87
212.742	3868.71
212.816	3903.41
212.89	3940.58
212.964	3980.51
213.038	4028.42
213.112	4093.64
213.186	4161.18
213.26	4190.05
213.333	4192.73
213.407	4254.39
213.481	4316.77
213.555	4395.45
213.629	4445.65
213.703	4499.39
213.777	4569.52
213.85	4626.35
213.924	4738.03
213.998	4810.2
214.072	4884.84
214.146	4958.84
214.219	5043.92
214.293	5130.14
214.367	5222.19
214.441	5324.49
214.515	5412.37
214.588	5479.81
214.662	5545.35
214.736	5621.52
214.81	5728.97
214.883	5847.9
214.957	5943.37
215.031	6036.02
215.105	6122.15
215.178	6224.7
215.252	6331.54
215.326	6418.87
215.4	6511.22
215.473	6575.06
215.547	6671.84
215.621	6774.9
215.694	6899.74
215.768	7000.49
215.842	7108.51
215.915	7220.13
215.989	7324.15
216.063	7434.11
216.136	7567.37
216.21	7693.66
216.284	7838.08
216.357	7972.06
216.431	8094.33
216.504	8225.98
216.578	8387.69
216.652	8527.86
216.725	8656.25
216.799	8790.88
216.873	8921.59
216.946	9062.81
217.02	9187.8
217.093	9320.39
217.167	9429.3
217.24	9537.37
217.314	9660.4
217.387	9781.17
217.461	9898.65
217.535	10036.7
217.608	10151.96
217.682	10274.47
217.755	10408.49
217.829	10516.71
217.902	10642.22
217.976	10762.53
218.049	10884.82
218.123	10984.53
218.196	11114.49
218.27	11230.34
218.343	11334.01
218.417	11468.62
218.49	11589.63
218.563	11734.75
218.637	11862.14
218.71	12008.28
218.784	12140.01
218.857	12278.78
218.931	12408.44
219.004	12525.14
219.077	12648.16
219.151	12778.88
219.224	12897.22
219.298	13016.19
219.371	13145.77
219.444	13252.69
219.518	13369.01
219.591	13479.69
219.665	13626.62
219.738	13743.47
219.811	13851.84
219.885	13972.93
219.958	14082.64
220.031	14182.48
220.105	14289.44
220.178	14388.99
220.251	14478.22
220.325	14588.17
220.398	14679.9
220.471	14781.32
220.544	14901.21
220.618	14980.26
220.691	15070.35
220.764	15166.37
220.838	15253.67
220.911	15336.57
220.984	15436.64
221.057	15532.76
221.131	15626.32
221.204	15674.52
221.277	15772.12
221.35	15883.6
221.424	15956.53
221.497	16035.43
221.57	16125.42
221.643	16208.42
221.716	16300.57
221.79	16370.31
221.863	16435.14
221.936	16511.53
222.009	16587.01
222.082	16656.41
222.155	16729.57
222.229	16814.54
222.302	16886.06
222.375	16952.57
222.448	17029.97
222.521	17099.95
222.594	17160.72
222.667	17219.09
222.74	17290.94
222.814	17348.97
222.887	17394.85
222.96	17475.76
223.033	17543.43
223.106	17602.51
223.179	17651.28
223.252	17699.47
223.325	17765.64
223.398	17822.84
223.471	17872.1
223.544	17920.91
223.617	17969.25
223.69	18019.85
223.763	18051.95
223.837	18106.88
223.91	18161.63
223.983	18183.56
224.056	18211.75
224.129	18261.38
224.202	18308.95
224.275	18334.78
224.348	18356.22
224.42	18378.2
224.493	18387.74
224.566	18409.57
224.639	18447.11
224.712	18485.32
224.785	18519.78
224.858	18544.98
224.931	18568.84
225.004	18590.33
225.077	18621.17
225.15	18621.75
225.223	18643.24
225.296	18693.5
225.369	18694.18
225.442	18702.18
225.514	18724.44
225.587	18749.21
225.66	18775.52
225.733	18793.64
225.806	18823.62
225.879	18837.74
225.952	18846.84
226.025	18876.29
226.097	18907.47
226.17	18911.03
226.243	18899.23
226.316	18907.23
226.389	18923.27
226.461	18937.1
226.534	18952.19
226.607	18953.01
226.68	18985.78
226.753	19004.09
226.825	18992.28
226.898	19019.6
226.971	19038.21
227.044	19062.2
227.117	19074.3
227.189	19075.84
227.262	19096.03
227.335	19110.39
227.407	19112.95
227.48	19126.54
227.553	19143.89
227.626	19137.24
227.698	19150.92
227.771	19169.96
227.844	19159.6
227.916	19163.69
227.989	19149.33
228.062	19145.62
228.134	19172.41
228.207	19174.97
228.28	19166.05
228.352	19158.68
228.425	19162.73
228.498	19164.7
228.57	19155.69
228.643	19166.82
228.716	19159.6
228.788	19148.56
228.861	19143.74
228.934	19155.21
229.006	19150.1
229.079	19142.25
229.151	19136.46
229.224	19116.95
229.296	19114.63
229.369	19148.18
229.442	19160.85
229.514	19155.5
229.587	19167.74
229.659	19144.37
229.732	19134.78
229.804	19144.9
229.877	19173.91
229.949	19176.08
230.022	19192.37
230.094	19187.26
230.167	19181.28
230.239	19174.87
230.312	19172.41
230.384	19194.73
230.457	19191.11
230.529	19193.71
230.602	19187.11
230.674	19191.79
230.747	19195.55
230.819	19203.59
230.892	19160.03
230.964	19148.75
231.037	19149.43
231.109	19142.87
231.181	19141.43
231.254	19126.1
231.326	19116.85
231.399	19101.09
231.471	19087.6
231.544	19060.28
231.616	19065
231.688	19058.98
231.761	19036.57
231.833	19017.2
231.905	18972.43
231.978	18970.55
232.05	18967.32
232.122	18965.34
232.195	18944.38
232.267	18951.71
232.339	18932.48
232.412	18940.57
232.484	18916.09
232.556	18903.27
232.629	18907.03
232.701	18903.18
232.773	18902.79
232.846	18884.24
232.918	18865.64
232.99	18841.88
233.062	18840.05
233.135	18822.08
233.207	18790.66
233.279	18789.6
233.351	18780.92
233.424	18759.28
233.496	18727.62
233.568	18729.79
233.64	18690.85
233.713	18668.11
233.785	18640.21
233.857	18618.52
233.929	18579.34
234.001	18589.94
234.074	18589.85
234.146	18554.14
234.218	18529.61
234.29	18500.94
234.362	18476.99
234.434	18440.22
234.507	18418.92
234.579	18381.09
234.651	18364.03
234.723	18356.9
234.795	18349.48
234.867	18337.14
234.939	18344.56
235.012	18334.59
235.084	18319.45
235.156	18316.71
235.228	18299.45
235.3	18287.02
235.372	18275.07
235.444	18272.23
235.516	18224.04
235.588	18208.18
235.66	18194.3
235.732	18177.63
235.804	18216.52
235.876	18210.88
235.948	18227.41
236.02	18206.25
236.092	18183.22
236.164	18155.12
236.236	18129.87
236.308	18105
236.38	18083.56
236.452	18047.95
236.524	18030.12
236.596	18018.07
236.668	18004
236.74	17984.48
236.812	17962.36
236.884	17948.38
236.956	17930.36
237.028	17907.81
237.1	17876.63
237.172	17864.92
237.244	17857.16
237.316	17799.04
237.388	17768.05
237.46	17719.86
237.532	17715.62
237.604	17689.45
237.675	17695.52
237.747	17688.92
237.819	17657.64
237.891	17635.76
237.963	17605.89
238.035	17580.05
238.107	17517.5
238.178	17499.48
238.25	17475.81
238.322	17474.32
238.394	17431.38
238.466	17403.52
238.538	17383.91
238.609	17361.74
238.681	17315.52
238.753	17280.87
238.825	17263.91
238.897	17248.92
238.968	17255.28
239.04	17227.28
239.112	17233.89
239.184	17189.16
239.255	17160.92
239.327	17142.51
239.399	17114.61
239.471	17104.77
239.542	17081.16
239.614	17072.19
239.686	17025.74
239.758	17013.74
239.829	16976.24
239.901	16967.23
239.973	16947.52
240.044	16926.74
240.116	16899.13
240.188	16875.99
240.259	16843.46
240.331	16800.57
240.403	16770.69
240.474	16719.89
240.546	16681.91
240.618	16621.76
240.689	16584.56
240.761	16554.53
240.833	16541.71
240.904	16519.35
240.976	16493.51
241.048	16475.49
241.119	16466.09
241.191	16454.67
241.262	16441.7
241.334	16406.86
241.405	16383.63
241.477	16351.29
241.549	16324.2
241.62	16302.85
241.692	16281.88
241.763	16266.41
241.835	16246.6
241.906	16222.36
241.978	16184.09
242.049	16175.36
242.121	16170.93
242.192	16165.53
242.264	16128.95
242.335	16093.67
242.407	16063.49
242.478	16030.48
242.55	16002.96
242.621	15967.24
242.693	15940.68
242.764	15905.98
242.836	15879.62
242.907	15850.89
242.979	15832.09
243.05	15814.64
243.122	15792.86
243.193	15767.99
243.264	15723.69
243.336	15687.06
243.407	15673.61
243.479	15671.44
243.55	15640.35
243.622	15616.78
243.693	15584.49
243.764	15572.68
243.836	15526.65
243.907	15504.33
243.978	15476.23
244.05	15449.76
244.121	15399.3
244.192	15373.17
244.264	15334.47
244.335	15297.98
244.407	15253.15
244.478	15227.89
244.549	15196.85
244.62	15155.54
244.692	15128.16
244.763	15120.45
244.834	15094.61
244.906	15044.38
244.977	15014.11
245.048	15005.24
245.119	14967.89
245.191	14936.7
245.262	14888.11
245.333	14882.47
245.405	14861.64
245.476	14836.39
245.547	14819.8
245.618	14816.77
245.689	14790.83
245.761	14764.8
245.832	14745.52
245.903	14735.01
245.974	14717.76
246.045	14687.05
246.117	14679.38
246.188	14640.92
246.259	14595.27
246.33	14569.96
246.401	14543.35
246.473	14505.99
246.544	14471.67
246.615	14459.52
246.686	14427.85
246.757	14414.6
246.828	14374.73
246.899	14350.96
246.97	14314.62
247.042	14275.33
247.113	14246.79
247.184	14237.83
247.255	14210.35
247.326	14184.7
247.397	14154.96
247.468	14126.04
247.539	14098.22
247.61	14057.39
247.681	14042.11
247.752	14032.23
247.823	13997.04
247.894	13987.2
247.965	13957.27
248.037	13927.62
248.108	13888.62
248.179	13869
248.25	13845.28
248.321	13830.77
248.392	13798.72
248.463	13794.57
248.534	13763.77
248.605	13751.23
248.675	13726.55
248.746	13711.9
248.817	13698.59
248.888	13674.68
248.959	13629.9
249.03	13617.94
249.101	13598.13
249.172	13577.11
249.243	13531.22
249.314	13522.59
249.385	13491.54
249.456	13471.35
249.527	13439.72
249.598	13416.53
249.669	13385.39
249.739	13369.87
249.81	13355.75
249.881	13319.06
249.952	13293.85
250.023	13278.52
250.094	13229.78
250.165	13191.22
250.235	13158.53
250.306	13134.38
250.377	13099.87
250.448	13081.98
250.519	13039.37
250.59	13028.96
250.66	13004.51
250.731	12999.45
250.802	12976.55
250.873	12969.42
250.944	12939.92
251.014	12915.14
251.085	12922.61
251.156	12911.14
251.227	12903.62
251.297	12886.99
251.368	12882.46
251.439	12875.23
251.51	12863.95
251.58	12839.75
251.651	12815.4
251.722	12811.88
251.792	12771.1
251.863	12754.09
251.934	12753.07
252.005	12758.86
252.075	12734.95
252.146	12718.61
252.217	12706.89
252.287	12693.54
252.358	12662.98
252.429	12670.02
252.499	12641.82
252.57	12624.85
252.641	12614.48
252.711	12584.93
252.782	12549.79
252.852	12545.17
252.923	12520.44
252.994	12505.11
253.064	12501.2
253.135	12468.09
253.205	12438.44
253.276	12443.31
253.347	12444.9
253.417	12416.46
253.488	12392.45
253.558	12376.79
253.629	12355.77
253.699	12342.61
253.77	12326.75
253.841	12311.04
253.911	12295.08
253.982	12281.97
254.052	12262.74
254.123	12240.61
254.193	12213.67
254.264	12228.8
254.334	12194.87
254.405	12164.93
254.475	12134.71
254.546	12111.67
254.616	12113.7
254.687	12096.25
254.757	12083.52
254.827	12060.34
254.898	12042.74
254.968	12023.65
255.039	11993.05
255.109	11983.99
255.18	11956.13
255.25	11920.26
255.321	11901.47
255.391	11862.47
255.461	11861.8
255.532	11814.66
255.602	11791.81
255.673	11756.67
255.743	11733.73
255.813	11694.11
255.884	11683.85
255.954	11674.06
256.024	11678.11
256.095	11654.16
256.165	11625.33
256.235	11607.21
256.306	11577.62
256.376	11570.19
256.446	11560.07
256.517	11548.65
256.587	11542
256.657	11521.9
256.728	11510.19
256.798	11498.29
256.868	11484.02
256.938	11461.37
257.009	11452.74
257.079	11443.39
257.149	11457.9
257.219	11418.13
257.29	11411.58
257.36	11375.82
257.43	11369.55
257.5	11321.31
257.571	11301.7
257.641	11292.59
257.711	11267.09
257.781	11260.59
257.852	11251.77
257.922	11215.38
257.992	11195.28
258.062	11176.05
258.132	11169.98
258.202	11149.16
258.273	11134.66
258.343	11134.22
258.413	11110.66
258.483	11094.71
258.553	11068.88
258.623	11039.33
258.693	11027.53
258.764	11024.73
258.834	11026.32
258.904	10999.09
258.974	10968.83
259.044	10956.31
259.114	10946.76
259.184	10923.1
259.254	10904.17
259.324	10864.26
259.394	10849.71
259.464	10852.65
259.535	10829.57
259.605	10811.59
259.675	10791.21
259.745	10778.01
259.815	10747.22
259.885	10718.35
259.955	10729.39
260.025	10704.38
260.095	10690.07
260.165	10676.1
260.235	10676.53
260.305	10653.16
260.375	10624.35
260.445	10648.44
260.515	10648.54
260.585	10642.22
260.655	10629.65
260.725	10619.24
260.795	10610.81
260.865	10621.99
260.934	10597.03
261.004	10593.27
261.074	10574.57
261.144	10578.33
261.214	10572.55
261.284	10560.84
261.354	10567.97
261.424	10544.02
261.494	10553.27
261.564	10540.94
261.634	10541.18
261.703	10505.14
261.773	10500.32
261.843	10502.68
261.913	10471.9
261.983	10438.65
262.053	10427.42
262.123	10409.89
262.192	10382.48
262.262	10375.78
262.332	10339.55
262.402	10333.48
262.472	10319.07
262.541	10285.45
262.611	10280
262.681	10254.37
262.751	10251
262.821	10229.61
262.89	10197.48
262.96	10181.72
263.03	10183.26
263.1	10164.91
263.169	10151.23
263.239	10145.69
263.309	10148.53
263.379	10148.72
263.448	10137.5
263.518	10129.45
263.588	10118.52
263.657	10121.79
263.727	10120.44
263.797	10110.38
263.867	10097.27
263.936	10071.93
264.006	10071.12
264.076	10053.48
264.145	10034.51
264.215	10009.46
264.285	10006.95
264.354	9978.49
264.424	9957.34
264.494	9923.57
264.563	9903.44
264.633	9916.78
264.702	9908.59
264.772	9880.84
264.842	9858.3
264.911	9849.78
264.981	9822.99
265.05	9813.02
265.12	9790.58
265.19	9776.46
265.259	9777.57
265.329	9770.73
265.398	9756.33
265.468	9778.63
265.537	9753.3
265.607	9748
265.676	9748.1
265.746	9732.35
265.815	9734.18
265.885	9720.79
265.955	9706.73
266.024	9690.84
266.094	9650.33
266.163	9648.55
266.232	9642.72
266.302	9629.86
266.371	9617.87
266.441	9608.48
266.51	9610.98
266.58	9598.27
266.649	9578.72
266.719	9570.48
266.788	9563.74
266.858	9568.79
266.927	9519.58
266.996	9511.97
267.066	9501.37
267.135	9475.8
267.205	9476.67
267.274	9468.29
267.343	9472.43
267.413	9458.13
267.482	9466.61
267.552	9474.22
267.621	9438.34
267.69	9413.01
267.76	9413.54
267.829	9403.91
267.898	9390.33
267.968	9357.01
268.037	9355.99
268.106	9355.42
268.176	9333.75
268.245	9317.18
268.314	9297
268.384	9304.03
268.453	9293.01
268.522	9294.02
268.592	9293.1
268.661	9270.57
268.73	9266.57
268.799	9247.79
268.869	9259.97
268.938	9228.43
269.007	9210.19
269.076	9202.77
269.146	9202.39
269.215	9194.54
269.284	9203.01
269.353	9190.69
269.422	9183.76
269.492	9173.4
269.561	9134.31
269.63	9131.71
269.699	9110.19
269.768	9108.41
269.838	9102.82
269.907	9104.17
269.976	9081.78
270.045	9053.43
270.114	9052.47
270.183	9037.45
270.253	9032.01
270.322	9001.34
270.391	8990.17
270.46	8996.96
270.529	8999.08
270.598	8991.62
270.667	8973.81
270.736	8953.44
270.806	8944.05
270.875	8949.06
270.944	8935.24
271.013	8954.45
271.082	8938.37
271.151	8942.27
271.22	8909.39
271.289	8899.04
271.358	8891.68
271.427	8886.24
271.496	8881.19
271.565	8863.95
271.634	8853.8
271.703	8881.92
271.772	8888.37
271.841	8880.14
271.91	8851.59
271.979	8844.27
272.048	8827.47
272.117	8826.61
272.186	8813.32
272.255	8818.67
272.324	8815.3
272.393	8808.89
272.462	8791.9
272.531	8791.42
272.6	8775.44
272.669	8782.8
272.738	8773.61
272.807	8763.36
272.876	8741.89
272.945	8766.53
273.013	8771.06
273.082	8777.7
273.151	8726.14
273.22	8720.7
273.289	8717.34
273.358	8730.38
273.427	8715.7
273.496	8716.47
273.564	8717.38
273.633	8721.62
273.702	8702.56
273.771	8691.49
273.84	8689.42
273.909	8692.45
273.977	8687.16
274.046	8679.26
274.115	8686.24
274.184	8667.81
274.253	8662.42
274.322	8671.61
274.39	8644.95
274.459	8630.46
274.528	8600.91
274.597	8597.69
274.665	8599.47
274.734	8605.39
274.803	8589.65
274.872	8584.55
274.94	8569.15
275.009	8629.2
275.078	8613.17
275.147	8611.87
275.215	8610.24
275.284	8615.68
275.353	8604.03
275.421	8579.05
275.49	8592.68
275.559	8575.59
275.627	8574.72
275.696	8567.22
275.765	8566.26
275.833	8551.2
275.902	8554.66
275.971	8570.64
276.039	8583.1
276.108	8579.49
276.177	8579.25
276.245	8576.22
276.314	8575.35
276.383	8580.45
276.451	8514.29
276.52	8515.3
276.588	8530.7
276.657	8538.45
276.725	8525.65
276.794	8524.83
276.863	8535.9
276.931	8515.54
277	8527.57
277.068	8535.41
277.137	8550.53
277.205	8552.35
277.274	8576.56
277.342	8586.52
277.411	8565.78
277.48	8555.1
277.548	8545.04
277.617	8549.57
277.685	8543.12
277.754	8544.13
277.822	8534.79
277.89	8547.98
277.959	8545.24
278.027	8522.77
278.096	8507.27
278.164	8541.01
278.233	8538.75
278.301	8531.05
278.37	8535.43
278.438	8525.9
278.507	8525.51
278.575	8503.18
278.643	8498.9
278.712	8483.6
278.78	8467.67
278.849	8481.09
278.917	8497.07
278.985	8494.23
279.054	8491.01
279.122	8501.79
279.191	8500.73
279.259	8502.46
279.327	8477.86
279.396	8497.64
279.464	8496.3
279.532	8502.94
279.601	8497.79
279.669	8492.35
279.737	8510.2
279.806	8515.5
279.874	8522.71
279.942	8523.24
280.011	8518.14
280.079	8523.49
280.147	8538.98
280.215	8541.63
280.284	8542.59
280.352	8523.72
280.42	8541.67
280.488	8530.94
280.557	8527.14
280.625	8525.41
280.693	8524.54
280.761	8530.03
280.83	8508.81
280.898	8518.67
280.966	8500.29
281.034	8467.37
281.102	8449.09
281.171	8441.48
281.239	8448.51
281.307	8441.1
281.375	8430.23
281.443	8463.29
281.512	8459.39
281.58	8464.83
281.648	8455.4
281.716	8446.59
281.784	8444.91
281.852	8426.72
281.92	8428.88
281.989	8437.11
282.057	8425.42
282.125	8472.45
282.193	8468.74
282.261	8472.35
282.329	8469.27
282.397	8477.79
282.465	8483.03
282.533	8497.27
282.601	8485.53
282.67	8462.09
282.738	8453.14
282.806	8466.86
282.874	8450.64
282.942	8454.92
283.01	8451.94
283.078	8458.19
283.146	8461.46
283.214	8476.81
283.282	8483.41
283.35	8496.74
283.418	8490.53
283.486	8497.79
283.554	8444.18
283.622	8444.32
283.69	8443.12
283.758	8438.02
283.826	8440.62
283.894	8450.96
283.962	8477.82
284.03	8491
284.098	8494.85
284.165	8487.2
284.233	8482.63
284.301	8476.23
284.369	8468.43
284.437	8456.64
284.505	8443.84
284.573	8457.51
284.641	8443.94
284.709	8453.28
284.777	8433.64
284.845	8441.63
284.912	8440.23
284.98	8456.83
285.048	8445.72
285.116	8450.29
285.184	8459.05
285.252	8460.3
285.319	8443.07
285.387	8429.07
285.455	8412.47
285.523	8416.61
285.591	8415.74
285.659	8418
285.726	8430.03
285.794	8414.83
285.862	8408
285.93	8415.12
285.997	8408.72
286.065	8403.57
286.133	8390.09
286.201	8387.45
286.269	8374.5
286.336	8378.88
286.404	8368.2
286.472	8387.45
286.539	8365.07
286.607	8356.56
286.675	8350.54
286.743	8357.33
286.81	8351.84
286.878	8366.32
286.946	8365.98
287.013	8370.27
287.081	8371.18
287.149	8354.05
287.216	8374.4
287.284	8378.35
287.352	8376.62
287.419	8372.43
287.487	8386.62
287.555	8392.06
287.622	8394.23
287.69	8401.49
287.758	8407.32
287.825	8409.87
287.893	8396.01
287.96	8412.27
288.028	8418.14
288.096	8429.21
288.163	8432.38
288.231	8424.35
288.298	8424.73
288.366	8436.28
288.433	8429.26
288.501	8421.22
288.569	8430.99
288.636	8429.93
288.704	8443.12
288.771	8454.86
288.839	8451.59
288.906	8442.59
288.974	8454.72
289.041	8451.01
289.109	8439.56
289.176	8444.66
289.244	8446.15
289.311	8461.79
289.379	8460.93
289.446	8467.47
289.514	8466.17
289.581	8461.84
289.649	8467.52
289.716	8471.56
289.783	8462.99
289.851	8492.44
289.918	8500.04
289.986	8500.72
290.053	8505.24
290.121	8495.33
290.188	8497.16
290.255	8526.51
290.323	8525.12
290.39	8523.24
290.458	8527.76
290.525	8546.48
290.592	8542.01
290.66	8545.86
290.727	8539.99
290.794	8554.76
290.862	8554.66
290.929	8554.76
290.996	8561.78
291.064	8568.86
291.131	8576.75
291.198	8587.58
291.266	8582.67
291.333	8577.81
291.4	8586.91
291.468	8601.64
291.535	8608.61
291.602	8612.42
291.669	8603.46
291.737	8607.6
291.804	8604.18
291.871	8621.8
291.938	8624.25
292.006	8657.32
292.073	8665.79
292.14	8677.15
292.207	8672.58
292.275	8671.47
292.342	8685.96
292.409	8714.45
292.476	8744.73
292.543	8744.06
292.611	8749.35
292.678	8767.11
292.745	8793.97
292.812	8811.97
292.879	8801.14
292.946	8804.51
293.014	8815.72
293.081	8825.78
293.148	8842.39
293.215	8857.84
293.282	8859.96
293.349	8870.98
293.416	8846
293.484	8864.29
293.551	8870.55
293.618	8889.41
293.685	8920.8
293.752	8910.98
293.819	8908.33
293.886	8893.99
293.953	8895.48
294.02	8899.52
294.087	8909.58
294.154	8906.55
294.221	8910.35
294.288	8913.1
294.356	8932.21
294.423	8940.82
294.49	8929.75
294.557	8943.67
294.624	8942.94
294.691	8958.78
294.758	8962.68
294.825	8972.26
294.892	8961.96
294.959	8966.19
295.026	8971.78
295.093	8960.95
295.16	8966.87
295.226	8967.11
295.293	8994.55
295.36	8998.11
295.427	9019.2
295.494	9027.1
295.561	9033.26
295.628	9058.01
295.695	9081.79
295.762	9080.64
295.829	9090.99
295.896	9109.91
295.963	9118.19
296.03	9121.94
296.096	9133.5
296.163	9141.73
296.23	9157.62
296.297	9178.71
296.364	9177.69
296.431	9182.89
296.498	9176.97
296.564	9201
296.631	9197.19
296.698	9173.79
296.765	9207.93
296.832	9193.53
296.899	9183.37
296.965	9202.92
297.032	9181.83
297.099	9199.12
297.166	9205.86
297.233	9200.51
297.299	9195.36
297.366	9196.13
297.433	9195.31
297.5	9200.56
297.566	9201.43
297.633	9200.51
297.7	9195.41
297.767	9188.19
297.833	9198.59
297.9	9210.77
297.967	9194.4
298.033	9216.26
298.1	9249.1
298.167	9232.92
298.234	9240.67
298.3	9250.54
298.367	9240.96
298.434	9254.35
298.5	9240.38
298.567	9233.98
298.634	9234.89
298.7	9251.46
298.767	9250.73
298.834	9266.81
298.9	9254.34
298.967	9245.72
299.033	9256.61
299.1	9277.7
299.167	9305.24
299.233	9295.32
299.3	9304.13
299.366	9321.51
299.433	9340.2
299.5	9312.99
299.566	9315.3
299.633	9330.52
299.699	9342.27
299.766	9342.07
299.832	9343.86
299.899	9355.37
299.965	9374.05
300.032	9374.91
300.099	9384.98
300.165	9394.32
300.232	9389.75
300.298	9399.09
300.365	9416.57
300.431	9418.88
300.498	9411.22
300.564	9414.11
300.631	9428.31
300.697	9444.45
300.763	9446.37
300.83	9437.17
300.896	9460.34
300.963	9476.27
301.029	9483.07
301.096	9489.76
301.162	9502.76
301.229	9497.99
301.295	9483.4
301.361	9489.95
301.428	9488.07
301.494	9471.8
301.561	9470.45
301.627	9477.48
301.693	9483.69
301.76	9485.62
301.826	9478.4
301.892	9488.56
301.959	9493.61
302.025	9492.55
302.092	9487.69
302.158	9496.26
302.224	9497.18
302.291	9482.06
302.357	9474.45
302.423	9470.83
302.49	9453.74
302.556	9466.36
302.622	9464.05
302.688	9483.16
302.755	9492.07
302.821	9498.14
302.887	9507
302.954	9512.63
303.02	9514.66
303.086	9515.33
303.152	9510.71
303.219	9507.43
303.285	9508.49
303.351	9520.92
303.417	9525.93
303.483	9512.44
303.55	9503.05
303.616	9498.38
303.682	9499.2
303.748	9492.03
303.815	9505.66
303.881	9521.4
303.947	9507.15
304.013	9512.21
304.079	9499.68
304.145	9481.14
304.212	9486.05
304.278	9483.6
304.344	9474.21
304.41	9468.77
304.476	9458.61
304.542	9456.44
304.608	9467.56
304.674	9449.89
304.741	9433.71
304.807	9435.54
304.873	9441.84
304.939	9461.78
305.005	9448.11
305.071	9448.15
305.137	9452.15
305.203	9420.7
305.269	9422.68
305.335	9433.08
305.401	9429.57
305.467	9427.25
305.533	9438.38
305.599	9447.77
305.666	9455.47
305.732	9460.53
305.798	9471.46
305.864	9498.19
305.93	9506.52
305.996	9506.67
306.062	9512.3
306.128	9514.9
306.194	9498.86
306.259	9500.02
306.325	9490.96
306.391	9502.91
306.457	9510.27
306.523	9514.42
306.589	9541.91
306.655	9527.56
306.721	9511.86
306.787	9498.62
306.853	9514.8
306.919	9495.59
306.985	9487.64
307.051	9479.94
307.117	9471.66
307.183	9463.13
307.248	9433.8
307.314	9439.05
307.38	9434.57
307.446	9440.16
307.512	9429.37
307.578	9432.65
307.644	9428.27
307.709	9424.08
307.775	9420.61
307.841	9417.86
307.907	9411.65
307.973	9389.88
308.039	9390.46
308.104	9395.66
308.17	9405.05
308.236	9390.7
308.302	9399.85
308.368	9389.59
308.433	9389.11
308.499	9387.43
308.565	9379.67
308.631	9388.49
308.696	9359.02
308.762	9348.57
308.828	9347.41
308.894	9329.55
308.959	9310.29
309.025	9302.68
309.091	9302.73
309.156	9292.47
309.222	9294.35
309.288	9290.6
309.354	9272.49
309.419	9268.16
309.485	9250.78
309.551	9254.15
309.616	9238.93
309.682	9233.16
309.748	9224.01
309.813	9218.61
309.879	9209.85
309.945	9198.63
310.01	9188.04
310.076	9193.77
310.141	9188.38
310.207	9168.44
310.273	9172.63
310.338	9181.63
310.404	9162.09
310.469	9142.16
310.535	9132
310.601	9105.85
310.666	9104.6
310.732	9116.69
310.797	9104.12
310.863	9097.43
310.928	9087.89
310.994	9089.63
311.059	9077.25
311.125	9080
311.191	9089.68
311.256	9076.92
311.322	9080.72
311.387	9064.45
311.453	9466.63
311.518	9444.25
311.584	9446.7
311.649	9446.9
311.715	9427.54
311.78	9429.37
311.846	9423.4
311.911	9436.21
311.976	9443.77
312.042	9430
312.107	9416.18
312.173	9414.02
312.238	9410.36
312.304	9402.37
312.369	9393.36
312.434	9385.08
312.5	9376.61
312.565	9347.77
312.631	9354.27
312.696	9348.25
312.761	9346.81
312.827	8936.44
312.892	8975.34
312.958	8973.13
313.023	8972.21
313.088	8978.85
313.154	8972.21
313.219	8963.6
313.284	8946.5
313.35	8935.29
313.415	8925.71
313.48	8918.97
313.546	8918.83
313.611	8928.21
313.676	8921.19
313.741	8910.64
313.807	8918.1
313.872	8918.3
313.937	8923.35
314.003	8938.08
314.068	8933.75
314.133	8946.17
314.198	8940.11
314.264	8917.48
314.329	8906.98
314.394	8906.02
314.459	8899.18
314.525	8914.01
314.59	8911.51
314.655	8903.71
314.72	8914.25
314.785	8919.26
314.851	8913.43
314.916	8898.9
314.981	8881.76
315.046	8872.47
315.111	8867.75
315.176	8855.24
315.242	8853.89
315.307	8851.34
315.372	8827.51
315.437	8825.58
315.502	8815.71
315.567	8822.93
315.632	8809.6
315.698	8807.63
315.763	8802.77
315.828	8799.49
315.893	8796.07
315.958	8791.26
316.023	8778.56
316.088	8754.35
316.153	8732.54
316.218	8731.49
316.283	8708.48
316.348	8692.75
316.413	8692.12
316.479	8679.13
316.544	8652.81
316.609	8627.01
316.674	8589.05
316.739	8550.99
316.804	8518.84
316.869	8484.14
316.934	8449.06
316.999	8420.77
317.064	8369.91
317.129	8323.72
317.194	8283.93
317.259	8236.63
317.324	8189.15
317.389	8148.65
317.454	8109.2
317.518	8076.4
317.583	8043.58
317.648	8027.37
317.713	7988.03
317.778	7923
317.843	7890.82
317.908	7853.36
317.973	7814.07
318.038	7788
318.103	7756.41
318.168	7726.26
318.233	7692.64
318.297	7641.15
318.362	7600.47
318.427	7562.01
318.492	7538.6
318.557	7498.03
318.622	7470.52
318.687	7446.06
318.751	7404.01
318.816	7374.93
318.881	7342.48
318.946	7289.18
319.011	7243.42
319.075	7211.65
319.14	7189.98
319.205	7150.57
319.27	7117.85
319.335	7074.89
319.399	7037.51
319.464	7010.94
319.529	6954.92
319.594	6916.15
319.658	6886.32
319.723	6847.99
319.788	6824.4
319.853	6770.17
319.917	6739.1
319.982	6682.23
320.047	6644.49
320.112	6619.52
320.176	6569.15
320.241	6537.55
320.306	6512.01
320.37	6471.72
320.435	6441.81
320.5	6407.38
320.564	6365.86
320.629	6326.93
320.694	6292.23
320.758	6247.41
320.823	6199.32
320.888	6173.41
320.952	6126
321.017	6085.83
321.082	6047.26
321.146	6011.61
321.211	5979.99
321.275	5934.66
321.34	5899.51
321.405	5858.88
321.469	5816.29
321.534	5778.51
321.598	5725.47
321.663	5694.39
321.727	5663.65
321.792	5608.17
321.857	5569.32
321.921	5529.44
321.986	5485.97
322.05	5433.16
322.115	5400.56
322.179	5362.99
322.244	5307.85
322.308	5279.86
322.373	5235.06
322.437	5189.07
322.502	5166.2
322.566	5121.94
322.631	5086.74
322.695	5045.12
322.76	5002.26
322.824	4968.54
322.889	4927.8
322.953	4882.37
323.018	4816.87
323.082	4751.1
323.146	4705.02
323.211	4645.04
323.275	4601.44
323.34	4556.04
323.404	4522.07
323.468	4476.51
323.533	4435.56
323.597	4390.9
323.662	4333.69
323.726	4300.54
323.79	4256.93
323.855	4185.17
323.919	4135.68
323.983	4095.75
324.048	4031.39
324.112	4193.63
324.177	4065.62
324.241	3856.8
324.305	3653.91
324.37	3451.16
324.434	3258.07
324.498	3215.32
324.562	3170.08
324.627	3112
324.691	3058.38
324.755	2994.78
324.82	2918.16
324.884	2836.75
324.948	2768.14
325.012	2678.07
325.077	2551.36
