Data from 20250704_urea_0.1M_MAYP1162681_11-18-39-695.txt Node
Date: Fri Jul 04 11:18:39 BST 2025
User: adleo
Spectrometer: MAYP116268
Trigger mode: 0
Integration Time (sec): 1.000000E0
Scans to average: 1
Electric dark correction enabled: true
Nonlinearity correction enabled: true
Boxcar width: 10
XAxis mode: Wavelengths
Number of Pixels in Spectrum: 2068
>>>>>Begin Spectral Data<<<<<
179.565	1248.77
179.642	1310.36
179.718	1355.95
179.795	1397.02
179.871	1427.55
179.948	1445.85
180.024	1469.4
180.101	1493.04
180.177	1508.84
180.254	1535.34
180.33	1558.03
180.407	1615.67
180.483	1712.73
180.56	1806.61
180.636	1892.6
180.712	1880.47
180.789	1888.88
180.865	1898.05
180.942	1903.47
181.018	1910.89
181.095	1927.06
181.171	1929.72
181.248	1927.15
181.324	1941.37
181.4	1945.94
181.477	1958.82
181.553	1974.32
181.63	1993.44
181.706	2010.51
181.782	2017.45
181.859	2013.94
181.935	2019.12
182.011	2014.13
182.088	2033.29
182.164	2052.33
182.24	2067.3
182.317	2077.62
182.393	2077.76
182.469	2094.65
182.546	2112.06
182.622	2116.95
182.698	2112.34
182.775	2126.89
182.851	2144.16
182.927	2136.84
183.003	2132.65
183.08	2126.66
183.156	2132.03
183.232	2127.8
183.308	2113.72
183.385	2122.85
183.461	2141.74
183.537	2142.4
183.613	2157.15
183.69	2148.97
183.766	2139.02
183.842	2145.78
183.918	2149.87
183.995	2162.47
184.071	2165.76
184.147	2155.86
184.223	2143.83
184.299	2156.15
184.375	2145.5
184.452	2152.21
184.528	2202.6
184.604	2214.39
184.68	2226.19
184.756	2237.57
184.832	2244.04
184.908	2249.22
184.985	2247.89
185.061	2228.48
185.137	2239.8
185.213	2228.48
185.289	2227.67
185.365	2217.87
185.441	2215.97
185.517	2229.73
185.593	2225.21
185.669	2221.83
185.745	2235.34
185.822	2251.75
185.898	2246.13
185.974	2255.93
186.05	2245.74
186.126	2207.72
186.202	2205.73
186.278	2200.02
186.354	2190.78
186.43	2195.07
186.506	2194.88
186.582	2193.17
186.658	2201.92
186.734	2180.51
186.81	2180.08
186.886	2182.08
186.962	2197.11
187.038	2195.21
187.114	2186.83
187.19	2194.3
187.266	2184.88
187.341	2184.45
187.417	2177.56
187.493	2175.22
187.569	2178.56
187.645	2174.08
187.721	2165.04
187.797	2168.8
187.873	2176.7
187.949	2169.66
188.025	2164.19
188.101	2168.52
188.176	2176.7
188.252	2171.47
188.328	2180.6
188.404	2182.55
188.48	2178.46
188.556	2170.41
188.632	2169.99
188.707	2171.89
188.783	2170.51
188.859	2164.19
188.935	2154.38
189.011	2163.42
189.086	2158.24
189.162	2147.44
189.238	2141.64
189.314	2140.26
189.39	2133.5
189.465	2124.27
189.541	2139.83
189.617	2124.85
189.693	2116.57
189.768	2116.9
189.844	2143.46
189.92	2135.76
189.996	2143.94
190.071	2156.17
190.147	2156.31
190.223	2165.64
190.298	2157.07
190.374	2145.46
190.45	2158.73
190.526	2167.06
190.601	2161.25
190.677	2161.59
190.753	2191.14
190.828	2197.8
190.904	2212.7
190.98	2226.45
191.055	2238.77
191.131	2229.92
191.207	2250.38
191.282	2262.94
191.358	2254.85
191.433	2240.61
191.509	2255.69
191.585	2253.65
191.66	2252.74
191.736	2262.4
191.811	2252.07
191.887	2268.88
191.963	2289.39
192.038	2295.1
192.114	2294.38
192.189	2298
192.265	2295.24
192.34	2273.05
192.416	2272.44
192.491	2269.01
192.567	2270.39
192.642	2271.39
192.718	2271.96
192.793	2260.21
192.869	2254.12
192.944	2258.3
193.02	2265.58
193.095	2265.16
193.171	2269.3
193.246	2270.34
193.322	2265.25
193.397	2267.34
193.473	2249.73
193.548	2233.36
193.624	2239.36
193.699	2240.88
193.775	2257.97
193.85	2260.49
193.925	2268.49
194.001	2268.49
194.076	2260.16
194.152	2253.26
194.227	2245.74
194.302	2235.08
194.378	2239.13
194.453	2240.17
194.529	2250.69
194.604	2235.23
194.679	2229.99
194.755	2213.1
194.83	2226.72
194.905	2222.63
194.981	2230.29
195.056	2226.3
195.131	2232.15
195.207	2229.91
195.282	2216.11
195.357	2197.17
195.433	2210.78
195.508	2199.45
195.583	2204.97
195.659	2218.44
195.734	2226.1
195.809	2226.86
195.884	2237.33
195.96	2239.09
196.035	2250.27
196.11	2248.56
196.185	2261.36
196.261	2264.55
196.336	2294.62
196.411	2281.48
196.486	2288.81
196.561	2283.48
196.637	2293.9
196.712	2308.56
196.787	2311.94
196.862	2329.83
196.937	2340.01
197.013	2344.58
197.088	2354.58
197.163	2381.15
197.238	2400.96
197.313	2397.97
197.388	2409.34
197.464	2438.1
197.539	2448.05
197.614	2441.06
197.689	2453.2
197.764	2466.72
197.839	2486
197.914	2478.43
197.989	2499.53
198.065	2512.57
198.14	2560.98
198.215	2585.7
198.29	2599.66
198.365	2612.99
198.44	2624.18
198.515	2650.19
198.59	2669.44
198.665	2697.5
198.74	2703.26
198.815	2704.07
198.89	2728.7
198.965	2761.96
199.04	2759.82
199.115	2774.25
199.19	2820.51
199.265	2822.56
199.34	2836.57
199.415	2870.38
199.49	2894.15
199.565	2902.68
199.64	2931.04
199.715	2931.13
199.79	2938.57
199.865	2945.39
199.94	2944.05
200.015	2975.23
200.09	2982.62
200.165	2989.63
200.24	2998.5
200.315	3038.01
200.39	3054.18
200.464	3064.38
200.539	3068.86
200.614	3086.41
200.689	3110.63
200.764	3116.59
200.839	3135.08
200.914	3137.66
200.989	3130.88
201.063	3146.62
201.138	3131.18
201.213	3129.94
201.288	3109.73
201.363	3113.49
201.438	3116.78
201.512	3133.32
201.587	3119.73
201.662	3125.12
201.737	3138.19
201.812	3145.29
201.886	3111.65
201.961	3121.14
202.036	3107.03
202.111	3102.4
202.186	3074.05
202.26	3059.36
202.335	3039.09
202.41	3035.75
202.485	3020.64
202.559	3004.76
202.634	2980.26
202.709	2992.07
202.784	2979.58
202.858	2986.01
202.933	2978.58
203.008	2977.34
203.082	2960.8
203.157	2964.09
203.232	2931.58
203.306	2919.85
203.381	2902.01
203.456	2892.77
203.53	2882.75
203.605	2879.32
203.68	2871.64
203.754	2884.02
203.829	2889.08
203.904	2890.51
203.978	2899.62
204.053	2929.08
204.127	2942.15
204.202	2966.46
204.277	2978.81
204.351	2999.79
204.426	3023.22
204.5	3048.54
204.575	3049.12
204.65	3102.36
204.724	3140.5
204.799	3192.86
204.873	3237.02
204.948	3284.55
205.022	3328.45
205.097	3377.64
205.171	3449.43
205.246	3525.53
205.32	3590.98
205.395	3660.72
205.469	3725.66
205.544	3809.4
205.618	3874.83
205.693	3970.77
205.767	4047.97
205.842	4164.95
205.916	4253.36
205.991	4344.2
206.065	4453
206.14	4578.88
206.214	4684.08
206.289	4792.02
206.363	4918.53
206.438	5045.26
206.512	5177.93
206.586	5322.58
206.661	5461.53
206.735	5576.46
206.81	5709.15
206.884	5864.71
206.958	5996.18
207.033	6158.84
207.107	6322.28
207.181	6506.99
207.256	6650.56
207.33	6830.5
207.405	6994.32
207.479	7176.64
207.553	7352.98
207.628	7500.36
207.702	7681.21
207.776	7848.97
207.851	8025.71
207.925	8217.4
207.999	8388.15
208.073	8568.25
208.148	8749.48
208.222	8920.21
208.296	9130.13
208.371	9330.63
208.445	9528.86
208.519	9742.98
208.593	9947.27
208.668	10121.26
208.742	10311.8
208.816	10507.75
208.89	10709.72
208.965	10908.34
209.039	11109.09
209.113	11321.69
209.187	11546.23
209.261	11735.72
209.336	11951.83
209.41	12159.26
209.484	12356.88
209.558	12569.2
209.632	12778.59
209.707	12989.61
209.781	13204.74
209.855	13414.86
209.929	13620.98
210.003	13816.16
210.077	14001.31
210.151	14237.55
210.226	14463.19
210.3	14675.09
210.374	14872.92
210.448	15063.89
210.522	15253.62
210.596	15447.43
210.67	15625.39
210.744	15840.46
210.818	16049.94
210.892	16237.62
210.966	16415.23
211.041	16601.18
211.115	16775.94
211.189	16963.04
211.263	17141.5
211.337	17319.15
211.411	17502
211.485	17666.09
211.559	17843.2
211.633	18008.8
211.707	18125.37
211.781	18297.27
211.855	18420.16
211.929	18584.2
212.003	18714.89
212.077	18879.95
212.151	19040.76
212.225	19199.12
212.299	19332.12
212.373	19469.66
212.447	19610.48
212.52	19782.81
212.594	19922.66
212.668	20068.4
212.742	20179.24
212.816	20312.49
212.89	20428.54
212.964	20560.45
213.038	20693.9
213.112	20833.43
213.186	20984.72
213.26	21102.36
213.333	21176.34
213.407	21304.98
213.481	21426.15
213.555	21558.36
213.629	21659.34
213.703	21763.99
213.777	21888.02
213.85	21986.64
213.924	22137.78
213.998	22255.16
214.072	22355.78
214.146	22463.29
214.219	22574.18
214.293	22677.2
214.367	22773.76
214.441	22890.49
214.515	22985.23
214.588	23065.03
214.662	23133.7
214.736	23203.95
214.81	23305.83
214.883	23405.49
214.957	23487.8
215.031	23561.87
215.105	23635.84
215.178	23710.49
215.252	23784.08
215.326	23836.56
215.4	23902.82
215.473	23936.25
215.547	23997.6
215.621	24057.95
215.694	24125.77
215.768	24164.45
215.842	24224.98
215.915	24278.23
215.989	24318.46
216.063	24355.03
216.136	24401.29
216.21	24454.21
216.284	24532.27
216.357	24580.07
216.431	24634.73
216.504	24706.33
216.578	24799.55
216.652	24855.71
216.725	24906.8
216.799	24963.02
216.873	25022.56
216.946	25081.52
217.02	25113.17
217.093	25145.79
217.167	25176
217.24	25205.92
217.314	25248.18
217.387	25297.98
217.461	25343.25
217.535	25406.46
217.608	25452.16
217.682	25505.83
217.755	25557.95
217.829	25574.65
217.902	25619.68
217.976	25653.12
218.049	25676.15
218.123	25686.87
218.196	25732.81
218.27	25766.21
218.343	25803
218.417	25839.35
218.49	25867.54
218.563	25921.07
218.637	25973.64
218.71	26024.91
218.784	26065.55
218.857	26121.79
218.931	26159.64
219.004	26192.9
219.077	26233.99
219.151	26269.62
219.224	26287.91
219.298	26316.54
219.371	26370.28
219.444	26392.93
219.518	26427.83
219.591	26455.4
219.665	26510.11
219.738	26537.97
219.811	26565.83
219.885	26599.15
219.958	26633.53
220.031	26658.59
220.105	26691.14
220.178	26706.93
220.251	26725.72
220.325	26760.44
220.398	26779.71
220.471	26797.77
220.544	26820.03
220.618	26813.27
220.691	26827.95
220.764	26862.57
220.838	26891.16
220.911	26885.75
220.984	26910.19
221.057	26928.49
221.131	26939.6
221.204	26923.32
221.277	26959.21
221.35	26998.86
221.424	26992.92
221.497	27000.26
221.57	27015.67
221.643	27025.72
221.716	27037.07
221.79	27030.16
221.863	27028.27
221.936	27031.03
222.009	27037.45
222.082	27048.46
222.155	27054.26
222.229	27080.78
222.302	27073.39
222.375	27065.03
222.448	27077.68
222.521	27084.16
222.594	27094.93
222.667	27084.4
222.74	27088.75
222.814	27073.14
222.887	27053.68
222.96	27059.71
223.033	27057.88
223.106	27049.96
223.179	27040.59
223.252	27045.32
223.325	27044.26
223.398	27034.84
223.471	27023.05
223.544	27016.15
223.617	27006.54
223.69	26991.76
223.763	26959.21
223.837	26961.04
223.91	26953.6
223.983	26928.3
224.056	26901.45
224.129	26877.4
224.202	26874.89
224.275	26855.95
224.348	26828.57
224.42	26802.06
224.493	26775.74
224.566	26751.59
224.639	26742.61
224.712	26717.21
224.785	26690.5
224.858	26668.63
224.931	26642.84
225.004	26610.78
225.077	26586.25
225.15	26555.35
225.223	26549.65
225.296	26553.95
225.369	26510.25
225.442	26477.9
225.514	26455.83
225.587	26436.13
225.66	26417.74
225.733	26395.48
225.806	26369.16
225.879	26349.42
225.952	26329.67
226.025	26313.26
226.097	26294.18
226.17	26272.17
226.243	26226.06
226.316	26194.87
226.389	26167.84
226.461	26158.09
226.534	26145.87
226.607	26127.63
226.68	26116.86
226.753	26076.31
226.825	26016.93
226.898	26015.05
226.971	25987.82
227.044	25970.59
227.117	25941.58
227.189	25920.39
227.262	25907.3
227.335	25888.57
227.407	25849.72
227.48	25818.34
227.553	25805.07
227.626	25787.98
227.698	25754.58
227.771	25736.72
227.844	25706.12
227.916	25685.9
227.989	25639.76
228.062	25594.97
228.134	25581.46
228.207	25549.36
228.28	25516.64
228.352	25498.93
228.425	25463.94
228.498	25435.08
228.57	25385.04
228.643	25382.63
228.716	25349.9
228.788	25304.78
228.861	25273.51
228.934	25257.34
229.006	25225.88
229.079	25186.07
229.151	25138.53
229.224	25084.3
229.296	25065.72
229.369	25057.71
229.442	25037.4
229.514	24998.7
229.587	24987.36
229.659	24922.42
229.732	24886.96
229.804	24867.46
229.877	24863.75
229.949	24842.61
230.022	24842.61
230.094	24818.93
230.167	24774.63
230.239	24730.06
230.312	24704.34
230.384	24682.1
230.457	24647.32
230.529	24612.49
230.602	24568.59
230.674	24529.17
230.747	24520.2
230.819	24485.85
230.892	24424.05
230.964	24387.68
231.037	24365.15
231.109	24322.42
231.181	24305.53
231.254	24250.98
231.326	24223.25
231.399	24169.65
231.471	24117.07
231.544	24051.47
231.616	24019.49
231.688	23986.31
231.761	23943.14
231.833	23894.04
231.905	23851.02
231.978	23822.9
232.05	23786.44
232.122	23762.18
232.195	23731.27
232.267	23698.04
232.339	23663.36
232.412	23640.79
232.484	23607.7
232.556	23553.5
232.629	23540.48
232.701	23517.24
232.773	23496.5
232.846	23451.03
232.918	23422.77
232.99	23394.99
233.062	23369.24
233.135	23349.61
233.207	23304.86
233.279	23283.94
233.351	23266.58
233.424	23213.54
233.496	23158.43
233.568	23139.62
233.64	23085.18
233.713	23048.3
233.785	23015.9
233.857	22986.1
233.929	22938.32
234.001	22903.98
234.074	22876.02
234.146	22813.68
234.218	22770.09
234.29	22727.09
234.362	22674.16
234.434	22615.29
234.507	22554.98
234.579	22495.58
234.651	22440.19
234.723	22403.31
234.795	22361.36
234.867	22318.31
234.939	22292.14
235.012	22249.67
235.084	22209.22
235.156	22177.89
235.228	22131.03
235.3	22084.85
235.372	22037.36
235.444	21997.5
235.516	21938.54
235.588	21911.4
235.66	21878.43
235.732	21823.19
235.804	21845.61
235.876	21821.84
235.948	21796.92
236.02	21758.41
236.092	21718.21
236.164	21679.12
236.236	21637
236.308	21586.53
236.38	21549.56
236.452	21498.81
236.524	21465.69
236.596	21437.26
236.668	21398.26
236.74	21356.81
236.812	21316.66
236.884	21277.62
236.956	21240.32
237.028	21188.65
237.1	21137.42
237.172	21106.76
237.244	21083.34
237.316	20991.13
237.388	20945.88
237.46	20891.46
237.532	20865.68
237.604	20818.06
237.675	20791.32
237.747	20748.76
237.819	20705.29
237.891	20647.7
237.963	20599.55
238.035	20553.05
238.107	20474.49
238.178	20437.33
238.25	20390.06
238.322	20362.92
238.394	20299.26
238.466	20254.01
238.538	20221.67
238.609	20182.25
238.681	20113.62
238.753	20059.41
238.825	20024.81
238.897	19985.39
238.968	19957.68
239.04	19905.97
239.112	19892.33
239.184	19836.62
239.255	19789.92
239.327	19747.66
239.399	19712.34
239.471	19677.64
239.542	19641.83
239.614	19618.7
239.686	19551.67
239.758	19524.39
239.829	19466.9
239.901	19446.66
239.973	19410.95
240.044	19365.56
240.116	19325.71
240.188	19284.6
240.259	19243.83
240.331	19193.14
240.403	19157.81
240.474	19104.71
240.546	19057.19
240.618	18993.63
240.689	18940.14
240.761	18901.11
240.833	18880.1
240.904	18833.35
240.976	18788.1
241.048	18750.51
241.119	18718.47
241.191	18693.07
241.262	18659.1
241.334	18613.75
241.405	18563.34
241.477	18508.12
241.549	18468.46
241.62	18423.01
241.692	18392.56
241.763	18365.33
241.835	18316.8
241.906	18272.27
241.978	18217.19
242.049	18188.28
242.121	18161.63
242.192	18139.75
242.264	18089
242.335	18025.01
242.407	18001.44
242.478	17955.03
242.55	17909.06
242.621	17856.29
242.693	17805.88
242.764	17765.64
242.836	17727.04
242.907	17696.25
242.979	17662.08
243.05	17623.19
243.122	17587.77
243.193	17547.52
243.264	17481.79
243.336	17451.72
243.407	17420.78
243.479	17394.22
243.55	17359.86
243.622	17327.28
243.693	17283.72
243.764	17257.45
243.836	17217.21
243.907	17165.4
243.978	17137.11
244.05	17109.74
244.121	17046.8
244.192	17023.61
244.264	16968.29
244.335	16923.03
244.407	16864.19
244.478	16834.64
244.549	16799.03
244.62	16747.79
244.692	16704.71
244.763	16675.4
244.834	16628.56
244.906	16584.07
244.977	16545.66
245.048	16522.91
245.119	16466.48
245.191	16420.25
245.262	16358.18
245.333	16334.66
245.405	16300.44
245.476	16261.3
245.547	16216.43
245.618	16191.89
245.689	16156.08
245.761	16120.42
245.832	16092.75
245.903	16067.93
245.974	16031.39
246.045	15996.69
246.117	15981.89
246.188	15937.26
246.259	15897.54
246.33	15854.41
246.401	15804.57
246.473	15770.59
246.544	15721.52
246.615	15707.83
246.686	15680.74
246.757	15672.84
246.828	15630.81
246.899	15609.74
246.97	15560.67
247.042	15530.98
247.113	15514.35
247.184	15488.61
247.255	15452.03
247.326	15420.12
247.397	15382.52
247.468	15349.6
247.539	15311.96
247.61	15264.86
247.681	15246.83
247.752	15220.27
247.823	15189.62
247.894	15169.37
247.965	15119.82
248.037	15084.2
248.108	15022.45
248.179	14985.72
248.25	14942.62
248.321	14912.4
248.392	14865.45
248.463	14861.06
248.534	14821.83
248.605	14795.22
248.675	14769.53
248.746	14744.89
248.817	14718.53
248.888	14694.76
248.959	14645.88
249.03	14626.94
249.101	14595.89
249.172	14558.54
249.243	14514.72
249.314	14497.89
249.385	14462.75
249.456	14437.2
249.527	14410.3
249.598	14396.33
249.669	14363.01
249.739	14348.55
249.81	14329.03
249.881	14286.85
249.952	14252.87
250.023	14223.6
250.094	14177.28
250.165	14131.92
250.235	14101.69
250.306	14071.52
250.377	14034.93
250.448	14016.85
250.519	13963.34
250.59	13953.6
250.66	13918.17
250.731	13897.78
250.802	13864.08
250.873	13841.33
250.944	13823.35
251.014	13780.98
251.085	13777.22
251.156	13756.82
251.227	13738.55
251.297	13723.03
251.368	13715.22
251.439	13695.17
251.51	13682.68
251.58	13644.7
251.651	13619.82
251.722	13609.55
251.792	13564.24
251.863	13529.97
251.934	13516.23
252.005	13519.99
252.075	13481.52
252.146	13469.76
252.217	13462.72
252.287	13453.99
252.358	13424.49
252.429	13419.67
252.499	13396.19
252.57	13372.72
252.641	13355.51
252.711	13322.34
252.782	13272.01
252.852	13265.84
252.923	13237.59
252.994	13211.56
253.064	13204.52
253.135	13163.5
253.205	13125.32
253.276	13124.5
253.347	13121.56
253.417	13090.51
253.488	13062.02
253.558	13044.04
253.629	13017.1
253.699	12994.73
253.77	12970.53
253.841	12951.05
253.911	12925.79
253.982	12905.64
254.052	12890.6
254.123	12872
254.193	12849.53
254.264	12872.72
254.334	12835.5
254.405	12801.95
254.475	12766.86
254.546	12744.2
254.616	12746.9
254.687	12736.78
254.757	12711.23
254.827	12685.63
254.898	12665.82
254.968	12638.15
255.039	12610.05
255.109	12595.54
255.18	12558.62
255.25	12515.04
255.321	12498.99
255.391	12455.36
255.461	12457
255.532	12400.89
255.602	12371.1
255.673	12328.83
255.743	12291.52
255.813	12243.51
255.884	12239.75
255.954	12226.2
256.024	12231.89
256.095	12207.79
256.165	12170.72
256.235	12161.03
256.306	12133.7
256.376	12122.23
256.446	12113.5
256.517	12098.46
256.587	12086.9
256.657	12071.38
256.728	12061.59
256.798	12033.97
256.868	12017.44
256.938	11987.36
257.009	11979.07
257.079	11971.31
257.149	11981.19
257.219	11943.74
257.29	11929.04
257.36	11888.45
257.43	11879.83
257.5	11825.17
257.571	11792
257.641	11777.59
257.711	11741.01
257.781	11727.61
257.852	11712.72
257.922	11667.36
257.992	11644.03
258.062	11624.08
258.132	11614.34
258.202	11590.97
258.273	11578.82
258.343	11578.24
258.413	11548.26
258.483	11535.06
258.553	11501.75
258.623	11471.44
258.693	11457.99
258.764	11457.94
258.834	11455.53
258.904	11437.46
258.974	11412.25
259.044	11396.16
259.114	11387.53
259.184	11372.35
259.254	11346.52
259.324	11304.15
259.394	11296.3
259.464	11295.67
259.535	11270.95
259.605	11248.3
259.675	11218.32
259.745	11206.71
259.815	11173.98
259.885	11147.77
259.955	11150.9
260.025	11117.07
260.095	11096.16
260.165	11080.54
260.235	11075.29
260.305	11042.04
260.375	11011.87
260.445	11019.29
260.515	11018.04
260.585	11007.92
260.655	10991.53
260.725	10989.8
260.795	10981.75
260.865	10981.89
260.934	10954.04
261.004	10945.27
261.074	10931.1
261.144	10932.21
261.214	10923.49
261.284	10904.89
261.354	10904.74
261.424	10876.89
261.494	10887.44
261.564	10867.2
261.634	10858.33
261.703	10823.78
261.773	10815.54
261.843	10799.64
261.913	10779.93
261.983	10743.7
262.053	10725.53
262.123	10712.38
262.192	10678.07
262.262	10672.29
262.332	10647.96
262.402	10644.29
262.472	10628.97
262.541	10589.32
262.611	10583.78
262.681	10558.29
262.751	10557.32
262.821	10536.89
262.89	10509.33
262.96	10493.91
263.03	10506.63
263.1	10494.06
263.169	10485.48
263.239	10478.88
263.309	10492.71
263.379	10486.35
263.448	10478.84
263.518	10470.84
263.588	10451.32
263.657	10461.1
263.727	10456.57
263.797	10439.42
263.867	10412.97
263.936	10387.2
264.006	10395.48
264.076	10372.26
264.145	10350.68
264.215	10321.53
264.285	10316.52
264.354	10282.85
264.424	10261.6
264.494	10227.68
264.563	10200.61
264.633	10199.93
264.702	10190.2
264.772	10148.19
264.842	10128.29
264.911	10115.91
264.981	10086.82
265.05	10070.39
265.12	10045.15
265.19	10032.23
265.259	10029.97
265.329	10027.9
265.398	10013.55
265.468	10020.48
265.537	10005.65
265.607	10003.29
265.676	9999.63
265.746	9988.4
265.815	9989.8
265.885	9980.69
265.955	9958.25
266.024	9947.7
266.094	9913.12
266.163	9911.09
266.232	9917.11
266.302	9899.24
266.371	9889.37
266.441	9880.99
266.51	9884.22
266.58	9868.9
266.649	9850.88
266.719	9845.92
266.788	9835.95
266.858	9841.25
266.927	9800.16
266.996	9789.71
267.066	9779.35
267.135	9754.31
267.205	9746.65
267.274	9735.82
267.343	9733.46
267.413	9723.15
267.482	9724.88
267.552	9728.69
267.621	9698.35
267.69	9666.61
267.76	9662.17
267.829	9658.95
267.898	9648.3
267.968	9619.89
268.037	9618.11
268.106	9610.64
268.176	9583.09
268.245	9565.32
268.314	9546.54
268.384	9548.7
268.453	9534.6
268.522	9526.99
268.592	9528.38
268.661	9512.87
268.73	9503
268.799	9481.19
268.869	9487.4
268.938	9457.93
269.007	9436.31
269.076	9428.55
269.146	9425.81
269.215	9414.69
269.284	9420.46
269.353	9397.16
269.422	9387.19
269.492	9367.31
269.561	9327.82
269.63	9323.97
269.699	9307.16
269.768	9299.36
269.838	9292.33
269.907	9297.58
269.976	9267.73
270.045	9234.65
270.114	9230.95
270.183	9218.91
270.253	9215.73
270.322	9189.83
270.391	9182.22
270.46	9188.96
270.529	9191.18
270.598	9191.32
270.667	9179.91
270.736	9151.59
270.806	9147.84
270.875	9147.7
270.944	9134.26
271.013	9151.26
271.082	9136.14
271.151	9137.68
271.22	9108.22
271.289	9091.85
271.358	9078.22
271.427	9076.83
271.496	9078.51
271.565	9060.12
271.634	9055.5
271.703	9076.98
271.772	9080.2
271.841	9071.54
271.91	9048.91
271.979	9035.67
272.048	9010.49
272.117	9009
272.186	8995.23
272.255	9000.38
272.324	8995.28
272.393	8993.83
272.462	8989.64
272.531	8991.14
272.6	8979.58
272.669	8992
272.738	8985.89
272.807	8980.64
272.876	8962.88
272.945	8987.24
273.013	8984.3
273.082	8983.77
273.151	8940.78
273.22	8938.32
273.289	8931.05
273.358	8943.62
273.427	8933.03
273.496	8936.88
273.564	8933.75
273.633	8935.29
273.702	8914.4
273.771	8906.79
273.84	8902.6
273.909	8894.52
273.977	8887.73
274.046	8878.39
274.115	8883.59
274.184	8866.07
274.253	8858.99
274.322	8863.81
274.39	8831.36
274.459	8817.02
274.528	8790.93
274.597	8785.01
274.665	8776.44
274.734	8781.16
274.803	8768.79
274.872	8760.61
274.94	8748.38
275.009	8799.14
275.078	8780.42
275.147	8777.67
275.215	8776.42
275.284	8784.7
275.353	8768.43
275.421	8748.41
275.49	8769.59
275.559	8751.2
275.627	8743.31
275.696	8727.82
275.765	8726.42
275.833	8711.79
275.902	8716.94
275.971	8724.98
276.039	8743.85
276.108	8750.44
276.177	8752.17
276.245	8734.7
276.314	8727.68
276.383	8727.1
276.451	8657.57
276.52	8663.92
276.588	8678.17
276.657	8685.05
276.725	8674.27
276.794	8676.15
276.863	8685.58
276.931	8655.06
277	8654.58
277.068	8664.59
277.137	8683.84
277.205	8682.35
277.274	8709.92
277.342	8720.46
277.411	8704.01
277.48	8686.87
277.548	8669.88
277.617	8670.56
277.685	8667.96
277.754	8679.84
277.822	8676.48
277.89	8696.74
277.959	8688.22
278.027	8666.23
278.096	8647.31
278.164	8671.72
278.233	8660.6
278.301	8650.11
278.37	8655.31
278.438	8654.83
278.507	8663.59
278.575	8644.57
278.643	8640.15
278.712	8625.51
278.78	8612.71
278.849	8624.02
278.917	8635.47
278.985	8633.12
279.054	8627.97
279.122	8639.95
279.191	8626.09
279.259	8624.79
279.327	8601.06
279.396	8624.79
279.464	8624.59
279.532	8634.99
279.601	8631.33
279.669	8629.36
279.737	8639.51
279.806	8636.67
279.874	8647.89
279.942	8646.54
280.011	8639.47
280.079	8648.32
280.147	8663.77
280.215	8664.01
280.284	8657.52
280.352	8640.57
280.42	8647.79
280.488	8638.22
280.557	8628.11
280.625	8641.87
280.693	8637.59
280.761	8638.31
280.83	8614.87
280.898	8632.68
280.966	8612.71
281.034	8578.2
281.102	8565.31
281.171	8559.53
281.239	8568.77
281.307	8559.82
281.375	8547.35
281.443	8578.11
281.512	8575.61
281.58	8574.02
281.648	8563.62
281.716	8567.71
281.784	8563
281.852	8560.54
281.92	8560.54
281.989	8574.64
282.057	8556.36
282.125	8605.79
282.193	8603.97
282.261	8607.91
282.329	8591.69
282.397	8596.5
282.465	8602.28
282.533	8620.18
282.601	8610.79
282.67	8598.62
282.738	8583.6
282.806	8589.14
282.874	8567.81
282.942	8571.28
283.01	8569.59
283.078	8572.72
283.146	8568.92
283.214	8582.3
283.282	8583.65
283.35	8594.57
283.418	8589.57
283.486	8593.9
283.554	8547.15
283.622	8550.86
283.69	8546.48
283.758	8546.1
283.826	8554.18
283.894	8564
283.962	8584.36
284.03	8600.43
284.098	8596.77
284.165	8599.42
284.233	8605
284.301	8601.78
284.369	8591.96
284.437	8580.94
284.505	8577.23
284.573	8593.11
284.641	8581.61
284.709	8589.55
284.777	8575.26
284.845	8584.6
284.912	8587.53
284.98	8591.72
285.048	8590.23
285.116	8601.06
285.184	8615.45
285.252	8610.1
285.319	8598.36
285.387	8588.4
285.455	8576.51
285.523	8585.03
285.591	8582.43
285.659	8579.3
285.726	8590.27
285.794	8576.61
285.862	8576.18
285.93	8582.24
285.997	8578.82
286.065	8573.48
286.133	8559.09
286.201	8555.77
286.269	8539.46
286.336	8533.58
286.404	8532
286.472	8540.03
286.539	8517.13
286.607	8504.52
286.675	8508.95
286.743	8515.93
286.81	8510.15
286.878	8521.36
286.946	8508.42
287.013	8503.7
287.081	8505.15
287.149	8491.29
287.216	8511.06
287.284	8507.07
287.352	8500.52
287.419	8499.99
287.487	8512.89
287.555	8525.4
287.622	8526.61
287.69	8537.29
287.758	8545.62
287.825	8539.46
287.893	8526.22
287.96	8535.22
288.028	8544.65
288.096	8548.84
288.163	8552.26
288.231	8542.49
288.298	8531.71
288.366	8544.85
288.433	8548.89
288.501	8541.24
288.569	8543.35
288.636	8538.83
288.704	8552.21
288.771	8567.95
288.839	8555.96
288.906	8553.85
288.974	8560.92
289.041	8557.41
289.109	8545.43
289.176	8557.84
289.244	8559.14
289.311	8577.29
289.379	8584.36
289.446	8583.25
289.514	8580.37
289.581	8578.68
289.649	8581.95
289.716	8592.49
289.783	8589.7
289.851	8609.05
289.918	8608.37
289.986	8618.77
290.053	8623.29
290.121	8615.11
290.188	8612.9
290.255	8642.45
290.323	8641.58
290.39	8634.22
290.458	8643.41
290.525	8653.51
290.592	8651.3
290.66	8654.86
290.727	8640.9
290.794	8658.86
290.862	8663.72
290.929	8669.78
290.996	8671.61
291.064	8681.33
291.131	8692.11
291.198	8706.07
291.266	8698.76
291.333	8701.98
291.4	8707.32
291.468	8726.43
291.535	8729.03
291.602	8735.38
291.669	8726.67
291.737	8730.95
291.804	8727.83
291.871	8741.83
291.938	8749.44
292.006	8773.46
292.073	8783.13
292.14	8795.36
292.207	8787.8
292.275	8784.72
292.342	8794.78
292.409	8819.52
292.476	8851.3
292.543	8842.49
292.611	8839.31
292.678	8860.73
292.745	8886.34
292.812	8906.41
292.879	8901.55
292.946	8903.81
293.014	8914.07
293.081	8923.79
293.148	8936.59
293.215	8957
293.282	8954.21
293.349	8970.53
293.416	8952.67
293.484	8976.26
293.551	8990.46
293.618	9004.52
293.685	9035.23
293.752	9024.4
293.819	9022.23
293.886	9002.16
293.953	9010.87
294.02	9025.5
294.087	9030.46
294.154	9024.73
294.221	9027.19
294.288	9033.3
294.356	9053.19
294.423	9061.18
294.49	9055.02
294.557	9065.65
294.624	9053.86
294.691	9077.11
294.758	9073.98
294.825	9083.76
294.892	9070.08
294.959	9075.62
295.026	9086.89
295.093	9073.45
295.16	9083.51
295.226	9083.56
295.293	9113.94
295.36	9121.26
295.427	9135.27
295.494	9155.16
295.561	9171.05
295.628	9195.66
295.695	9210.87
295.762	9216.07
295.829	9218.24
295.896	9229.84
295.963	9241.64
296.03	9253.29
296.096	9260.41
296.163	9273.37
296.23	9289.45
296.297	9308.03
296.364	9305.34
296.431	9310.68
296.498	9314.24
296.564	9336.39
296.631	9340.63
296.698	9321.27
296.765	9343.66
296.832	9329.22
296.899	9316.74
296.965	9326.95
297.032	9304.75
297.099	9317.99
297.166	9330.8
297.233	9333.26
297.299	9335.09
297.366	9335.43
297.433	9341.59
297.5	9353.19
297.566	9353.1
297.633	9347.56
297.7	9348.28
297.767	9351.89
297.833	9356.08
297.9	9360.66
297.967	9340.77
298.033	9358.49
298.1	9390.18
298.167	9380.07
298.234	9390.23
298.3	9398.89
298.367	9395.24
298.434	9409.97
298.5	9403.71
298.567	9396.68
298.634	9398.32
298.7	9415.27
298.767	9418.35
298.834	9431.45
298.9	9419.45
298.967	9412.42
299.033	9427.79
299.1	9446.62
299.167	9456.92
299.233	9459.04
299.3	9472.86
299.366	9495.25
299.433	9508.54
299.5	9487.4
299.566	9497.27
299.633	9513.98
299.699	9525.01
299.766	9525.11
299.832	9526.55
299.899	9530.36
299.965	9544.13
300.032	9544.9
300.099	9555.74
300.165	9566.67
300.232	9566.72
300.298	9573.07
300.365	9589.16
300.431	9591.37
300.498	9585.59
300.564	9592.34
300.631	9599.99
300.697	9619.89
300.763	9621.43
300.83	9618.49
300.896	9629.71
300.963	9639.1
301.029	9644.3
301.096	9643.82
301.162	9652.49
301.229	9651.33
301.295	9647.91
301.361	9645.94
301.428	9651.33
301.494	9638.57
301.561	9638.91
301.627	9641.65
301.693	9642.13
301.76	9639.1
301.826	9631.1
301.892	9642.71
301.959	9659.04
302.025	9654.99
302.092	9637.8
302.158	9644.59
302.224	9648.06
302.291	9642.23
302.357	9642.28
302.423	9639.73
302.49	9632.65
302.556	9652.35
302.622	9647.19
302.688	9659.23
302.755	9678.79
302.821	9689.34
302.887	9699.21
302.954	9697.28
303.02	9703.49
303.086	9710.82
303.152	9715.73
303.219	9716.83
303.285	9722.66
303.351	9725.55
303.417	9734.13
303.483	9729.98
303.55	9722.81
303.616	9715.68
303.682	9716.98
303.748	9701.52
303.815	9710.05
303.881	9727.1
303.947	9710.14
304.013	9720.45
304.079	9710.38
304.145	9695.4
304.212	9686.59
304.278	9676.86
304.344	9677.1
304.41	9667.71
304.476	9655.24
304.542	9654.42
304.608	9661.74
304.674	9637.9
304.741	9624.65
304.807	9626.77
304.873	9633.9
304.939	9654.18
305.005	9647.53
305.071	9642.76
305.137	9647.82
305.203	9623.02
305.269	9619.35
305.335	9630.1
305.401	9627.11
305.467	9630.05
305.533	9633.13
305.599	9644.5
305.666	9654.61
305.732	9654.32
305.798	9666.46
305.864	9695.74
305.93	9694.34
305.996	9693.24
306.062	9700.07
306.128	9698.49
306.194	9681
306.259	9680.91
306.325	9662.07
306.391	9669.25
306.457	9678.98
306.523	9686.01
306.589	9712.4
306.655	9703.4
306.721	9687.5
306.787	9672.57
306.853	9686.3
306.919	9669.64
306.985	9665.88
307.051	9655.77
307.117	9643.92
307.183	9637.08
307.248	9610.35
307.314	9616.37
307.38	9622.82
307.446	9629.95
307.512	9622.1
307.578	9630.48
307.644	9629.04
307.709	9636.89
307.775	9633.47
307.841	9635.92
307.907	9630.91
307.973	9610.45
308.039	9608.81
308.104	9617.38
308.17	9621.23
308.236	9605.53
308.302	9612.22
308.368	9601.92
308.433	9599.03
308.499	9598.31
308.565	9590.6
308.631	9594.5
308.696	9573.7
308.762	9560.02
308.828	9553.61
308.894	9530.41
308.959	9507.97
309.025	9497.71
309.091	9498.33
309.156	9488.65
309.222	9484.22
309.288	9471.9
309.354	9454.13
309.419	9454.66
309.485	9435.11
309.551	9439.54
309.616	9424.27
309.682	9421.48
309.748	9406.98
309.813	9408.86
309.879	9395
309.945	9377.28
310.01	9368.51
310.076	9371.3
310.141	9361.48
310.207	9349.2
310.273	9362.68
310.338	9367.79
310.404	9343.52
310.469	9328.06
310.535	9321.95
310.601	9298.78
310.666	9307.74
310.732	9319.73
310.797	9303.79
310.863	9293.68
310.928	9282.7
310.994	9289.54
311.059	9278.56
311.125	9280
311.191	9292.38
311.256	9282.27
311.322	9290.94
311.387	9270.81
311.453	9662.83
311.518	9638.13
311.584	9638.04
311.649	9636.83
311.715	9626.44
311.78	9642.47
311.846	9628.22
311.911	9630.53
311.976	9635.39
312.042	9617.77
312.107	9596.63
312.173	9595.04
312.238	9596.24
312.304	9594.08
312.369	9579.78
312.434	9577.03
312.5	9568.27
312.565	9526.67
312.631	9537.98
312.696	9535.09
312.761	9539.71
312.827	9138.93
312.892	9178.03
312.958	9172.06
313.023	9172.87
313.088	9177.98
313.154	9161.46
313.219	9156.31
313.284	9148.18
313.35	9144.23
313.415	9135.9
313.48	9136.09
313.546	9135.75
313.611	9142.59
313.676	9137.58
313.741	9125.31
313.807	9135.32
313.872	9147.46
313.937	9159.88
314.003	9169.84
314.068	9164.59
314.133	9179.09
314.198	9172.54
314.264	9153.33
314.329	9147.64
314.394	9148.03
314.459	9140.18
314.525	9155.11
314.59	9149.62
314.655	9136.57
314.72	9140.04
314.785	9143.07
314.851	9134.94
314.916	9116.3
314.981	9093.97
315.046	9075.77
315.111	9069.9
315.176	9050.16
315.242	9044.19
315.307	9042.74
315.372	9025.41
315.437	9018.43
315.502	9000.33
315.567	9009.76
315.632	8987.38
315.698	8985.35
315.763	8974.47
315.828	8967.2
315.893	8965.42
315.958	8968.6
316.023	8959.45
316.088	8945.01
316.153	8920.7
316.218	8916.18
316.283	8896.21
316.348	8883.16
316.413	8890.67
316.479	8876.81
316.544	8848.27
316.609	8817.08
316.674	8781.66
316.739	8743.93
316.804	8711.39
316.869	8673.86
316.934	8630.73
316.999	8606.04
317.064	8553.21
317.129	8504.94
317.194	8463.84
317.259	8413.55
317.324	8357.64
317.389	8312.95
317.454	8268
317.518	8236.06
317.583	8208.01
317.648	8186.12
317.713	8150.33
317.778	8083.84
317.843	8054.3
317.908	8012.75
317.973	7974.02
318.038	7940.21
318.103	7901.64
318.168	7868.6
318.233	7838.01
318.297	7797.37
318.362	7761.4
318.427	7718.66
318.492	7696.64
318.557	7650.87
318.622	7623.03
318.687	7602.79
318.751	7566.44
318.816	7534.52
318.881	7499.48
318.946	7444.81
319.011	7400.49
319.075	7364.58
319.14	7336.18
319.205	7295.7
319.27	7262.64
319.335	7214.4
319.399	7177.05
319.464	7151.88
319.529	7101.14
319.594	7060.72
319.658	7025.74
319.723	6976.11
319.788	6953.63
319.853	6897.95
319.917	6870.19
319.982	6818.06
320.047	6776.32
320.112	6746.16
320.176	6693.57
320.241	6664.36
320.306	6635.41
320.37	6591.42
320.435	6555.21
320.5	6523.42
320.564	6482.13
320.629	6443.1
320.694	6414.49
320.758	6372.49
320.823	6328.23
320.888	6302.84
320.952	6257.87
321.017	6214.82
321.082	6180.99
321.146	6146.34
321.211	6113.57
321.275	6069.05
321.34	6025.3
321.405	5981.93
321.469	5932.28
321.534	5890.8
321.598	5836.83
321.663	5805.89
321.727	5774.28
321.792	5721.73
321.857	5676.35
321.921	5633.68
321.986	5586.03
322.05	5531.05
322.115	5493.42
322.179	5447.55
322.244	5388.98
322.308	5354.05
322.373	5302.77
322.437	5258.5
322.502	5230.07
322.566	5183.83
322.631	5152.41
322.695	5110.35
322.76	5064.04
322.824	5030.32
322.889	4989.86
322.953	4945.71
323.018	4879.05
323.082	4816.81
323.146	4771.92
323.211	4718.06
323.275	4673.93
323.34	4635.6
323.404	4597.51
323.468	4553.43
323.533	4508.75
323.597	4463.03
323.662	4410.12
323.726	4377.35
323.79	4332.34
323.855	4263.59
323.919	4213.42
323.983	4166.98
324.048	4100.18
324.112	4227.48
324.177	4095.42
324.241	3882.77
324.305	3672.37
324.37	3466.85
324.434	3269.02
324.498	3222.12
324.562	3170.12
324.627	3107.83
324.691	3044.05
324.755	2977.45
324.82	2893.53
324.884	2813.41
324.948	2736.93
325.012	2638.01
325.077	2509.7
