Data from 20250704_urea_0.5M_MAYP1162681_11-05-15-767.txt Node
Date: Fri Jul 04 11:05:15 BST 2025
User: adleo
Spectrometer: MAYP116268
Trigger mode: 0
Integration Time (sec): 1.000000E0
Scans to average: 1
Electric dark correction enabled: true
Nonlinearity correction enabled: true
Boxcar width: 10
XAxis mode: Wavelengths
Number of Pixels in Spectrum: 2068
>>>>>Begin Spectral Data<<<<<
179.565	1234.03
179.642	1289.07
179.718	1334.56
179.795	1372.63
179.871	1405.63
179.948	1424.21
180.024	1447.94
180.101	1475.35
180.177	1488.43
180.254	1512.58
180.33	1533.86
180.407	1591.59
180.483	1688.42
180.56	1779.78
180.636	1863.39
180.712	1850.5
180.789	1863.19
180.865	1877.69
180.942	1887.53
181.018	1898.51
181.095	1912.25
181.171	1920.62
181.248	1925.23
181.324	1941.12
181.4	1949.39
181.477	1961.9
181.553	1976.39
181.63	1995.42
181.706	2009.35
181.782	2018
181.859	2016.81
181.935	2026.66
182.011	2021.67
182.088	2040.07
182.164	2060.62
182.24	2075.74
182.317	2085.54
182.393	2082.78
182.469	2097.67
182.546	2108.08
182.622	2110.08
182.698	2102.42
182.775	2113.69
182.851	2125.49
182.927	2117.74
183.003	2111.79
183.08	2105.37
183.156	2113.46
183.232	2112.08
183.308	2098.62
183.385	2108.27
183.461	2127.92
183.537	2124.35
183.613	2134.34
183.69	2124.21
183.766	2114.83
183.842	2123.3
183.918	2127.87
183.995	2142.33
184.071	2144.9
184.147	2139.61
184.223	2131.67
184.299	2143.24
184.375	2133.29
184.452	2142.77
184.528	2192.58
184.604	2204
184.68	2216.27
184.756	2223.79
184.832	2227.07
184.908	2231.06
184.985	2232.06
185.061	2215.65
185.137	2226.59
185.213	2215.99
185.289	2216.89
185.365	2208.33
185.441	2204.57
185.517	2215.85
185.593	2215.56
185.669	2210.28
185.745	2222.75
185.822	2238.3
185.898	2232.11
185.974	2240.25
186.05	2228.78
186.126	2193.28
186.202	2188.71
186.278	2184.48
186.354	2175.77
186.43	2180.48
186.506	2179.77
186.582	2178.96
186.658	2187.24
186.734	2168.59
186.81	2174.49
186.886	2180.29
186.962	2193.99
187.038	2191.95
187.114	2185.71
187.19	2189.66
187.266	2182.1
187.341	2181.72
187.417	2173.06
187.493	2172.77
187.569	2176.34
187.645	2171.97
187.721	2162.16
187.797	2168.49
187.873	2176.63
187.949	2172.54
188.025	2168.21
188.101	2174.68
188.176	2178.34
188.252	2169.97
188.328	2177
188.404	2175.96
188.48	2170.68
188.556	2161.73
188.632	2163.45
188.707	2163.35
188.783	2162.21
188.859	2156.5
188.935	2146.51
189.011	2156.31
189.086	2149.22
189.162	2138.66
189.238	2133.38
189.314	2129.2
189.39	2121.87
189.465	2111.64
189.541	2126.34
189.617	2111.07
189.693	2103.7
189.768	2104.32
189.844	2129.73
189.92	2121.79
189.996	2129.02
190.071	2139.68
190.147	2139.01
190.223	2147.25
190.298	2140.39
190.374	2126.22
190.45	2139.91
190.526	2149.81
190.601	2140.68
190.677	2141.2
190.753	2170.57
190.828	2177.23
190.904	2194.93
190.98	2214.3
191.055	2226.57
191.131	2218.63
191.207	2238.8
191.282	2247.93
191.358	2242.46
191.433	2225.7
191.509	2240.3
191.585	2237.78
191.66	2239.54
191.736	2249.73
191.811	2239.83
191.887	2260.3
191.963	2282.66
192.038	2287.56
192.114	2287.04
192.189	2294.7
192.265	2294.41
192.34	2270.18
192.416	2269.18
192.491	2262.99
192.567	2264.42
192.642	2262.85
192.718	2261.19
192.793	2248.58
192.869	2247.48
192.944	2248.91
193.02	2260.09
193.095	2263.14
193.171	2269.85
193.246	2266.52
193.322	2263.09
193.397	2264.09
193.473	2246.71
193.548	2230.01
193.624	2235.44
193.699	2232.2
193.775	2246.38
193.85	2248.29
193.925	2258.71
194.001	2258.23
194.076	2251.95
194.152	2242.1
194.227	2235.34
194.302	2227.49
194.378	2230.25
194.453	2228.3
194.529	2241.05
194.604	2225.73
194.679	2218.78
194.755	2201.04
194.83	2213.23
194.905	2209.85
194.981	2218.89
195.056	2210.28
195.131	2215.8
195.207	2216.51
195.282	2209.04
195.357	2191.43
195.433	2203.23
195.508	2190.34
195.583	2197.43
195.659	2210.09
195.734	2217.37
195.809	2218.51
195.884	2228.36
195.96	2232.26
196.035	2245.3
196.11	2240.92
196.185	2251.77
196.261	2255.91
196.336	2286.31
196.411	2273.65
196.486	2280.65
196.561	2278.79
196.637	2289.78
196.712	2306.73
196.787	2305.44
196.862	2321.76
196.937	2329.14
197.013	2338.33
197.088	2350.46
197.163	2373.7
197.238	2392.37
197.313	2392.23
197.388	2405.89
197.464	2435.79
197.539	2442.27
197.614	2436.18
197.689	2450.79
197.764	2466.17
197.839	2489.07
197.914	2480.84
197.989	2503.22
198.065	2516.55
198.14	2564.58
198.215	2591.06
198.29	2599.63
198.365	2614.3
198.44	2620.83
198.515	2652.88
198.59	2668.75
198.665	2695.09
198.74	2700.76
198.815	2702.57
198.89	2725.06
198.965	2756.89
199.04	2751.27
199.115	2771.61
199.19	2814.11
199.265	2816.49
199.34	2828.83
199.415	2860.54
199.49	2884.22
199.565	2893.37
199.64	2915.77
199.715	2911.38
199.79	2919.29
199.865	2931.68
199.94	2929.16
200.015	2962.96
200.09	2967.1
200.165	2973.68
200.24	2981.26
200.315	3024.21
200.39	3039.75
200.464	3046.14
200.539	3046.47
200.614	3065.49
200.689	3091.2
200.764	3096.21
200.839	3112.22
200.914	3116.23
200.989	3107.73
201.063	3121.28
201.138	3103.93
201.213	3106.6
201.288	3087.77
201.363	3090.92
201.438	3089.77
201.512	3108.84
201.587	3092.53
201.662	3098.73
201.737	3109.36
201.812	3117.23
201.886	3081.15
201.961	3092.79
202.036	3079.54
202.111	3076.16
202.186	3043.9
202.26	3023.72
202.335	3003.6
202.41	2997.21
202.485	2981.1
202.559	2961.31
202.634	2937.34
202.709	2948.96
202.784	2927.18
202.858	2927.51
202.933	2905.59
203.008	2898.63
203.082	2878.09
203.157	2879.28
203.232	2835.82
203.306	2813.27
203.381	2779.05
203.456	2759.37
203.53	2735.47
203.605	2717.14
203.68	2694.21
203.754	2690.78
203.829	2675.1
203.904	2652.29
203.978	2643.95
204.053	2649.14
204.127	2635.47
204.202	2632.85
204.277	2615.56
204.351	2608.56
204.426	2602.32
204.5	2599.03
204.575	2562.27
204.65	2571.8
204.724	2562.08
204.799	2569.36
204.873	2567.41
204.948	2569.31
205.022	2555.17
205.097	2544.97
205.171	2556.5
205.246	2565.65
205.32	2560.74
205.395	2561.03
205.469	2555.6
205.544	2557.8
205.618	2540.89
205.693	2551.6
205.767	2539.03
205.842	2560.76
205.916	2556.85
205.991	2545.42
206.065	2548.04
206.14	2562.98
206.214	2561.31
206.289	2556.26
206.363	2570.98
206.438	2573.84
206.512	2580.46
206.586	2603.18
206.661	2612.85
206.735	2593.67
206.81	2594.81
206.884	2614.95
206.958	2605.38
207.033	2624.76
207.107	2639.2
207.181	2673.51
207.256	2671.27
207.33	2691.7
207.405	2710.44
207.479	2737.32
207.553	2751.84
207.628	2747.13
207.702	2769.37
207.776	2771.38
207.851	2785.29
207.925	2812.09
207.999	2821.67
208.073	2837.4
208.148	2855.51
208.222	2860.28
208.296	2911.74
208.371	2948.9
208.445	2983.19
208.519	3037.59
208.593	3076.74
208.668	3100.6
208.742	3134.97
208.816	3170.01
208.89	3223.46
208.965	3255.5
209.039	3303.96
209.113	3369.78
209.187	3435.65
209.261	3479.6
209.336	3555.23
209.41	3629.79
209.484	3686.07
209.558	3768.53
209.632	3841.28
209.707	3919.94
209.781	4016.87
209.855	4110.83
209.929	4207.98
210.003	4293.92
210.077	4377.68
210.151	4516.06
210.226	4643.12
210.3	4768.29
210.374	4895.13
210.448	5003.03
210.522	5125.97
210.596	5250.41
210.67	5369.06
210.744	5535.11
210.818	5700.14
210.892	5847.07
210.966	5975.65
211.041	6125.23
211.115	6260.97
211.189	6424.23
211.263	6585.62
211.337	6737.74
211.411	6897.64
211.485	7043.62
211.559	7210.31
211.633	7372.25
211.707	7502.27
211.781	7673.43
211.855	7804.95
211.929	7964.72
212.003	8119.02
212.077	8302.57
212.151	8489.22
212.225	8675.48
212.299	8848.64
212.373	9015.82
212.447	9198.06
212.52	9409.66
212.594	9598.57
212.668	9802.16
212.742	9977.28
212.816	10154.48
212.89	10342.34
212.964	10532.3
213.038	10729.51
213.112	10941.32
213.186	11153.27
213.26	11330.21
213.333	11478.98
213.407	11679.4
213.481	11879.44
213.555	12081.85
213.629	12261.1
213.703	12438.82
213.777	12636.1
213.85	12807.42
213.924	13027.85
213.998	13213.62
214.072	13399.55
214.146	13576.51
214.219	13774.29
214.293	13967.68
214.367	14169.42
214.441	14359
214.515	14530.13
214.588	14684.19
214.662	14832.03
214.736	14989.99
214.81	15170.17
214.883	15359.03
214.957	15520.51
215.031	15669.65
215.105	15824.08
215.178	15984.44
215.252	16136.95
215.326	16274.46
215.4	16418.96
215.473	16529.95
215.547	16677.72
215.621	16811.17
215.694	16961.54
215.768	17075.28
215.842	17205.93
215.915	17318.85
215.989	17443.14
216.063	17579
216.136	17722.47
216.21	17850.37
216.284	17992.15
216.357	18125.78
216.431	18244.38
216.504	18377.29
216.578	18530.73
216.652	18661.53
216.725	18773.33
216.799	18902.29
216.873	19015.68
216.946	19137.74
217.02	19253.26
217.093	19354.6
217.167	19444.43
217.24	19535.94
217.314	19642.63
217.387	19736.94
217.461	19844.46
217.535	19943.44
217.608	20033.37
217.682	20121.37
217.755	20224.11
217.829	20298.95
217.902	20386.86
217.976	20475.92
218.049	20556.69
218.123	20618.81
218.196	20701.99
218.27	20782.58
218.343	20844.31
218.417	20930.2
218.49	20997.19
218.563	21077.87
218.637	21160.1
218.71	21252.83
218.784	21340.41
218.857	21415.5
218.931	21493.92
219.004	21567.43
219.077	21639.53
219.151	21697.52
219.224	21762.16
219.298	21826.31
219.371	21901.41
219.444	21946.63
219.518	22002.98
219.591	22057.64
219.665	22155.94
219.738	22220.34
219.811	22268.54
219.885	22338.06
219.958	22402.61
220.031	22453.18
220.105	22500.91
220.178	22537.45
220.251	22575.34
220.325	22624.42
220.398	22665.84
220.471	22709.56
220.544	22750.26
220.618	22772.05
220.691	22814.23
220.764	22850.1
220.838	22878.84
220.911	22898.7
220.984	22952.7
221.057	22989.63
221.131	23031.44
221.204	23017.31
221.277	23065.77
221.35	23124.4
221.424	23132.84
221.497	23138.39
221.57	23153.14
221.643	23182.51
221.716	23215.68
221.79	23224.99
221.863	23239.89
221.936	23259.76
222.009	23266.84
222.082	23278.13
222.155	23303.39
222.229	23332.52
222.302	23351.13
222.375	23357.4
222.448	23376.4
222.521	23386.53
222.594	23392.75
222.667	23371.34
222.74	23396.08
222.814	23387.11
222.887	23382.86
222.96	23406.78
223.033	23428.77
223.106	23453.26
223.179	23464.02
223.252	23458.04
223.325	23467.3
223.398	23462.76
223.471	23459.1
223.544	23464.5
223.617	23466.81
223.69	23470.58
223.763	23446.85
223.837	23444.73
223.91	23466.38
223.983	23453.12
224.056	23431.23
224.129	23429.83
224.202	23454.95
224.275	23437.83
224.348	23405.43
224.42	23375.77
224.493	23345.59
224.566	23328.51
224.639	23313.81
224.712	23294.37
224.785	23276.92
224.858	23258.5
224.931	23248.08
225.004	23221.08
225.077	23206.28
225.15	23170.16
225.223	23150.05
225.296	23170.11
225.369	23137.42
225.442	23111.29
225.514	23109.55
225.587	23097.59
225.66	23090.55
225.733	23070.59
225.806	23060.41
225.879	23063.07
225.952	23040.41
226.025	23033.27
226.097	23028.64
226.17	23010.46
226.243	22973.24
226.316	22946.29
226.389	22939.83
226.461	22917.89
226.534	22908.15
226.607	22890.17
226.68	22904.68
226.753	22882.02
226.825	22831.39
226.898	22827.44
226.971	22798.17
227.044	22775.32
227.117	22761.77
227.189	22747.55
227.262	22729.03
227.335	22709.6
227.407	22667.18
227.48	22654.02
227.553	22637.48
227.626	22604.93
227.698	22583.96
227.771	22571.81
227.844	22549.78
227.916	22521.72
227.989	22485.09
228.062	22455.92
228.134	22449.65
228.207	22408
228.28	22382.11
228.352	22363.89
228.425	22339.25
228.498	22324.94
228.57	22285.12
228.643	22268.77
228.716	22225.39
228.788	22195.83
228.861	22169.56
228.934	22165.95
229.006	22136.59
229.079	22109.11
229.151	22075.46
229.224	22034.92
229.296	22009.38
229.369	22015.21
229.442	22002.34
229.514	21977.76
229.587	21966.81
229.659	21913.69
229.732	21892.05
229.804	21880.43
229.877	21880.14
229.949	21869.01
230.022	21864.81
230.094	21835.27
230.167	21811.65
230.239	21784.32
230.312	21757.76
230.384	21751.11
230.457	21733.32
230.529	21712.35
230.602	21683.19
230.674	21669.79
230.747	21660.39
230.819	21649.26
230.892	21586.89
230.964	21553.15
231.037	21529.91
231.109	21497.28
231.181	21488.46
231.254	21444.84
231.326	21405.85
231.399	21368.5
231.471	21324.35
231.544	21255.9
231.616	21243.23
231.688	21213.68
231.761	21176.81
231.833	21140.23
231.905	21078.58
231.978	21033.52
232.05	20998.87
232.122	20979.16
232.195	20938.24
232.267	20910.91
232.339	20873.32
232.412	20863.58
232.484	20831.29
232.556	20796.69
232.629	20793.36
232.701	20773.17
232.773	20756.01
232.846	20726.56
232.918	20693.93
232.99	20672.73
233.062	20669.93
233.135	20640.25
233.207	20596.63
233.279	20579.57
233.351	20556.58
233.424	20532.53
233.496	20496.87
233.568	20486.75
233.64	20430.9
233.713	20393.6
233.785	20366.61
233.857	20335.23
233.929	20277.26
234.001	20260.25
234.074	20243.72
234.146	20191.28
234.218	20156.73
234.29	20121.98
234.362	20085.31
234.434	20037.7
234.507	19981.84
234.579	19924.93
234.651	19881.46
234.723	19863.39
234.795	19830.91
234.867	19796.94
234.939	19779.2
235.012	19758
235.084	19725.9
235.156	19712.65
235.228	19676.99
235.3	19636.03
235.372	19607.79
235.444	19594.78
235.516	19542.87
235.588	19514.39
235.66	19469.19
235.732	19426.16
235.804	19453.87
235.876	19428.76
235.948	19408.14
236.02	19379.75
236.092	19346.74
236.164	19323.32
236.236	19276.67
236.308	19244.15
236.38	19221.45
236.452	19169.26
236.524	19130.61
236.596	19105.02
236.668	19080.93
236.74	19046.13
236.812	19020.16
236.884	18987.68
236.956	18962.48
237.028	18923.59
237.1	18876.41
237.172	18864.84
237.244	18852.22
237.316	18775.16
237.388	18730.35
237.46	18686.01
237.532	18669.24
237.604	18626.25
237.675	18608.23
237.747	18582.31
237.819	18528.91
237.891	18490.79
237.963	18447.71
238.035	18405.59
238.107	18339.86
238.178	18308.68
238.25	18277.74
238.322	18260.97
238.394	18205.17
238.466	18163.29
238.538	18136.21
238.609	18109.08
238.681	18053.99
238.753	17992.89
238.825	17956.79
238.897	17929.47
238.968	17922
239.04	17876.7
239.112	17871.49
239.184	17823.21
239.255	17777.23
239.327	17754.44
239.399	17717.57
239.471	17695.35
239.542	17670.97
239.614	17653.81
239.686	17593.96
239.758	17565.14
239.829	17519.21
239.901	17500.22
239.973	17462.59
240.044	17434.06
240.116	17395.5
240.188	17357.86
240.259	17329.81
240.331	17288.66
240.403	17270.15
240.474	17206.01
240.546	17164.41
240.618	17110.92
240.689	17070.15
240.761	17045.18
240.833	17028.41
240.904	16987.25
240.976	16954.87
241.048	16928.12
241.119	16904.45
241.191	16878.67
241.262	16856.21
241.334	16812.98
241.405	16781.12
241.477	16742.47
241.549	16697.5
241.62	16668.73
241.692	16650.42
241.763	16630.03
241.835	16598.9
241.906	16554.03
241.978	16508.62
242.049	16487.75
242.121	16474.89
242.192	16459.37
242.264	16407.89
242.335	16352.42
242.407	16324.41
242.478	16281.28
242.55	16243.92
242.621	16195.1
242.693	16163.1
242.764	16137.36
242.836	16101.93
242.907	16069.83
242.979	16048.91
243.05	16026.84
243.122	15998.45
243.193	15962.16
243.264	15908.56
243.336	15874.39
243.407	15853.56
243.479	15849.13
243.55	15823.2
243.622	15790.47
243.693	15752.83
243.764	15743.62
243.836	15706.65
243.907	15672.77
243.978	15647.89
244.05	15623.02
244.121	15577.09
244.192	15553.37
244.264	15500.4
244.335	15471.48
244.407	15417.68
244.478	15376.71
244.549	15335.98
244.62	15293.32
244.692	15256.83
244.763	15238.81
244.834	15204.63
244.906	15158.36
244.977	15134.4
245.048	15119.03
245.119	15077.23
245.191	15040.21
245.262	14981.5
245.333	14970.7
245.405	14944
245.476	14926.07
245.547	14901.97
245.618	14892.04
245.689	14858.05
245.761	14834.53
245.832	14807.29
245.903	14800.26
245.974	14788.06
246.045	14761.69
246.117	14755.67
246.188	14725.25
246.259	14681.29
246.33	14651.69
246.401	14622.77
246.473	14572.97
246.544	14532.87
246.615	14511.7
246.686	14476.51
246.757	14466.44
246.828	14426.38
246.899	14411.05
246.97	14363.76
247.042	14321.44
247.113	14292.08
247.184	14289.24
247.255	14256.12
247.326	14232.79
247.397	14195.19
247.468	14162.55
247.539	14137.05
247.61	14088.07
247.681	14065.76
247.752	14049.85
247.823	14009.69
247.894	13993.35
247.965	13958.5
248.037	13925.14
248.108	13881.22
248.179	13854.61
248.25	13825.59
248.321	13805.92
248.392	13768.37
248.463	13764.13
248.534	13733.71
248.605	13718.14
248.675	13684.59
248.746	13662.08
248.817	13634.12
248.888	13620.86
248.959	13576.46
249.03	13561.32
249.101	13539.34
249.172	13507.43
249.243	13463.99
249.314	13453.82
249.385	13424.9
249.456	13402.19
249.527	13376.89
249.598	13362.47
249.669	13341.21
249.739	13326.41
249.81	13305.25
249.881	13271.31
249.952	13250.49
250.023	13229.57
250.094	13185.75
250.165	13147.18
250.235	13131.13
250.306	13106.49
250.377	13067.5
250.448	13053.03
250.519	13004.97
250.59	13000.83
250.66	12971.95
250.731	12962.89
250.802	12943.27
250.873	12920.76
250.944	12906.01
251.014	12880.79
251.085	12887.49
251.156	12862.43
251.227	12857.41
251.297	12851.34
251.368	12833.84
251.439	12824.68
251.51	12809.59
251.58	12782.94
251.651	12758.98
251.722	12741.14
251.792	12704.12
251.863	12675.01
251.934	12666.91
252.005	12676.36
252.075	12649.89
252.146	12641.79
252.217	12636.88
252.287	12619.52
252.358	12598.75
252.429	12596.09
252.499	12562.5
252.57	12538.15
252.641	12527.45
252.711	12492.79
252.782	12448.49
252.852	12452.59
252.923	12426.94
252.994	12415.23
253.064	12402.36
253.135	12372.91
253.205	12344.08
253.276	12346.4
253.347	12357.43
253.417	12330.25
253.488	12307.06
253.558	12275.78
253.629	12255.97
253.699	12237.99
253.77	12233.31
253.841	12212.83
253.911	12194.03
253.982	12186.65
254.052	12172.33
254.123	12156.81
254.193	12141.29
254.264	12165.54
254.334	12135.56
254.405	12098.39
254.475	12064.65
254.546	12047.49
254.616	12044.84
254.687	12039.2
254.757	12023.39
254.827	11991.05
254.898	11978.8
254.968	11954.99
255.039	11932.73
255.109	11920.82
255.18	11889.15
255.25	11845.68
255.321	11831.84
255.391	11798.68
255.461	11800.99
255.532	11756.84
255.602	11734.86
255.673	11694.76
255.743	11660.25
255.813	11616.92
255.884	11607.72
255.954	11601.88
256.024	11605.21
256.095	11581.64
256.165	11549.97
256.235	11535.66
256.306	11509.39
256.376	11500.28
256.446	11490.93
256.517	11480.91
256.587	11471.75
256.657	11460.96
256.728	11448.76
256.798	11430.21
256.868	11413.53
256.938	11388.56
257.009	11379.41
257.079	11373.14
257.149	11386.59
257.219	11347.74
257.29	11334.54
257.36	11300.61
257.43	11292.61
257.5	11251.6
257.571	11241.53
257.641	11228.22
257.711	11203.6
257.781	11201.81
257.852	11187.36
257.922	11149.72
257.992	11130.73
258.062	11113.28
258.132	11109.38
258.202	11088.08
258.273	11075.07
258.343	11074.3
258.413	11049.48
258.483	11034.35
258.553	11004.76
258.623	10980.81
258.693	10971.84
258.764	10973.72
258.834	10969.92
258.904	10947.6
258.974	10926.4
259.044	10898.74
259.114	10879.76
259.184	10856.14
259.254	10837.4
259.324	10799.81
259.394	10789.6
259.464	10792.44
259.535	10774.32
259.605	10741.94
259.675	10718.23
259.745	10702
259.815	10671.11
259.885	10637.77
259.955	10650.2
260.025	10625.87
260.095	10611.99
260.165	10602.02
260.235	10606.88
260.305	10582.84
260.375	10555.95
260.445	10556.34
260.515	10561.69
260.585	10565.49
260.655	10560.48
260.725	10550.03
260.795	10543.57
260.865	10551.47
260.934	10526.56
261.004	10521.12
261.074	10518.9
261.144	10516.15
261.214	10516.06
261.284	10502.86
261.354	10504.35
261.424	10475.68
261.494	10480.4
261.564	10461.13
261.634	10454.62
261.703	10411.84
261.773	10405.29
261.843	10404.03
261.913	10393.05
261.983	10360.1
262.053	10348.68
262.123	10330.13
262.192	10303.05
262.262	10297.66
262.332	10268.08
262.402	10256.75
262.472	10243.26
262.541	10202.8
262.611	10204.05
262.681	10175.34
262.751	10168.31
262.821	10156.21
262.89	10126.01
262.96	10115.46
263.03	10116.61
263.1	10105.48
263.169	10095.56
263.239	10088
263.309	10086.99
263.379	10079.23
263.448	10072.15
263.518	10063.72
263.588	10049.85
263.657	10052.01
263.727	10049.56
263.797	10033.32
263.867	10021.91
263.936	9988.19
264.006	9988.43
264.076	9971.71
264.145	9953.07
264.215	9931.59
264.285	9929.23
264.354	9898.84
264.424	9881.11
264.494	9854.33
264.563	9831.36
264.633	9849.32
264.702	9842.1
264.772	9813.34
264.842	9797.83
264.911	9784.3
264.981	9755.2
265.05	9740.22
265.12	9718.94
265.19	9711.13
265.259	9712.19
265.329	9703.33
265.398	9695.09
265.468	9706.51
265.537	9688.78
265.607	9687.82
265.676	9690.09
265.746	9673.95
265.815	9672.84
265.885	9655.31
265.955	9636.68
266.024	9620.74
266.094	9572.57
266.163	9570.26
266.232	9571.66
266.302	9559.14
266.371	9554.85
266.441	9547.96
266.51	9542.57
266.58	9531.35
266.649	9503.8
266.719	9496.77
266.788	9484.15
266.858	9492.1
266.927	9450.54
266.996	9442.45
267.066	9436.53
267.135	9411.39
267.205	9410.33
267.274	9410.09
267.343	9412.74
267.413	9400.17
267.482	9409.56
267.552	9413.8
267.621	9387.75
267.69	9354.18
267.76	9349.32
267.829	9344.94
267.898	9331.99
267.968	9312.97
268.037	9312.87
268.106	9317.06
268.176	9295.15
268.245	9286.24
268.314	9272.76
268.384	9279.35
268.453	9266.93
268.522	9258.79
268.592	9260.14
268.661	9244.73
268.73	9233.9
268.799	9212.47
268.869	9220.76
268.938	9190.86
269.007	9176.03
269.076	9170.97
269.146	9178.96
269.215	9171.55
269.284	9177.71
269.353	9159.56
269.422	9148.63
269.492	9131.88
269.561	9092.74
269.63	9092.74
269.699	9074.73
269.768	9053.55
269.838	9047.24
269.907	9051.24
269.976	9031.93
270.045	8998.91
270.114	8991.59
270.183	8976.72
270.253	8971.09
270.322	8941.87
270.391	8928.34
270.46	8933.93
270.529	8925.94
270.598	8919.77
270.667	8898.25
270.736	8866
270.806	8865.66
270.875	8871
270.944	8858.44
271.013	8874.42
271.082	8862.1
271.151	8860.99
271.22	8832.12
271.289	8819.79
271.358	8806.94
271.427	8803.23
271.496	8802.13
271.565	8785.86
271.634	8780.56
271.703	8811.13
271.772	8812.43
271.841	8804.88
271.91	8779.13
271.979	8773.4
272.048	8749.04
272.117	8753.13
272.186	8740.23
272.255	8740.67
272.324	8738.12
272.393	8733.54
272.462	8718.81
272.531	8712.27
272.6	8698.31
272.669	8717.37
272.738	8710.63
272.807	8701.63
272.876	8680.21
272.945	8706.11
273.013	8704.57
273.082	8709.38
273.151	8663.45
273.22	8665.52
273.289	8661.72
273.358	8675.63
273.427	8662.93
273.496	8662.78
273.564	8664.22
273.633	8668.6
273.702	8643.34
273.771	8635.4
273.84	8633.04
273.909	8631.64
273.977	8628.18
274.046	8624.23
274.115	8625.29
274.184	8604.12
274.253	8599.5
274.322	8607.29
274.39	8573.99
274.459	8571.49
274.528	8545.93
274.597	8539.77
274.665	8536.93
274.734	8541.84
274.803	8529.14
274.872	8525.96
274.94	8512.29
275.009	8561.17
275.078	8550.1
275.147	8548.56
275.215	8537.3
275.284	8543.84
275.353	8531.72
275.421	8510.02
275.49	8519.88
275.559	8511.7
275.627	8504.2
275.696	8491.97
275.765	8487.11
275.833	8483.12
275.902	8480.91
275.971	8490.39
276.039	8503.28
276.108	8505.21
276.177	8501.26
276.245	8491.88
276.314	8490.1
276.383	8496.16
276.451	8437.08
276.52	8435.73
276.588	8451.47
276.657	8462.87
276.725	8452
276.794	8457.53
276.863	8469.42
276.931	8450.94
277	8458.88
277.068	8475.81
277.137	8494.53
277.205	8494.63
277.274	8512.05
277.342	8522.83
277.411	8508.54
277.48	8500.02
277.548	8484.14
277.617	8484.24
277.685	8476.44
277.754	8475.14
277.822	8471.44
277.89	8481.16
277.959	8476.83
278.027	8462.35
278.096	8450.8
278.164	8485.21
278.233	8477.94
278.301	8472.31
278.37	8474.82
278.438	8460.33
278.507	8463.46
278.575	8439.35
278.643	8434.39
278.712	8415.72
278.78	8394.36
278.849	8400.71
278.917	8404.17
278.985	8401.57
279.054	8406.29
279.122	8419.28
279.191	8418.61
279.259	8413.32
279.327	8391.56
279.396	8408.84
279.464	8403.83
279.532	8413.56
279.601	8406.82
279.669	8403.83
279.737	8416.06
279.806	8419.13
279.874	8424.96
279.942	8424.91
280.011	8421.93
280.079	8428.81
280.147	8447.04
280.215	8451.57
280.284	8451.47
280.352	8442.42
280.42	8452.77
280.488	8444.44
280.557	8438.43
280.625	8442.86
280.693	8441.89
280.761	8443.92
280.83	8427.17
280.898	8432.46
280.966	8413.12
281.034	8378.71
281.102	8358.7
281.171	8343.68
281.239	8347.77
281.307	8347.1
281.375	8331.46
281.443	8358.89
281.512	8357.3
281.58	8360.96
281.648	8354.85
281.716	8355.43
281.784	8358.36
281.852	8350.95
281.92	8353.31
281.989	8361.78
282.057	8344.84
282.125	8392.11
282.193	8389.7
282.261	8387.2
282.329	8389.46
282.397	8390.95
282.465	8392.35
282.533	8412.65
282.601	8407.6
282.67	8393.83
282.738	8377.91
282.806	8388.64
282.874	8373.24
282.942	8378.38
283.01	8373.57
283.078	8374.05
283.146	8366.12
283.214	8369.2
283.282	8372.52
283.35	8378.82
283.418	8376.61
283.486	8379.16
283.554	8336.61
283.622	8340.02
283.69	8343.44
283.758	8341.13
283.826	8347.96
283.894	8358.6
283.962	8379.24
284.03	8387.42
284.098	8384.15
284.165	8382.42
284.233	8381.31
284.301	8376.88
284.369	8367.84
284.437	8358.45
284.505	8351.53
284.573	8371.69
284.641	8365.72
284.709	8371.64
284.777	8358.45
284.845	8363.7
284.912	8367.74
284.98	8369.86
285.048	8363.03
285.116	8363.07
285.184	8373.61
285.252	8371.01
285.319	8355.09
285.387	8347.34
285.455	8334.83
285.523	8338.58
285.591	8336.42
285.659	8340.51
285.726	8354.08
285.794	8337.05
285.862	8336.42
285.93	8340.71
285.997	8329.97
286.065	8322.76
286.133	8317.32
286.201	8316.89
286.269	8300.86
286.336	8295.33
286.404	8287.15
286.472	8295.57
286.539	8281.33
286.607	8263.29
286.675	8260.79
286.743	8268.87
286.81	8258.09
286.878	8269.97
286.946	8264.58
287.013	8269.15
287.081	8271.42
287.149	8253.56
287.216	8277.96
287.284	8271.65
287.352	8274.49
287.419	8275.36
287.487	8287.72
287.555	8294.89
287.622	8288.69
287.69	8294.46
287.758	8307.31
287.825	8307.45
287.893	8300.09
287.96	8302.98
288.028	8312.89
288.096	8313.85
288.163	8317.75
288.231	8306.2
288.298	8310.92
288.366	8326.41
288.433	8317.51
288.501	8304.23
288.569	8303.56
288.636	8294.17
288.704	8307.69
288.771	8311.35
288.839	8306.88
288.906	8304.13
288.974	8305.63
289.041	8307.84
289.109	8302.21
289.176	8310.2
289.244	8317.89
289.311	8327.9
289.379	8336.47
289.446	8337.24
289.514	8342.48
289.581	8344.65
289.649	8350.66
289.716	8351.82
289.783	8342.62
289.851	8371.01
289.918	8372.6
289.986	8385.45
290.053	8392.18
290.121	8386.94
290.188	8392.04
290.255	8417.16
290.323	8411.29
290.39	8403.59
290.458	8407.29
290.525	8414.7
290.592	8407.19
290.66	8409.26
290.727	8400.94
290.794	8418.98
290.862	8425.43
290.929	8423.99
290.996	8420.52
291.064	8427.21
291.131	8435.25
291.198	8450.31
291.266	8444.39
291.333	8451.8
291.4	8456.13
291.468	8477.84
291.535	8474.52
291.602	8480.15
291.669	8471.24
291.737	8475.33
291.804	8480.63
291.871	8506.52
291.938	8517.73
292.006	8545.74
292.073	8561.24
292.14	8577.7
292.207	8567.3
292.275	8565.42
292.342	8578.99
292.409	8608.16
292.476	8636.65
292.543	8632.56
292.611	8632.13
292.678	8646.66
292.745	8668.66
292.812	8675.06
292.879	8664.42
292.946	8673.28
293.014	8681.99
293.081	8690.79
293.148	8705.76
293.215	8723.18
293.282	8709.8
293.349	8723.47
293.416	8708.65
293.484	8721.36
293.551	8731.8
293.618	8750.76
293.685	8779.35
293.752	8773.77
293.819	8779.21
293.886	8766.65
293.953	8772.37
294.02	8787.54
294.087	8794.47
294.154	8788.64
294.221	8810.4
294.288	8816.71
294.356	8838.13
294.423	8846.6
294.49	8839.33
294.557	8846.98
294.624	8836.11
294.691	8859.74
294.758	8852.86
294.825	8856.66
294.892	8847.51
294.959	8844.62
295.026	8853.48
295.093	8847.13
295.16	8846.6
295.226	8839.33
295.293	8863.73
295.36	8874.66
295.427	8882.17
295.494	8891.27
295.561	8901.14
295.628	8924.01
295.695	8940.14
295.762	8936.91
295.829	8947.31
295.896	8962.76
295.963	8978.55
296.03	8990.83
296.096	8988.18
296.163	9006.38
296.23	9020.34
296.297	9035.11
296.364	9031.99
296.431	9035.36
296.498	9029.05
296.564	9054.42
296.631	9055.38
296.698	9039.35
296.765	9053.55
296.832	9047.39
296.899	9041.66
296.965	9056.05
297.032	9034.43
297.099	9048.06
297.166	9061.68
297.233	9055.13
297.299	9048.49
297.366	9045.31
297.433	9042.67
297.5	9056.68
297.566	9057.74
297.633	9063.03
297.7	9065.01
297.767	9070.59
297.833	9079.06
297.9	9081.47
297.967	9069
298.033	9083.44
298.1	9115.27
298.167	9110.07
298.234	9110.89
298.3	9123.99
298.367	9121.1
298.434	9124.76
298.5	9113.49
298.567	9103.81
298.634	9102.61
298.7	9123.02
298.767	9126.73
298.834	9141.94
298.9	9136.07
298.967	9125.23
299.033	9130
299.1	9142.66
299.167	9157.83
299.233	9152.34
299.3	9163.7
299.366	9179.68
299.433	9192.54
299.5	9161.73
299.566	9165.14
299.633	9181.22
299.699	9188.69
299.766	9182.19
299.832	9188.06
299.899	9200.15
299.965	9213.73
300.032	9212.62
300.099	9210.69
300.165	9218.11
300.232	9219.79
300.298	9226
300.365	9241.89
300.431	9245.02
300.498	9239.1
300.564	9239.92
300.631	9256
300.697	9274.68
300.763	9277.91
300.83	9277.52
300.896	9292.26
300.963	9299.77
301.029	9305.35
301.096	9310.46
301.162	9324.47
301.229	9316.52
301.295	9303.23
301.361	9306.03
301.428	9315.17
301.494	9309.06
301.561	9311.9
301.627	9313.35
301.693	9312.91
301.76	9317.44
301.826	9312.62
301.892	9325.1
301.959	9337.95
302.025	9330.78
302.092	9324.32
302.158	9326.73
302.224	9325.43
302.291	9320.38
302.357	9317.87
302.423	9314.74
302.49	9302.27
302.556	9317.78
302.622	9318.5
302.688	9330.3
302.755	9342.14
302.821	9349.22
302.887	9358.22
302.954	9361.55
303.02	9369.25
303.086	9381.39
303.152	9376.62
303.219	9373.39
303.285	9376.38
303.351	9377.2
303.417	9376.43
303.483	9365.88
303.55	9362.08
303.616	9360.15
303.682	9356.35
303.748	9347.73
303.815	9362.71
303.881	9371.28
303.947	9354.66
304.013	9360.44
304.079	9347.54
304.145	9330.73
304.212	9320.96
304.278	9319.95
304.344	9310.8
304.41	9299.67
304.476	9280.51
304.542	9277.19
304.608	9283.26
304.674	9262.98
304.741	9259.37
304.807	9266.4
304.873	9270.21
304.939	9283.74
305.005	9262.6
305.071	9263.13
305.137	9269.24
305.203	9244.35
305.269	9241.41
305.335	9253.35
305.401	9250.51
305.467	9257.64
305.533	9266.79
305.599	9277.81
305.666	9280.22
305.732	9287.87
305.798	9300.83
305.864	9331.89
305.93	9339.78
305.996	9342.34
306.062	9348.16
306.128	9350.28
306.194	9330.68
306.259	9333.38
306.325	9327.07
306.391	9339.35
306.457	9350.42
306.523	9357.02
306.589	9377.53
306.655	9370.46
306.721	9356.35
306.787	9344.21
306.853	9356.45
306.919	9339.11
306.985	9330.78
307.051	9322.69
307.117	9307.24
307.183	9299.58
307.248	9269.63
307.314	9267.12
307.38	9267.22
307.446	9278.25
307.512	9264.57
307.578	9273.09
307.644	9268.57
307.709	9267.7
307.775	9272.52
307.841	9268.71
307.907	9266.83
307.973	9246.8
308.039	9249.35
308.104	9246.22
308.17	9250.03
308.236	9237.07
308.302	9241.07
308.368	9234.72
308.433	9237.12
308.499	9234.38
308.565	9228.74
308.631	9232.36
308.696	9212.76
308.762	9197.88
308.828	9188.88
308.894	9166.49
308.959	9148.25
309.025	9140.83
309.091	9135.97
309.156	9120.99
309.222	9120.75
309.288	9107.23
309.354	9083.16
309.419	9080.94
309.485	9070.06
309.551	9071.12
309.616	9053.31
309.682	9046.28
309.748	9038.24
309.813	9028.56
309.879	9018.07
309.945	9003.14
310.01	8994.57
310.076	8996.5
310.141	8987.16
310.207	8967.32
310.273	8972.91
310.338	8975.12
310.404	8954.81
310.469	8937.19
310.535	8933.53
310.601	8910.13
310.666	8917.45
310.732	8928.81
310.797	8910.81
310.863	8898.77
310.928	8892.51
310.994	8897.14
311.059	8896.46
311.125	8896.32
311.191	8908.45
311.256	8899.16
311.322	8898.87
311.387	8875.38
311.453	9296.5
311.518	9270.65
311.584	9269.16
311.649	9277.25
311.715	9266.85
311.78	9271.47
311.846	9264.78
311.911	9267.81
311.976	9268.68
312.042	9248.89
312.107	9236.76
312.173	9235.32
312.238	9230.07
312.304	9222.85
312.369	9209.86
312.434	9195.22
312.5	9187.52
312.565	9149.64
312.631	9157.44
312.696	9149.98
312.761	9157.44
312.827	8729.15
312.892	8776.13
312.958	8773.72
313.023	8761.79
313.088	8762.65
313.154	8746.63
313.219	8743.88
313.284	8727.95
313.35	8728.72
313.415	8720.39
313.48	8717.94
313.546	8715.53
313.611	8731.27
313.676	8724
313.741	8717.56
313.807	8725.4
313.872	8722.56
313.937	8739.65
314.003	8750.48
314.068	8748.5
314.133	8752.83
314.198	8736.33
314.264	8712.83
314.329	8703.11
314.394	8701.86
314.459	8696.32
314.525	8718.03
314.59	8707.54
314.655	8700.13
314.72	8700.37
314.785	8704.6
314.851	8699.79
314.916	8686.8
314.981	8670.14
315.046	8662.88
315.111	8652.53
315.176	8643.82
315.242	8650.22
315.307	8646.03
315.372	8623.36
315.437	8614.55
315.502	8604.21
315.567	8614.94
315.632	8598.58
315.698	8601.56
315.763	8597.8
315.828	8591.21
315.893	8584.14
315.958	8585.39
316.023	8578.7
316.088	8561.66
316.153	8542.27
316.218	8532.5
316.283	8512.39
316.348	8487.66
316.413	8485.59
316.479	8473.71
316.544	8440.99
316.609	8409.38
316.674	8370.36
316.739	8339.13
316.804	8309.69
316.869	8280.39
316.934	8250.37
316.999	8221.12
317.064	8168.54
317.129	8130.34
317.194	8091.04
317.259	8051.59
317.324	7998.97
317.389	7954.68
317.454	7917.49
317.518	7882.91
317.583	7859.59
317.648	7837.56
317.713	7814.19
317.778	7748.5
317.843	7719.45
317.908	7688.63
317.973	7651.36
318.038	7624.97
318.103	7584.59
318.168	7559.01
318.233	7529.05
318.297	7479.01
318.362	7443.58
318.427	7412.05
318.492	7383.3
318.557	7342.64
318.622	7310.96
318.687	7290.78
318.751	7253.01
318.816	7224.61
318.881	7189.96
318.946	7139.11
319.011	7096.01
319.075	7054.54
319.14	7028.21
319.205	6982.67
319.27	6943.04
319.335	6899.95
319.399	6863.48
319.464	6840.81
319.529	6789.27
319.594	6750.22
319.658	6721.79
319.723	6685.76
319.788	6653.59
319.853	6602.01
319.917	6577.29
319.982	6526.38
320.047	6490.13
320.112	6466.89
320.176	6413.22
320.241	6380.52
320.306	6349.8
320.37	6310.06
320.435	6279.86
320.5	6253.42
320.564	6219.49
320.629	6183.79
320.694	6157.01
320.758	6116.66
320.823	6073.33
320.888	6048.09
320.952	6001.94
321.017	5965.71
321.082	5928.73
321.146	5905.7
321.211	5873.85
321.275	5830.16
321.34	5786.57
321.405	5745.28
321.469	5695.56
321.534	5657.11
321.598	5614.58
321.663	5584.75
321.727	5554.74
321.792	5507.23
321.857	5463.89
321.921	5430.2
321.986	5385.97
322.05	5327.18
322.115	5293.3
322.179	5252.05
322.244	5192.75
322.308	5161.89
322.373	5110.63
322.437	5067.71
322.502	5036.22
322.566	4992.88
322.631	4959.45
322.695	4922.01
322.76	4877.29
322.824	4847.61
322.889	4808.12
322.953	4760.69
323.018	4701.04
323.082	4636.97
323.146	4584.24
323.211	4532.66
323.275	4486.04
323.34	4445.91
323.404	4416.31
323.468	4367.7
323.533	4326.76
323.597	4287.13
323.662	4238.39
323.726	4205.73
323.79	4159.83
323.855	4094.54
323.919	4047.84
323.983	4007.2
324.048	3948.58
324.112	4077.42
324.177	3955.67
324.241	3750.97
324.305	3550.09
324.37	3349.63
324.434	3164.47
324.498	3125.82
324.562	3077.34
324.627	3017.95
324.691	2963.27
324.755	2896.73
324.82	2825.67
324.884	2747.47
324.948	2678
325.012	2579.47
325.077	2459.02
