Data from 20250704_urea_0.5M_MAYP1162681_11-04-58-768.txt Node
Date: Fri Jul 04 11:04:58 BST 2025
User: adleo
Spectrometer: MAYP116268
Trigger mode: 0
Integration Time (sec): 1.000000E0
Scans to average: 1
Electric dark correction enabled: true
Nonlinearity correction enabled: true
Boxcar width: 10
XAxis mode: Wavelengths
Number of Pixels in Spectrum: 2068
>>>>>Begin Spectral Data<<<<<
179.565	1236.34
179.642	1289.31
179.718	1333.83
179.795	1375.13
179.871	1409.12
179.948	1426.64
180.024	1449.31
180.101	1471.14
180.177	1486.4
180.254	1510.38
180.33	1532.88
180.407	1588.14
180.483	1687.11
180.56	1779.57
180.636	1867.07
180.712	1853.66
180.789	1862.93
180.865	1874.81
180.942	1882.03
181.018	1891.82
181.095	1905
181.171	1908.85
181.248	1914.03
181.324	1930.77
181.4	1937.05
181.477	1947.75
181.553	1961.01
181.63	1979.93
181.706	1998.34
181.782	2005.47
181.859	2006.04
181.935	2010.89
182.011	2007.56
182.088	2021.64
182.164	2038.77
182.24	2053.22
182.317	2066.91
182.393	2066.82
182.469	2082.47
182.546	2097.11
182.622	2102.06
182.698	2097.35
182.775	2106.86
182.851	2121.9
182.927	2113.62
183.003	2110.19
183.08	2105.44
183.156	2115.76
183.232	2112.38
183.308	2099.97
183.385	2108.19
183.461	2123.84
183.537	2123.94
183.613	2136.16
183.69	2127.51
183.766	2120.84
183.842	2128.08
183.918	2132.22
183.995	2143.87
184.071	2148.2
184.147	2141.92
184.223	2129.94
184.299	2144.83
184.375	2135.32
184.452	2140.98
184.528	2191.32
184.604	2200.69
184.68	2211.92
184.756	2219.63
184.832	2225.34
184.908	2230.95
184.985	2230.43
185.061	2215.77
185.137	2229
185.213	2217.78
185.289	2219.68
185.365	2211.97
185.441	2209.4
185.517	2220.73
185.593	2220.25
185.669	2216.35
185.745	2228.1
185.822	2244.56
185.898	2232
185.974	2243.51
186.05	2236.22
186.126	2202.06
186.202	2195.02
186.278	2191.31
186.354	2181.6
186.43	2188.69
186.506	2185.98
186.582	2187.08
186.658	2193.5
186.734	2171.71
186.81	2174.61
186.886	2177.99
186.962	2189.45
187.038	2186.36
187.114	2180.17
187.19	2186.79
187.266	2178.56
187.341	2182.32
187.417	2177.13
187.493	2178.28
187.569	2178.47
187.645	2171.76
187.721	2162.62
187.797	2170.33
187.873	2175.94
187.949	2171.37
188.025	2165.71
188.101	2170.56
188.176	2172.99
188.252	2168.85
188.328	2177.55
188.404	2181.02
188.48	2176.03
188.556	2169.61
188.632	2169.42
188.707	2172.18
188.783	2169.37
188.859	2161
188.935	2147.68
189.011	2154.67
189.086	2150.06
189.162	2143.3
189.238	2142.16
189.314	2134.17
189.39	2129.79
189.465	2119.42
189.541	2135.17
189.617	2117.76
189.693	2113.38
189.768	2119.09
189.844	2143.65
189.92	2133.9
189.996	2142.71
190.071	2152.08
190.147	2147.75
190.223	2153.6
190.298	2143.18
190.374	2129
190.45	2142.41
190.526	2150.98
190.601	2142.99
190.677	2146.46
190.753	2174.64
190.828	2176.06
190.904	2195.81
190.98	2211.18
191.055	2223.93
191.131	2215.89
191.207	2238.06
191.282	2246.15
191.358	2235.77
191.433	2218.78
191.509	2234.57
191.585	2226.39
191.66	2227.62
191.736	2240.8
191.811	2234.05
191.887	2250.47
191.963	2276.54
192.038	2282.11
192.114	2283.68
192.189	2290.39
192.265	2284.82
192.34	2263.16
192.416	2262.4
192.491	2257.69
192.567	2259.64
192.642	2263.02
192.718	2262.83
192.793	2250.03
192.869	2245.37
192.944	2250.74
193.02	2257.93
193.095	2259.64
193.171	2267.3
193.246	2269.97
193.322	2264.02
193.397	2264.44
193.473	2249.59
193.548	2230.98
193.624	2237.89
193.699	2237.74
193.775	2255.31
193.85	2256.78
193.925	2264.68
194.001	2264.26
194.076	2255.55
194.152	2246.12
194.227	2238.22
194.302	2227.9
194.378	2233.42
194.453	2230.37
194.529	2240.13
194.604	2225.9
194.679	2219.24
194.755	2202.17
194.83	2212.64
194.905	2211.83
194.981	2223.01
195.056	2214.98
195.131	2220.35
195.207	2218.07
195.282	2207.03
195.357	2186.89
195.433	2205.17
195.508	2192.13
195.583	2196.74
195.659	2211.07
195.734	2217.97
195.809	2216.02
195.884	2225.63
195.96	2227.48
196.035	2245.99
196.11	2242.28
196.185	2256.89
196.261	2263.4
196.336	2296.29
196.411	2281.96
196.486	2289.1
196.561	2282.24
196.637	2294.38
196.712	2309.23
196.787	2313.66
196.862	2325.74
196.937	2334.69
197.013	2337.78
197.088	2352.25
197.163	2378.87
197.238	2395.92
197.313	2394.2
197.388	2407.44
197.464	2441.3
197.539	2449.63
197.614	2442.63
197.689	2458.44
197.764	2475.06
197.839	2493.29
197.914	2485.43
197.989	2509.34
198.065	2520.43
198.14	2569.75
198.215	2594.03
198.29	2606.47
198.365	2618.04
198.44	2630.47
198.515	2661.62
198.59	2675.77
198.665	2700.4
198.74	2706.6
198.815	2706.02
198.89	2731.13
198.965	2762.24
199.04	2752.43
199.115	2768.43
199.19	2813.17
199.265	2815.99
199.34	2826.57
199.415	2862.04
199.49	2884.91
199.565	2895.35
199.64	2919.22
199.715	2916.55
199.79	2929.99
199.865	2937.43
199.94	2938.48
200.015	2969.46
200.09	2970.46
200.165	2980.57
200.24	2988.72
200.315	3029.43
200.39	3046.97
200.464	3049.83
200.539	3057.18
200.614	3075.39
200.689	3099.94
200.764	3104.48
200.839	3121.35
200.914	3126.45
200.989	3114.76
201.063	3130.79
201.138	3115.49
201.213	3117.97
201.288	3101.85
201.363	3105
201.438	3107.62
201.512	3123.54
201.587	3106.61
201.662	3112.57
201.737	3121.06
201.812	3129.84
201.886	3095.86
201.961	3107.12
202.036	3098.92
202.111	3092.29
202.186	3062.13
202.26	3044.48
202.335	3022.02
202.41	3013.3
202.485	2995.09
202.559	2975.07
202.634	2947.03
202.709	2953.42
202.784	2934.45
202.858	2930.2
202.933	2909.18
203.008	2897.88
203.082	2875.44
203.157	2877.15
203.232	2835.99
203.306	2814.97
203.381	2780.31
203.456	2758.29
203.53	2735.3
203.605	2716.35
203.68	2691.18
203.754	2688.8
203.829	2673.22
203.904	2653.69
203.978	2642.59
204.053	2647.11
204.127	2636.11
204.202	2631.82
204.277	2614.39
204.351	2605.77
204.426	2597.57
204.5	2586.43
204.575	2552.86
204.65	2564.3
204.724	2552.91
204.799	2558.95
204.873	2553.9
204.948	2554.28
205.022	2543.33
205.097	2531.9
205.171	2545.8
205.246	2551.76
205.32	2550.38
205.395	2551.23
205.469	2539.86
205.544	2544.43
205.618	2527.43
205.693	2537
205.767	2527.33
205.842	2547.48
205.916	2544.53
205.991	2537.01
206.065	2545.58
206.14	2565.95
206.214	2562.76
206.289	2559.14
206.363	2573.61
206.438	2580.66
206.512	2588.48
206.586	2611.34
206.661	2621.49
206.735	2599.35
206.81	2603.64
206.884	2623.02
206.958	2612.83
207.033	2635.11
207.107	2650.65
207.181	2686.58
207.256	2684.58
207.33	2711.73
207.405	2733.34
207.479	2759.07
207.553	2773.97
207.628	2766.4
207.702	2785.46
207.776	2789.65
207.851	2805.19
207.925	2835.13
207.999	2844.67
208.073	2855.3
208.148	2872.89
208.222	2877.56
208.296	2930.31
208.371	2971.2
208.445	3001.58
208.519	3054.21
208.593	3092.12
208.668	3112.11
208.742	3146.15
208.816	3187.01
208.89	3234.32
208.965	3270.13
209.039	3317.16
209.113	3380.02
209.187	3447.08
209.261	3489.75
209.336	3561.37
209.41	3634.87
209.484	3687.14
209.558	3769.65
209.632	3844.93
209.707	3920.53
209.781	4018.74
209.855	4110.18
209.929	4204.08
210.003	4292.99
210.077	4378.94
210.151	4519.04
210.226	4652.18
210.3	4780.86
210.374	4901.58
210.448	5011.84
210.522	5133.41
210.596	5257.32
210.67	5383.4
210.744	5553.84
210.818	5711.47
210.892	5861.12
210.966	5990.04
211.041	6142.54
211.115	6275.88
211.189	6445.96
211.263	6614.23
211.337	6766.83
211.411	6933.08
211.485	7079.01
211.559	7251.2
211.633	7415.59
211.707	7552.31
211.781	7728.53
211.855	7862.14
211.929	8028.94
212.003	8185.81
212.077	8367
212.151	8556.3
212.225	8744.8
212.299	8916.67
212.373	9092.89
212.447	9273.97
212.52	9490.2
212.594	9687.15
212.668	9888
212.742	10074.02
212.816	10254.84
212.89	10435.14
212.964	10625.4
213.038	10825.98
213.112	11042.29
213.186	11255.35
213.26	11425.07
213.333	11566.56
213.407	11762.55
213.481	11956.24
213.555	12160.58
213.629	12346.44
213.703	12529.17
213.777	12731.57
213.85	12908.86
213.924	13129.05
213.998	13328.32
214.072	13508.61
214.146	13685.42
214.219	13872.94
214.293	14046.28
214.367	14232.98
214.441	14438.76
214.515	14612.49
214.588	14768.47
214.662	14900.12
214.736	15055.38
214.81	15242.17
214.883	15430.83
214.957	15594.81
215.031	15755.08
215.105	15898.39
215.178	16049.49
215.252	16200.69
215.326	16324.8
215.4	16460.77
215.473	16571.09
215.547	16697.36
215.621	16835.97
215.694	16980.5
215.768	17109.67
215.842	17251.16
215.915	17382.06
215.989	17495.94
216.063	17619.16
216.136	17758.06
216.21	17893.67
216.284	18044.08
216.357	18173.52
216.431	18299.87
216.504	18429.99
216.578	18583.09
216.652	18716.39
216.725	18838.55
216.799	18974.88
216.873	19094.16
216.946	19220.41
217.02	19327.35
217.093	19436.21
217.167	19523.87
217.24	19623.38
217.314	19725.64
217.387	19815.57
217.461	19910.07
217.535	20015.42
217.608	20103.75
217.682	20191.75
217.755	20293.87
217.829	20366.88
217.902	20457.92
217.976	20536.13
218.049	20614.74
218.123	20673.49
218.196	20760.86
218.27	20832.14
218.343	20881.26
218.417	20957.45
218.49	21028.88
218.563	21124.98
218.637	21205.72
218.71	21290.83
218.784	21365.3
218.857	21442.95
218.931	21514.81
219.004	21589.14
219.077	21656.52
219.151	21725.59
219.224	21785.89
219.298	21841.81
219.371	21910.88
219.444	21948.14
219.518	22011.1
219.591	22072.41
219.665	22153.69
219.738	22202.52
219.811	22234.05
219.885	22301.92
219.958	22360.21
220.031	22396.89
220.105	22435.84
220.178	22477.02
220.251	22526.29
220.325	22574.89
220.398	22620.11
220.471	22668.61
220.544	22704.14
220.618	22741.12
220.691	22782.68
220.764	22824.33
220.838	22865.08
220.911	22890.29
220.984	22941.74
221.057	22982.33
221.131	23009.72
221.204	23014.49
221.277	23059.62
221.35	23128.23
221.424	23142.51
221.497	23162.71
221.57	23197.23
221.643	23238.85
221.716	23275.54
221.79	23288.37
221.863	23305.25
221.936	23316.58
222.009	23326.8
222.082	23349.18
222.155	23351.2
222.229	23371.89
222.302	23389.25
222.375	23400.63
222.448	23414.37
222.521	23428.93
222.594	23427.78
222.667	23424.74
222.74	23436.55
222.814	23440.31
222.887	23438.05
222.96	23455.99
223.033	23477.64
223.106	23483.19
223.179	23484.68
223.252	23483.91
223.325	23482.37
223.398	23480.68
223.471	23489.84
223.544	23495.67
223.617	23505.8
223.69	23514.14
223.763	23507.92
223.837	23505.03
223.91	23508.45
223.983	23484.1
224.056	23459.27
224.129	23457.44
224.202	23468.38
224.275	23460.81
224.348	23436.65
224.42	23418.47
224.493	23395.57
224.566	23377.19
224.639	23367.45
224.712	23346.48
224.785	23317.25
224.858	23303.66
224.931	23286.05
225.004	23258.04
225.077	23240.73
225.15	23189.76
225.223	23167.97
225.296	23165.94
225.369	23131.18
225.442	23105.57
225.514	23099.64
225.587	23092.55
225.66	23075.29
225.733	23059.67
225.806	23039.95
225.879	23027.36
225.952	23000.46
226.025	22997.23
226.097	22988.07
226.17	22977.07
226.243	22942.98
226.316	22925.53
226.389	22905.23
226.461	22892.4
226.534	22872.3
226.607	22848.48
226.68	22855.91
226.753	22838.79
226.825	22801.13
226.898	22800.75
226.971	22778.38
227.044	22761.89
227.117	22738.84
227.189	22729.49
227.262	22708.66
227.335	22685.28
227.407	22650.71
227.48	22637.12
227.553	22612.63
227.626	22586.11
227.698	22557.08
227.771	22537.03
227.844	22506.51
227.916	22483.85
227.989	22442.3
228.062	22418.53
228.134	22422.24
228.207	22385.56
228.28	22353.26
228.352	22315.95
228.425	22292.42
228.498	22277.09
228.57	22246.05
228.643	22227.82
228.716	22187.67
228.788	22157.78
228.861	22134.69
228.934	22141.29
229.006	22118.15
229.079	22082.82
229.151	22044.93
229.224	21998.89
229.296	21980.77
229.369	21988.29
229.442	21985.06
229.514	21949.44
229.587	21942.06
229.659	21883.69
229.732	21873.47
229.804	21858.28
229.877	21873.37
229.949	21852.45
230.022	21842.71
230.094	21818.08
230.167	21797.07
230.239	21768.39
230.312	21739.03
230.384	21734.31
230.457	21698.59
230.529	21669.38
230.602	21650.39
230.674	21627.69
230.747	21619.4
230.819	21596.99
230.892	21538.47
230.964	21503.81
231.037	21488.78
231.109	21448.87
231.181	21440.82
231.254	21393.25
231.326	21365.97
231.399	21319.98
231.471	21289.42
231.544	21241.61
231.616	21218.52
231.688	21193.6
231.761	21155.43
231.833	21117.36
231.905	21064.39
231.978	21032.24
232.05	21004.34
232.122	20971.42
232.195	20942.07
232.267	20916.33
232.339	20886.83
232.412	20862.26
232.484	20830.16
232.556	20789.92
232.629	20776.37
232.701	20751.46
232.773	20735.07
232.846	20694.15
232.918	20667.45
232.99	20644.75
233.062	20626.44
233.135	20604.27
233.207	20557.43
233.279	20545.28
233.351	20532.56
233.424	20501.47
233.496	20469.23
233.568	20453.67
233.64	20412.37
233.713	20365.72
233.785	20333.09
233.857	20304.85
233.929	20265.81
234.001	20247.21
234.074	20243.31
234.146	20199.65
234.218	20162.59
234.29	20117.91
234.362	20081.77
234.434	20029.1
234.507	19968.23
234.579	19910.93
234.651	19868.96
234.723	19849.58
234.795	19814.21
234.867	19775.76
234.939	19755.85
235.012	19717.83
235.084	19692.87
235.156	19670.8
235.228	19646.27
235.3	19611.57
235.372	19570.99
235.444	19551.04
235.516	19495.77
235.588	19456.45
235.66	19417.94
235.732	19373.9
235.804	19394.18
235.876	19375.82
235.948	19367.58
236.02	19341.51
236.092	19310.43
236.164	19270.34
236.236	19232.94
236.308	19195.98
236.38	19161.62
236.452	19108.03
236.524	19079.41
236.596	19045.19
236.668	19018.93
236.74	18980.76
236.812	18955.42
236.884	18928.33
236.956	18887.76
237.028	18853.4
237.1	18813.06
237.172	18800.78
237.244	18784.2
237.316	18711.96
237.388	18669.46
237.46	18622.09
237.532	18593.03
237.604	18541.71
237.675	18533.32
237.747	18508.84
237.819	18465.08
237.891	18429.57
237.963	18400.75
238.035	18364.22
238.107	18304.03
238.178	18269.86
238.25	18243.74
238.322	18228.23
238.394	18179.8
238.466	18148.28
238.538	18113.73
238.609	18082.6
238.681	18032.72
238.753	17982.89
238.825	17953.59
238.897	17925.35
238.968	17913.4
239.04	17883.47
239.112	17886.65
239.184	17838.89
239.255	17800.34
239.327	17776.1
239.399	17746.7
239.471	17718.08
239.542	17682.27
239.614	17662.85
239.686	17614.85
239.758	17587.91
239.829	17531.67
239.901	17505.94
239.973	17471.38
240.044	17446.71
240.116	17414.32
240.188	17370.03
240.259	17344.05
240.331	17300.87
240.403	17271.43
240.474	17207.96
240.546	17158.94
240.618	17105.16
240.689	17055.37
240.761	17019.9
240.833	16999.18
240.904	16962.99
240.976	16923.85
241.048	16896.77
241.119	16871.95
241.191	16842.79
241.262	16823.66
241.334	16785.24
241.405	16747.36
241.477	16701.34
241.549	16655.79
241.62	16620.85
241.692	16598.24
241.763	16576.41
241.835	16542.63
241.906	16508.79
241.978	16469.56
242.049	16457.22
242.121	16438.81
242.192	16431.97
242.264	16382.13
242.335	16336.05
242.407	16304.68
242.478	16272.29
242.55	16241.2
242.621	16196.91
242.693	16163.84
242.764	16122.25
242.836	16085.18
242.907	16060.89
242.979	16041.03
243.05	16025.71
243.122	16000.5
243.193	15964.59
243.264	15906.61
243.336	15869.25
243.407	15841.39
243.479	15832.96
243.55	15801.58
243.622	15772.42
243.693	15733.38
243.764	15726.68
243.836	15684.12
243.907	15647.53
243.978	15607.62
244.05	15582.99
244.121	15532.77
244.192	15510.21
244.264	15463.26
244.335	15440.51
244.407	15393.7
244.478	15365.22
244.549	15319.57
244.62	15274.21
244.692	15244.52
244.763	15221.82
244.834	15190.39
244.906	15154.62
244.977	15128.26
245.048	15110.76
245.119	15066.61
245.191	15028.86
245.262	14971.55
245.333	14952.07
245.405	14925.51
245.476	14910.72
245.547	14875.96
245.618	14860.92
245.689	14829.01
245.761	14803.41
245.832	14770.68
245.903	14756.85
245.974	14727.69
246.045	14697.51
246.117	14685.41
246.188	14643.91
246.259	14603.8
246.33	14569.19
246.401	14531.35
246.473	14485.31
246.544	14449.59
246.615	14430.46
246.686	14403.46
246.757	14385.58
246.828	14355.69
246.899	14342.48
246.97	14297.6
247.042	14270.51
247.113	14248.09
247.184	14242.36
247.255	14206.11
247.326	14184.7
247.397	14153.42
247.468	14131.15
247.539	14107.33
247.61	14066.84
247.681	14059.37
247.752	14048.71
247.823	14016.17
247.894	13997.71
247.965	13958.18
248.037	13920.34
248.108	13880.52
248.179	13850.78
248.25	13829.47
248.321	13803.3
248.392	13761.55
248.463	13761.89
248.534	13726.84
248.605	13708.96
248.675	13676.61
248.746	13657.09
248.817	13629.27
248.888	13601.46
248.959	13556.67
249.03	13539.85
249.101	13514.68
249.172	13473.08
249.243	13423.62
249.314	13425.21
249.385	13398.6
249.456	13386.07
249.527	13361.24
249.598	13346.92
249.669	13318.72
249.739	13293.27
249.81	13276.64
249.881	13238.03
249.952	13206.79
250.023	13184.66
250.094	13144.7
250.165	13105.22
250.235	13084.49
250.306	13069.45
250.377	13035.7
250.448	13017.14
250.519	12972.84
250.59	12965.76
250.66	12940.64
250.731	12938.18
250.802	12902.56
250.873	12882.75
250.944	12862.36
251.014	12832.56
251.085	12831.89
251.156	12816.08
251.227	12810.58
251.297	12803.35
251.368	12797.62
251.439	12784.7
251.51	12769.46
251.58	12731.48
251.651	12702.6
251.722	12695.71
251.792	12648.23
251.863	12623.21
251.934	12616.75
252.005	12627.5
252.075	12611.4
252.146	12603.64
252.217	12598.09
252.287	12587.49
252.358	12570.81
252.429	12571.2
252.499	12541.07
252.57	12516.05
252.641	12507.52
252.711	12478.4
252.782	12440.66
252.852	12450.49
252.923	12430.63
252.994	12418.77
253.064	12414.58
253.135	12384.55
253.205	12348.54
253.276	12351.15
253.347	12351.58
253.417	12324.06
253.488	12284.77
253.558	12251.41
253.629	12233.1
253.699	12212.32
253.77	12201.57
253.841	12182.1
253.911	12152.6
253.982	12143.15
254.052	12133.07
254.123	12110.47
254.193	12093.21
254.264	12108.54
254.334	12065.59
254.405	12033.05
254.475	11997.67
254.546	11978.97
254.616	11978.88
254.687	11963.16
254.757	11943.3
254.827	11922.1
254.898	11907.01
254.968	11897.56
255.039	11873.46
255.109	11854.09
255.18	11825.5
255.25	11784.34
255.321	11769.69
255.391	11738.41
255.461	11738.6
255.532	11694.01
255.602	11673.19
255.673	11633.29
255.743	11605.91
255.813	11563.78
255.884	11552.26
255.954	11546.34
256.024	11547.64
256.095	11533.9
256.165	11506.38
256.235	11494.77
256.306	11479.73
256.376	11480.6
256.446	11475.58
256.517	11464.31
256.587	11463.39
256.657	11445.75
256.728	11429.65
256.798	11407.92
256.868	11393.94
256.938	11367.05
257.009	11361.84
257.079	11351
257.149	11368.59
257.219	11328.39
257.29	11318.28
257.36	11283
257.43	11267.87
257.5	11228.64
257.571	11199.67
257.641	11196.25
257.711	11169.31
257.781	11148.2
257.852	11129.41
257.922	11089.94
257.992	11077.65
258.062	11055.14
258.132	11049.55
258.202	11036.64
258.273	11023
258.343	11022.18
258.413	11000.69
258.483	10980.64
258.553	10951
258.623	10916.69
258.693	10909.8
258.764	10909.8
258.834	10910.33
258.904	10893.8
258.974	10866.72
259.044	10850.43
259.114	10840.89
259.184	10830
259.254	10815.45
259.324	10779.31
259.394	10766.06
259.464	10760.32
259.535	10737.1
259.605	10708.47
259.675	10683.81
259.745	10670.99
259.815	10638.27
259.885	10613.55
259.955	10627.38
260.025	10598.62
260.095	10581.81
260.165	10570.96
260.235	10570.96
260.305	10548.03
260.375	10515.12
260.445	10521.87
260.515	10528.42
260.585	10521.29
260.655	10507.75
260.725	10504.91
260.795	10496.72
260.865	10508.76
260.934	10478.41
261.004	10471.71
261.074	10461.83
261.144	10464.29
261.214	10463.42
261.284	10448.73
261.354	10452.58
261.424	10420.15
261.494	10431.95
261.564	10420.92
261.634	10411.38
261.703	10376.07
261.773	10368.89
261.843	10371.83
261.913	10353.76
261.983	10316.38
262.053	10302.5
262.123	10281.21
262.192	10250.71
262.262	10248.83
262.332	10214.48
262.402	10209.61
262.472	10203.59
262.541	10168.57
262.611	10168.24
262.681	10142.03
262.751	10138.8
262.821	10116.01
262.89	10092.5
262.96	10083.3
263.03	10086.67
263.1	10072.9
263.169	10064.42
263.239	10058.45
263.309	10064.95
263.379	10060.9
263.448	10048.52
263.518	10040
263.588	10028.44
263.657	10039.08
263.727	10027.33
263.797	10011.38
263.867	10000.16
263.936	9963.6
264.006	9965.67
264.076	9941.63
264.145	9925.45
264.215	9903.49
264.285	9901.75
264.354	9877.24
264.424	9858.69
264.494	9827.72
264.563	9803.35
264.633	9810.19
264.702	9800.84
264.772	9765.39
264.842	9745.69
264.911	9744.2
264.981	9718.18
265.05	9710.53
265.12	9682.11
265.19	9675.27
265.259	9672.72
265.329	9662.84
265.398	9662.22
265.468	9676.47
265.537	9661.45
265.607	9656.58
265.676	9659.18
265.746	9648.06
265.815	9642.23
265.885	9625.42
265.955	9606.69
266.024	9599.37
266.094	9561.47
266.163	9566
266.232	9570.04
266.302	9562.63
266.371	9558.25
266.441	9548.47
266.51	9542.11
266.58	9532.38
266.649	9511.63
266.719	9512.2
266.788	9504.98
266.858	9507.53
266.927	9469.78
266.996	9459.91
267.066	9452.11
267.135	9424.85
267.205	9422.15
267.274	9410.21
267.343	9413.49
267.413	9404.24
267.482	9408.53
267.552	9417
267.621	9380.02
267.69	9351.03
267.76	9340.15
267.829	9322.28
267.898	9309.38
267.968	9288.48
268.037	9284.1
268.106	9280.92
268.176	9255.59
268.245	9248.61
268.314	9231.18
268.384	9236.28
268.453	9226.27
268.522	9213.94
268.592	9216.45
268.661	9193
268.73	9192.95
268.799	9175.47
268.869	9185
268.938	9153.42
269.007	9136.23
269.076	9127.85
269.146	9130.94
269.215	9125.59
269.284	9137.53
269.353	9121.26
269.422	9112.88
269.492	9093.29
269.561	9052.81
269.63	9043.56
269.699	9020.36
269.768	9007.41
269.838	8997.05
269.907	8994.94
269.976	8973.47
270.045	8943.96
270.114	8945.07
270.183	8923.93
270.253	8916.86
270.322	8893.46
270.391	8885.13
270.46	8887.73
270.529	8888.55
270.598	8885.76
270.667	8870.45
270.736	8844.16
270.806	8840.8
270.875	8842.29
270.944	8832.76
271.013	8861.06
271.082	8857.69
271.151	8851.96
271.22	8829.58
271.289	8817.36
271.358	8805.66
271.427	8801.42
271.496	8797.62
271.565	8783.37
271.634	8781.93
271.703	8809.08
271.772	8807.11
271.841	8798.69
271.91	8774.53
271.979	8765.38
272.048	8734.62
272.117	8736.69
272.186	8725.33
272.255	8725.33
272.324	8723.7
272.393	8723.07
272.462	8701.36
272.531	8694.19
272.6	8692.02
272.669	8695.34
272.738	8693.95
272.807	8685.14
272.876	8668.3
272.945	8695.11
273.013	8695.16
273.082	8697.85
273.151	8657.17
273.22	8650.68
273.289	8642.74
273.358	8654.96
273.427	8645.82
273.496	8649.62
273.564	8651.98
273.633	8654.67
273.702	8638.02
273.771	8626.47
273.84	8625.17
273.909	8625.26
273.977	8622.81
274.046	8613.43
274.115	8620.69
274.184	8602.07
274.253	8597.88
274.322	8608.23
274.39	8581.23
274.459	8566.26
274.528	8539.41
274.597	8522.38
274.665	8523.19
274.734	8530.51
274.803	8515.83
274.872	8516.21
274.94	8497.35
275.009	8546.52
275.078	8531.93
275.147	8529.63
275.215	8526.59
275.284	8530.59
275.353	8515.19
275.421	8487.81
275.49	8502.63
275.559	8493.06
275.627	8487.67
275.696	8477.56
275.765	8477.13
275.833	8465.39
275.902	8471.69
275.971	8482.66
276.039	8497.63
276.108	8506.73
276.177	8502.15
276.245	8491.23
276.314	8482.18
276.383	8496.52
276.451	8432.92
276.52	8438.26
276.588	8448.9
276.657	8448.85
276.725	8435.37
276.794	8440.38
276.863	8453.9
276.931	8426.85
277	8430.32
277.068	8438.5
277.137	8456.83
277.205	8452.35
277.274	8471.79
277.342	8475.5
277.411	8458.37
277.48	8448.8
277.548	8432.29
277.617	8430.17
277.685	8430.03
277.754	8433.4
277.822	8424.69
277.89	8435.28
277.959	8426.09
278.027	8413.43
278.096	8403.81
278.164	8431.05
278.233	8426.38
278.301	8419.98
278.37	8430.95
278.438	8415.26
278.507	8414.88
278.575	8394.52
278.643	8390.48
278.712	8366.14
278.78	8352.52
278.849	8363.53
278.917	8378.55
278.985	8369.21
279.054	8378.17
279.122	8387.79
279.191	8384.9
279.259	8381.97
279.327	8358.77
279.396	8376.43
279.464	8364.6
279.532	8375.38
279.601	8373.5
279.669	8370.9
279.737	8383.31
279.806	8384.42
279.874	8394.24
279.942	8391.83
280.011	8390.05
280.079	8403
280.147	8423.88
280.215	8430.32
280.284	8428.98
280.352	8409.44
280.42	8418
280.488	8407.56
280.557	8404.29
280.625	8408.81
280.693	8410.21
280.761	8419.11
280.83	8400.44
280.898	8418.29
280.966	8392.36
281.034	8356.89
281.102	8346.69
281.171	8345.34
281.239	8353.81
281.307	8349.63
281.375	8343.18
281.443	8367.77
281.512	8355.5
281.58	8363.3
281.648	8350.93
281.716	8349.01
281.784	8348.04
281.852	8342.56
281.92	8340.59
281.989	8350.35
282.057	8330.97
282.125	8372.26
282.193	8366.2
282.261	8368.7
282.329	8362.2
282.397	8370.09
282.465	8379.47
282.533	8390.92
282.601	8378.89
282.67	8351.9
282.738	8348.39
282.806	8353.05
282.874	8342.76
282.942	8348.91
283.01	8337.46
283.078	8340.73
283.146	8335.73
283.214	8348.58
283.282	8355.31
283.35	8365.22
283.418	8354.83
283.486	8357.86
283.554	8315.8
283.622	8318.01
283.69	8316.81
283.758	8309.3
283.826	8317.29
283.894	8322.58
283.962	8341.11
284.03	8351.5
284.098	8353.38
284.165	8345.1
284.233	8345.59
284.301	8329.52
284.369	8321.91
284.437	8316.86
284.505	8317.2
284.573	8336.68
284.641	8325.23
284.709	8329.85
284.777	8314.26
284.845	8324.85
284.912	8335.82
284.98	8343.95
285.048	8340.1
285.116	8340.82
285.184	8359.59
285.252	8355.79
285.319	8341.78
285.387	8328.31
285.455	8313.83
285.523	8324.89
285.591	8315.66
285.659	8315.95
285.726	8333.6
285.794	8317.59
285.862	8313.98
285.93	8310.95
285.997	8304.93
286.065	8301.03
286.133	8285.4
286.201	8283.18
286.269	8263.5
286.336	8257.49
286.404	8251.33
286.472	8256.48
286.539	8237.62
286.607	8217.41
286.675	8220.88
286.743	8222.18
286.81	8221.79
286.878	8232.95
286.946	8223.57
287.013	8233.05
287.081	8237.28
287.149	8224.87
287.216	8250.75
287.284	8247.29
287.352	8253.44
287.419	8243
287.487	8263.89
287.555	8268.17
287.622	8267.83
287.69	8273.7
287.758	8279.62
287.825	8276.4
287.893	8268.7
287.96	8279.47
288.028	8289.96
288.096	8288.61
288.163	8301.89
288.231	8286.11
288.298	8284.57
288.366	8298.86
288.433	8294.2
288.501	8286.74
288.569	8292.32
288.636	8281.98
288.704	8299.83
288.771	8304.54
288.839	8301.37
288.906	8294.58
288.974	8309.07
289.041	8305.55
289.109	8294.73
289.176	8302.53
289.244	8304.21
289.311	8318.36
289.379	8326.77
289.446	8328.07
289.514	8332.12
289.581	8325.96
289.649	8333.46
289.716	8335.92
289.783	8324.56
289.851	8343.95
289.918	8341.64
289.986	8346.21
290.053	8350.64
290.121	8344.48
290.188	8344.91
290.255	8371.42
290.323	8359.25
290.39	8350.49
290.458	8360.16
290.525	8377.77
290.592	8374.35
290.66	8376.76
290.727	8365.26
290.794	8380.8
290.862	8390.23
290.929	8393.7
290.996	8393.26
291.064	8402.65
291.131	8413.23
291.198	8427.43
291.266	8427.28
291.333	8433.01
291.4	8439.55
291.468	8457.46
291.535	8456.64
291.602	8467.37
291.669	8462.56
291.737	8471.7
291.804	8473.19
291.871	8488.59
291.938	8491.24
292.006	8521.85
292.073	8531.71
292.14	8552.69
292.207	8545.52
292.275	8540.61
292.342	8549.66
292.409	8579.26
292.476	8606.31
292.543	8598.51
292.611	8603.52
292.678	8620.8
292.745	8649.91
292.812	8659.35
292.879	8654.92
292.946	8660.84
293.014	8662.81
293.081	8672.15
293.148	8682.54
293.215	8707.95
293.282	8707.09
293.349	8723.26
293.416	8703.43
293.484	8721.09
293.551	8727.2
293.618	8748.04
293.685	8774.56
293.752	8768.16
293.819	8759.88
293.886	8740.82
293.953	8747.56
294.02	8755.74
294.087	8766.43
294.154	8752.76
294.221	8772.3
294.288	8777.41
294.356	8793.72
294.423	8805.42
294.49	8801.09
294.557	8815.72
294.624	8803.97
294.691	8817.6
294.758	8819.71
294.825	8830.16
294.892	8825.68
294.959	8822.07
295.026	8826.41
295.093	8819.71
295.16	8821.69
295.226	8827.66
295.293	8856.39
295.36	8866.36
295.427	8880.65
295.494	8890.57
295.561	8896.44
295.628	8907.09
295.695	8924.51
295.762	8923.36
295.829	8929.66
295.896	8947.18
295.963	8953.88
296.03	8963.98
296.096	8968.46
296.163	8978.38
296.23	8987.86
296.297	9000.91
296.364	9008.22
296.431	9010.78
296.498	9005.87
296.564	9031.18
296.631	9035.37
296.698	9022.71
296.765	9042.11
296.832	9028.39
296.899	9015.34
296.965	9040.57
297.032	9020.44
297.099	9031.57
297.166	9045.53
297.233	9040.47
297.299	9027.52
297.366	9033.3
297.433	9030.75
297.5	9043.36
297.566	9040.43
297.633	9041.29
297.7	9036.96
297.767	9030.85
297.833	9033.26
297.9	9041.1
297.967	9020.88
298.033	9030.71
298.1	9053.43
298.167	9048.42
298.234	9054.2
298.3	9059.21
298.367	9053
298.434	9068.36
298.5	9054.73
298.567	9047.41
298.634	9048.13
298.7	9067.97
298.767	9072.49
298.834	9093.15
298.9	9088.62
298.967	9080.2
299.033	9091.75
299.1	9113.76
299.167	9131.71
299.233	9130.46
299.3	9141.39
299.366	9163.05
299.433	9174.13
299.5	9148.27
299.566	9149.67
299.633	9169.79
299.699	9181.4
299.766	9174.56
299.832	9173.93
299.899	9187.37
299.965	9195.65
300.032	9196.13
300.099	9206.14
300.165	9209.71
300.232	9199.5
300.298	9199.74
300.365	9216.74
300.431	9212.4
300.498	9205.76
300.564	9209.99
300.631	9229.98
300.697	9247.31
300.763	9241.97
300.83	9241.05
300.896	9264.64
300.963	9276.44
301.029	9275.09
301.096	9277.5
301.162	9296.13
301.229	9293.44
301.295	9284.96
301.361	9289.92
301.428	9297.96
301.494	9280.97
301.561	9279.67
301.627	9280.96
301.693	9282.02
301.76	9287.85
301.826	9282.41
301.892	9292.28
301.959	9305.76
302.025	9294.79
302.092	9283.66
302.158	9297
302.224	9300.9
302.291	9286.26
302.357	9281.4
302.423	9278.22
302.49	9271.67
302.556	9278.17
302.622	9279.47
302.688	9290.6
302.755	9304.32
302.821	9307.69
302.887	9317.66
302.954	9317.95
303.02	9328.68
303.086	9336.15
303.152	9329.74
303.219	9333.3
303.285	9332.92
303.351	9331.57
303.417	9332.49
303.483	9322.13
303.55	9314.19
303.616	9312.55
303.682	9310
303.748	9303.74
303.815	9315.64
303.881	9330.03
303.947	9317.95
304.013	9320.55
304.079	9308.17
304.145	9288.77
304.212	9286.31
304.278	9281.06
304.344	9276.34
304.41	9266.81
304.476	9256.02
304.542	9251.79
304.608	9248.71
304.674	9235.95
304.741	9230.99
304.807	9229.88
304.873	9242.69
304.939	9260.94
305.005	9241.29
305.071	9245.86
305.137	9247.41
305.203	9228.43
305.269	9216.35
305.335	9225.54
305.401	9219.48
305.467	9221.31
305.533	9230.65
305.599	9235.17
305.666	9246.92
305.732	9246.63
305.798	9256.6
305.864	9284.1
305.93	9289.68
305.996	9298.25
306.062	9295.41
306.128	9290.02
306.194	9283.04
306.259	9272.93
306.325	9262.43
306.391	9275.91
306.457	9279.38
306.523	9281.21
306.589	9298.25
306.655	9296.13
306.721	9281.49
306.787	9270.85
306.853	9289.39
306.919	9275.62
306.985	9272.59
307.051	9265.42
307.117	9262.33
307.183	9259.59
307.248	9233.01
307.314	9238.79
307.38	9238.11
307.446	9250.2
307.512	9242.73
307.578	9250.58
307.644	9246.1
307.709	9242.93
307.775	9238.21
307.841	9236.43
307.907	9238.98
307.973	9222.94
308.039	9229.25
308.104	9229.93
308.17	9228.77
308.236	9209.46
308.302	9210.09
308.368	9198.15
308.433	9195.21
308.499	9184.81
308.565	9169.64
308.631	9174.99
308.696	9153.56
308.762	9141.43
308.828	9137.39
308.894	9121.74
308.959	9097.67
309.025	9089.82
309.091	9086.98
309.156	9074.85
309.222	9075.52
309.288	9061.13
309.354	9039.75
309.419	9029.84
309.485	9014.05
309.551	9022.18
309.616	9005.38
309.682	8997.24
309.748	8992.86
309.813	8987.18
309.879	8979.19
309.945	8970.67
310.01	8959.65
310.076	8959.94
310.141	8952.23
310.207	8940.2
310.273	8940.63
310.338	8941.78
310.404	8929.75
310.469	8917.52
310.535	8914.01
310.601	8890.37
310.666	8892.88
310.732	8901.54
310.797	8889.89
310.863	8882.43
310.928	8872.66
310.994	8874.82
311.059	8876.41
311.125	8870.35
311.191	8876.51
311.256	8864.43
311.322	8867.12
311.387	8841.81
311.453	9287.11
311.518	9265.84
311.584	9255.68
311.649	9262.37
311.715	9255.87
311.78	9254.28
311.846	9238.88
311.911	9242.06
311.976	9254.48
312.042	9241.24
312.107	9228.24
312.173	9221.41
312.238	9218.86
312.304	9214.82
312.369	9204.66
312.434	9194.07
312.5	9188.05
312.565	9162.78
312.631	9173.85
312.696	9162.4
312.761	9167.74
312.827	8711.41
312.892	8745.97
312.958	8741.83
313.023	8739.38
313.088	8739.09
313.154	8734.33
313.219	8733.07
313.284	8721.23
313.35	8704.48
313.415	8693.75
313.48	8684.75
313.546	8686.15
313.611	8693.99
313.676	8684.8
313.741	8677.29
313.807	8685.33
313.872	8689.23
313.937	8686.05
314.003	8692.55
314.068	8695.25
314.133	8703.57
314.198	8692.02
314.264	8674.74
314.329	8660.93
314.394	8655.78
314.459	8656.55
314.525	8674.26
314.59	8666.61
314.655	8657.13
314.72	8668.87
314.785	8669.54
314.851	8671.08
314.916	8656.31
314.981	8643.27
315.046	8640.57
315.111	8631.96
315.176	8614.68
315.242	8621.85
315.307	8619.54
315.372	8602.02
315.437	8594.47
315.502	8584.02
315.567	8596.53
315.632	8573.82
315.698	8585.61
315.763	8580.36
315.828	8567.13
315.893	8556.06
315.958	8556.88
316.023	8548.46
316.088	8531.8
316.153	8513.81
316.218	8508.03
316.283	8483.88
316.348	8465.79
316.413	8458.72
316.479	8443.37
316.544	8410.27
316.609	8373.94
316.674	8340.27
316.739	8307.84
316.804	8278.01
316.869	8244.05
316.934	8210.95
316.999	8188
317.064	8136.33
317.129	8090.73
317.194	8057.49
317.259	8012.36
317.324	7960.09
317.389	7918.34
317.454	7877.55
317.518	7843.21
317.583	7817
317.648	7802.23
317.713	7771.12
317.778	7709.66
317.843	7690.23
317.908	7658.17
317.973	7622.01
318.038	7597.25
318.103	7555.52
318.168	7526.96
318.233	7499.85
318.297	7450.72
318.362	7413.99
318.427	7378
318.492	7358.43
318.557	7312.92
318.622	7293.83
318.687	7276.29
318.751	7236.46
318.816	7204.74
318.881	7172.79
318.946	7121.03
319.011	7076.86
319.075	7031.7
319.14	6998.99
319.205	6955.98
319.27	6925.86
319.335	6882.39
319.399	6842.57
319.464	6821.87
319.529	6767.79
319.594	6729.31
319.658	6706.64
319.723	6663.13
319.788	6638.07
319.853	6584.28
319.917	6555.76
319.982	6496.11
320.047	6462.21
320.112	6436.34
320.176	6386.79
320.241	6357.6
320.306	6328.27
320.37	6285.7
320.435	6262.33
320.5	6240.44
320.564	6200.75
320.629	6159.05
320.694	6131.79
320.758	6095.28
320.823	6055.55
320.888	6034.92
320.952	5994.28
321.017	5948.42
321.082	5915.85
321.146	5881.45
321.211	5847.11
321.275	5811.14
321.34	5770.39
321.405	5723.92
321.469	5679.52
321.534	5638.54
321.598	5585.75
321.663	5556.5
321.727	5525.72
321.792	5478.31
321.857	5433.44
321.921	5392.65
321.986	5349.96
322.05	5290.22
322.115	5254.13
322.179	5206.8
322.244	5151.75
322.308	5117.78
322.373	5072.52
322.437	5031.23
322.502	5002.67
322.566	4960.33
322.631	4921.35
322.695	4882.38
322.76	4838.67
322.824	4805.26
322.889	4769.46
322.953	4729.88
323.018	4664.44
323.082	4608.36
323.146	4558.55
323.211	4509.5
323.275	4467.82
323.34	4425.21
323.404	4396.13
323.468	4352.69
323.533	4313.91
323.597	4268.21
323.662	4215.12
323.726	4180.93
323.79	4138.19
323.855	4076.49
323.919	4030.79
323.983	3987.48
324.048	3927.82
324.112	4057.19
324.177	3936.98
324.241	3731.23
324.305	3531.25
324.37	3335.39
324.434	3145.02
324.498	3102.35
324.562	3052.3
324.627	2992.77
324.691	2941.3
324.755	2875.62
324.82	2798.97
324.884	2720.83
324.948	2651.04
325.012	2557.84
325.077	2438.29
