Data from 20250704_urea_0.1M_MAYP1162681_11-18-29-699.txt Node
Date: Fri Jul 04 11:18:29 BST 2025
User: adleo
Spectrometer: MAYP116268
Trigger mode: 0
Integration Time (sec): 1.000000E0
Scans to average: 1
Electric dark correction enabled: true
Nonlinearity correction enabled: true
Boxcar width: 10
XAxis mode: Wavelengths
Number of Pixels in Spectrum: 2068
>>>>>Begin Spectral Data<<<<<
179.565	1244.13
179.642	1301.79
179.718	1345.98
179.795	1385.35
179.871	1425.39
179.948	1445.71
180.024	1467.1
180.101	1492.21
180.177	1507.01
180.254	1531.06
180.33	1551.49
180.407	1608.75
180.483	1706.95
180.56	1801.5
180.636	1889.24
180.712	1878.69
180.789	1887.86
180.865	1898.22
180.942	1907.82
181.018	1917.85
181.095	1931.88
181.171	1938.3
181.248	1938.78
181.324	1954.38
181.4	1960.89
181.477	1967.36
181.553	1981.9
181.63	2002.73
181.706	2016.05
181.782	2024.75
181.859	2023.23
181.935	2029.84
182.011	2025.99
182.088	2042.59
182.164	2060.71
182.24	2073.31
182.317	2081.59
182.393	2080.64
182.469	2096
182.546	2107.65
182.622	2113.69
182.698	2107.65
182.775	2116.35
182.851	2129.77
182.927	2122.06
183.003	2118.68
183.08	2113.07
183.156	2119.92
183.232	2113.88
183.308	2102.85
183.385	2109.55
183.461	2128.39
183.537	2128.72
183.613	2140.33
183.69	2131.91
183.766	2123.2
183.842	2131.57
183.918	2139.14
183.995	2153.17
184.071	2155.98
184.147	2150.41
184.223	2138.1
184.299	2152.13
184.375	2144.81
184.452	2155.14
184.528	2204.86
184.604	2214.23
184.68	2226.93
184.756	2232.64
184.832	2241.34
184.908	2246.39
184.985	2248.67
185.061	2231.07
185.137	2241.3
185.213	2230.93
185.289	2233.97
185.365	2226.41
185.441	2224.98
185.517	2235.12
185.593	2228.03
185.669	2226.98
185.745	2240.97
185.822	2257.38
185.898	2248.48
185.974	2256.8
186.05	2249
186.126	2216.64
186.202	2210.55
186.278	2207.89
186.354	2199.99
186.43	2207.08
186.506	2206.18
186.582	2206.27
186.658	2212.79
186.734	2192.81
186.81	2194.05
186.886	2196.14
186.962	2207.18
187.038	2203.85
187.114	2195.19
187.19	2205.7
187.266	2194.33
187.341	2193.86
187.417	2187.15
187.493	2187.53
187.569	2190.24
187.645	2185.39
187.721	2173.02
187.797	2178.91
187.873	2182.67
187.949	2177.63
188.025	2168.21
188.101	2171.3
188.176	2173.39
188.252	2171.49
188.328	2179.67
188.404	2181.33
188.48	2176.48
188.556	2171.48
188.632	2169.06
188.707	2172.25
188.783	2166.96
188.859	2160.69
188.935	2150.36
189.011	2158.88
189.086	2152.46
189.162	2143.65
189.238	2136.66
189.314	2134.66
189.39	2130.81
189.465	2123.91
189.541	2138.66
189.617	2124.77
189.693	2120.25
189.768	2122.44
189.844	2145.81
189.92	2138.39
189.996	2147.24
190.071	2159.33
190.147	2157.81
190.223	2169.18
190.298	2161.66
190.374	2151.43
190.45	2164.27
190.526	2172.26
190.601	2167.65
190.677	2170.17
190.753	2195.64
190.828	2199.73
190.904	2215.62
190.98	2234.61
191.055	2244.08
191.131	2235.7
191.207	2255.73
191.282	2264.86
191.358	2257.11
191.433	2242.26
191.509	2255.95
191.585	2252.86
191.66	2252.91
191.736	2257.62
191.811	2246.01
191.887	2263.91
191.963	2286.46
192.038	2292.17
192.114	2290.32
192.189	2292.93
192.265	2287.51
192.34	2268.37
192.416	2266.61
192.491	2260.33
192.567	2260.81
192.642	2263.33
192.718	2265.23
192.793	2252.96
192.869	2251.34
192.944	2255.43
193.02	2262.52
193.095	2268.09
193.171	2271.75
193.246	2270.09
193.322	2270.99
193.397	2276.56
193.473	2262.8
193.548	2245.19
193.624	2251.57
193.699	2253.8
193.775	2272.08
193.85	2274.75
193.925	2283.88
194.001	2284.98
194.076	2276.6
194.152	2267.27
194.227	2257.8
194.302	2246.25
194.378	2250.76
194.453	2243.58
194.529	2258.34
194.604	2242.87
194.679	2233.97
194.755	2217.04
194.83	2229.18
194.905	2225.13
194.981	2231.13
195.056	2221.76
195.131	2226.94
195.207	2225.28
195.282	2216.33
195.357	2195.06
195.433	2210
195.508	2199
195.583	2207.09
195.659	2223.75
195.734	2229.89
195.809	2231.93
195.884	2241.26
195.96	2243.54
196.035	2262.19
196.11	2254.05
196.185	2265.99
196.261	2272.04
196.336	2304.02
196.411	2289.55
196.486	2297.25
196.561	2290.97
196.637	2298.96
196.712	2316.58
196.787	2320.39
196.862	2332.05
196.937	2343.71
197.013	2348.89
197.088	2359.7
197.163	2381.89
197.238	2401.18
197.313	2401.09
197.388	2414.18
197.464	2445.46
197.539	2452.22
197.614	2443.65
197.689	2459.7
197.764	2479.61
197.839	2498.7
197.914	2490.94
197.989	2515.55
198.065	2529.03
198.14	2580.82
198.215	2608.02
198.29	2619.78
198.365	2632.69
198.44	2644.17
198.515	2671.89
198.59	2688.19
198.665	2711.96
198.74	2719.82
198.815	2717.44
198.89	2739.92
198.965	2771.19
199.04	2768.33
199.115	2789.05
199.19	2831.26
199.265	2834.78
199.34	2845.08
199.415	2880.12
199.49	2900.51
199.565	2911.52
199.64	2931.4
199.715	2929.54
199.79	2937.45
199.865	2944.36
199.94	2945.84
200.015	2978.06
200.09	2982.21
200.165	2988.65
200.24	2999.47
200.315	3040.94
200.39	3057.1
200.464	3066.21
200.539	3065.3
200.614	3080.7
200.689	3104.64
200.764	3114.18
200.839	3129.1
200.914	3133.54
200.989	3122.18
201.063	3140.63
201.138	3122.43
201.213	3127.82
201.288	3109.08
201.363	3116.9
201.438	3116.47
201.512	3132.87
201.587	3114.94
201.662	3121.66
201.737	3135.64
201.812	3144.13
201.886	3108.9
201.961	3122.55
202.036	3109.25
202.111	3112.16
202.186	3086.24
202.26	3069.83
202.335	3050.65
202.41	3048.84
202.485	3034.45
202.559	3017.38
202.634	2992.25
202.709	3006.21
202.784	2990.57
202.858	2998.01
202.933	2985.28
203.008	2987.76
203.082	2974.12
203.157	2985.9
203.232	2953.97
203.306	2943.19
203.381	2920.68
203.456	2911.72
203.53	2901.84
203.605	2897.12
203.68	2887.58
203.754	2897.06
203.829	2900.35
203.904	2899.16
203.978	2906.93
204.053	2934.31
204.127	2948.37
204.202	2974.93
204.277	2986.51
204.351	3010.93
204.426	3033.59
204.5	3061.21
204.575	3066.93
204.65	3116.94
204.724	3154.95
204.799	3208.07
204.873	3252.75
204.948	3305.11
205.022	3346.47
205.097	3393.81
205.171	3468.75
205.246	3538.35
205.32	3604.45
205.395	3673.86
205.469	3742.72
205.544	3826.22
205.618	3892.08
205.693	3986.34
205.767	4063.4
205.842	4176.88
205.916	4267.5
205.991	4352.17
206.065	4460.17
206.14	4580.95
206.214	4689.27
206.289	4790.13
206.363	4915.69
206.438	5043.04
206.512	5171.01
206.586	5317.38
206.661	5453.93
206.735	5563.82
206.81	5702.25
206.884	5858.91
206.958	5991.58
207.033	6150.7
207.107	6312.84
207.181	6493.94
207.256	6646.64
207.33	6824.56
207.405	6996.37
207.479	7184.48
207.553	7362.11
207.628	7509.88
207.702	7690.58
207.776	7854.7
207.851	8036.63
207.925	8229
207.999	8407.99
208.073	8588.32
208.148	8770.37
208.222	8942.73
208.296	9167.05
208.371	9365.57
208.445	9568.09
208.519	9784.09
208.593	9983.47
208.668	10164.78
208.742	10357.87
208.816	10551.47
208.89	10755.08
208.965	10943.05
209.039	11134.46
209.113	11347.49
209.187	11565.34
209.261	11750.34
209.336	11961.72
209.41	12166.99
209.484	12356.13
209.558	12566.57
209.632	12769.88
209.707	12981.78
209.781	13194.11
209.855	13398.01
209.929	13614.78
210.003	13811.16
210.077	13999.74
210.151	14237.28
210.226	14460.66
210.3	14678.24
210.374	14879.64
210.448	15067.1
210.522	15256
210.596	15442.15
210.67	15622.33
210.744	15849.59
210.818	16060.71
210.892	16255.29
210.966	16426.58
211.041	16622.31
211.115	16785.75
211.189	16988.12
211.263	17163.51
211.337	17336.53
211.411	17511.42
211.485	17669.01
211.559	17839.08
211.633	18008.15
211.707	18138.36
211.781	18301.39
211.855	18422.3
211.929	18574.63
212.003	18710.72
212.077	18881.37
212.151	19054.86
212.225	19220.35
212.299	19358.99
212.373	19492.58
212.447	19629.29
212.52	19803.51
212.594	19953.48
212.668	20106.11
212.742	20215.84
212.816	20339.17
212.89	20468.95
212.964	20599.89
213.038	20737.45
213.112	20876.3
213.186	21016.84
213.26	21126.1
213.333	21205.67
213.407	21327.95
213.481	21452.54
213.555	21583.68
213.629	21694.98
213.703	21795
213.777	21910.99
213.85	22006.87
213.924	22158.05
213.998	22283.87
214.072	22391.39
214.146	22485.44
214.219	22593.73
214.293	22697.57
214.367	22816.56
214.441	22936.95
214.515	23032.27
214.588	23102.33
214.662	23163.76
214.736	23230.73
214.81	23320.99
214.883	23421.09
214.957	23506.24
215.031	23585.86
215.105	23650.9
215.178	23715.82
215.252	23796.89
215.326	23851.87
215.4	23909.93
215.473	23933.13
215.547	23985.08
215.621	24046.68
215.694	24125.99
215.768	24168.82
215.842	24225.69
215.915	24277.26
215.989	24309.38
216.063	24356.42
216.136	24411.94
216.21	24475.13
216.284	24567.86
216.357	24642.25
216.431	24699.18
216.504	24766.91
216.578	24849.42
216.652	24924.68
216.725	24978.14
216.799	25041.5
216.873	25092.41
216.946	25157.5
217.02	25212.45
217.093	25257.33
217.167	25266.93
217.24	25292.56
217.314	25342.21
217.387	25386.94
217.461	25427.77
217.535	25490.94
217.608	25537.27
217.682	25583.41
217.755	25640.22
217.829	25654.26
217.902	25691.38
217.976	25726.08
218.049	25749.68
218.123	25762.23
218.196	25799.21
218.27	25834.2
218.343	25845.64
218.417	25893.05
218.49	25914.29
218.563	25952.37
218.637	25989.83
218.71	26062
218.784	26110.57
218.857	26147.69
218.931	26180.85
219.004	26217.54
219.077	26251.78
219.151	26273.5
219.224	26304.93
219.298	26325.4
219.371	26373.88
219.444	26378.37
219.518	26408.83
219.591	26436.93
219.665	26488.21
219.738	26515.88
219.811	26532.01
219.885	26565.37
219.958	26592.99
220.031	26614.96
220.105	26650.5
220.178	26671.36
220.251	26685.13
220.325	26700.58
220.398	26720.24
220.471	26750.03
220.544	26768.38
220.618	26772.63
220.691	26802.09
220.764	26815.41
220.838	26846.66
220.911	26850.57
220.984	26905.34
221.057	26935.81
221.131	26955.56
221.204	26939.09
221.277	26964.4
221.35	26998.64
221.424	27010.04
221.497	27025.83
221.57	27041.09
221.643	27050.95
221.716	27071.86
221.79	27070.36
221.863	27079.45
221.936	27088.28
222.009	27098.81
222.082	27106.93
222.155	27111.08
222.229	27124.65
222.302	27138.95
222.375	27137.5
222.448	27141.75
222.521	27119.68
222.594	27100.12
222.667	27090.36
222.74	27105.67
222.814	27093.5
222.887	27081.37
222.96	27083.64
223.033	27077.46
223.106	27075.34
223.179	27069.44
223.252	27056.79
223.325	27050.7
223.398	27027.18
223.471	27012.36
223.544	26986.86
223.617	26984.39
223.69	26978.79
223.763	26955.8
223.837	26956.86
223.91	26947.59
223.983	26913.88
224.056	26899.73
224.129	26894.86
224.202	26886.55
224.275	26865.44
224.348	26834.64
224.42	26816.67
224.493	26778.23
224.566	26751.09
224.639	26728.2
224.712	26713.61
224.785	26701.59
224.858	26677.59
224.931	26665.13
225.004	26639.44
225.077	26628.29
225.15	26571.41
225.223	26539.01
225.296	26544.42
225.369	26491.11
225.442	26441.62
225.514	26426.22
225.587	26406.57
225.66	26394.21
225.733	26379.09
225.806	26346.79
225.879	26334.19
225.952	26294.99
226.025	26296.78
226.097	26289.2
226.17	26273.89
226.243	26221.41
226.316	26188.87
226.389	26160.82
226.461	26133.98
226.534	26118.82
226.607	26093.62
226.68	26103.52
226.753	26088.46
226.825	26031.58
226.898	26020.86
226.971	26009.28
227.044	25986.35
227.117	25961.59
227.189	25940.83
227.262	25917.56
227.335	25904.29
227.407	25857.95
227.48	25848.2
227.553	25808.43
227.626	25777
227.698	25735.49
227.771	25716.38
227.844	25671.2
227.916	25651.12
227.989	25605.23
228.062	25567.44
228.134	25555.47
228.207	25521.97
228.28	25486.55
228.352	25461.94
228.425	25429.74
228.498	25411.45
228.57	25380.81
228.643	25360.2
228.716	25312.47
228.788	25281.15
228.861	25239.41
228.934	25238.3
229.006	25196.08
229.079	25166.59
229.151	25125.62
229.224	25086.97
229.296	25059.76
229.369	25060.34
229.442	25040.17
229.514	25010.35
229.587	24987.92
229.659	24932
229.732	24896.48
229.804	24865.89
229.877	24851.37
229.949	24830.14
230.022	24812.09
230.094	24776.01
230.167	24750.15
230.239	24711.12
230.312	24671.84
230.384	24664.8
230.457	24624.71
230.529	24598.08
230.602	24574.92
230.674	24548.77
230.747	24526.06
230.819	24509.12
230.892	24440.23
230.964	24406.32
231.037	24383.99
231.109	24350.95
231.181	24334.59
231.254	24297.26
231.326	24262.34
231.399	24216.17
231.471	24177.05
231.544	24122.93
231.616	24091.72
231.688	24050.38
231.761	24009.44
231.833	23970.76
231.905	23913.99
231.978	23881.28
232.05	23841.5
232.122	23796.16
232.195	23745.23
232.267	23726.32
232.339	23675.25
232.412	23655.09
232.484	23609.42
232.556	23563.51
232.629	23547.79
232.701	23515.86
232.773	23476.9
232.846	23442.32
232.918	23413.1
232.99	23379.97
233.062	23358.22
233.135	23322.01
233.207	23269.83
233.279	23261.44
233.351	23221.18
233.424	23183.33
233.496	23135.16
233.568	23121.56
233.64	23068.52
233.713	23037.86
233.785	22992.73
233.857	22956.57
233.929	22908.16
234.001	22891.14
234.074	22873.2
234.146	22812.21
234.218	22764.24
234.29	22715.54
234.362	22664.3
234.434	22604.32
234.507	22548.73
234.579	22479.98
234.651	22437.32
234.723	22402.95
234.795	22349
234.867	22312.99
234.939	22281.17
235.012	22249.5
235.084	22201.14
235.156	22169.38
235.228	22125.22
235.3	22077.01
235.372	22032.71
235.444	22009.43
235.516	21945.12
235.588	21900.58
235.66	21862.11
235.732	21819.74
235.804	21842.3
235.876	21812.32
235.948	21793.09
236.02	21754.87
236.092	21718.38
236.164	21681.02
236.236	21629.64
236.308	21575.71
236.38	21537.92
236.452	21477.67
236.524	21427.69
236.596	21408.75
236.668	21371.58
236.74	21324.93
236.812	21289.84
236.884	21248.3
236.956	21197.98
237.028	21142.5
237.1	21092.14
237.172	21068.62
237.244	21033.19
237.316	20951.15
237.388	20900.16
237.46	20839.44
237.532	20798.71
237.604	20740.01
237.675	20711.77
237.747	20684.16
237.819	20638.76
237.891	20589.55
237.963	20548.44
238.035	20505.31
238.107	20417.26
238.178	20390.56
238.25	20343.57
238.322	20336.25
238.394	20290.42
238.466	20238.66
238.538	20210.13
238.609	20166.76
238.681	20096.2
238.753	20052.73
238.825	20013.31
238.897	19972.21
238.968	19951.19
239.04	19910.86
239.112	19900.5
239.184	19839.63
239.255	19790.09
239.327	19753.37
239.399	19720.75
239.471	19687.69
239.542	19651.21
239.614	19625.14
239.686	19557.82
239.758	19529.62
239.829	19470.59
239.901	19439.8
239.973	19409
240.044	19371.99
240.116	19336.86
240.188	19294.99
240.259	19249.3
240.331	19194.85
240.403	19159.52
240.474	19097.07
240.546	19048.16
240.618	18990.86
240.689	18943.54
240.761	18908.41
240.833	18881.23
240.904	18831.3
240.976	18792.65
241.048	18741.48
241.119	18713.62
241.191	18681.1
241.262	18651.51
241.334	18591.27
241.405	18541.34
241.477	18492.05
241.549	18451.61
241.62	18410.8
241.692	18377.55
241.763	18352.15
241.835	18308.3
241.906	18270.9
241.978	18219.53
242.049	18190.33
242.121	18159.19
242.192	18138.91
242.264	18081.17
242.335	18022.77
242.407	17993.95
242.478	17945.85
242.55	17914.43
242.621	17857.47
242.693	17819.25
242.764	17777.14
242.836	17740.32
242.907	17715.69
242.979	17675.55
243.05	17632.95
243.122	17599.89
243.193	17564.51
243.264	17491.45
243.336	17457.24
243.407	17419.98
243.479	17400.32
243.55	17369.67
243.622	17337
243.693	17294.34
243.764	17281.96
243.836	17245.19
243.907	17200.85
243.978	17158.34
244.05	17125.18
244.121	17070.63
244.192	17033.57
244.264	16974.91
244.335	16933.66
244.407	16875.97
244.478	16843.73
244.549	16804.98
244.62	16747.34
244.692	16701.89
244.763	16675.09
244.834	16627.86
244.906	16588.82
244.977	16557.78
245.048	16530.74
245.119	16478.02
245.191	16433.58
245.262	16366.15
245.333	16338.2
245.405	16303.98
245.476	16271.49
245.547	16238.43
245.618	16218.86
245.689	16187.24
245.761	16157.46
245.832	16122.85
245.903	16099.86
245.974	16065.98
246.045	16031.13
246.117	16016.57
246.188	15971.8
246.259	15931.5
246.33	15900.99
246.401	15865.76
246.473	15809.7
246.544	15764.2
246.615	15740.2
246.686	15698.41
246.757	15678.65
246.828	15635.22
246.899	15616.71
246.97	15574
247.042	15527.05
247.113	15497.6
247.184	15478.9
247.255	15436.63
247.326	15412.67
247.397	15373.29
247.468	15343.21
247.539	15308.99
247.61	15253.17
247.681	15233.99
247.752	15208.1
247.823	15164.53
247.894	15133.53
247.965	15091.02
248.037	15047.73
248.108	14992.25
248.179	14958.65
248.25	14925.87
248.321	14895.31
248.392	14841.47
248.463	14837.28
248.534	14804.4
248.605	14773.55
248.675	14735.04
248.746	14708.14
248.817	14677.67
248.888	14650.29
248.959	14598.43
249.03	14576.4
249.101	14550.99
249.172	14518.84
249.243	14468.99
249.314	14452.8
249.385	14411.2
249.456	14388.88
249.527	14355.57
249.598	14338.12
249.669	14313.63
249.739	14286.78
249.81	14267.5
249.881	14226.13
249.952	14189.31
250.023	14160
250.094	14116.03
250.165	14069.8
250.235	14044.21
250.306	14006.85
250.377	13965.97
250.448	13943.22
250.519	13883.25
250.59	13873.36
250.66	13832.92
250.731	13827.52
250.802	13805.92
250.873	13794.64
250.944	13772.32
251.014	13742.87
251.085	13740.6
251.156	13715.83
251.227	13697.12
251.297	13683.82
251.368	13669.93
251.439	13654.8
251.51	13647.18
251.58	13622.3
251.651	13597.29
251.722	13585.81
251.792	13549.85
251.863	13528.69
251.934	13522.81
252.005	13533.51
252.075	13506.66
252.146	13496.63
252.217	13475.95
252.287	13450.83
252.358	13415.5
252.429	13409.14
252.499	13376.21
252.57	13357.41
252.641	13345.65
252.711	13324.48
252.782	13277.43
252.852	13275.22
252.923	13242.92
252.994	13218.14
253.064	13204.16
253.135	13170.8
253.205	13143.52
253.276	13141.16
253.347	13128
253.417	13096.42
253.488	13062.72
253.558	13037.42
253.629	13010.85
253.699	12993.4
253.77	12980.1
253.841	12958.5
253.911	12937.34
253.982	12919.99
254.052	12896.75
254.123	12873.61
254.193	12848.54
254.264	12867.68
254.334	12831.43
254.405	12800.05
254.475	12758.98
254.546	12733.09
254.616	12733.29
254.687	12712.03
254.757	12685.71
254.827	12659.44
254.898	12642.42
254.968	12621.4
255.039	12588.33
255.109	12580.23
255.18	12547.31
255.25	12499.01
255.321	12483.97
255.391	12447.58
255.461	12451.29
255.532	12400.77
255.602	12375.41
255.673	12329.48
255.743	12288.07
255.813	12250.09
255.884	12238.13
255.954	12231.29
256.024	12231.53
256.095	12197.59
256.165	12156.38
256.235	12147.22
256.306	12124.95
256.376	12114.11
256.446	12097.96
256.517	12083.21
256.587	12069.95
256.657	12054.72
256.728	12043.01
256.798	12019.2
256.868	11996.98
256.938	11963.72
257.009	11956.25
257.079	11936.29
257.149	11946.89
257.219	11915.03
257.29	11893.59
257.36	11851.56
257.43	11838.45
257.5	11790.63
257.571	11769.91
257.641	11756.6
257.711	11720.89
257.781	11710.04
257.852	11694.18
257.922	11659.63
257.992	11641.99
258.062	11618.56
258.132	11607.09
258.202	11583.76
258.273	11571.52
258.343	11568.15
258.413	11546.02
258.483	11529.1
258.553	11503.99
258.623	11479.8
258.693	11466.3
258.764	11465
258.834	11465.68
258.904	11445.72
258.974	11423.99
259.044	11409.72
259.114	11399.02
259.184	11383.75
259.254	11358.83
259.324	11315.07
259.394	11304.42
259.464	11300.22
259.535	11275.36
259.605	11246.49
259.675	11223.16
259.745	11208.56
259.815	11174.05
259.885	11146.39
259.955	11158.06
260.025	11131.02
260.095	11113.58
260.165	11096.32
260.235	11095.65
260.305	11071.17
260.375	11041.58
260.445	11043.55
260.515	11040.18
260.585	11032.28
260.655	11013.63
260.725	11004.71
260.795	10998.06
260.865	11002.16
260.934	10974.45
261.004	10967.22
261.074	10955.56
261.144	10949.2
261.214	10941.92
261.284	10922.07
261.354	10920.48
261.424	10893.63
261.494	10896.48
261.564	10880.67
261.634	10873.59
261.703	10832.15
261.773	10817.16
261.843	10809.21
261.913	10792.92
261.983	10758.52
262.053	10749.46
262.123	10730.04
262.192	10698.62
262.262	10692.84
262.332	10659.74
262.402	10650.73
262.472	10626.83
262.541	10589.87
262.611	10590.12
262.681	10563.32
262.751	10564.53
262.821	10539.38
262.89	10501.94
262.96	10489.8
263.03	10487.19
263.1	10473.08
263.169	10462.86
263.239	10461.32
263.309	10464.11
263.379	10452.26
263.448	10439.88
263.518	10426.1
263.588	10410.68
263.657	10419.16
263.727	10417.72
263.797	10405.19
263.867	10382.21
263.936	10362.65
264.006	10365.49
264.076	10349.83
264.145	10332.78
264.215	10314.23
264.285	10317.12
264.354	10288.31
264.424	10265.48
264.494	10238.69
264.563	10216.14
264.633	10219.23
264.702	10204.63
264.772	10171.92
264.842	10153.08
264.911	10144.94
264.981	10119.07
265.05	10106.21
265.12	10082.6
265.19	10063.81
265.259	10056.54
265.329	10054.03
265.398	10040.98
265.468	10047.92
265.537	10021.66
265.607	10015.06
265.676	10003.65
265.746	9987.32
265.815	9983.56
265.885	9967.86
265.955	9943.58
266.024	9931.25
266.094	9897.05
266.163	9896.42
266.232	9896.14
266.302	9882.31
266.371	9873.69
266.441	9861.31
266.51	9857.99
266.58	9840.12
266.649	9818.59
266.719	9817.19
266.788	9805.24
266.858	9809.63
266.927	9770.61
266.996	9762.62
267.066	9754.33
267.135	9731.41
267.205	9724.86
267.274	9722.21
267.343	9726.35
267.413	9713.83
267.482	9714.75
267.552	9719.61
267.621	9686.86
267.69	9657.19
267.76	9648.91
267.829	9641.68
267.898	9631.47
267.968	9611.68
268.037	9610.52
268.106	9605.51
268.176	9579.94
268.245	9570.16
268.314	9556.82
268.384	9563.9
268.453	9561.15
268.522	9554.03
268.592	9551.57
268.661	9526.43
268.73	9511.21
268.799	9494.99
268.869	9502.74
268.938	9474.9
269.007	9455.06
269.076	9450.1
269.146	9450.83
269.215	9444.85
269.284	9444.57
269.353	9427.33
269.422	9415.14
269.492	9397.42
269.561	9360.69
269.63	9353.85
269.699	9337.33
269.768	9323.65
269.838	9316.33
269.907	9307.47
269.976	9277.81
270.045	9250.52
270.114	9247.63
270.183	9240.64
270.253	9225.86
270.322	9203.96
270.391	9195.05
270.46	9200.73
270.529	9199.91
270.598	9195.43
270.667	9181.13
270.736	9160.52
270.806	9159.08
270.875	9158.79
270.944	9146.95
271.013	9169.82
271.082	9163.22
271.151	9157.44
271.22	9128.65
271.289	9116.18
271.358	9106.02
271.427	9101.21
271.496	9098.27
271.565	9093.07
271.634	9085.03
271.703	9107.76
271.772	9105.31
271.841	9090.1
271.91	9063.09
271.979	9049.08
272.048	9027.17
272.117	9027.8
272.186	9011.57
272.255	9007.87
272.324	9006.42
272.393	9007.96
272.462	8984.52
272.531	8976.04
272.6	8963.86
272.669	8972.04
272.738	8961.12
272.807	8954.09
272.876	8938.45
272.945	8968.29
273.013	8964.44
273.082	8968.15
273.151	8932.09
273.22	8929.58
273.289	8928.81
273.358	8938.34
273.427	8932.81
273.496	8935.7
273.564	8929.39
273.633	8933.58
273.702	8914.61
273.771	8902.58
273.84	8894.59
273.909	8897.28
273.977	8898.01
274.046	8890.59
274.115	8894.64
274.184	8874.28
274.253	8868.12
274.322	8875.05
274.39	8841.88
274.459	8828.3
274.528	8804.19
274.597	8792.59
274.665	8787.34
274.734	8790.71
274.803	8783.54
274.872	8776.61
274.94	8760.29
275.009	8818.37
275.078	8800.56
275.147	8797.29
275.215	8794.21
275.284	8799.41
275.353	8794.74
275.421	8769.42
275.49	8784.44
275.559	8775.1
275.627	8770.05
275.696	8761.87
275.765	8759.55
275.833	8745.98
275.902	8747.28
275.971	8748.97
276.039	8767.16
276.108	8772.22
276.177	8770.87
276.245	8759.22
276.314	8754.94
276.383	8761.77
276.451	8692.96
276.52	8698.98
276.588	8713.03
276.657	8716.16
276.725	8706.1
276.794	8697.29
276.863	8704.65
276.931	8677.89
277	8678.66
277.068	8690.74
277.137	8703.69
277.205	8698.39
277.274	8718.75
277.342	8723.52
277.411	8702.83
277.48	8681.79
277.548	8666.25
277.617	8664.8
277.685	8654.65
277.754	8660.52
277.822	8651.67
277.89	8673.86
277.959	8670.2
278.027	8652.01
278.096	8640.55
278.164	8668.57
278.233	8665.3
278.301	8654.28
278.37	8661.45
278.438	8646.72
278.507	8649.9
278.575	8627.95
278.643	8629.92
278.712	8609.81
278.78	8598.45
278.849	8615.38
278.917	8636.46
278.985	8639.02
279.054	8647.58
279.122	8660
279.191	8653.02
279.259	8650.28
279.327	8625
279.396	8632.37
279.464	8630.49
279.532	8635.11
279.601	8626.88
279.669	8620.24
279.737	8637.13
279.806	8642.23
279.874	8654.36
279.942	8654.79
280.011	8649.93
280.079	8652.15
280.147	8669.95
280.215	8675.01
280.284	8675.05
280.352	8657
280.42	8663.31
280.488	8652.82
280.557	8646.85
280.625	8648.53
280.693	8650.22
280.761	8655.42
280.83	8646.61
280.898	8655.61
280.966	8636.6
281.034	8601.08
281.102	8591.46
281.171	8580.05
281.239	8585.49
281.307	8578.61
281.375	8564.17
281.443	8584.67
281.512	8580.73
281.58	8586.94
281.648	8574.18
281.716	8571.63
281.784	8568.5
281.852	8560.71
281.92	8552.91
281.989	8567.69
282.057	8558.49
282.125	8598.93
282.193	8590.94
282.261	8587.14
282.329	8579.68
282.397	8587.04
282.465	8594.21
282.533	8609.46
282.601	8601.19
282.67	8582.13
282.738	8574.43
282.806	8584.1
282.874	8576.35
282.942	8585.26
283.01	8578.28
283.078	8578.23
283.146	8581.02
283.214	8592.91
283.282	8591.7
283.35	8607.35
283.418	8599.45
283.486	8604.5
283.554	8565.08
283.622	8565.18
283.69	8564.07
283.758	8559.69
283.826	8570.23
283.894	8577.06
283.962	8592.37
284.03	8603.53
284.098	8602.76
284.165	8596.03
284.233	8594.25
284.301	8584.72
284.369	8575.09
284.437	8568.35
284.505	8566
284.573	8575.24
284.641	8564.36
284.709	8577.98
284.777	8563.93
284.845	8571.77
284.912	8574.56
284.98	8579.33
285.048	8576.25
285.116	8586.6
285.184	8606.33
285.252	8605.94
285.319	8594.15
285.387	8583.76
285.455	8570.72
285.523	8581.64
285.591	8580.29
285.659	8585.1
285.726	8596.61
285.794	8583.37
285.862	8584.38
285.93	8589.15
285.997	8585.49
286.065	8576.59
286.133	8558.59
286.201	8551.61
286.269	8534.38
286.336	8521.39
286.404	8514.89
286.472	8527.21
286.539	8502.58
286.607	8482.51
286.675	8482.36
286.743	8490.11
286.81	8485.39
286.878	8506.66
286.946	8498.87
287.013	8499.3
287.081	8492.76
287.149	8483.56
287.216	8505.6
287.284	8494.68
287.352	8496.22
287.419	8489.39
287.487	8507.91
287.555	8517.68
287.622	8514.94
287.69	8526.92
287.758	8544.63
287.825	8537.56
287.893	8520.91
287.96	8534.91
288.028	8548.34
288.096	8551.13
288.163	8553.58
288.231	8543.62
288.298	8532.17
288.366	8549.3
288.433	8548.29
288.501	8542.8
288.569	8550.21
288.636	8541.07
288.704	8560.51
288.771	8566.43
288.839	8559.98
288.906	8554.02
288.974	8558.97
289.041	8559.55
289.109	8546.37
289.176	8549.35
289.244	8559.94
289.311	8576.92
289.379	8582.94
289.446	8586.21
289.514	8580.53
289.581	8577.36
289.649	8576.06
289.716	8582.07
289.783	8571.44
289.851	8591.7
289.918	8594.39
289.986	8597.61
290.053	8601.95
290.121	8599.4
290.188	8602.43
290.255	8632.41
290.323	8628.85
290.39	8627.36
290.458	8632.22
290.525	8646.22
290.592	8638.33
290.66	8639.15
290.727	8626.2
290.794	8642.33
290.862	8647.91
290.929	8654.41
290.996	8660.81
291.064	8677.89
291.131	8693.92
291.198	8704.03
291.266	8708.74
291.333	8719.33
291.4	8728.86
291.468	8744.41
291.535	8741.81
291.602	8744.75
291.669	8736.42
291.737	8738.25
291.804	8734.35
291.871	8753.36
291.938	8761.06
292.006	8794.47
292.073	8808.57
292.14	8829.41
292.207	8818.44
292.275	8816.32
292.342	8827.78
292.409	8853.34
292.476	8878.27
292.543	8868.45
292.611	8871.25
292.678	8884
292.745	8903.35
292.812	8914.04
292.879	8911.73
292.946	8914.81
293.014	8928.14
293.081	8936.47
293.148	8952.5
293.215	8971.8
293.282	8965.64
293.349	8980.28
293.416	8964.82
293.484	8974.45
293.551	8981.14
293.618	9002.03
293.685	9026.3
293.752	9022.16
293.819	9021.29
293.886	9009.21
293.953	9013.01
294.02	9020.81
294.087	9026.54
294.154	9024.32
294.221	9035.06
294.288	9042.09
294.356	9063.94
294.423	9072.23
294.49	9067.94
294.557	9088.88
294.624	9083.4
294.691	9104.67
294.758	9101.26
294.825	9103.08
294.892	9099.23
294.959	9102.6
295.026	9108.38
295.093	9104.63
295.16	9104.1
295.226	9102.46
295.293	9133.03
295.36	9145.07
295.427	9161.44
295.494	9176.85
295.561	9176.61
295.628	9201.51
295.695	9212.87
295.762	9209.64
295.829	9212.73
295.896	9229.48
295.963	9240.6
296.03	9251.39
296.096	9261.36
296.163	9280.23
296.23	9296.22
296.297	9306.9
296.364	9300.07
296.431	9310.18
296.498	9303.29
296.564	9329.68
296.631	9335.75
296.698	9319.81
296.765	9335.74
296.832	9326.64
296.899	9313.98
296.965	9335.69
297.032	9316.48
297.099	9331.84
297.166	9350.28
297.233	9357.21
297.299	9356.35
297.366	9357.26
297.433	9363.04
297.5	9374.07
297.566	9368.53
297.633	9374.55
297.7	9382.35
297.767	9382.78
297.833	9390.1
297.9	9394.58
297.967	9378.02
298.033	9392.03
298.1	9421.89
298.167	9419.58
298.234	9430.9
298.3	9446.11
298.367	9441.78
298.434	9445.68
298.5	9437.3
298.567	9433.4
298.634	9426.75
298.7	9441.1
298.767	9436.48
298.834	9445.2
298.9	9439.13
298.967	9430.27
299.033	9436.29
299.1	9458.88
299.167	9478.18
299.233	9471.78
299.3	9489.79
299.366	9508.04
299.433	9520.94
299.5	9491.04
299.566	9490.36
299.633	9501.44
299.699	9509.87
299.766	9513.91
299.832	9518.1
299.899	9532.69
299.965	9539.34
300.032	9541.56
300.099	9542.9
300.165	9551.24
300.232	9557.01
300.298	9558.31
300.365	9578.83
300.431	9581.86
300.498	9568.14
300.564	9580.13
300.631	9590.82
300.697	9601.32
300.763	9606.18
300.83	9604.83
300.896	9618.7
300.963	9631.56
301.029	9636.72
301.096	9643.31
301.162	9649.67
301.229	9643.51
301.295	9631.51
301.361	9634.55
301.428	9641.48
301.494	9638.88
301.561	9641.77
301.627	9640.52
301.693	9643.07
301.76	9647.94
301.826	9643.31
301.892	9654.63
301.959	9656.99
302.025	9656.94
302.092	9652.08
302.158	9657.81
302.224	9653.52
302.291	9647.17
302.357	9645.14
302.423	9641.96
302.49	9628.04
302.556	9645.34
302.622	9653.28
302.688	9661.42
302.755	9681.31
302.821	9687.96
302.887	9693.26
302.954	9694.9
303.02	9706.41
303.086	9710.45
303.152	9711.95
303.219	9709.87
303.285	9715.75
303.351	9729.19
303.417	9731.98
303.483	9721.34
303.55	9712.43
303.616	9721.29
303.682	9719.03
303.748	9715.37
303.815	9729.96
303.881	9742.39
303.947	9726.06
304.013	9723.32
304.079	9720.72
304.145	9696.25
304.212	9690.71
304.278	9683.15
304.344	9678.67
304.41	9666.97
304.476	9657.86
304.542	9651.99
304.608	9650.01
304.674	9632.19
304.741	9624.58
304.807	9620.3
304.873	9628.24
304.939	9640.91
305.005	9625.64
305.071	9629.35
305.137	9626.99
305.203	9603.63
305.269	9603.15
305.335	9615.14
305.401	9615.33
305.467	9615.48
305.533	9623.37
305.599	9635.17
305.666	9645.24
305.732	9650.54
305.798	9658.24
305.864	9688.06
305.93	9690.66
305.996	9702.02
306.062	9705.93
306.128	9704.91
306.194	9702.17
306.259	9701.64
306.325	9703.23
306.391	9707.13
306.457	9720.23
306.523	9724.32
306.589	9746.09
306.655	9735.88
306.721	9722.06
306.787	9714.31
306.853	9726.2
306.919	9710.65
306.985	9703.52
307.051	9698.37
307.117	9685.51
307.183	9682.95
307.248	9652.51
307.314	9652.08
307.38	9650.4
307.446	9653.57
307.512	9642.83
307.578	9642.88
307.644	9640.18
307.709	9630.07
307.775	9630.26
307.841	9627.52
307.907	9632.38
307.973	9604.21
308.039	9605.6
308.104	9615.24
308.17	9620.05
308.236	9607.53
308.302	9618.32
308.368	9606.71
308.433	9603.05
308.499	9597.03
308.565	9584.61
308.631	9592.36
308.696	9570.3
308.762	9565.54
308.828	9562.93
308.894	9544.64
308.959	9525.13
309.025	9514.92
309.091	9520.13
309.156	9512.56
309.222	9508.95
309.288	9491.95
309.354	9472.55
309.419	9469.23
309.485	9451.21
309.551	9447.51
309.616	9430.46
309.682	9421.07
309.748	9416.16
309.813	9413.99
309.879	9409.03
309.945	9396.7
310.01	9389.91
310.076	9395.45
310.141	9384.95
310.207	9367.86
310.273	9373.15
310.338	9377.2
310.404	9360.97
310.469	9343.88
310.535	9331.93
310.601	9301.98
310.666	9313.35
310.732	9328.47
310.797	9313.25
310.863	9308.63
310.928	9299.48
310.994	9305.45
311.059	9301.21
311.125	9296.4
311.191	9304.82
311.256	9294.42
311.322	9297.22
311.387	9276.27
311.453	9668.25
311.518	9640.37
311.584	9639.26
311.649	9644.22
311.715	9638.16
311.78	9637.77
311.846	9629.44
311.911	9637.48
311.976	9650.34
312.042	9628.62
312.107	9613.7
312.173	9613.98
312.238	9603.49
312.304	9600.31
312.369	9590.3
312.434	9577.44
312.5	9567.62
312.565	9531.94
312.631	9531.84
312.696	9527.27
312.761	9529.29
312.827	9124.37
312.892	9163.13
312.958	9163.8
313.023	9153.35
313.088	9146.32
313.154	9141.6
313.219	9129.42
313.284	9118.2
313.35	9113.39
313.415	9103.86
313.48	9100.25
313.546	9104.24
313.611	9117.63
313.676	9108.53
313.741	9098.13
313.807	9108.34
313.872	9114.79
313.937	9124.22
314.003	9138.86
314.068	9139.58
314.133	9144.3
314.198	9138.81
314.264	9117.1
314.329	9106.17
314.394	9106.02
314.459	9106.84
314.525	9123.69
314.59	9123.45
314.655	9115.89
314.72	9118.35
314.785	9130.82
314.851	9128.36
314.916	9103.18
314.981	9078.34
315.046	9074.68
315.111	9070.11
315.176	9057.93
315.242	9062.12
315.307	9062.4
315.372	9042.57
315.437	9034.05
315.502	9023.5
315.567	9032.36
315.632	9016.76
315.698	9016.14
315.763	9012.77
315.828	9000.25
315.893	8989.8
315.958	8985.42
316.023	8975.65
316.088	8952.21
316.153	8924.14
316.218	8917.02
316.283	8903.11
316.348	8895.17
316.413	8893.77
316.479	8871.35
316.544	8837.37
316.609	8808.58
316.674	8773.69
316.739	8736.25
316.804	8701.98
316.869	8671.18
316.934	8630.65
316.999	8602.31
317.064	8553.61
317.129	8506.69
317.194	8469.44
317.259	8423.82
317.324	8372.1
317.389	8323.94
317.454	8285.59
317.518	8249.42
317.583	8220.21
317.648	8193.36
317.713	8153.29
317.778	8084.73
317.843	8055.73
317.908	8019.41
317.973	7974.44
318.038	7942.06
318.103	7911.72
318.168	7877.96
318.233	7843.52
318.297	7794.18
318.362	7757.44
318.427	7715.99
318.492	7687.57
318.557	7641.28
318.622	7609.25
318.687	7587.47
318.751	7544.84
318.816	7517.43
318.881	7484.89
318.946	7432.05
319.011	7390.47
319.075	7349.99
319.14	7317.65
319.205	7275.4
319.27	7241.86
319.335	7202.21
319.399	7159.68
319.464	7128.4
319.529	7072.23
319.594	7032.69
319.658	7004.2
319.723	6962.49
319.788	6935.16
319.853	6887.02
319.917	6857.29
319.982	6808.09
320.047	6773.56
320.112	6750.07
320.176	6695.32
320.241	6660.98
320.306	6631.39
320.37	6588.7
320.435	6556
320.5	6528.3
320.564	6494.01
320.629	6446.97
320.694	6413.7
320.758	6376.98
320.823	6332.1
320.888	6309.45
320.952	6261.64
321.017	6222.1
321.082	6186.92
321.146	6151.21
321.211	6112.58
321.275	6075.55
321.34	6027.48
321.405	5979.65
321.469	5931.92
321.534	5891.59
321.598	5839.59
321.663	5807.93
321.727	5772.34
321.792	5721.27
321.857	5677.43
321.921	5631.25
321.986	5595.02
322.05	5533.86
322.115	5493.06
322.179	5446.86
322.244	5388.06
322.308	5351.78
322.373	5305.77
322.437	5260.34
322.502	5236.37
322.566	5191.76
322.631	5152.86
322.695	5119.48
322.76	5073.35
322.824	5037.1
322.889	4996.59
322.953	4951.58
323.018	4885.01
323.082	4819.1
323.146	4774.58
323.211	4723.17
323.275	4680.37
323.34	4633.52
323.404	4599.56
323.468	4554.33
323.533	4511.8
323.597	4474.35
323.662	4422.35
323.726	4383.98
323.79	4332.8
323.855	4260.94
323.919	4210.72
323.983	4165.29
324.048	4094.04
324.112	4220.04
324.177	4089.27
324.241	3874.8
324.305	3666.7
324.37	3460.12
324.434	3267.46
324.498	3216.35
324.562	3162.83
324.627	3099.5
324.691	3040.84
324.755	2974.34
324.82	2892.82
324.884	2811.26
324.948	2728.36
325.012	2630.46
325.077	2499.44
