Data from 20250704_urea_1.5M_MAYP1162681_11-45-37-595.txt Node
Date: Fri Jul 04 11:45:37 BST 2025
User: adleo
Spectrometer: MAYP116268
Trigger mode: 0
Integration Time (sec): 1.000000E0
Scans to average: 1
Electric dark correction enabled: true
Nonlinearity correction enabled: true
Boxcar width: 10
XAxis mode: Wavelengths
Number of Pixels in Spectrum: 2068
>>>>>Begin Spectral Data<<<<<
179.565	1267.69
179.642	1327
179.718	1373.03
179.795	1409.92
179.871	1442.43
179.948	1463.63
180.024	1487.04
180.101	1511.23
180.177	1527.83
180.254	1551.8
180.33	1574.35
180.407	1632.23
180.483	1729.3
180.56	1826.08
180.636	1914.2
180.712	1903.17
180.789	1914.01
180.865	1927.32
180.942	1937.35
181.018	1949.04
181.095	1958.51
181.171	1963.41
181.248	1962.45
181.324	1978.86
181.4	1989.71
181.477	2001.74
181.553	2018.24
181.63	2038.83
181.706	2053.81
181.782	2060.23
181.859	2060.18
181.935	2067.27
182.011	2062.85
182.088	2084.68
182.164	2103.33
182.24	2119.93
182.317	2129.44
182.393	2125.78
182.469	2140.95
182.546	2154.08
182.622	2159.27
182.698	2154.99
182.775	2168.12
182.851	2182.58
182.927	2174.78
183.003	2170.49
183.08	2163.55
183.156	2167.64
183.232	2163.93
183.308	2152.09
183.385	2160.98
183.461	2178.49
183.537	2178.3
183.613	2194.09
183.69	2184.81
183.766	2171.54
183.842	2181.2
183.918	2185.24
183.995	2200.89
184.071	2201.99
184.147	2197.99
184.223	2185.39
184.299	2201.99
184.375	2188.48
184.452	2196.29
184.528	2245.59
184.604	2258.43
184.68	2272.8
184.756	2281.99
184.832	2288.17
184.908	2293.26
184.985	2292.93
185.061	2276.18
185.137	2285.94
185.213	2275.14
185.289	2276.37
185.365	2267.76
185.441	2265.38
185.517	2280.66
185.593	2273.24
185.669	2270.58
185.745	2280.71
185.822	2300.07
185.898	2287.08
185.974	2298.35
186.05	2290.26
186.126	2257.09
186.202	2248.34
186.278	2242.68
186.354	2231.92
186.43	2238.35
186.506	2238.44
186.582	2239.3
186.658	2247.77
186.734	2226.83
186.81	2228.36
186.886	2228.55
186.962	2243.49
187.038	2237.25
187.114	2228.21
187.19	2238.86
187.266	2230.68
187.341	2228.83
187.417	2219.21
187.493	2219.4
187.569	2220.02
187.645	2213.36
187.721	2199.56
187.797	2203.6
187.873	2212.98
187.949	2206.08
188.025	2198.7
188.101	2200.94
188.176	2206.13
188.252	2203.94
188.328	2213.54
188.404	2211.88
188.48	2206.74
188.556	2202.51
188.632	2201.79
188.707	2205.17
188.783	2201.94
188.859	2197.56
188.935	2188
189.011	2197.7
189.086	2195.04
189.162	2185.57
189.238	2185.29
189.314	2182.67
189.39	2177.82
189.465	2168.01
189.541	2185.05
189.617	2169.87
189.693	2164.4
189.768	2166.21
189.844	2187.68
189.92	2181.21
189.996	2190.96
190.071	2203.71
190.147	2199.77
190.223	2208.43
190.298	2199.95
190.374	2187.01
190.45	2199.38
190.526	2208.61
190.601	2202.19
190.677	2202.48
190.753	2232.51
190.828	2233.47
190.904	2250.88
190.98	2268.4
191.055	2279.34
191.131	2270.01
191.207	2288.14
191.282	2298.23
191.358	2287.66
191.433	2272.09
191.509	2283.51
191.585	2278.37
191.66	2281.13
191.736	2289.89
191.811	2281.85
191.887	2297.79
191.963	2321.59
192.038	2325.35
192.114	2325.2
192.189	2332.82
192.265	2326.3
192.34	2303.4
192.416	2305.4
192.491	2299.3
192.567	2302.11
192.642	2304.16
192.718	2306.87
192.793	2299.16
192.869	2296.26
192.944	2299.3
193.02	2308.63
193.095	2314.35
193.171	2322.48
193.246	2318.2
193.322	2317.39
193.397	2318.53
193.473	2303.35
193.548	2287.69
193.624	2293.64
193.699	2292.59
193.775	2306.97
193.85	2311.39
193.925	2321.48
194.001	2318.96
194.076	2313.39
194.152	2301.44
194.227	2293.45
194.302	2283.08
194.378	2284.79
194.453	2280.32
194.529	2294.07
194.604	2278.65
194.679	2270.18
194.755	2250.68
194.83	2266.29
194.905	2262.77
194.981	2269.77
195.056	2262.01
195.131	2266.3
195.207	2267.1
195.282	2257.21
195.357	2236.12
195.433	2252.58
195.508	2240.35
195.583	2248.87
195.659	2263.48
195.734	2271.81
195.809	2271.05
195.884	2280.94
195.96	2281.14
196.035	2298.31
196.11	2296.17
196.185	2309.59
196.261	2315.06
196.336	2347.71
196.411	2333.71
196.486	2339.52
196.561	2336.76
196.637	2346.61
196.712	2363.23
196.787	2366.51
196.862	2381.26
196.937	2390.69
197.013	2394.59
197.088	2403.68
197.163	2425.68
197.238	2442.5
197.313	2439.88
197.388	2454.78
197.464	2482.78
197.539	2497.21
197.614	2490.69
197.689	2501.88
197.764	2516.17
197.839	2534.31
197.914	2526.45
197.989	2548.12
198.065	2562.69
198.14	2610.63
198.215	2639.45
198.29	2652.93
198.365	2663.84
198.44	2675.75
198.515	2705.29
198.59	2720.63
198.665	2748.45
198.74	2759.46
198.815	2762.08
198.89	2786.76
198.965	2819.6
199.04	2816.46
199.115	2829.08
199.19	2872.49
199.265	2874.11
199.34	2883.55
199.415	2919.31
199.49	2941.56
199.565	2953.19
199.64	2972.02
199.715	2970.92
199.79	2975.31
199.865	2981.55
199.94	2979.12
200.015	3012.26
200.09	3016.7
200.165	3024.61
200.24	3030.24
200.315	3069.52
200.39	3084.82
200.464	3092.69
200.539	3091.64
200.614	3108.61
200.689	3132.7
200.764	3138.52
200.839	3160.59
200.914	3165.69
200.989	3155.91
201.063	3169.78
201.138	3149.48
201.213	3154.87
201.288	3136.03
201.363	3144
201.438	3143.04
201.512	3161.87
201.587	3141.79
201.662	3146.75
201.737	3158.91
201.812	3169.65
201.886	3133.28
201.961	3140.67
202.036	3128.85
202.111	3124.94
202.186	3095.44
202.26	3078.12
202.335	3055.42
202.41	3046.46
202.485	3029.97
202.559	3011.32
202.634	2982.48
202.709	2992.73
202.784	2973.46
202.858	2972.13
202.933	2953.77
203.008	2946.15
203.082	2923.22
203.157	2923.65
203.232	2883.34
203.306	2861.64
203.381	2828.03
203.456	2806.54
203.53	2782.35
203.605	2761.78
203.68	2736.99
203.754	2729.9
203.829	2714.5
203.904	2694.69
203.978	2685.92
204.053	2687.77
204.127	2671.39
204.202	2672.77
204.277	2654.72
204.351	2646.76
204.426	2637.32
204.5	2627.51
204.575	2592.61
204.65	2603.33
204.724	2598.04
204.799	2601.51
204.873	2597.37
204.948	2594.65
205.022	2583.7
205.097	2577.55
205.171	2589.31
205.246	2600.89
205.32	2601.65
205.395	2600.56
205.469	2590.37
205.544	2591.66
205.618	2576.42
205.693	2589.76
205.767	2575.47
205.842	2597.91
205.916	2591.91
205.991	2582.14
206.065	2587.57
206.14	2606.09
206.214	2602.18
206.289	2590.7
206.363	2605.94
206.438	2608.32
206.512	2617.95
206.586	2636.57
206.661	2642.1
206.735	2620.24
206.81	2617.29
206.884	2632.86
206.958	2622.1
207.033	2641.05
207.107	2648.15
207.181	2679.74
207.256	2673.78
207.33	2693.22
207.405	2706.23
207.479	2726.81
207.553	2736.05
207.628	2721.1
207.702	2730.39
207.776	2725.24
207.851	2730.06
207.925	2745.21
207.999	2742.31
208.073	2743.12
208.148	2745.26
208.222	2735.49
208.296	2770.45
208.371	2786.42
208.445	2795.9
208.519	2824.35
208.593	2837.17
208.668	2834.11
208.742	2838.12
208.816	2840.98
208.89	2858.05
208.965	2855.66
209.039	2862.62
209.113	2879.69
209.187	2898.5
209.261	2894.3
209.336	2914.7
209.41	2936.3
209.484	2935.2
209.558	2960.66
209.632	2972.82
209.707	2985.55
209.781	3009.76
209.855	3027.74
209.929	3046.21
210.003	3051.46
210.077	3050.93
210.151	3100.33
210.226	3138.74
210.3	3167.52
210.374	3191.12
210.448	3199.04
210.522	3211.06
210.596	3221.41
210.67	3232.33
210.744	3285.92
210.818	3326.6
210.892	3353.65
210.966	3356.66
211.041	3383.67
211.115	3384.72
211.189	3415.21
211.263	3442.79
211.337	3458.59
211.411	3480.03
211.485	3486.14
211.559	3515.82
211.633	3533.04
211.707	3517.94
211.781	3541.74
211.855	3527.51
211.929	3539.25
212.003	3537.63
212.077	3570.2
212.151	3608.64
212.225	3646.71
212.299	3660.57
212.373	3677.38
212.447	3698.45
212.52	3756.78
212.594	3794.63
212.668	3841.73
212.742	3865.91
212.816	3901.9
212.89	3936.88
212.964	3976.08
213.038	4028.25
213.112	4087.83
213.186	4156.52
213.26	4189.16
213.333	4196.33
213.407	4257.66
213.481	4323.35
213.555	4403.37
213.629	4455.72
213.703	4510.14
213.777	4575.57
213.85	4631.53
213.924	4740.67
213.998	4820.64
214.072	4896.29
214.146	4960.09
214.219	5039.13
214.293	5127.26
214.367	5214.62
214.441	5318.65
214.515	5408.34
214.588	5478.28
214.662	5539.25
214.736	5613.94
214.81	5726.68
214.883	5843.45
214.957	5936.86
215.031	6032.11
215.105	6115.85
215.178	6213.94
215.252	6321.7
215.326	6415.45
215.4	6510.06
215.473	6580.38
215.547	6681.88
215.621	6782.3
215.694	6905.63
215.768	7007.23
215.842	7111.16
215.915	7219.74
215.989	7312.8
216.063	7423.28
216.136	7545.92
216.21	7673.2
216.284	7813.43
216.357	7937.85
216.431	8057.8
216.504	8196.48
216.578	8353.44
216.652	8498.14
216.725	8625.03
216.799	8756.29
216.873	8889.7
216.946	9028.27
217.02	9151.64
217.093	9276.72
217.167	9381.82
217.24	9493.5
217.314	9622.4
217.387	9750.78
217.461	9876.34
217.535	10018.23
217.608	10129.64
217.682	10262.41
217.755	10404.62
217.829	10527.09
217.902	10654.92
217.976	10779.37
218.049	10896.99
218.123	11002.1
218.196	11131.29
218.27	11252.06
218.343	11361.8
218.417	11483.78
218.49	11607.16
218.563	11746.11
218.637	11874.8
218.71	12025.85
218.784	12158.98
218.857	12290.08
218.931	12409.43
219.004	12522.75
219.077	12652.08
219.151	12788.79
219.224	12901.58
219.298	13017.08
219.371	13137.79
219.444	13243.46
219.518	13361.51
219.591	13469.59
219.665	13605.53
219.738	13710.76
219.811	13810.79
219.885	13935.26
219.958	14048.2
220.031	14143.12
220.105	14251.15
220.178	14358.26
220.251	14453.32
220.325	14564.62
220.398	14672.4
220.471	14772.62
220.544	14882.77
220.618	14966.5
220.691	15061.89
220.764	15157.91
220.838	15257.02
220.911	15350.09
220.984	15455.08
221.057	15551.09
221.131	15642.24
221.204	15700.42
221.277	15813.93
221.35	15936.79
221.424	16020.61
221.497	16099.7
221.57	16191.48
221.643	16277.27
221.716	16356.46
221.79	16424.66
221.863	16498.15
221.936	16564.91
222.009	16650.17
222.082	16719.09
222.155	16784.11
222.229	16864.59
222.302	16941.7
222.375	17000.65
222.448	17065.76
222.521	17127.83
222.594	17184.31
222.667	17245.81
222.74	17323.31
222.814	17366.1
222.887	17411.88
222.96	17470.39
223.033	17535.31
223.106	17591.93
223.179	17653.18
223.252	17714.68
223.325	17772.17
223.398	17819.49
223.471	17868.75
223.544	17912.26
223.617	17969.71
223.69	18026.67
223.763	18064.16
223.837	18106.86
223.91	18157.51
223.983	18183.39
224.056	18214.57
224.129	18267.48
224.202	18324.73
224.275	18354.95
224.348	18389.4
224.42	18413.59
224.493	18427.86
224.566	18455.95
224.639	18493.83
224.712	18510.5
224.785	18529.39
224.858	18559.37
224.931	18584.48
225.004	18604.57
225.077	18629.15
225.15	18627.27
225.223	18653.15
225.296	18694.78
225.369	18698.2
225.442	18710.78
225.514	18733.24
225.587	18761.04
225.66	18782.78
225.733	18790.97
225.806	18815.3
225.879	18825.23
225.952	18841.04
226.025	18879.78
226.097	18912.5
226.17	18923.49
226.243	18919.92
226.316	18943.49
226.389	18956.84
226.461	18974.09
226.534	19000.5
226.607	19011.48
226.68	19055.34
226.753	19066.18
226.825	19057.99
226.898	19081.79
226.971	19093.99
227.044	19117.31
227.117	19124.2
227.189	19137.84
227.262	19160.01
227.335	19162.08
227.407	19171.72
227.48	19179.57
227.553	19179.96
227.626	19172.63
227.698	19174.61
227.771	19187.67
227.844	19173.16
227.916	19169.5
227.989	19155.04
228.062	19153.55
228.134	19170.56
228.207	19153.64
228.28	19139.62
228.352	19135.62
228.425	19145.5
228.498	19147.33
228.57	19137.69
228.643	19155.57
228.716	19144.54
228.788	19134.85
228.861	19131
228.934	19144.54
229.006	19152.83
229.079	19150.66
229.151	19147.52
229.224	19133.07
229.296	19139.86
229.369	19169.84
229.442	19190.7
229.514	19184.2
229.587	19189.02
229.659	19171.76
229.732	19185.88
229.804	19211.33
229.877	19242.99
229.949	19248.24
230.022	19268.48
230.094	19261.54
230.167	19256.14
230.239	19249.74
230.312	19239.76
230.384	19265.69
230.457	19256.82
230.529	19242.02
230.602	19246.84
230.674	19246.65
230.747	19262.31
230.819	19271.04
230.892	19222.22
230.964	19218.22
231.037	19217.26
231.109	19208.15
231.181	19216.82
231.254	19194.94
231.326	19165.93
231.399	19135.48
231.471	19121.21
231.544	19089.7
231.616	19096.44
231.688	19086.13
231.761	19067.24
231.833	19050.9
231.905	19011.58
231.978	18996.88
232.05	18983.53
232.122	18968.16
232.195	18953.27
232.267	18954.04
232.339	18925.13
232.412	18934.82
232.484	18906.96
232.556	18900.89
232.629	18912.21
232.701	18895.35
232.773	18882.91
232.846	18870.87
232.918	18864.6
232.99	18848.75
233.062	18841.28
233.135	18819.5
233.207	18792.9
233.279	18793.96
233.351	18797.57
233.424	18774.87
233.496	18758.15
233.568	18763.93
233.64	18722.44
233.713	18698.49
233.785	18666.83
233.857	18654.21
233.929	18627.94
234.001	18641.39
234.074	18635.85
234.146	18593.78
234.218	18583.8
234.29	18571.85
234.362	18555.32
234.434	18519.66
234.507	18489.69
234.579	18454.7
234.651	18450.22
234.723	18439.04
234.795	18426.6
234.867	18405.16
234.939	18404.44
235.012	18388.82
235.084	18375.09
235.156	18371.52
235.228	18352.39
235.3	18328.49
235.372	18321.84
235.444	18320.68
235.516	18266.9
235.588	18247.19
235.66	18225.02
235.732	18196.3
235.804	18235.1
235.876	18222.95
235.948	18220.16
236.02	18202.23
236.092	18189.17
236.164	18159.87
236.236	18144.01
236.308	18119.34
236.38	18102.23
236.452	18071.73
236.524	18057.08
236.596	18047.3
236.668	18044.26
236.74	18022.09
236.812	18019.3
236.884	17991.49
236.956	17958.48
237.028	17938.48
237.1	17907.3
237.172	17905.23
237.244	17900.94
237.316	17832.51
237.388	17804.12
237.46	17777.28
237.532	17775.06
237.604	17745.33
237.675	17746.15
237.747	17721.96
237.819	17686.58
237.891	17657.86
237.963	17623.45
238.035	17586.49
238.107	17528.42
238.178	17505.43
238.25	17480.85
238.322	17476.56
238.394	17441.67
238.466	17417.67
238.538	17403.31
238.609	17382.3
238.681	17339.69
238.753	17300.8
238.825	17280.46
238.897	17264.51
238.968	17254.05
239.04	17223.16
239.112	17226.34
239.184	17176.85
239.255	17155.07
239.327	17130.34
239.399	17112.65
239.471	17100.12
239.542	17087.93
239.614	17084.7
239.686	17042.15
239.758	17031.54
239.829	16993.52
239.901	16985.28
239.973	16967.69
240.044	16944.31
240.116	16928.94
240.188	16913.47
240.259	16887.49
240.331	16853.37
240.403	16832.26
240.474	16790.76
240.546	16756.88
240.618	16707.05
240.689	16677.36
240.761	16644.1
240.833	16639.52
240.904	16608.58
240.976	16586.99
241.048	16568
241.119	16544.34
241.191	16530.75
241.262	16525.83
241.334	16493.68
241.405	16459.22
241.477	16425.1
241.549	16397.58
241.62	16372.23
241.692	16340.95
241.763	16327.21
241.835	16300.41
241.906	16273.23
241.978	16235.15
242.049	16219.49
242.121	16211.92
242.192	16207.01
242.264	16175.1
242.335	16132.88
242.407	16114.71
242.478	16079.62
242.55	16048.38
242.621	16007.08
242.693	15975.03
242.764	15937.91
242.836	15903.93
242.907	15890.15
242.979	15876.22
243.05	15856.46
243.122	15834.67
243.193	15800.88
243.264	15760.44
243.336	15736.39
243.407	15719.91
243.479	15713.4
243.55	15692.24
243.622	15665.2
243.693	15634.83
243.764	15626.49
243.836	15588.13
243.907	15554.43
243.978	15529.13
244.05	15505.85
244.121	15471.09
244.192	15450.08
244.264	15402.36
244.335	15377.77
244.407	15331.6
244.478	15299.45
244.549	15258.86
244.62	15213.79
244.692	15202.32
244.763	15184.34
244.834	15155.18
244.906	15116.66
244.977	15096.76
245.048	15086.54
245.119	15055.16
245.191	15012.79
245.262	14958.94
245.333	14946.89
245.405	14925.92
245.476	14910.11
245.547	14881.96
245.618	14863.84
245.689	14838.1
245.761	14819.54
245.832	14791.82
245.903	14771.14
245.974	14748.49
246.045	14731.42
246.117	14723.27
246.188	14673.72
246.259	14637.33
246.33	14601.75
246.401	14564.25
246.473	14519.13
246.544	14476.08
246.615	14452.22
246.686	14424.02
246.757	14418.77
246.828	14382.32
246.899	14366.56
246.97	14320.86
247.042	14293.33
247.113	14280.9
247.184	14276.13
247.255	14245.8
247.326	14226.18
247.397	14201.45
247.468	14177.4
247.539	14146.4
247.61	14101.72
247.681	14090.92
247.752	14073.32
247.823	14037.75
247.894	14014.95
247.965	13976.24
248.037	13946.73
248.108	13910.58
248.179	13882.72
248.25	13848.34
248.321	13837.06
248.392	13800.62
248.463	13808.28
248.534	13774.88
248.605	13757.48
248.675	13725.03
248.746	13710.67
248.817	13686.52
248.888	13667.19
248.959	13629.49
249.03	13610.98
249.101	13588.8
249.172	13555.83
249.243	13513.74
249.314	13520.69
249.385	13506.13
249.456	13491.95
249.527	13471.03
249.598	13454.45
249.669	13440.04
249.739	13426.54
249.81	13403.01
249.881	13367.24
249.952	13333.5
250.023	13312.05
250.094	13270.06
250.165	13240.12
250.235	13210.23
250.306	13196.16
250.377	13167.48
250.448	13155.38
250.519	13114.26
250.59	13112.47
250.66	13091.41
250.731	13082.68
250.802	13049.23
250.873	13032.45
250.944	13013.51
251.014	12976.87
251.085	12977.74
251.156	12957.59
251.227	12948.72
251.297	12942.69
251.368	12943.03
251.439	12930.54
251.51	12920.23
251.58	12888.99
251.651	12863.01
251.722	12855.44
251.792	12818.22
251.863	12792.53
251.934	12782.84
252.005	12794.41
252.075	12765.49
252.146	12754.16
252.217	12743.65
252.287	12731.69
252.358	12705.57
252.429	12701.95
252.499	12682.77
252.57	12665.51
252.641	12656.88
252.711	12631.14
252.782	12599.76
252.852	12589.78
252.923	12570.74
252.994	12553.53
253.064	12548.23
253.135	12512.6
253.205	12489.66
253.276	12483.68
253.347	12477.17
253.417	12444.15
253.488	12415.47
253.558	12394.36
253.629	12372.43
253.699	12358.21
253.77	12343.89
253.841	12319.84
253.911	12306
253.982	12287.73
254.052	12270.23
254.123	12251.34
254.193	12224.34
254.264	12237.41
254.334	12201.79
254.405	12169.54
254.475	12140.62
254.546	12121.72
254.616	12125.77
254.687	12107.55
254.757	12093.38
254.827	12072.27
254.898	12058.43
254.968	12042.48
255.039	12018.04
255.109	12008.16
255.18	11980.25
255.25	11939.23
255.321	11931.76
255.391	11900.38
255.461	11904.58
255.532	11858.16
255.602	11834.25
255.673	11802.54
255.743	11772.22
255.813	11731.78
255.884	11723.01
255.954	11710.72
256.024	11713.37
256.095	11687.1
256.165	11658.9
256.235	11647.24
256.306	11627.43
256.376	11625.36
256.446	11617.45
256.517	11608.1
256.587	11605.84
256.657	11594.17
256.728	11581.69
256.798	11566.65
256.868	11538.84
256.938	11511.52
257.009	11511.9
257.079	11504.14
257.149	11514.89
257.219	11477.58
257.29	11471.66
257.36	11427.61
257.43	11421.87
257.5	11373.2
257.571	11358.3
257.641	11352.47
257.711	11317.05
257.781	11305.53
257.852	11292.52
257.922	11247.46
257.992	11223.89
258.062	11197.38
258.132	11187.74
258.202	11169.14
258.273	11156.66
258.343	11167.02
258.413	11138.54
258.483	11117.48
258.553	11083.12
258.623	11060.66
258.693	11044.03
258.764	11043.46
258.834	11055.55
258.904	11042.54
258.974	11023.7
259.044	11004.86
259.114	10993.19
259.184	10985.48
259.254	10964.14
259.324	10924.28
259.394	10921.82
259.464	10925.68
259.535	10904.19
259.605	10882.26
259.675	10860
259.745	10841.06
259.815	10806.32
259.885	10788.1
259.955	10800.49
260.025	10780.93
260.095	10759.68
260.165	10752.59
260.235	10750.76
260.305	10725.03
260.375	10691.25
260.445	10700.55
260.515	10699.83
260.585	10690.48
260.655	10671.45
260.725	10669.28
260.795	10662
260.865	10664.51
260.934	10637.09
261.004	10636.42
261.074	10618.73
261.144	10623.12
261.214	10614.01
261.284	10603.7
261.354	10597.53
261.424	10570.55
261.494	10574.88
261.564	10565.29
261.634	10558.65
261.703	10518.7
261.773	10513.31
261.843	10508.1
261.913	10485.41
261.983	10449.85
262.053	10440.27
262.123	10427.5
262.192	10397.39
262.262	10396.09
262.332	10362.46
262.402	10355.76
262.472	10336.15
262.541	10296.02
262.611	10291.98
262.681	10271.31
262.751	10260.28
262.821	10244.47
262.89	10212.24
262.96	10202.08
263.03	10204.87
263.1	10192.25
263.169	10185.89
263.239	10174.23
263.309	10176.93
263.379	10170.91
263.448	10159.4
263.518	10151.3
263.588	10138.49
263.657	10142.53
263.727	10134.78
263.797	10126.64
263.867	10113.77
263.936	10085.45
264.006	10095.56
264.076	10076.78
264.145	10056.74
264.215	10038.48
264.285	10030.92
264.354	10002.31
264.424	9979.43
264.494	9948.16
264.563	9932.03
264.633	9938.14
264.702	9927.93
264.772	9897.34
264.842	9885.25
264.911	9882.17
264.981	9846.33
265.05	9832.27
265.12	9810.69
265.19	9795.66
265.259	9783.9
265.329	9772.58
265.398	9763.43
265.468	9776.34
265.537	9755.05
265.607	9755.92
265.676	9753.22
265.746	9753.51
265.815	9756.55
265.885	9742.58
265.955	9721.25
266.024	9699.09
266.094	9661.04
266.163	9663.07
266.232	9662.3
266.302	9643.18
266.371	9634.51
266.441	9629.31
266.51	9625.93
266.58	9617.51
266.649	9598.67
266.719	9600.89
266.788	9591.93
266.858	9598.63
266.927	9562.02
266.996	9555.81
267.066	9546.66
267.135	9525.62
267.205	9515.36
267.274	9505.15
267.343	9509
267.413	9499.23
267.482	9508.33
267.552	9510.3
267.621	9474.76
267.69	9449.86
267.76	9440.38
267.829	9428.87
267.898	9416.16
267.968	9392.61
268.037	9387.65
268.106	9386.4
268.176	9363.57
268.245	9354.18
268.314	9338.39
268.384	9334.58
268.453	9324.81
268.522	9311.04
268.592	9315.56
268.661	9300.78
268.73	9294.71
268.799	9274.73
268.869	9285.85
268.938	9249.16
269.007	9232.6
269.076	9225.28
269.146	9229.61
269.215	9223.45
269.284	9231.35
269.353	9213.73
269.422	9204.05
269.492	9179.5
269.561	9144.59
269.63	9143.48
269.699	9130.2
269.768	9120.66
269.838	9113.25
269.907	9114.31
269.976	9092.79
270.045	9059.33
270.114	9054.42
270.183	9041.03
270.253	9033.81
270.322	9006.76
270.391	9003.58
270.46	9008.15
270.529	9011.43
270.598	9000.79
270.667	8986.3
270.736	8962.61
270.806	8961.16
270.875	8958.56
270.944	8949.23
271.013	8963.91
271.082	8949.85
271.151	8941.04
271.22	8908.46
271.289	8898.15
271.358	8880.49
271.427	8884.48
271.496	8876.44
271.565	8855.7
271.634	8855.36
271.703	8885.79
271.772	8884.44
271.841	8875.49
271.91	8853.2
271.979	8844.25
272.048	8819.12
272.117	8821.53
272.186	8809.01
272.255	8807.14
272.324	8807.23
272.393	8805.16
272.462	8789.33
272.531	8784.13
272.6	8776.96
272.669	8789.9
272.738	8773.83
272.807	8773.44
272.876	8750.1
272.945	8777.25
273.013	8785.43
273.082	8785.62
273.151	8738.54
273.22	8741.14
273.289	8736.18
273.358	8748.65
273.427	8737.05
273.496	8743.69
273.564	8737.72
273.633	8740.12
273.702	8726.46
273.771	8717.12
273.84	8716.88
273.909	8713.6
273.977	8711.15
274.046	8699.5
274.115	8700.75
274.184	8696.47
274.253	8680.35
274.322	8694.02
274.39	8658.4
274.459	8646.85
274.528	8615.28
274.597	8607.82
274.665	8601.18
274.734	8602.62
274.803	8593.43
274.872	8588.95
274.94	8575.19
275.009	8637.4
275.078	8620.22
275.147	8616.61
275.215	8614.01
275.284	8620.8
275.353	8615.02
275.421	8591.3
275.49	8606.89
275.559	8595.1
275.627	8584.18
275.696	8587.21
275.765	8582.88
275.833	8581.49
275.902	8579.71
275.971	8591.11
276.039	8605.88
276.108	8605.31
276.177	8607.13
276.245	8591.93
276.314	8587.98
276.383	8598.38
276.451	8534.14
276.52	8540.54
276.588	8553.73
276.657	8561.24
276.725	8550.36
276.794	8546.75
276.863	8561.86
276.931	8541.55
277	8553.15
277.068	8560.7
277.137	8573.55
277.205	8571.1
277.274	8592.08
277.342	8601.32
277.411	8581.02
277.48	8563.98
277.548	8553.68
277.617	8552.81
277.685	8547.86
277.754	8551.47
277.822	8537.22
277.89	8549.16
277.959	8543.15
278.027	8526.4
278.096	8510.13
278.164	8539.45
278.233	8534.88
278.301	8521.31
278.37	8528.14
278.438	8517.02
278.507	8523.81
278.575	8500.66
278.643	8498.2
278.712	8475.25
278.78	8460.04
278.849	8478.85
278.917	8493.82
278.985	8495.02
279.054	8496.37
279.122	8513.55
279.191	8507.63
279.259	8501.81
279.327	8476.64
279.396	8487.03
279.464	8483.33
279.532	8494.2
279.601	8485.01
279.669	8485.06
279.737	8501.56
279.806	8510.13
279.874	8515.23
279.942	8516.67
280.011	8513.5
280.079	8517.54
280.147	8536.4
280.215	8542.23
280.284	8534.82
280.352	8520.67
280.42	8520.57
280.488	8513.93
280.557	8502.53
280.625	8509.7
280.693	8518.02
280.761	8518.93
280.83	8508.3
280.898	8516.82
280.966	8499.88
281.034	8465.32
281.102	8447.43
281.171	8442.66
281.239	8444.39
281.307	8436.5
281.375	8422.89
281.443	8449.02
281.512	8449.98
281.58	8458.35
281.648	8439.92
281.716	8438.77
281.784	8439.3
281.852	8436.99
281.92	8438.05
281.989	8451.91
282.057	8430.21
282.125	8467.46
282.193	8471.55
282.261	8475.98
282.329	8477.47
282.397	8485.55
282.465	8493.25
282.533	8508.02
282.601	8494.69
282.67	8474.58
282.738	8463.41
282.806	8475.68
282.874	8460.19
282.942	8460.67
283.01	8451.52
283.078	8457.59
283.146	8458.26
283.214	8469.04
283.282	8474.52
283.35	8484.39
283.418	8474.24
283.486	8490.31
283.554	8447.57
283.622	8443.86
283.69	8440.73
283.758	8431.49
283.826	8430.34
283.894	8445.93
283.962	8471.15
284.03	8491.75
284.098	8489.34
284.165	8489.05
284.233	8490.88
284.301	8487.03
284.369	8478.37
284.437	8475.72
284.505	8477.94
284.573	8493.57
284.641	8484.05
284.709	8491.41
284.777	8474.57
284.845	8486.5
284.912	8483.71
284.98	8489.63
285.048	8486.98
285.116	8492.76
285.184	8509.41
285.252	8510.32
285.319	8491.7
285.387	8478.17
285.455	8455.7
285.523	8464.31
285.591	8463.78
285.659	8463.78
285.726	8475.24
285.794	8460.61
285.862	8449.59
285.93	8448.68
285.997	8439.97
286.065	8436.46
286.133	8427.5
286.201	8429
286.269	8416.44
286.336	8410.95
286.404	8407.2
286.472	8416.77
286.539	8392.62
286.607	8373.18
286.675	8372.17
286.743	8381.46
286.81	8381.02
286.878	8400.32
286.946	8392.81
287.013	8394.83
287.081	8391.32
287.149	8377.56
287.216	8394.78
287.284	8392.62
287.352	8392.71
287.419	8392.28
287.487	8402.43
287.555	8401.08
287.622	8399.02
287.69	8404.21
287.758	8415.04
287.825	8415.86
287.893	8405.08
287.96	8413.02
288.028	8429.42
288.096	8437.17
288.163	8437.03
288.231	8423.94
288.298	8420.14
288.366	8437.8
288.433	8435.3
288.501	8430.34
288.569	8432.7
288.636	8430.97
288.704	8450.65
288.771	8455.75
288.839	8445.84
288.906	8438.57
288.974	8451.37
289.041	8449.45
289.109	8441.03
289.176	8450.89
289.244	8456.57
289.311	8475.72
289.379	8488.57
289.446	8488.18
289.514	8482.55
289.581	8481.78
289.649	8487.61
289.716	8493.62
289.783	8482.84
289.851	8503.39
289.918	8503.44
289.986	8514.41
290.053	8519.89
290.121	8510.03
290.188	8517.49
290.255	8546.51
290.323	8545.26
290.39	8537.65
290.458	8545.35
290.525	8551.89
290.592	8543.38
290.66	8539.57
290.727	8526.44
290.794	8543.71
290.862	8540.83
290.929	8548.53
290.996	8548.86
291.064	8555.17
291.131	8561.33
291.198	8572.54
291.266	8572.3
291.333	8570.23
291.4	8572.45
291.468	8588.18
291.535	8587.13
291.602	8582.07
291.669	8573.17
291.737	8577.74
291.804	8582.36
291.871	8600.79
291.938	8606.62
292.006	8635.16
292.073	8651.33
292.14	8667.4
292.207	8656.81
292.275	8665.91
292.342	8672.65
292.409	8703.41
292.476	8724.54
292.543	8715.63
292.611	8717.22
292.678	8733.01
292.745	8765.01
292.812	8785.23
292.879	8781.96
292.946	8789.42
293.014	8810.45
293.081	8821.91
293.148	8841.98
293.215	8860.32
293.282	8856.56
293.349	8871.24
293.416	8851.6
293.484	8864.79
293.551	8873.17
293.618	8893.38
293.685	8915.29
293.752	8909.99
293.819	8903.93
293.886	8892.86
293.953	8903.4
294.02	8912.78
294.087	8916.1
294.154	8909.61
294.221	8918.71
294.288	8920.92
294.356	8939.69
294.423	8942.82
294.49	8935.94
294.557	8943.16
294.624	8930.69
294.691	8942.82
294.758	8939.74
294.825	8948.16
294.892	8940.7
294.959	8944.31
295.026	8945.18
295.093	8935.89
295.16	8940.56
295.226	8944.36
295.293	8972.86
295.36	8979.6
295.427	8998.76
295.494	9013.83
295.561	9023.7
295.628	9048.21
295.695	9063.76
295.762	9064.68
295.829	9075.66
295.896	9092.84
295.963	9097.7
296.03	9107.38
296.096	9118.5
296.163	9135.35
296.23	9151.09
296.297	9162.74
296.364	9155.81
296.431	9166.12
296.498	9164.72
296.564	9183.78
296.631	9181.62
296.698	9170.25
296.765	9186.19
296.832	9174.49
296.899	9157.01
296.965	9172.85
297.032	9148.82
297.099	9169.67
297.166	9178.82
297.233	9175.98
297.299	9171.45
297.366	9179.74
297.433	9181.32
297.5	9189.22
297.566	9187.63
297.633	9189.17
297.7	9199.19
297.767	9198.9
297.833	9204.58
297.9	9205.78
297.967	9190.48
298.033	9206.17
298.1	9239.98
298.167	9239.93
298.234	9242.58
298.3	9258.75
298.367	9253.65
298.434	9264
298.5	9254.66
298.567	9252.21
298.634	9252.83
298.7	9269.15
298.767	9271.27
298.834	9290.72
298.9	9282.44
298.967	9279.31
299.033	9292.6
299.1	9303.2
299.167	9326.6
299.233	9320.58
299.3	9339.4
299.366	9365.02
299.433	9381.29
299.5	9347.15
299.566	9346.91
299.633	9366.22
299.699	9380.62
299.766	9377.05
299.832	9381.34
299.899	9386.16
299.965	9399.78
300.032	9394.25
300.099	9397.18
300.165	9402.87
300.232	9397.76
300.298	9399.3
300.365	9413.94
300.431	9415.1
300.498	9409.12
300.564	9414.81
300.631	9424.53
300.697	9435.95
300.763	9433.01
300.83	9429.59
300.896	9446.73
300.963	9457.66
301.029	9464.21
301.096	9462.09
301.162	9475
301.229	9464.93
301.295	9454.49
301.361	9455.98
301.428	9461.95
301.494	9450.87
301.561	9455.16
301.627	9459.35
301.693	9466.76
301.76	9470.57
301.826	9461.42
301.892	9474.42
301.959	9485.64
302.025	9485.21
302.092	9482.95
302.158	9490.41
302.224	9494.41
302.291	9484.49
302.357	9478.37
302.423	9471.15
302.49	9468.74
302.556	9486.61
302.622	9492.96
302.688	9511.02
302.755	9526.92
302.821	9539.73
302.887	9550.75
302.954	9545.74
303.02	9557.16
303.086	9563.13
303.152	9557.45
303.219	9554.36
303.285	9562.6
303.351	9568.28
303.417	9575.12
303.483	9562.6
303.55	9558.41
303.616	9559.86
303.682	9561.06
303.748	9554.85
303.815	9566.79
303.881	9577.87
303.947	9562.51
304.013	9563.47
304.079	9552.35
304.145	9532.41
304.212	9530.67
304.278	9524.75
304.344	9522.87
304.41	9507.17
304.476	9498.7
304.542	9498.84
304.608	9508.18
304.674	9483.67
304.741	9475
304.807	9477.79
304.873	9483.96
304.939	9490.51
305.005	9464.84
305.071	9459.54
305.137	9459.01
305.203	9433.63
305.269	9428.43
305.335	9440.04
305.401	9440.67
305.467	9438.88
305.533	9449.14
305.599	9454.25
305.666	9469.85
305.732	9468.79
305.798	9477.94
305.864	9501.97
305.93	9502.74
305.996	9505.58
306.062	9509.68
306.128	9502.6
306.194	9485.55
306.259	9485.4
306.325	9482.23
306.391	9497.15
306.457	9510.68
306.523	9516.13
306.589	9543.82
306.655	9536.55
306.721	9515.74
306.787	9498.55
306.853	9510.83
306.919	9495.76
306.985	9490.03
307.051	9479.77
307.117	9474.52
307.183	9471.01
307.248	9442.4
307.314	9450.3
307.38	9447.07
307.446	9459.73
307.512	9446.78
307.578	9448.47
307.644	9443.65
307.709	9450.01
307.775	9446.54
307.841	9439.99
307.907	9443.31
307.973	9422.8
308.039	9420.44
308.104	9427.32
308.17	9429.49
308.236	9417.74
308.302	9418.94
308.368	9407.39
308.433	9401.71
308.499	9402.43
308.565	9391.55
308.631	9399.68
308.696	9376.71
308.762	9368
308.828	9360.2
308.894	9347.63
308.959	9327.79
309.025	9316.09
309.091	9308.53
309.156	9298.66
309.222	9297.31
309.288	9288.84
309.354	9258.99
309.419	9256.82
309.485	9239.15
309.551	9244.21
309.616	9226.3
309.682	9225.14
309.748	9217.1
309.813	9210.94
309.879	9195.96
309.945	9186.33
310.01	9173.33
310.076	9176.41
310.141	9170.4
310.207	9151.14
310.273	9153.59
310.338	9163.32
310.404	9154.12
310.469	9139.05
310.535	9130.53
310.601	9113.24
310.666	9108.86
310.732	9124.55
310.797	9110.21
310.863	9103.61
310.928	9100.14
310.994	9107.13
311.059	9101.44
311.125	9094.8
311.191	9110.88
311.256	9097.6
311.322	9099.81
311.387	9078.92
311.453	9451.85
311.518	9427.73
311.584	9425.47
311.649	9429.95
311.715	9416.32
311.78	9411.41
311.846	9404.14
311.911	9413.92
311.976	9415.84
312.042	9406.6
312.107	9394.61
312.173	9391.15
312.238	9386.38
312.304	9377.09
312.369	9362.65
312.434	9351.24
312.5	9353.02
312.565	9311.85
312.631	9320.61
312.696	9314.84
312.761	9322.3
312.827	8937.57
312.892	8972.86
312.958	8975.27
313.023	8971.32
313.088	8972.09
313.154	8966.27
313.219	8954.19
313.284	8941.33
313.35	8937.72
313.415	8926.46
313.48	8917.94
313.546	8913.89
313.611	8921.64
313.676	8907.64
313.741	8897.24
313.807	8905.37
313.872	8901.67
313.937	8917.22
314.003	8931.95
314.068	8930.79
314.133	8934.4
314.198	8922.37
314.264	8901.33
314.329	8885.92
314.394	8887.99
314.459	8883.28
314.525	8900.03
314.59	8892.42
314.655	8878.37
314.72	8880.58
314.785	8887.37
314.851	8890.31
314.916	8877.45
314.981	8863.54
315.046	8860.41
315.111	8855.55
315.176	8844.96
315.242	8850.88
315.307	8842.51
315.372	8815.69
315.437	8807.66
315.502	8796.01
315.567	8812.08
315.632	8796.01
315.698	8800.77
315.763	8794.99
315.828	8786.04
315.893	8781.42
315.958	8788.26
316.023	8782.14
316.088	8761.4
316.153	8734.45
316.218	8724.68
316.283	8711.64
316.348	8690.46
316.413	8689.55
316.479	8673.38
316.544	8635.46
316.609	8607.16
316.674	8580.45
316.739	8549.23
316.804	8520.93
316.869	8488.45
316.934	8446.1
316.999	8420.84
317.064	8370.18
317.129	8321.86
317.194	8287.85
317.259	8236.03
317.324	8184.22
317.389	8143.33
317.454	8110.81
317.518	8076.13
317.583	8052.22
317.648	8028.26
317.713	7995.02
317.778	7932.54
317.843	7910.32
317.908	7874.11
317.973	7834.24
318.038	7796.44
318.103	7760.28
318.168	7725.37
318.233	7691.52
318.297	7646.08
318.362	7609.39
318.427	7575.93
318.492	7554.15
318.557	7508.73
318.622	7484.78
318.687	7459.84
318.751	7418.12
318.816	7382.5
318.881	7353.03
318.946	7297.75
319.011	7253.63
319.075	7217.73
319.14	7188.51
319.205	7142.52
319.27	7111.58
319.335	7067.9
319.399	7035.71
319.464	7011.83
319.529	6962.11
319.594	6928.67
319.658	6902.92
319.723	6863.04
319.788	6832.02
319.853	6773.99
319.917	6748.05
319.982	6697.57
320.047	6662.56
320.112	6635.19
320.176	6582.71
320.241	6550.53
320.306	6520.81
320.37	6475.11
320.435	6441.21
320.5	6416.63
320.564	6378.42
320.629	6334.12
320.694	6305.56
320.758	6265.48
320.823	6216.34
320.888	6189.42
320.952	6142.2
321.017	6102.27
321.082	6063.69
321.146	6033.36
321.211	6005.29
321.275	5963.32
321.34	5921.93
321.405	5880.58
321.469	5835.45
321.534	5798.05
321.598	5745.59
321.663	5715.08
321.727	5686.88
321.792	5641.95
321.857	5597.83
321.921	5559.09
321.986	5519.46
322.05	5461.09
322.115	5419.82
322.179	5384.21
322.244	5328.25
322.308	5295.42
322.373	5246.93
322.437	5202.94
322.502	5175.19
322.566	5128.57
322.631	5093.84
322.695	5054.04
322.76	5007.25
322.824	4974.4
322.889	4937.92
322.953	4895.41
323.018	4826.56
323.082	4762.99
323.146	4713.08
323.211	4658.17
323.275	4610.02
323.34	4568.59
323.404	4536.92
323.468	4494.71
323.533	4446.25
323.597	4407.18
323.662	4357.77
323.726	4320.5
323.79	4275.22
323.855	4205.32
323.919	4158.26
323.983	4110.11
324.048	4044.56
324.112	4200.29
324.177	4071.44
324.241	3858.17
324.305	3652.84
324.37	3454.1
324.434	3260.58
324.498	3216.95
324.562	3166.5
324.627	3110.78
324.691	3055.48
324.755	2988.43
324.82	2910.77
324.884	2836.71
324.948	2758.83
325.012	2661.18
325.077	2540.04
