Data from 20250704_urea_1M_MAYP1162681_11-32-00-664.txt Node
Date: Fri Jul 04 11:32:00 BST 2025
User: adleo
Spectrometer: MAYP116268
Trigger mode: 0
Integration Time (sec): 1.000000E0
Scans to average: 1
Electric dark correction enabled: true
Nonlinearity correction enabled: true
Boxcar width: 10
XAxis mode: Wavelengths
Number of Pixels in Spectrum: 2068
>>>>>Begin Spectral Data<<<<<
179.565	1249.6
179.642	1307.36
179.718	1353.55
179.795	1393.64
179.871	1427.05
179.948	1445.43
180.024	1468.99
180.101	1491.04
180.177	1505.68
180.254	1529.33
180.33	1552.25
180.407	1608.65
180.483	1706.1
180.56	1801.74
180.636	1888.67
180.712	1876.12
180.789	1888.1
180.865	1898.98
180.942	1911.67
181.018	1921.09
181.095	1932.07
181.171	1936.92
181.248	1940.97
181.324	1957.14
181.4	1968.17
181.477	1978.63
181.553	1992.84
181.63	2013.39
181.706	2030.32
181.782	2040.45
181.859	2040.11
181.935	2046.96
182.011	2043.68
182.088	2063.37
182.164	2082.98
182.24	2097.86
182.317	2106.51
182.393	2106.51
182.469	2124.21
182.546	2137.1
182.622	2144.95
182.698	2139.71
182.775	2152.65
182.851	2165.17
182.927	2154.65
183.003	2147.09
183.08	2142.1
183.156	2150.52
183.232	2146.09
183.308	2136.01
183.385	2142.47
183.461	2164.6
183.537	2162.22
183.613	2175.87
183.69	2166.88
183.766	2154.93
183.842	2160.88
183.918	2168.87
183.995	2180.43
184.071	2182.77
184.147	2174.39
184.223	2158.89
184.299	2174.21
184.375	2163.27
184.452	2170.6
184.528	2222.13
184.604	2231.79
184.68	2245.01
184.756	2253.72
184.832	2259.38
184.908	2264.33
184.985	2265.28
185.061	2244.96
185.137	2256.48
185.213	2243.39
185.289	2241.73
185.365	2235.45
185.441	2234.59
185.517	2247.16
185.593	2243.73
185.669	2241.78
185.745	2250.16
185.822	2269.32
185.898	2258.04
185.974	2268.51
186.05	2258.75
186.126	2227.92
186.202	2222.5
186.278	2217.22
186.354	2207.41
186.43	2213.41
186.506	2210.51
186.582	2207.89
186.658	2216.98
186.734	2196.48
186.81	2201.52
186.886	2204.8
186.962	2218.17
187.038	2216.36
187.114	2207.03
187.19	2214.22
187.266	2203.56
187.341	2205.32
187.417	2201.23
187.493	2204.85
187.569	2204.42
187.645	2198.85
187.721	2183.72
187.797	2192.66
187.873	2201.32
187.949	2196.85
188.025	2191.19
188.101	2195.52
188.176	2203.7
188.252	2196.56
188.328	2205.84
188.404	2203.31
188.48	2198.27
188.556	2191.9
188.632	2189.85
188.707	2194.7
188.783	2190.28
188.859	2184.48
188.935	2176.77
189.011	2183.48
189.086	2176.72
189.162	2167.83
189.238	2166.16
189.314	2163.93
189.39	2154.93
189.465	2143.04
189.541	2157.69
189.617	2140.81
189.693	2135.57
189.768	2137.24
189.844	2163.61
189.92	2155.19
189.996	2166.7
190.071	2178.17
190.147	2173.7
190.223	2180.22
190.298	2171.84
190.374	2160.66
190.45	2172.93
190.526	2178.88
190.601	2171.79
190.677	2172.26
190.753	2200.59
190.828	2203.2
190.904	2221.33
190.98	2235.42
191.055	2245.55
191.131	2239.22
191.207	2263.82
191.282	2275.43
191.358	2267.87
191.433	2251.87
191.509	2265.23
191.585	2263.28
191.66	2264
191.736	2272.04
191.811	2266.71
191.887	2282.32
191.963	2304.54
192.038	2310.4
192.114	2310.06
192.189	2315.87
192.265	2312.21
192.34	2292.54
192.416	2290.45
192.491	2285.07
192.567	2292.4
192.642	2295.88
192.718	2293.07
192.793	2277.08
192.869	2271.51
192.944	2272.65
193.02	2278.22
193.095	2280.89
193.171	2283.17
193.246	2282.89
193.322	2281.7
193.397	2281.32
193.473	2264.46
193.548	2246.52
193.624	2255.33
193.699	2258.23
193.775	2273.66
193.85	2276.51
193.925	2283.94
194.001	2285.08
194.076	2275.61
194.152	2262.95
194.227	2256.04
194.302	2247.34
194.378	2252.38
194.453	2250.29
194.529	2261.43
194.604	2248.77
194.679	2242.11
194.755	2226.12
194.83	2239.55
194.905	2237.55
194.981	2248.3
195.056	2243.79
195.131	2250.45
195.207	2243.78
195.282	2230.79
195.357	2209.42
195.433	2223.65
195.508	2212.08
195.583	2218.17
195.659	2232.64
195.734	2239.92
195.809	2239.83
195.884	2249.01
195.96	2249.58
196.035	2263.95
196.11	2259.81
196.185	2272.7
196.261	2278.46
196.336	2309.21
196.411	2296.64
196.486	2300.59
196.561	2292.31
196.637	2301.11
196.712	2318.34
196.787	2322.39
196.862	2341.8
196.937	2352.13
197.013	2356.99
197.088	2368.03
197.163	2390.69
197.238	2409.18
197.313	2410.46
197.388	2426.7
197.464	2456.65
197.539	2469.69
197.614	2465.22
197.689	2480.83
197.764	2498.65
197.839	2520.55
197.914	2511.88
197.989	2535.55
198.065	2550.98
198.14	2601.25
198.215	2628.11
198.29	2642.02
198.365	2657.12
198.44	2665.17
198.515	2695.47
198.59	2713.81
198.665	2740.11
198.74	2749.73
198.815	2748.45
198.89	2771.36
198.965	2800.2
199.04	2796.58
199.115	2810.3
199.19	2851.32
199.265	2853.8
199.34	2860.9
199.415	2895.71
199.49	2921.49
199.565	2929.02
199.64	2950.9
199.715	2951.28
199.79	2959.1
199.865	2964.48
199.94	2964.39
200.015	2998.48
200.09	3002.05
200.165	3006.3
200.24	3012.93
200.315	3055.88
200.39	3075.24
200.464	3081.86
200.539	3084.06
200.614	3100.89
200.689	3127.07
200.764	3135.8
200.839	3154.48
200.914	3160.97
200.989	3148.7
201.063	3161.44
201.138	3147
201.213	3150.05
201.288	3131.21
201.363	3136.79
201.438	3135.84
201.512	3151.52
201.587	3132.3
201.662	3136.16
201.737	3150.33
201.812	3158.72
201.886	3122.49
201.961	3130.84
202.036	3119.5
202.111	3115.11
202.186	3086.09
202.26	3067.39
202.335	3043.92
202.41	3036.25
202.485	3019.8
202.559	3001.83
202.634	2975.23
202.709	2983.9
202.784	2963.3
202.858	2960.87
202.933	2939.99
203.008	2932.8
203.082	2911.54
203.157	2911.87
203.232	2871.18
203.306	2851.35
203.381	2818.55
203.456	2796.34
203.53	2773.92
203.605	2752.25
203.68	2732.94
203.754	2725.23
203.829	2709.55
203.904	2688.64
203.978	2677.87
204.053	2683.11
204.127	2666.2
204.202	2665.34
204.277	2645.77
204.351	2640.19
204.426	2629.33
204.5	2622.76
204.575	2588.71
204.65	2596.52
204.724	2588.9
204.799	2597.89
204.873	2590.79
204.948	2591.65
205.022	2577.23
205.097	2569.98
205.171	2584.46
205.246	2589.41
205.32	2588.27
205.395	2586.17
205.469	2578.08
205.544	2582.99
205.618	2563.08
205.693	2575.04
205.767	2561.42
205.842	2583.76
205.916	2578.57
205.991	2574.9
206.065	2580
206.14	2595.89
206.214	2592.89
206.289	2584.22
206.363	2593.65
206.438	2597.03
206.512	2602.13
206.586	2623.94
206.661	2629.8
206.735	2605.57
206.81	2604.95
206.884	2621.04
206.958	2609.81
207.033	2627.28
207.107	2634.48
207.181	2669.83
207.256	2665.26
207.33	2682.41
207.405	2694.8
207.479	2713.62
207.553	2720.72
207.628	2704.91
207.702	2716.44
207.776	2711.1
207.851	2713.25
207.925	2730.4
207.999	2729.93
208.073	2729.31
208.148	2730.4
208.222	2716.87
208.296	2754.78
208.371	2770.32
208.445	2785.57
208.519	2816.11
208.593	2829.22
208.668	2827.26
208.742	2830.5
208.816	2834.84
208.89	2851.62
208.965	2849.62
209.039	2860.68
209.113	2878.46
209.187	2903.79
209.261	2904.56
209.336	2929.58
209.41	2953.46
209.484	2956.75
209.558	2984.84
209.632	3002.71
209.707	3021.83
209.781	3057.07
209.855	3080.82
209.929	3111.85
210.003	3128.69
210.077	3139.71
210.151	3199.14
210.226	3247.35
210.3	3291.38
210.374	3332.11
210.448	3357.69
210.522	3391.96
210.596	3419.98
210.67	3452.1
210.744	3525.3
210.818	3584.52
210.892	3634.38
210.966	3662.64
211.041	3716.27
211.115	3747.64
211.189	3811.41
211.263	3871.32
211.337	3919.33
211.411	3980.09
211.485	4020.78
211.559	4086.55
211.633	4143.59
211.707	4169.66
211.781	4237.76
211.855	4262.78
211.929	4316.65
212.003	4366.33
212.077	4450.47
212.151	4544.47
212.225	4638.24
212.299	4709.56
212.373	4780.21
212.447	4865.95
212.52	4988.94
212.594	5091.48
212.668	5210.4
212.742	5303.47
212.816	5403.4
212.89	5504.01
212.964	5619.32
213.038	5745.63
213.112	5874.83
213.186	6017.77
213.26	6127.12
213.333	6213.55
213.407	6349.81
213.481	6493.86
213.555	6650.37
213.629	6777.23
213.703	6904.69
213.777	7047.41
213.85	7182.55
213.924	7375.48
213.998	7526.86
214.072	7687.16
214.146	7829.07
214.219	7977.11
214.293	8130.38
214.367	8300.15
214.441	8474.21
214.515	8630
214.588	8767.4
214.662	8905.16
214.736	9053.9
214.81	9232.02
214.883	9411.28
214.957	9584.13
215.031	9744.8
215.105	9891.52
215.178	10053.5
215.252	10225.99
215.326	10379.86
215.4	10532.91
215.473	10660.75
215.547	10817.05
215.621	10969.67
215.694	11144.31
215.768	11295.29
215.842	11458.9
215.915	11613.12
215.989	11767.3
216.063	11928.24
216.136	12101.9
216.21	12267.22
216.284	12445.95
216.357	12609.54
216.431	12772.37
216.504	12925.66
216.578	13106.13
216.652	13275.86
216.725	13428.04
216.799	13593.62
216.873	13748.75
216.946	13914.04
217.02	14057.02
217.093	14213.88
217.167	14338.1
217.24	14472.3
217.314	14616.67
217.387	14755.36
217.461	14893.8
217.535	15042.41
217.608	15174.29
217.682	15310.84
217.755	15454.97
217.829	15581.01
217.902	15715.44
217.976	15842.88
218.049	15978.08
218.123	16096.94
218.196	16234.26
218.27	16358.13
218.343	16461.51
218.417	16582
218.49	16704.9
218.563	16846.98
218.637	16959.52
218.71	17098.27
218.784	17219
218.857	17348.01
218.931	17460.69
219.004	17568.84
219.077	17702.33
219.151	17800.4
219.224	17900.59
219.298	18003.82
219.371	18112.73
219.444	18195.19
219.518	18302.99
219.591	18398.41
219.665	18521.25
219.738	18609.14
219.811	18695.69
219.885	18791.59
219.958	18895.78
220.031	18967.68
220.105	19052.45
220.178	19139.82
220.251	19211.43
220.325	19294.17
220.398	19371.8
220.471	19455.32
220.544	19541
220.618	19582.97
220.691	19661.71
220.764	19734.53
220.838	19809.23
220.911	19867.2
220.984	19961.27
221.057	20024.21
221.131	20092.01
221.204	20125.12
221.277	20206.66
221.35	20292.25
221.424	20353.7
221.497	20396.88
221.57	20451.04
221.643	20508.01
221.716	20569.31
221.79	20616.97
221.863	20666.95
221.936	20713.12
222.009	20757.84
222.082	20801.36
222.155	20839.05
222.229	20893.22
222.302	20941.13
222.375	20981.32
222.448	21032.51
222.521	21066
222.594	21093.72
222.667	21115.12
222.74	21154.49
222.814	21176.28
222.887	21207.08
222.96	21248.48
223.033	21289.54
223.106	21328.53
223.179	21354.32
223.252	21385.46
223.325	21409.32
223.398	21438.33
223.471	21463.54
223.544	21482.53
223.617	21509.33
223.69	21534.34
223.763	21540.56
223.837	21561.91
223.91	21570.4
223.983	21557.09
224.056	21559.79
224.129	21577.72
224.202	21599.27
224.275	21609.49
224.348	21605
224.42	21600.81
224.493	21580.61
224.566	21584.86
224.639	21595.36
224.712	21595.12
224.785	21583.02
224.858	21585
224.931	21578.83
225.004	21571.55
225.077	21578.64
225.15	21548.9
225.223	21549.14
225.296	21573.43
225.369	21547.94
225.442	21546.68
225.514	21555.21
225.587	21559.74
225.66	21568.85
225.733	21564.9
225.806	21556.32
225.879	21557.33
225.952	21544.08
226.025	21559.65
226.097	21572.18
226.17	21562.83
226.243	21532.95
226.316	21526.63
226.389	21527.93
226.461	21524.37
226.534	21527.84
226.607	21515.45
226.68	21538.78
226.753	21535.74
226.825	21502.05
226.898	21514.24
226.971	21508.65
227.044	21506.77
227.117	21495.35
227.189	21489.71
227.262	21501.37
227.335	21490.38
227.407	21474.62
227.48	21469.42
227.553	21459.97
227.626	21427.15
227.698	21416.25
227.771	21422.76
227.844	21407.24
227.916	21392.06
227.989	21362.51
228.062	21329.83
228.134	21344.73
228.207	21323.38
228.28	21305.78
228.352	21291.85
228.425	21271.13
228.498	21264.67
228.57	21244.96
228.643	21242.36
228.716	21219.7
228.788	21192.18
228.861	21182.54
228.934	21182.01
229.006	21161.77
229.079	21136.13
229.151	21121.67
229.224	21090.24
229.296	21077.33
229.369	21090.58
229.442	21092.94
229.514	21073.76
229.587	21075.5
229.659	21040.46
229.732	21030.87
229.804	21024.75
229.877	21024.07
229.949	21022.63
230.022	21019.59
230.094	21003.25
230.167	20991.88
230.239	20966.57
230.312	20946.38
230.384	20946.28
230.457	20923.39
230.529	20911.44
230.602	20905.03
230.674	20890.67
230.747	20881.61
230.819	20873.9
230.892	20816.35
230.964	20793.31
231.037	20778.9
231.109	20749.7
231.181	20729.02
231.254	20701.5
231.326	20675.48
231.399	20655.57
231.471	20617.16
231.544	20565.35
231.616	20553.98
231.688	20523.43
231.761	20491.76
231.833	20466.41
231.905	20419.52
231.978	20406.99
232.05	20381.64
232.122	20352.34
232.195	20324.82
232.267	20313.5
232.339	20285.02
232.412	20280.68
232.484	20247.67
232.556	20222.7
232.629	20228.49
232.701	20214.51
232.773	20186.7
232.846	20157.21
232.918	20136.39
232.99	20114.18
233.062	20116.15
233.135	20096.06
233.207	20066.95
233.279	20057.31
233.351	20046.03
233.424	20027.43
233.496	19993.07
233.568	19993.31
233.64	19952.01
233.713	19929.17
233.785	19910.33
233.857	19879.68
233.929	19842.43
234.001	19837.46
234.074	19827.25
234.146	19778.86
234.218	19752.79
234.29	19725.37
234.362	19697.71
234.434	19655.25
234.507	19623.88
234.579	19575.4
234.651	19544.66
234.723	19520.61
234.795	19489.48
234.867	19454.4
234.939	19446.25
235.012	19422.88
235.084	19392.18
235.156	19387.75
235.228	19350.16
235.3	19315.85
235.372	19302.6
235.444	19287.37
235.516	19233.45
235.588	19204.24
235.66	19184.58
235.732	19144.68
235.804	19170.41
235.876	19151.09
235.948	19144.78
236.02	19124.78
236.092	19096.4
236.164	19058.37
236.236	19038.18
236.308	19001.61
236.38	18973.9
236.452	18923.64
236.524	18899.59
236.596	18890.53
236.668	18859.3
236.74	18828.17
236.812	18793.91
236.884	18764.51
236.956	18734.83
237.028	18705.53
237.1	18671.26
237.172	18655.22
237.244	18650.21
237.316	18588.62
237.388	18540.33
237.46	18495.32
237.532	18479.32
237.604	18440.24
237.675	18427.86
237.747	18398.99
237.819	18367.81
237.891	18336.92
237.963	18303.62
238.035	18268.68
238.107	18191.34
238.178	18179.53
238.25	18159.72
238.322	18156.5
238.394	18107.15
238.466	18067.15
238.538	18041.56
238.609	18014.14
238.681	17957.56
238.753	17908.26
238.825	17875.88
238.897	17861.13
238.968	17852.51
239.04	17808.12
239.112	17806.68
239.184	17770.39
239.255	17734.92
239.327	17714.15
239.399	17684.66
239.471	17672.22
239.542	17643.16
239.614	17636.22
239.686	17571.21
239.758	17548.46
239.829	17507.89
239.901	17504.9
239.973	17477.53
240.044	17455.31
240.116	17430.3
240.188	17405.14
240.259	17372.71
240.331	17334.54
240.403	17305.91
240.474	17252.8
240.546	17212.75
240.618	17156.61
240.689	17118.63
240.761	17082.15
240.833	17074.48
240.904	17042.72
240.976	17002.14
241.048	16965.03
241.119	16937.08
241.191	16916.41
241.262	16902.53
241.334	16859.97
241.405	16812.11
241.477	16782.42
241.549	16744.25
241.62	16712.25
241.692	16690.9
241.763	16673.79
241.835	16640.49
241.906	16610.03
241.978	16568
242.049	16554.8
242.121	16536.87
242.192	16520.43
242.264	16484.38
242.335	16436.14
242.407	16406.3
242.478	16371.79
242.55	16345.52
242.621	16309.28
242.693	16273.95
242.764	16230
242.836	16194.67
242.907	16170.38
242.979	16140.59
243.05	16111.72
243.122	16089.64
243.193	16054.75
243.264	15994.64
243.336	15967.8
243.407	15940.32
243.479	15930.35
243.55	15905.04
243.622	15884.75
243.693	15851.06
243.764	15833.85
243.836	15781.07
243.907	15748.92
243.978	15717.49
244.05	15697.54
244.121	15638.83
244.192	15618.3
244.264	15571.3
244.335	15548.6
244.407	15503.43
244.478	15472.92
244.549	15438.17
244.62	15387.46
244.692	15357.67
244.763	15348.71
244.834	15311.01
244.906	15276.84
244.977	15249.94
245.048	15225.55
245.119	15177.3
245.191	15135.8
245.262	15086.15
245.333	15080.03
245.405	15055.11
245.476	15033.8
245.547	15007.29
245.618	15004.25
245.689	14982.66
245.761	14965.98
245.832	14943.33
245.903	14931.08
245.974	14914.26
246.045	14882.78
246.117	14872.66
246.188	14830.34
246.259	14787.43
246.33	14763.43
246.401	14738.31
246.473	14695.7
246.544	14667.89
246.615	14652.85
246.686	14619.3
246.757	14604.88
246.828	14565.21
246.899	14553.55
246.97	14503.94
247.042	14462.15
247.113	14437.95
247.184	14421.95
247.255	14383.77
247.326	14346.5
247.397	14304.08
247.468	14278.25
247.539	14255.64
247.61	14213.65
247.681	14197.69
247.752	14183.33
247.823	14146.07
247.894	14125.77
247.965	14093.33
248.037	14059.87
248.108	14022.18
248.179	14004.97
248.25	13980.62
248.321	13965.68
248.392	13928.95
248.463	13932.71
248.534	13911.74
248.605	13891.63
248.675	13857.84
248.746	13836.1
248.817	13820.43
248.888	13804.81
248.959	13755.93
249.03	13737.08
249.101	13719.49
249.172	13688.88
249.243	13650.94
249.314	13641.2
249.385	13612.66
249.456	13597.29
249.527	13577.67
249.598	13556.41
249.669	13525.02
249.739	13495.62
249.81	13475.56
249.881	13430.54
249.952	13398.87
250.023	13364.74
250.094	13323.95
250.165	13291.7
250.235	13274.64
250.306	13246
250.377	13213.22
250.448	13199
250.519	13157.06
250.59	13148.19
250.66	13126.31
250.731	13119.46
250.802	13094.59
250.873	13076.32
250.944	13050.91
251.014	13013.46
251.085	13019
251.156	12997.74
251.227	12997.11
251.297	12986.41
251.368	12985.35
251.439	12977.49
251.51	12974.02
251.58	12942.98
251.651	12919.31
251.722	12906.49
251.792	12874.58
251.863	12846.38
251.934	12839.87
252.005	12851.53
252.075	12827.29
252.146	12813.16
252.217	12806.46
252.287	12797.3
252.358	12773.3
252.429	12772.57
252.499	12739.5
252.57	12722.05
252.641	12719.21
252.711	12699.93
252.782	12653.27
252.852	12645.07
252.923	12619.71
252.994	12604.67
253.064	12600
253.135	12567.7
253.205	12539.31
253.276	12538.59
253.347	12536.32
253.417	12505.9
253.488	12473.8
253.558	12443.72
253.629	12418.75
253.699	12397.16
253.77	12382.98
253.841	12359.07
253.911	12337.43
253.982	12331.74
254.052	12312.94
254.123	12289.76
254.193	12267.1
254.264	12303.4
254.334	12275.15
254.405	12245.46
254.475	12204.58
254.546	12183.95
254.616	12185.59
254.687	12172.43
254.757	12153.83
254.827	12135.99
254.898	12122.06
254.968	12104.8
255.039	12082.78
255.109	12072.65
255.18	12044.22
255.25	11994.52
255.321	11991.19
255.391	11961.36
255.461	11958.95
255.532	11914.12
255.602	11897.88
255.673	11859.27
255.743	11826.59
255.813	11792.56
255.884	11783.4
255.954	11782
256.024	11782.34
256.095	11761.37
256.165	11729.27
256.235	11720.02
256.306	11689.75
256.376	11688.25
256.446	11680.74
256.517	11669.51
256.587	11666.57
256.657	11650.95
256.728	11646.23
256.798	11622.8
256.868	11603.47
256.938	11586.65
257.009	11585.79
257.079	11576.82
257.149	11588.68
257.219	11546.5
257.29	11532.24
257.36	11499.47
257.43	11496.86
257.5	11459.9
257.571	11439.17
257.641	11431.22
257.711	11402.93
257.781	11403.56
257.852	11382.01
257.922	11345.34
257.992	11326.15
258.062	11307.98
258.132	11300.85
258.202	11282.2
258.273	11261.67
258.343	11259.02
258.413	11229.77
258.483	11209.81
258.553	11177.52
258.623	11143.35
258.693	11130.73
258.764	11127.74
258.834	11126.54
258.904	11101.76
258.974	11073.04
259.044	11054.73
259.114	11043.07
259.184	11028.32
259.254	11004.47
259.324	10975.46
259.394	10968.52
259.464	10978.16
259.535	10956.95
259.605	10932.91
259.675	10906.79
259.745	10900.33
259.815	10870.94
259.885	10849.2
259.955	10860.24
260.025	10829.79
260.095	10818.42
260.165	10807.86
260.235	10805.65
260.305	10783.34
260.375	10757.36
260.445	10771.14
260.515	10770.28
260.585	10769.89
260.655	10749.61
260.725	10743
260.795	10733.22
260.865	10733.42
260.934	10700.5
261.004	10691.88
261.074	10677.33
261.144	10682.29
261.214	10681.13
261.284	10668.51
261.354	10665.67
261.424	10645.76
261.494	10658.1
261.564	10643.26
261.634	10636.12
261.703	10604.56
261.773	10594.45
261.843	10586.93
261.913	10571.66
261.983	10536.58
262.053	10520.44
262.123	10508.06
262.192	10485.17
262.262	10483.68
262.332	10458.33
262.402	10452.02
262.472	10444.79
262.541	10406.74
262.611	10404.86
262.681	10379.47
262.751	10379.03
262.821	10363.42
262.89	10327.58
262.96	10316.3
263.03	10325.17
263.1	10315.48
263.169	10298.24
263.239	10286.48
263.309	10293.42
263.379	10284.7
263.448	10282.44
263.518	10279.93
263.588	10267.65
263.657	10269.09
263.727	10259.84
263.797	10243.51
263.867	10226.65
263.936	10183.49
264.006	10194.28
264.076	10174.19
264.145	10155.01
264.215	10128.76
264.285	10116.76
264.354	10084.73
264.424	10063.59
264.494	10029.67
264.563	10006.79
264.633	10017.58
264.702	10014.35
264.772	9981.98
264.842	9960.88
264.911	9948.31
264.981	9916.41
265.05	9901.19
265.12	9884.57
265.19	9871.71
265.259	9869.4
265.329	9864.53
265.398	9864.82
265.468	9871.61
265.537	9851.14
265.607	9846.62
265.676	9838.91
265.746	9833.03
265.815	9836.07
265.885	9824.51
265.955	9805.77
266.024	9792.19
266.094	9758.14
266.163	9752.21
266.232	9750.14
266.302	9737.38
266.371	9726.98
266.441	9714.74
266.51	9710.89
266.58	9694.18
266.649	9675.97
266.719	9673.47
266.788	9665.57
266.858	9673.13
266.927	9639.61
266.996	9632.96
267.066	9625.88
267.135	9601.37
267.205	9598.48
267.274	9591.4
267.343	9591.83
267.413	9576.95
267.482	9578.88
267.552	9581.48
267.621	9557.55
267.69	9524.61
267.76	9516.23
267.829	9508.81
267.898	9499.04
267.968	9483.39
268.037	9478.71
268.106	9479.53
268.176	9451.84
268.245	9438.21
268.314	9419.77
268.384	9414.18
268.453	9401.95
268.522	9395.64
268.592	9407.44
268.661	9390.54
268.73	9384.23
268.799	9361.93
268.869	9368.58
268.938	9342.48
269.007	9322.98
269.076	9320.18
269.146	9327.79
269.215	9318.45
269.284	9326.88
269.353	9311.71
269.422	9295.82
269.492	9279.6
269.561	9236.36
269.63	9238.53
269.699	9218.54
269.768	9207.57
269.838	9209.64
269.907	9209.3
269.976	9183.83
270.045	9150.66
270.114	9146.32
270.183	9127.64
270.253	9125.57
270.322	9101.36
270.391	9085.47
270.46	9092.84
270.529	9084.12
270.598	9077.72
270.667	9069.44
270.736	9041.61
270.806	9037.13
270.875	9043.77
270.944	9030.25
271.013	9058.94
271.082	9043.78
271.151	9052.92
271.22	9025.24
271.289	9006.47
271.358	8996.12
271.427	8990.63
271.496	8981.2
271.565	8962.85
271.634	8957.94
271.703	8963.67
271.772	8968.68
271.841	8962.28
271.91	8937.77
271.979	8928.34
272.048	8910.33
272.117	8905.09
272.186	8893.44
272.255	8894.59
272.324	8889.68
272.393	8890.21
272.462	8862.19
272.531	8862
272.6	8841.16
272.669	8845.54
272.738	8840.67
272.807	8830.42
272.876	8809.97
272.945	8840.72
273.013	8839.57
273.082	8843.76
273.151	8820.75
273.22	8813.33
273.289	8808.52
273.358	8822.96
273.427	8812.28
273.496	8815.31
273.564	8813.58
273.633	8815.36
273.702	8798.22
273.771	8789.99
273.84	8782.34
273.909	8783.88
273.977	8778.63
274.046	8775.89
274.115	8787.29
274.184	8768.38
274.253	8765.88
274.322	8777.52
274.39	8746.53
274.459	8734.93
274.528	8707.16
274.597	8695.51
274.665	8692.86
274.734	8698.11
274.803	8681.6
274.872	8675.53
274.94	8653.01
275.009	8712.58
275.078	8701.22
275.147	8697.52
275.215	8691.45
275.284	8702.86
275.353	8693.76
275.421	8667.77
275.49	8681.93
275.559	8666.62
275.627	8661.38
275.696	8648.38
275.765	8644.63
275.833	8631.68
275.902	8637.65
275.971	8651.85
276.039	8666.38
276.108	8670.04
276.177	8671.53
276.245	8661.96
276.314	8667.3
276.383	8678.08
276.451	8610.33
276.52	8612.78
276.588	8623.66
276.657	8627.22
276.725	8612.15
276.794	8612.3
276.863	8627.84
276.931	8598.05
277	8598.77
277.068	8606.76
277.137	8626.73
277.205	8629.04
277.274	8652.62
277.342	8657.63
277.411	8636.36
277.48	8624.04
277.548	8617.06
277.617	8614.85
277.685	8612.01
277.754	8606.86
277.822	8597.57
277.89	8611.86
277.959	8603.4
278.027	8586.7
278.096	8575.29
278.164	8603.3
278.233	8593.53
278.301	8579.96
278.37	8586.8
278.438	8577.08
278.507	8581.94
278.575	8557.2
278.643	8550.27
278.712	8531.21
278.78	8511.34
278.849	8521.92
278.917	8528.71
278.985	8519.85
279.054	8520.72
279.122	8529.28
279.191	8529.77
279.259	8531.07
279.327	8505.8
279.396	8523.6
279.464	8516.34
279.532	8527.26
279.601	8525.91
279.669	8525.63
279.737	8542.52
279.806	8546.8
279.874	8561.19
279.942	8559.22
280.011	8560.71
280.079	8567.73
280.147	8588.76
280.215	8602.05
280.284	8602.58
280.352	8591.46
280.42	8601.71
280.488	8593.77
280.557	8589.05
280.625	8595.6
280.693	8592.57
280.761	8599.59
280.83	8581.93
280.898	8593.77
280.966	8572.59
281.034	8529.91
281.102	8513.6
281.171	8506.52
281.239	8518.75
281.307	8503.59
281.375	8494.59
281.443	8515.62
281.512	8512.88
281.58	8514.56
281.648	8498.78
281.716	8493.68
281.784	8495.6
281.852	8484.2
281.92	8486.6
281.989	8495.55
282.057	8475.68
282.125	8518.42
282.193	8511.35
282.261	8509.81
282.329	8510.24
282.397	8518.47
282.465	8528.57
282.533	8549.74
282.601	8540.94
282.67	8515.29
282.738	8512.74
282.806	8524.86
282.874	8507.54
282.942	8509.99
283.01	8502.67
283.078	8508.69
283.146	8509.56
283.214	8518.51
283.282	8526.5
283.35	8536.31
283.418	8530.73
283.486	8534.19
283.554	8494.82
283.622	8499.87
283.69	8495.49
283.758	8490.1
283.826	8491.26
283.894	8498.53
283.962	8514.6
284.03	8524.66
284.098	8524.42
284.165	8520.95
284.233	8516.14
284.301	8512.05
284.369	8506.23
284.437	8497.42
284.505	8491.65
284.573	8507.58
284.641	8493.14
284.709	8498.38
284.777	8482.46
284.845	8484.57
284.912	8493.47
284.98	8493.81
285.048	8486.88
285.116	8496.7
285.184	8510.56
285.252	8511.52
285.319	8495.31
285.387	8491.55
285.455	8480
285.523	8485.39
285.591	8481.11
285.659	8479.86
285.726	8493.62
285.794	8474.33
285.862	8472.74
285.93	8472.6
285.997	8468.02
286.065	8466.1
286.133	8456.71
286.201	8448.53
286.269	8438.33
286.336	8422.98
286.404	8416.29
286.472	8429.58
286.539	8407.45
286.607	8390.36
286.675	8391.52
286.743	8404.27
286.81	8393.15
286.878	8402.48
286.946	8395.41
287.013	8396.57
287.081	8402.39
287.149	8390.6
287.216	8409.22
287.284	8405.99
287.352	8408.3
287.419	8404.84
287.487	8422.74
287.555	8423.65
287.622	8426.49
287.69	8433.04
287.758	8446.56
287.825	8446.7
287.893	8430.82
287.96	8443.04
288.028	8453.48
288.096	8454.64
288.163	8458.54
288.231	8446.27
288.298	8443.91
288.366	8458.78
288.433	8457.62
288.501	8445.02
288.569	8450.17
288.636	8450.74
288.704	8464.51
288.771	8470.04
288.839	8459.45
288.906	8452.04
288.974	8463.5
289.041	8458.97
289.109	8445.07
289.176	8451.18
289.244	8453.92
289.311	8471.68
289.379	8479.19
289.446	8481.11
289.514	8481.26
289.581	8478.13
289.649	8484
289.716	8489.24
289.783	8485.54
289.851	8508.06
289.918	8508.06
289.986	8513.93
290.053	8512.92
290.121	8511.33
290.188	8515.42
290.255	8537.56
290.323	8534.38
290.39	8529.13
290.458	8537.89
290.525	8556.22
290.592	8557.14
290.66	8555.89
290.727	8543.66
290.794	8563.01
290.862	8559.21
290.929	8561.13
290.996	8560.46
291.064	8573.84
291.131	8582.12
291.198	8586.4
291.266	8584.33
291.333	8592.03
291.4	8592.56
291.468	8613.5
291.535	8608.64
291.602	8612
291.669	8610.37
291.737	8616.43
291.804	8618.98
291.871	8636.21
291.938	8643.05
292.006	8668.56
292.073	8685.88
292.14	8700.51
292.207	8686.08
292.275	8690.55
292.342	8701.48
292.409	8724.19
292.476	8748.07
292.543	8742.92
292.611	8744.41
292.678	8766.65
292.745	8789.27
292.812	8805.25
292.879	8801.07
292.946	8812.23
293.014	8832.06
293.081	8840.34
293.148	8850.79
293.215	8863.69
293.282	8857.57
293.349	8862.97
293.416	8843.37
293.484	8862.34
293.551	8870.71
293.618	8891.75
293.685	8914.85
293.752	8902
293.819	8900.27
293.886	8884.24
293.953	8895.84
294.02	8910.38
294.087	8908.45
294.154	8902.77
294.221	8910.91
294.288	8912.49
294.356	8923.86
294.423	8923.57
294.49	8912.21
294.557	8926.22
294.624	8917.6
294.691	8937.29
294.758	8942.44
294.825	8951.34
294.892	8939.36
294.959	8944.31
295.026	8948.36
295.093	8944.12
295.16	8949.99
295.226	8954.42
295.293	8981.87
295.36	8987.64
295.427	9002.33
295.494	9015.47
295.561	9022.55
295.628	9044.51
295.695	9064.24
295.762	9066.99
295.829	9079.07
295.896	9101.89
295.963	9108.25
296.03	9116.09
296.096	9122.88
296.163	9134.63
296.23	9144.02
296.297	9158.12
296.364	9156.34
296.431	9168.91
296.498	9164.91
296.564	9190.91
296.631	9192.74
296.698	9170.88
296.765	9188.5
296.832	9175.6
296.899	9161.01
296.965	9175.93
297.032	9158.16
297.099	9170.3
297.166	9174.82
297.233	9168.03
297.299	9159.8
297.366	9162.93
297.433	9175.64
297.5	9190.04
297.566	9187.1
297.633	9188.21
297.7	9193.75
297.767	9186.62
297.833	9185.66
297.9	9192.83
297.967	9179.5
298.033	9198.08
298.1	9231.07
298.167	9220.38
298.234	9222.3
298.3	9235.35
298.367	9233.04
298.434	9237.23
298.5	9223.22
298.567	9223.94
298.634	9225.29
298.7	9244.3
298.767	9248.88
298.834	9256.97
298.9	9242.47
298.967	9235.44
299.033	9252.92
299.1	9267.8
299.167	9293.27
299.233	9290.48
299.3	9299.48
299.366	9311.62
299.433	9324.57
299.5	9294.81
299.566	9297.32
299.633	9316.82
299.699	9324.14
299.766	9314.84
299.832	9326.83
299.899	9342.87
299.965	9355.34
300.032	9347.16
300.099	9353.9
300.165	9357.12
300.232	9356.4
300.298	9364.54
300.365	9382.6
300.431	9376.91
300.498	9369.02
300.564	9370.94
300.631	9384.04
300.697	9400.27
300.763	9403.64
300.83	9399.4
300.896	9411.05
300.963	9424.25
301.029	9432.1
301.096	9433.83
301.162	9453.62
301.229	9441.53
301.295	9426.27
301.361	9425.54
301.428	9432.77
301.494	9416.35
301.561	9413.89
301.627	9414.8
301.693	9415.14
301.76	9417.98
301.826	9410.47
301.892	9419.48
301.959	9425.74
302.025	9426.41
302.092	9418.03
302.158	9425.16
302.224	9420.68
302.291	9418.9
302.357	9412.83
302.423	9405.75
302.49	9399.88
302.556	9410.52
302.622	9417.16
302.688	9427.71
302.755	9445.58
302.821	9454.49
302.887	9462.57
302.954	9466.28
303.02	9471.48
303.086	9480.63
303.152	9473.99
303.219	9475.82
303.285	9481.36
303.351	9492.87
303.417	9488.39
303.483	9484.44
303.55	9483.72
303.616	9489.83
303.682	9492.43
303.748	9489.45
303.815	9500.33
303.881	9508.52
303.947	9496.05
304.013	9489.93
304.079	9483.04
304.145	9463.25
304.212	9463.15
304.278	9460.31
304.344	9454
304.41	9443.36
304.476	9428.34
304.542	9426.46
304.608	9436.04
304.674	9416.4
304.741	9406.28
304.807	9409.89
304.873	9413.5
304.939	9423.95
305.005	9404.79
305.071	9400.26
305.137	9399.68
305.203	9377.44
305.269	9375.32
305.335	9386.59
305.401	9388.46
305.467	9391.11
305.533	9397.18
305.599	9399.25
305.666	9405.8
305.732	9406.71
305.798	9412.78
305.864	9435.22
305.93	9441.58
305.996	9434.79
306.062	9440.66
306.128	9430.21
306.194	9421.64
306.259	9417.84
306.325	9405.85
306.391	9416.34
306.457	9423.62
306.523	9426.02
306.589	9451.84
306.655	9446.63
306.721	9425.69
306.787	9413.89
306.853	9423.47
306.919	9405.9
306.985	9403.06
307.051	9398.92
307.117	9392.37
307.183	9389.29
307.248	9369.06
307.314	9371.47
307.38	9373.3
307.446	9370.79
307.512	9369.35
307.578	9370.22
307.644	9370.02
307.709	9373.68
307.775	9370.65
307.841	9370.41
307.907	9368.53
307.973	9346.38
308.039	9346.38
308.104	9355.38
308.17	9354.95
308.236	9343.29
308.302	9343.39
308.368	9331.45
308.433	9333.13
308.499	9326.44
308.565	9316.81
308.631	9315.22
308.696	9294.47
308.762	9284.17
308.828	9287.68
308.894	9264.19
308.959	9249.02
309.025	9234.05
309.091	9232.46
309.156	9224.61
309.222	9227.64
309.288	9217.19
309.354	9193.31
309.419	9188.02
309.485	9172.22
309.551	9182.53
309.616	9166.11
309.682	9169.19
309.748	9165.63
309.813	9154.99
309.879	9151.62
309.945	9138.81
310.01	9129.38
310.076	9133.52
310.141	9131.45
310.207	9112.96
310.273	9116.23
310.338	9116.95
310.404	9102.08
310.469	9082.87
310.535	9070.44
310.601	9044.83
310.666	9048.63
310.732	9064.67
310.797	9052.05
310.863	9043.1
310.928	9034.86
310.994	9040.93
311.059	9035.44
311.125	9030.19
311.191	9043.29
311.256	9032.51
311.322	9042.33
311.387	9022.11
311.453	9411.71
311.518	9385.19
311.584	9387.55
311.649	9393.13
311.715	9379.66
311.78	9383.99
311.846	9381.34
311.911	9389.19
311.976	9392.27
312.042	9376.77
312.107	9355.92
312.173	9350.77
312.238	9341.15
312.304	9332.67
312.369	9319.63
312.434	9311.59
312.5	9303.4
312.565	9268.65
312.631	9269.9
312.696	9258.68
312.761	9267.1
312.827	8864.02
312.892	8901.23
312.958	8892.61
313.023	8888.96
313.088	8887.61
313.154	8873.31
313.219	8864.02
313.284	8848.67
313.35	8840.19
313.415	8829.51
313.48	8826.96
313.546	8827.63
313.611	8840.82
313.676	8830.47
313.741	8818.58
313.807	8820.17
313.872	8825.13
313.937	8833.7
314.003	8847.51
314.068	8852.37
314.133	8857.62
314.198	8848.86
314.264	8828.54
314.329	8818.34
314.394	8817.86
314.459	8818.24
314.525	8840.91
314.59	8827.29
314.655	8816.51
314.72	8823.16
314.785	8828.59
314.851	8821.95
314.916	8806.55
314.981	8789.13
315.046	8778.15
315.111	8772.19
315.176	8757.36
315.242	8758.9
315.307	8760.68
315.372	8737.34
315.437	8726.17
315.502	8713.99
315.567	8725.3
315.632	8703.02
315.698	8702.2
315.763	8692.72
315.828	8680.88
315.893	8671.54
315.958	8674.47
316.023	8672.07
316.088	8655.51
316.153	8633.86
316.218	8628.18
316.283	8609.7
316.348	8595.55
316.413	8603.25
316.479	8592.04
316.544	8560.38
316.609	8531.22
316.674	8488.78
316.739	8458.37
316.804	8426.9
316.869	8393.22
316.934	8353.91
316.999	8328.84
317.064	8283.38
317.129	8243.01
317.194	8212.41
317.259	8164.4
317.324	8111.68
317.389	8063.68
317.454	8025.48
317.518	7992.63
317.583	7972.23
317.648	7948.42
317.713	7916.29
317.778	7852.99
317.843	7822.4
317.908	7789.85
317.973	7746.43
318.038	7722.57
318.103	7686.52
318.168	7658.67
318.233	7635.01
318.297	7589.87
318.362	7556.55
318.427	7516.08
318.492	7495.07
318.557	7444.74
318.622	7421.23
318.687	7405.66
318.751	7371.16
318.816	7339
318.881	7304.25
318.946	7246.04
319.011	7203.8
319.075	7165.54
319.14	7131.24
319.205	7088.23
319.27	7059.74
319.335	7020.82
319.399	6978.06
319.464	6947.75
319.529	6890.06
319.594	6842.5
319.658	6813.53
319.723	6772.65
319.788	6749.51
319.853	6693.45
319.917	6669.68
319.982	6614.93
320.047	6580.64
320.112	6551.4
320.176	6499.06
320.241	6467.61
320.306	6439.91
320.37	6401.07
320.435	6368.95
320.5	6339.82
320.564	6301.56
320.629	6258.13
320.694	6232.21
320.758	6193.62
320.823	6153.6
320.888	6127.46
320.952	6083.36
321.017	6040.9
321.082	6000.12
321.146	5965.39
321.211	5932.96
321.275	5891.52
321.34	5848.21
321.405	5800.68
321.469	5758.52
321.534	5718.11
321.598	5671.12
321.663	5640.47
321.727	5608.39
321.792	5561.25
321.857	5518.11
321.921	5477.22
321.986	5438.11
322.05	5375.52
322.115	5336.85
322.179	5293.05
322.244	5240.98
322.308	5207.3
322.373	5162.6
322.437	5123.51
322.502	5098.06
322.566	5051.88
322.631	5018.64
322.695	4982.25
322.76	4937.05
322.824	4898.55
322.889	4857.29
322.953	4811.48
323.018	4748.14
323.082	4686.59
323.146	4634.91
323.211	4588.29
323.275	4546.27
323.34	4501.92
323.404	4469.73
323.468	4427.44
323.533	4385.01
323.597	4344.23
323.662	4294.63
323.726	4262.2
323.79	4218.3
323.855	4149.85
323.919	4105.91
323.983	4054.85
324.048	3989.92
324.112	4143.34
324.177	4018.46
324.241	3814.28
324.305	3612.06
324.37	3411.22
324.434	3218.8
324.498	3176.52
324.562	3124.46
324.627	3065.44
324.691	3008.98
324.755	2945.91
324.82	2871.15
324.884	2795.31
324.948	2720.62
325.012	2630.47
325.077	2503.31
