Data from 20250704_urea_1.5M_MAYP1162681_11-45-29-616.txt Node
Date: Fri Jul 04 11:45:29 BST 2025
User: adleo
Spectrometer: MAYP116268
Trigger mode: 0
Integration Time (sec): 1.000000E0
Scans to average: 1
Electric dark correction enabled: true
Nonlinearity correction enabled: true
Boxcar width: 10
XAxis mode: Wavelengths
Number of Pixels in Spectrum: 2068
>>>>>Begin Spectral Data<<<<<
179.565	1262.23
179.642	1315.77
179.718	1361.84
179.795	1404.1
179.871	1438.6
179.948	1457.69
180.024	1480.34
180.101	1502.97
180.177	1517.75
180.254	1543.04
180.33	1566.35
180.407	1622.85
180.483	1723.09
180.56	1818.5
180.636	1907.76
180.712	1894.78
180.789	1906.47
180.865	1917.55
180.942	1928.86
181.018	1939.37
181.095	1951.59
181.171	1958.96
181.248	1961.1
181.324	1975.37
181.4	1981.6
181.477	1993.77
181.553	2006.56
181.63	2028.39
181.706	2045.99
181.782	2055.69
181.859	2054.93
181.935	2061.3
182.011	2061.3
182.088	2080.61
182.164	2101.17
182.24	2114.44
182.317	2125.19
182.393	2121.52
182.469	2135.32
182.546	2146.11
182.622	2149.35
182.698	2145.07
182.775	2153.53
182.851	2171.61
182.927	2164
183.003	2161.67
183.08	2156.1
183.156	2165.95
183.232	2156.86
183.308	2146.02
183.385	2153.34
183.461	2170.75
183.537	2171.42
183.613	2185.12
183.69	2171.66
183.766	2160.19
183.842	2166.71
183.918	2173.75
183.995	2186.16
184.071	2193.63
184.147	2188.64
184.223	2178.32
184.299	2191.93
184.375	2182.61
184.452	2186.89
184.528	2240.95
184.604	2251.32
184.68	2263.12
184.756	2272.16
184.832	2281.82
184.908	2287.44
184.985	2290.2
185.061	2275.02
185.137	2286.34
185.213	2273.07
185.289	2274.88
185.365	2265.74
185.441	2264.03
185.517	2273.6
185.593	2273.03
185.669	2266.84
185.745	2279.07
185.822	2296.72
185.898	2287.48
185.974	2298.04
186.05	2289.76
186.126	2251.35
186.202	2244.93
186.278	2241.51
186.354	2230.18
186.43	2236.41
186.506	2235.13
186.582	2233.13
186.658	2240.98
186.734	2214.91
186.81	2218.57
186.886	2220.81
186.962	2236.61
187.038	2234.23
187.114	2229.61
187.19	2235.08
187.266	2227.8
187.341	2228.28
187.417	2222.81
187.493	2223.62
187.569	2225.28
187.645	2221.05
187.721	2209.34
187.797	2215.15
187.873	2221.86
187.949	2216.96
188.025	2209.06
188.101	2208.91
188.176	2211.86
188.252	2203.87
188.328	2215.28
188.404	2212.95
188.48	2211.24
188.556	2201.01
188.632	2200.49
188.707	2198.72
188.783	2194.92
188.859	2190.68
188.935	2176.98
189.011	2183.88
189.086	2177.74
189.162	2167.85
189.238	2165.47
189.314	2164.04
189.39	2157.86
189.465	2148.48
189.541	2163.23
189.617	2151.53
189.693	2148.82
189.768	2155.1
189.844	2182.8
189.92	2175.62
189.996	2186.42
190.071	2197.46
190.147	2197.79
190.223	2206.74
190.298	2196.94
190.374	2185.09
190.45	2192.8
190.526	2202.83
190.601	2193.51
190.677	2194.41
190.753	2223.93
190.828	2228.4
190.904	2244.05
190.98	2256.95
191.055	2266.85
191.131	2259.19
191.207	2277.7
191.282	2285.97
191.358	2276.12
191.433	2258.41
191.509	2271.73
191.585	2267.69
191.66	2266.59
191.736	2274.63
191.811	2266.4
191.887	2286.2
191.963	2309.19
192.038	2319.75
192.114	2320.75
192.189	2328.74
192.265	2327.41
192.34	2305.56
192.416	2301.47
192.491	2297.37
192.567	2300.89
192.642	2301.7
192.718	2302.32
192.793	2288.33
192.869	2282.53
192.944	2283.38
193.02	2293.86
193.095	2297.95
193.171	2302.47
193.246	2302.47
193.322	2301.66
193.397	2302.52
193.473	2286.57
193.548	2267.01
193.624	2269.48
193.699	2267.96
193.775	2281.77
193.85	2283.15
193.925	2291.76
194.001	2292.05
194.076	2284.43
194.152	2276.34
194.227	2268.44
194.302	2259.69
194.378	2266.4
194.453	2266.49
194.529	2281.29
194.604	2261.4
194.679	2255.02
194.755	2238.66
194.83	2250.32
194.905	2243.09
194.981	2253.75
195.056	2246.19
195.131	2254.56
195.207	2257.08
195.282	2248.14
195.357	2228.05
195.433	2242.8
195.508	2231.1
195.583	2239.66
195.659	2253.18
195.734	2261.6
195.809	2260.84
195.884	2268.69
195.96	2267.93
196.035	2283.16
196.11	2277.16
196.185	2293.72
196.261	2298.1
196.336	2327.56
196.411	2312.51
196.486	2320.36
196.561	2311.37
196.637	2320.41
196.712	2335.31
196.787	2336.69
196.862	2351.06
196.937	2363.39
197.013	2368.2
197.088	2377.81
197.163	2399.43
197.238	2419.44
197.313	2416.15
197.388	2431.48
197.464	2463.39
197.539	2474.67
197.614	2467.62
197.689	2479.72
197.764	2497.1
197.839	2514.39
197.914	2508.86
197.989	2533.81
198.065	2551.1
198.14	2601.85
198.215	2628.57
198.29	2641.72
198.365	2654.29
198.44	2668.25
198.515	2696.36
198.59	2714.08
198.665	2743
198.74	2751.24
198.815	2749.95
198.89	2773.87
198.965	2805.33
199.04	2802.85
199.115	2823
199.19	2866.84
199.265	2870.69
199.34	2882.09
199.415	2918.32
199.49	2940.24
199.565	2952.49
199.64	2974.61
199.715	2972.46
199.79	2982.43
199.865	2988.05
199.94	2988.19
200.015	3016.66
200.09	3021.33
200.165	3028.39
200.24	3034.97
200.315	3079.55
200.39	3096.43
200.464	3103.58
200.539	3106.34
200.614	3122.98
200.689	3144.4
200.764	3152.61
200.839	3173.25
200.914	3175.77
200.989	3163.23
201.063	3181.02
201.138	3162.38
201.213	3161.14
201.288	3142.59
201.363	3147.79
201.438	3149.84
201.512	3162.18
201.587	3147.59
201.662	3153.46
201.737	3163.76
201.812	3171.34
201.886	3135.06
201.961	3146.66
202.036	3134.12
202.111	3128.97
202.186	3097.32
202.26	3075.91
202.335	3053.06
202.41	3045.67
202.485	3028.47
202.559	3006.87
202.634	2975.97
202.709	2985.74
202.784	2968.77
202.858	2968.39
202.933	2947.8
203.008	2940.93
203.082	2921.58
203.157	2922.49
203.232	2880.6
203.306	2859.81
203.381	2828.25
203.456	2801.71
203.53	2774.09
203.605	2752.28
203.68	2730.35
203.754	2722.06
203.829	2707.2
203.904	2683.09
203.978	2668.42
204.053	2672.37
204.127	2658.37
204.202	2656.89
204.277	2638.46
204.351	2630.22
204.426	2622.4
204.5	2614.11
204.575	2579.4
204.65	2589.98
204.724	2580.11
204.799	2584.77
204.873	2579.67
204.948	2577.82
205.022	2567.58
205.097	2563.58
205.171	2580.77
205.246	2587.25
205.32	2589.15
205.395	2591.25
205.469	2585.01
205.544	2592.68
205.618	2575.35
205.693	2591.35
205.767	2579.16
205.842	2601.31
205.916	2593.74
205.991	2584.07
206.065	2591.69
206.14	2605.59
206.214	2602.4
206.289	2592.96
206.363	2606.87
206.438	2609.68
206.512	2618.35
206.586	2638.78
206.661	2642.69
206.735	2618.88
206.81	2618.65
206.884	2634.41
206.958	2619.51
207.033	2637.17
207.107	2643.56
207.181	2675.86
207.256	2672.1
207.33	2692.72
207.405	2703.31
207.479	2726.22
207.553	2732.22
207.628	2714.7
207.702	2726.23
207.776	2719.79
207.851	2722.56
207.925	2740
207.999	2737.91
208.073	2734.14
208.148	2737.81
208.222	2727.57
208.296	2763.38
208.371	2784.12
208.445	2794.75
208.519	2827.43
208.593	2840.39
208.668	2836.06
208.742	2840.82
208.816	2841.16
208.89	2858.37
208.965	2858.85
209.039	2865.57
209.113	2887.54
209.187	2907.64
209.261	2904.92
209.336	2927.71
209.41	2950.26
209.484	2948.49
209.558	2972
209.632	2986.06
209.707	2995.35
209.781	3018.61
209.855	3033.92
209.929	3052.78
210.003	3057.97
210.077	3059.02
210.151	3108.71
210.226	3145.54
210.3	3177
210.374	3204.32
210.448	3210.81
210.522	3222.02
210.596	3235.99
210.67	3246.87
210.744	3298.74
210.818	3337.65
210.892	3365.14
210.966	3366.04
211.041	3390.9
211.115	3395.96
211.189	3426.17
211.263	3455.32
211.337	3474.08
211.411	3496.18
211.485	3497.09
211.559	3520.32
211.633	3535.63
211.707	3519.63
211.781	3548.26
211.855	3524.48
211.929	3533.83
212.003	3529.49
212.077	3560.96
212.151	3596.45
212.225	3628.06
212.299	3643.98
212.373	3659.5
212.447	3682.77
212.52	3742.48
212.594	3778.28
212.668	3826.34
212.742	3850.75
212.816	3884.3
212.89	3917.18
212.964	3964.99
213.038	4020.03
213.112	4085.83
213.186	4153.13
213.26	4183.23
213.333	4187.77
213.407	4255.12
213.481	4318.22
213.555	4399.39
213.629	4456.82
213.703	4509.51
213.777	4583.04
213.85	4638.95
213.924	4751.19
213.998	4830.84
214.072	4905.67
214.146	4975.17
214.219	5057.57
214.293	5143.54
214.367	5231.75
214.441	5334.44
214.515	5416.61
214.588	5481.23
214.662	5541.92
214.736	5623.86
214.81	5736.92
214.883	5859.26
214.957	5951.91
215.031	6047.77
215.105	6133
215.178	6226.58
215.252	6334.96
215.326	6420.41
215.4	6516.7
215.473	6579.43
215.547	6677.28
215.621	6785.06
215.694	6909.45
215.768	7000.25
215.842	7112.25
215.915	7224.39
215.989	7323.55
216.063	7434.47
216.136	7562.38
216.21	7687.7
216.284	7821.44
216.357	7945.23
216.431	8060.82
216.504	8193.58
216.578	8349.08
216.652	8490.46
216.725	8619.91
216.799	8752.99
216.873	8890.45
216.946	9029.98
217.02	9158.92
217.093	9285.21
217.167	9390.13
217.24	9507.01
217.314	9632.05
217.387	9747.81
217.461	9877.18
217.535	10017.25
217.608	10144.47
217.682	10277.43
217.755	10423.88
217.829	10543.66
217.902	10672.34
217.976	10799.11
218.049	10920.58
218.123	11029.79
218.196	11158.16
218.27	11286.93
218.343	11398.35
218.417	11526.46
218.49	11645.93
218.563	11787.15
218.637	11908.94
218.71	12050.7
218.784	12175.34
218.857	12315.8
218.931	12446.66
219.004	12558.83
219.077	12688.06
219.151	12799.61
219.224	12910.57
219.298	13010.84
219.371	13131.06
219.444	13232.3
219.518	13342.2
219.591	13457.66
219.665	13599.38
219.738	13707.07
219.811	13803.68
219.885	13929.78
219.958	14045.91
220.031	14157.55
220.105	14271.08
220.178	14375.97
220.251	14475.03
220.325	14586.29
220.398	14686.84
220.471	14791.06
220.544	14902.26
220.618	14986.81
220.691	15087.37
220.764	15187.34
220.838	15292.23
220.911	15386.51
220.984	15501.86
221.057	15602.12
221.131	15690.71
221.204	15738.81
221.277	15841.14
221.35	15949.88
221.424	16014.47
221.497	16084.5
221.57	16155.69
221.643	16228.13
221.716	16319.13
221.79	16388.24
221.863	16466.08
221.936	16539.68
222.009	16605.03
222.082	16671.83
222.155	16738.78
222.229	16825.1
222.302	16895.12
222.375	16958.79
222.448	17030.26
222.521	17094.26
222.594	17156.82
222.667	17213.11
222.74	17283.62
222.814	17336.82
222.887	17384.58
222.96	17454.65
223.033	17523.04
223.106	17585.31
223.179	17648.92
223.252	17698.85
223.325	17749.74
223.398	17790.89
223.471	17839.04
223.544	17895.28
223.617	17948.09
223.69	17995.66
223.763	18026.89
223.837	18080.43
223.91	18131.36
223.983	18149.24
224.056	18169.19
224.129	18214.3
224.202	18262.44
224.275	18298.1
224.348	18321.04
224.42	18348.51
224.493	18372.27
224.566	18400.41
224.639	18446.24
224.712	18467.54
224.785	18492.94
224.858	18526.29
224.931	18556.26
225.004	18577.42
225.077	18604.45
225.15	18600.74
225.223	18624.21
225.296	18676.11
225.369	18661.55
225.442	18672.01
225.514	18703.82
225.587	18738.85
225.66	18760.25
225.733	18784.92
225.806	18804.29
225.879	18829.35
225.952	18838.89
226.025	18865.59
226.097	18894.55
226.17	18900.24
226.243	18891.08
226.316	18902.36
226.389	18922.02
226.461	18932.72
226.534	18950.26
226.607	18957.78
226.68	18993.39
226.753	19004.33
226.825	18985.73
226.898	19027.46
226.971	19035.51
227.044	19050.4
227.117	19061.29
227.189	19073.43
227.262	19089.96
227.335	19103.12
227.407	19106.49
227.48	19124.08
227.553	19124.61
227.626	19118.92
227.698	19125.33
227.771	19147.64
227.844	19146.05
227.916	19154.97
227.989	19148.13
228.062	19150.3
228.134	19179.4
228.207	19185.23
228.28	19177.38
228.352	19175.59
228.425	19175.88
228.498	19195.83
228.57	19181.14
228.643	19195.69
228.716	19192.36
228.788	19186.68
228.861	19186
228.934	19200.46
229.006	19196.51
229.079	19198.24
229.151	19192.12
229.224	19179.35
229.296	19181.09
229.369	19207.35
229.442	19208.51
229.514	19197.04
229.587	19203.11
229.659	19183.88
229.732	19183.93
229.804	19197.67
229.877	19222.87
229.949	19225.09
230.022	19234.1
230.094	19238.77
230.167	19233.66
230.239	19217.47
230.312	19209.18
230.384	19226.24
230.457	19214.82
230.529	19208.07
230.602	19203.83
230.674	19210.68
230.747	19214.24
230.819	19214.82
230.892	19178.58
230.964	19172.22
231.037	19178.29
231.109	19165.81
231.181	19157.23
231.254	19133.14
231.326	19119.89
231.399	19104.23
231.471	19088.61
231.544	19054.74
231.616	19059.22
231.688	19040.28
231.761	19027.65
231.833	19015.85
231.905	18974.16
231.978	18972.14
232.05	18962.4
232.122	18951.61
232.195	18927.9
232.267	18926.16
232.339	18918.02
232.412	18920.33
232.484	18902.94
232.556	18888.38
232.629	18903.85
232.701	18902.07
232.773	18893.25
232.846	18876.87
232.918	18857.06
232.99	18848.39
233.062	18847.57
233.135	18827.38
233.207	18804.58
233.279	18798.17
233.351	18785.88
233.424	18771.28
233.496	18743.14
233.568	18753.84
233.64	18732.01
233.713	18717.31
233.785	18694.9
233.857	18669.17
233.929	18645.99
234.001	18652.01
234.074	18646.62
234.146	18600.74
234.218	18583.25
234.29	18569.03
234.362	18548.12
234.434	18520.21
234.507	18487.11
234.579	18454.15
234.651	18433.18
234.723	18422.82
234.795	18410.39
234.867	18383.11
234.939	18381.43
235.012	18359.11
235.084	18342.34
235.156	18328.37
235.228	18308.61
235.3	18289.96
235.372	18273.09
235.444	18260.95
235.516	18210.74
235.588	18196.47
235.66	18188.86
235.732	18161.87
235.804	18201.29
235.876	18190.64
235.948	18184.42
236.02	18165
236.092	18144.04
236.164	18122.98
236.236	18100.67
236.308	18070.07
236.38	18056.43
236.452	18026.16
236.524	18015.32
236.596	18011.22
236.668	17995.9
236.74	17972.86
236.812	17952.14
236.884	17948.91
236.956	17928.72
237.028	17905.25
237.1	17874.7
237.172	17861.98
237.244	17853.78
237.316	17791.28
237.388	17767.52
237.46	17745.93
237.532	17739.28
237.604	17707.14
237.675	17703.28
237.747	17689.98
237.819	17663.23
237.891	17645.64
237.963	17617.11
238.035	17587.23
238.107	17525.12
238.178	17512.49
238.25	17482.42
238.322	17485.5
238.394	17442.8
238.466	17419.24
238.538	17404.54
238.609	17389.5
238.681	17346.22
238.753	17314.03
238.825	17293.36
238.897	17271.28
238.968	17260.68
239.04	17231.67
239.112	17240.63
239.184	17196.2
239.255	17166.95
239.327	17151.52
239.399	17123.76
239.471	17112.34
239.542	17100.15
239.614	17090.08
239.686	17039.95
239.758	17037.54
239.829	16999.33
239.901	16989.06
239.973	16963.47
240.044	16938.99
240.116	16908.72
240.188	16880.48
240.259	16855.56
240.331	16822.4
240.403	16804.67
240.474	16760.04
240.546	16725.53
240.618	16664.13
240.689	16643.26
240.761	16620.17
240.833	16613.52
240.904	16584.85
240.976	16548.31
241.048	16520.84
241.119	16500.5
241.191	16486.57
241.262	16474.96
241.334	16444.55
241.405	16412.74
241.477	16377.46
241.549	16351.62
241.62	16326.13
241.692	16316.44
241.763	16302.85
241.835	16272.19
241.906	16243.8
241.978	16204.76
242.049	16192.62
242.121	16191.61
242.192	16172.66
242.264	16129.24
242.335	16083.26
242.407	16061.52
242.478	16039.92
242.55	16014.72
242.621	15972.74
242.693	15937.89
242.764	15896.2
242.836	15861.16
242.907	15836.53
242.979	15809.05
243.05	15787.31
243.122	15762.25
243.193	15726.82
243.264	15671.97
243.336	15640.4
243.407	15618.23
243.479	15611.58
243.55	15587.28
243.622	15563.71
243.693	15537.4
243.764	15528.33
243.836	15491.17
243.907	15461
243.978	15429.52
244.05	15403.25
244.121	15360.16
244.192	15350.08
244.264	15317.88
244.335	15297.45
244.407	15258.02
244.478	15241.63
244.549	15212.8
244.62	15177.23
244.692	15149.95
244.763	15141.08
244.834	15112.2
244.906	15079.19
244.977	15051.28
245.048	15038.55
245.119	15011.37
245.191	14974.35
245.262	14922.24
245.333	14912.21
245.405	14892.98
245.476	14873.26
245.547	14840.77
245.618	14830.55
245.689	14803.66
245.761	14770.97
245.832	14746.29
245.903	14731.3
245.974	14709.42
246.045	14676.01
246.117	14669.6
246.188	14629.11
246.259	14584.57
246.33	14564.8
246.401	14530.48
246.473	14498.28
246.544	14459.47
246.615	14438.07
246.686	14411.56
246.757	14405.15
246.828	14368.03
246.899	14348.41
246.97	14306.28
247.042	14282.17
247.113	14263.71
247.184	14255.61
247.255	14230.21
247.326	14201.91
247.397	14168.55
247.468	14139.49
247.539	14115.53
247.61	14064.14
247.681	14053.15
247.752	14041.34
247.823	13998.63
247.894	13983.15
247.965	13945.6
248.037	13913.35
248.108	13865.19
248.179	13840.32
248.25	13809.61
248.321	13786.13
248.392	13754.85
248.463	13755.57
248.534	13726.21
248.605	13705.05
248.675	13669.91
248.746	13650.1
248.817	13630.86
248.888	13607.87
248.959	13564.67
249.03	13546.02
249.101	13528.66
249.172	13497.57
249.243	13453.22
249.314	13453.94
249.385	13430.66
249.456	13423.33
249.527	13396.53
249.598	13379.61
249.669	13358.88
249.739	13346.06
249.81	13335.55
249.881	13299.06
249.952	13273.65
250.023	13253.84
250.094	13216.24
250.165	13190.88
250.235	13164.9
250.306	13138.53
250.377	13111.39
250.448	13099.29
250.519	13056.53
250.59	13053.2
250.66	13029.82
250.731	13022.11
250.802	12993.48
250.873	12973.37
250.944	12944.84
251.014	12920.88
251.085	12924.69
251.156	12905.21
251.227	12898.08
251.297	12893.4
251.368	12884.29
251.439	12872.14
251.51	12863.27
251.58	12835.26
251.651	12808.36
251.722	12797.28
251.792	12758.91
251.863	12731.57
251.934	12726.61
252.005	12738.71
252.075	12713.45
252.146	12705.83
252.217	12706.31
252.287	12693.11
252.358	12670.16
252.429	12673.82
252.499	12652.61
252.57	12635.79
252.641	12624.75
252.711	12602.91
252.782	12561.51
252.852	12558.28
252.923	12532.49
252.994	12510.8
253.064	12505.88
253.135	12475.7
253.205	12447.55
253.276	12450.49
253.347	12451.12
253.417	12421.09
253.488	12392.6
253.558	12371.87
253.629	12352.59
253.699	12329.6
253.77	12316.53
253.841	12294.26
253.911	12273.29
253.982	12252.47
254.052	12235.65
254.123	12214.92
254.193	12191.78
254.264	12214.25
254.334	12193.61
254.405	12165.51
254.475	12131.34
254.546	12114.28
254.616	12110.52
254.687	12100.39
254.757	12086.37
254.827	12070.22
254.898	12057.59
254.968	12042.89
255.039	12011.08
255.109	11994.59
255.18	11970.54
255.25	11926.48
255.321	11916.36
255.391	11880.36
255.461	11884.21
255.532	11842.57
255.602	11821.26
255.673	11779.86
255.743	11750.07
255.813	11697.34
255.884	11692.91
255.954	11691.37
256.024	11684.18
256.095	11660.52
256.165	11623.17
256.235	11612.18
256.306	11582
256.376	11576.22
256.446	11561.52
256.517	11553.47
256.587	11549.23
256.657	11528.5
256.728	11520.36
256.798	11501.9
256.868	11482.96
256.938	11465.42
257.009	11464.02
257.079	11455.78
257.149	11469.03
257.219	11424.16
257.29	11416.16
257.36	11375.77
257.43	11367.1
257.5	11331.91
257.571	11310.42
257.641	11306.85
257.711	11279.86
257.781	11268.78
257.852	11252.01
257.922	11213.94
257.992	11197.41
258.062	11174.99
258.132	11170.37
258.202	11156.01
258.273	11142.9
258.343	11143.91
258.413	11110.51
258.483	11088.97
258.553	11055.09
258.623	11035.96
258.693	11026.8
258.764	11026.56
258.834	11025.79
258.904	11010.23
258.974	10982.52
259.044	10968.06
259.114	10956.21
259.184	10937.9
259.254	10918.48
259.324	10885.56
259.394	10875.2
259.464	10872.46
259.535	10850.34
259.605	10832.56
259.675	10807.55
259.745	10799.07
259.815	10763.7
259.885	10745.34
259.955	10756.52
260.025	10744.96
260.095	10723.95
260.165	10714.02
260.235	10714.21
260.305	10695.61
260.375	10667.18
260.445	10679.66
260.515	10685.59
260.585	10680.43
260.655	10665.5
260.725	10661.74
260.795	10656.29
260.865	10664
260.934	10644.68
261.004	10639.04
261.074	10615.96
261.144	10617.07
261.214	10607.29
261.284	10600.11
261.354	10599.82
261.424	10573.99
261.494	10572.45
261.564	10550.77
261.634	10540.55
261.703	10505.24
261.773	10494.15
261.843	10482.35
261.913	10460.72
261.983	10420.39
262.053	10408.06
262.123	10393.51
262.192	10364.6
262.262	10358.29
262.332	10323.89
262.402	10311.84
262.472	10295.22
262.541	10263.43
262.611	10251.53
262.681	10223.68
262.751	10220.12
262.821	10194.25
262.89	10167.85
262.96	10156.09
263.03	10163.46
263.1	10150.74
263.169	10139.42
263.239	10129.93
263.309	10137.21
263.379	10132.92
263.448	10131.09
263.518	10121.79
263.588	10104.06
263.657	10113.7
263.727	10117.02
263.797	10108.45
263.867	10092.65
263.936	10069.19
264.006	10069.09
264.076	10058.3
264.145	10048.57
264.215	10019.38
264.285	10019.57
264.354	9984.41
264.424	9962.69
264.494	9928.63
264.563	9906.86
264.633	9917.89
264.702	9911.48
264.772	9877.62
264.842	9863.75
264.911	9845.35
264.981	9819.05
265.05	9805.66
265.12	9781.33
265.19	9757.29
265.259	9757.68
265.329	9758.55
265.398	9746.94
265.468	9760.43
265.537	9736.92
265.607	9728.54
265.676	9728.11
265.746	9721.61
265.815	9724.21
265.885	9710.14
265.955	9695.17
266.024	9684.91
266.094	9642
266.163	9637.13
266.232	9642.14
266.302	9626.58
266.371	9621.91
266.441	9615.89
266.51	9615.17
266.58	9594.37
266.649	9572.21
266.719	9563.06
266.788	9546.01
266.858	9557.81
266.927	9517.41
266.996	9515.86
267.066	9507.92
267.135	9483.5
267.205	9476.91
267.274	9464.58
267.343	9472.52
267.413	9461.4
267.482	9461.26
267.552	9473.49
267.621	9449.17
267.69	9419.7
267.76	9408.72
267.829	9404.82
267.898	9389.07
267.968	9368.75
268.037	9375.54
268.106	9373.23
268.176	9359.26
268.245	9344.05
268.314	9319.2
268.384	9323.53
268.453	9316.89
268.522	9311.59
268.592	9318.38
268.661	9298.39
268.73	9296.37
268.799	9268.98
268.869	9277.21
268.938	9249.19
269.007	9227.61
269.076	9219.81
269.146	9220.39
269.215	9216.01
269.284	9215.43
269.353	9201.04
269.422	9188.42
269.492	9169.07
269.561	9129.64
269.63	9117.61
269.699	9108.12
269.768	9104.61
269.838	9102.1
269.907	9096.18
269.976	9070.62
270.045	9037.35
270.114	9031.86
270.183	9016.27
270.253	9012.03
270.322	8984.16
270.391	8973.13
270.46	8977.61
270.529	8971.93
270.598	8970.1
270.667	8954.79
270.736	8937.7
270.806	8936.35
270.875	8939.82
270.944	8931.15
271.013	8952.38
271.082	8945.11
271.151	8937.17
271.22	8907.18
271.289	8892.98
271.358	8874.88
271.427	8871.07
271.496	8871.07
271.565	8860.77
271.634	8856.25
271.703	8887.83
271.772	8891.68
271.841	8882.2
271.91	8855.29
271.979	8847.64
272.048	8823.28
272.117	8826.17
272.186	8806.82
272.255	8807.64
272.324	8808.6
272.393	8802.15
272.462	8794.11
272.531	8788.67
272.6	8778.04
272.669	8788.24
272.738	8775.49
272.807	8776.54
272.876	8757.15
272.945	8784.97
273.013	8779.15
273.082	8778.43
273.151	8729.13
273.22	8726.29
273.289	8718.54
273.358	8732.74
273.427	8726.68
273.496	8732.74
273.564	8732.6
273.633	8737.65
273.702	8722.05
273.771	8712.28
273.84	8709.35
273.909	8705.69
273.977	8702.32
274.046	8691.88
274.115	8692.41
274.184	8681.92
274.253	8673.35
274.322	8686.01
274.39	8648.75
274.459	8640.28
274.528	8613.33
274.597	8608.66
274.665	8603.51
274.734	8620.02
274.803	8607.6
274.872	8600.77
274.94	8586.04
275.009	8639.21
275.078	8621.06
275.147	8616.15
275.215	8612.4
275.284	8620.49
275.353	8604.27
275.421	8578.28
275.49	8598.06
275.559	8590.27
275.627	8581.17
275.696	8570.49
275.765	8568.28
275.833	8564.81
275.902	8571.6
275.971	8587.24
276.039	8606.29
276.108	8612.41
276.177	8602.59
276.245	8592.1
276.314	8584.5
276.383	8592.29
276.451	8523.87
276.52	8530.17
276.588	8538.11
276.657	8543.36
276.725	8524.35
276.794	8532.29
276.863	8548.17
276.931	8522.47
277	8525.98
277.068	8540.23
277.137	8564.34
277.205	8562.8
277.274	8576.27
277.342	8580.27
277.411	8559.91
277.48	8544.42
277.548	8535.37
277.617	8536.52
277.685	8536.57
277.754	8539.12
277.822	8526.71
277.89	8539.12
277.959	8531.04
278.027	8515.4
278.096	8504.23
278.164	8534.31
278.233	8523.15
278.301	8515.69
278.37	8525.27
278.438	8513.81
278.507	8514.34
278.575	8484.27
278.643	8479.45
278.712	8463.57
278.78	8450.72
278.849	8461.6
278.917	8474.4
278.985	8465.93
279.054	8471.71
279.122	8479.02
279.191	8481.67
279.259	8477.34
279.327	8455.34
279.396	8477.77
279.464	8478.54
279.532	8486.62
279.601	8485.08
279.669	8481.52
279.737	8493.36
279.806	8498.7
279.874	8505.78
279.942	8503.42
280.011	8504.53
280.079	8514.29
280.147	8532.24
280.215	8537.05
280.284	8532.1
280.352	8514.92
280.42	8522.43
280.488	8508.71
280.557	8507.41
280.625	8507.94
280.693	8510.83
280.761	8518.96
280.83	8495.04
280.898	8506.93
280.966	8480.9
281.034	8450.29
281.102	8434.27
281.171	8427.44
281.239	8435.04
281.307	8431.48
281.375	8417.62
281.443	8446.4
281.512	8442.26
281.58	8448.62
281.648	8433.99
281.716	8434.66
281.784	8435.24
281.852	8429.46
281.92	8431.24
281.989	8439.91
282.057	8421.29
282.125	8471.59
282.193	8461.58
282.261	8470.91
282.329	8458.26
282.397	8468.46
282.465	8472.4
282.533	8491.21
282.601	8476.73
282.67	8451.75
282.738	8446.36
282.806	8459.31
282.874	8435.68
282.942	8439.04
283.01	8432.11
283.078	8437.98
283.146	8437.21
283.214	8448.81
283.282	8447.8
283.35	8468.64
283.418	8458.97
283.486	8471.24
283.554	8425.75
283.622	8428.1
283.69	8425.7
283.758	8426.47
283.826	8433.16
283.894	8443.74
283.962	8465.3
284.03	8483.2
284.098	8485.32
284.165	8478.01
284.233	8481.09
284.301	8478.68
284.369	8471.89
284.437	8463.14
284.505	8455.39
284.573	8472.76
284.641	8457.22
284.709	8471.03
284.777	8448.31
284.845	8455.39
284.912	8457.26
284.98	8466.79
285.048	8467.47
285.116	8470.16
285.184	8485.85
285.252	8483.54
285.319	8466.36
285.387	8457.46
285.455	8445.24
285.523	8453.85
285.591	8455.44
285.659	8455.68
285.726	8472.81
285.794	8453.42
285.862	8447.55
285.93	8452.74
285.997	8447.79
286.065	8442.98
286.133	8430.13
286.201	8428.88
286.269	8414.01
286.336	8402.6
286.404	8386.87
286.472	8397.55
286.539	8374.22
286.607	8352.76
286.675	8356.22
286.743	8366.81
286.81	8361.99
286.878	8370.99
286.946	8362.19
287.013	8364.88
287.081	8364.88
287.149	8344.53
287.216	8366.37
287.284	8366.51
287.352	8370.8
287.419	8364.59
287.487	8384.99
287.555	8397.98
287.622	8396.49
287.69	8406.26
287.758	8424.93
287.825	8428.39
287.893	8414.92
287.96	8425.94
288.028	8439.02
288.096	8434.6
288.163	8437.73
288.231	8428.34
288.298	8432.63
288.366	8447.25
288.433	8438.84
288.501	8432.87
288.569	8440.9
288.636	8439.75
288.704	8455.15
288.771	8463.14
288.839	8459.82
288.906	8451.68
288.974	8453.8
289.041	8447.69
289.109	8434.65
289.176	8446.2
289.244	8449.18
289.311	8464.29
289.379	8473
289.446	8475.07
289.514	8479.45
289.581	8475.51
289.649	8479.02
289.716	8479.07
289.783	8474.21
289.851	8496.87
289.918	8494.13
289.986	8502.4
290.053	8503.75
290.121	8498.12
290.188	8496.29
290.255	8524.88
290.323	8520.69
290.39	8514.63
290.458	8525.84
290.525	8543.98
290.592	8530.89
290.66	8526.17
290.727	8520.25
290.794	8539.5
290.862	8536.38
290.929	8540.51
290.996	8546.34
291.064	8553.41
291.131	8566.6
291.198	8577.28
291.266	8577.24
291.333	8579.16
291.4	8583.97
291.468	8599.09
291.535	8597.64
291.602	8601.68
291.669	8592.25
291.737	8595.62
291.804	8597.83
291.871	8613.33
291.938	8620.16
292.006	8654.97
292.073	8673.78
292.14	8682.93
292.207	8667.53
292.275	8673.2
292.342	8684.61
292.409	8711.13
292.476	8737.17
292.543	8728.03
292.611	8724.76
292.678	8742.81
292.745	8771.01
292.812	8781.07
292.879	8779.67
292.946	8783.23
293.014	8796.42
293.081	8807.49
293.148	8821.45
293.215	8836.95
293.282	8829.97
293.349	8835.12
293.416	8817.65
293.484	8828.48
293.551	8839.11
293.618	8861.54
293.685	8886.67
293.752	8874.25
293.819	8867.27
293.886	8854.9
293.953	8863.37
294.02	8877.62
294.087	8879.59
294.154	8871.75
294.221	8894.42
294.288	8897.36
294.356	8921.09
294.423	8926.24
294.49	8918.11
294.557	8937.55
294.624	8934.62
294.691	8959.55
294.758	8969.32
294.825	8975.1
294.892	8973.61
294.959	8970.09
295.026	8977.51
295.093	8969.42
295.16	8974.19
295.226	8981.36
295.293	9005.72
295.36	9007.93
295.427	9018.48
295.494	9036.73
295.561	9043.85
295.628	9061.33
295.695	9070.38
295.762	9070
295.829	9079.67
295.896	9098.11
295.963	9101.87
296.03	9111.3
296.096	9112.89
296.163	9119.34
296.23	9133.45
296.297	9144.47
296.364	9149.77
296.431	9155.64
296.498	9151.36
296.564	9177.45
296.631	9176.78
296.698	9161.66
296.765	9187.61
296.832	9178.8
296.899	9163.73
296.965	9182.6
297.032	9161.17
297.099	9184.33
297.166	9191.46
297.233	9191.41
297.299	9181.68
297.366	9183.9
297.433	9184.53
297.5	9191.84
297.566	9193.1
297.633	9193.67
297.7	9190.11
297.767	9187.85
297.833	9193.92
297.9	9197.04
297.967	9183.37
298.033	9193.96
298.1	9222.57
298.167	9213.95
298.234	9217.03
298.3	9228.29
298.367	9224.88
298.434	9229.11
298.5	9220.11
298.567	9220.35
298.634	9214.48
298.7	9228.39
298.767	9231.86
298.834	9246.01
298.9	9246.2
298.967	9237.15
299.033	9241.82
299.1	9260.22
299.167	9276.92
299.233	9271.19
299.3	9291.22
299.366	9306.63
299.433	9326.18
299.5	9304.61
299.566	9311.11
299.633	9334.03
299.699	9338.46
299.766	9336.77
299.832	9344.82
299.899	9348.38
299.965	9358.01
300.032	9351.94
300.099	9363.69
300.165	9368.22
300.232	9364.51
300.298	9367.06
300.365	9381.46
300.431	9383.72
300.498	9380.74
300.564	9394.37
300.631	9404.48
300.697	9421.53
300.763	9424.99
300.83	9418.64
300.896	9429.81
300.963	9436.12
301.029	9439.49
301.096	9445.02
301.162	9460.29
301.229	9458.46
301.295	9459.81
301.361	9467.13
301.428	9478.73
301.494	9465.05
301.561	9465.73
301.627	9469.68
301.693	9474.44
301.76	9479.74
301.826	9473.43
301.892	9484.94
301.959	9483.93
302.025	9484.85
302.092	9472.85
302.158	9479.4
302.224	9482.44
302.291	9476.08
302.357	9471.31
302.423	9463.46
302.49	9455.18
302.556	9469.05
302.622	9459.57
302.688	9465.25
302.755	9480.42
302.821	9491.98
302.887	9507.58
302.954	9508.11
303.02	9511.58
303.086	9513.36
303.152	9512.49
303.219	9513.45
303.285	9521.26
303.351	9531.56
303.417	9533.15
303.483	9527.42
303.55	9521.55
303.616	9519.86
303.682	9520.92
303.748	9513.17
303.815	9532.91
303.881	9552.23
303.947	9539.13
304.013	9547.17
304.079	9540.23
304.145	9512.25
304.212	9506.91
304.278	9495.64
304.344	9492.22
304.41	9481.87
304.476	9468.24
304.542	9463.18
304.608	9471.95
304.674	9451.96
304.741	9446.61
304.807	9446.71
304.873	9449.89
304.939	9466.46
305.005	9447.24
305.071	9442.52
305.137	9444.79
305.203	9412.52
305.269	9403.13
305.335	9406.6
305.401	9407.61
305.467	9405.39
305.533	9420.46
305.599	9437.13
305.666	9446.42
305.732	9446.76
305.798	9459.62
305.864	9490.05
305.93	9496.12
305.996	9495.11
306.062	9493.13
306.128	9492.07
306.194	9486.25
306.259	9491.21
306.325	9476.9
306.391	9487.11
306.457	9498.33
306.523	9508.25
306.589	9535.6
306.655	9528
306.721	9517.21
306.787	9500.69
306.853	9515.86
306.919	9499.01
306.985	9484.32
307.051	9477.48
307.117	9465.83
307.183	9458.89
307.248	9429.13
307.314	9431.64
307.38	9431.16
307.446	9442.42
307.512	9427.83
307.578	9429.61
307.644	9420.42
307.709	9424.32
307.775	9427.4
307.841	9422.63
307.907	9420.32
307.973	9400.14
308.039	9402.69
308.104	9408.14
308.17	9414.92
308.236	9401.49
308.302	9406.25
308.368	9394.41
308.433	9395.52
308.499	9397.11
308.565	9389.64
308.631	9398.55
308.696	9373.95
308.762	9361.57
308.828	9357.77
308.894	9341.64
308.959	9319.06
309.025	9312.99
309.091	9306.73
309.156	9294.35
309.222	9293.49
309.288	9278.13
309.354	9258.29
309.419	9251.64
309.485	9231.61
309.551	9229.64
309.616	9208.45
309.682	9202.44
309.748	9195.07
309.813	9186.6
309.879	9181.35
309.945	9171.09
310.01	9162.71
310.076	9168.54
310.141	9165.46
310.207	9150.1
310.273	9150.15
310.338	9154.53
310.404	9133.73
310.469	9123.14
310.535	9114.81
310.601	9097.38
310.666	9103.01
310.732	9113.6
310.797	9101.13
310.863	9095.64
310.928	9091.89
310.994	9095.84
311.059	9092.13
311.125	9090.97
311.191	9104.22
311.256	9091.75
311.322	9096.56
311.387	9076.49
311.453	9450.24
311.518	9423.9
311.584	9417.16
311.649	9427.23
311.715	9420
311.78	9427.22
311.846	9416.54
311.911	9423.47
311.976	9425.16
312.042	9409.12
312.107	9391.7
312.173	9389.63
312.238	9382.84
312.304	9372.58
312.369	9364.88
312.434	9352.27
312.5	9343.84
312.565	9307.21
312.631	9310.19
312.696	9304.99
312.761	9305.28
312.827	8926.81
312.892	8969.52
312.958	8968.89
313.023	8967.98
313.088	8966.1
313.154	8949.35
313.219	8937.22
313.284	8925.91
313.35	8928.12
313.415	8922.3
313.48	8919.17
313.546	8921.19
313.611	8928.17
313.676	8920.9
313.741	8910.46
313.807	8923.07
313.872	8931.16
313.937	8943.82
314.003	8952.48
314.068	8955.23
314.133	8967.16
314.198	8953.64
314.264	8925.85
314.329	8917.67
314.394	8908.33
314.459	8902.56
314.525	8928.21
314.59	8926.82
314.655	8917.72
314.72	8911.65
314.785	8910.64
314.851	8906.41
314.916	8885.56
314.981	8871.32
315.046	8866.84
315.111	8863.57
315.176	8851.29
315.242	8854.66
315.307	8849.17
315.372	8831.65
315.437	8814.61
315.502	8800.17
315.567	8811.67
315.632	8796.46
315.698	8794.59
315.763	8789.92
315.828	8786.79
315.893	8777.3
315.958	8774.46
316.023	8761.28
316.088	8748.52
316.153	8728.31
316.218	8723.59
316.283	8712.28
316.348	8698.47
316.413	8696.5
316.479	8679.56
316.544	8643.61
316.609	8614.4
316.674	8578.5
316.739	8544.15
316.804	8514.41
316.869	8478.08
316.934	8436.74
316.999	8410.52
317.064	8362.31
317.129	8322.42
317.194	8286.38
317.259	8242.69
317.324	8187.23
317.389	8142.83
317.454	8103.77
317.518	8075.15
317.583	8048.25
317.648	8022.71
317.713	7990.96
317.778	7930.55
317.843	7902.7
317.908	7864.71
317.973	7821.52
318.038	7795.31
318.103	7758.29
318.168	7729.24
318.233	7702.26
318.297	7653.85
318.362	7616.92
318.427	7580.1
318.492	7552.01
318.557	7504.62
318.622	7478.89
318.687	7470.67
318.751	7441.65
318.816	7407.66
318.881	7370.65
318.946	7316.57
319.011	7270.43
319.075	7227.51
319.14	7198.48
319.205	7158.55
319.27	7125.44
319.335	7083.26
319.399	7039.67
319.464	7013.92
319.529	6962.28
319.594	6926.29
319.658	6896.03
319.723	6854.43
319.788	6827.92
319.853	6774.79
319.917	6748.57
319.982	6687.81
320.047	6645.73
320.112	6618.17
320.176	6567.99
320.241	6533.03
320.306	6503.88
320.37	6459.43
320.435	6428.56
320.5	6398.22
320.564	6362.11
320.629	6325.87
320.694	6295.06
320.758	6257.77
320.823	6211.41
320.888	6187.56
320.952	6135.16
321.017	6097.3
321.082	6060.6
321.146	6027.44
321.211	5994.96
321.275	5953.23
321.34	5911.7
321.405	5865.65
321.469	5812.17
321.534	5769.5
321.598	5719.68
321.663	5686
321.727	5659.34
321.792	5606.41
321.857	5563.88
321.921	5517.32
321.986	5475.77
322.05	5420.7
322.115	5384.22
322.179	5344.5
322.244	5289.68
322.308	5260.02
322.373	5215.41
322.437	5170.09
322.502	5142.43
322.566	5096.2
322.631	5062.48
322.695	5030.82
322.76	4991.03
322.824	4957.32
322.889	4921.17
322.953	4879.05
323.018	4817.38
323.082	4750.85
323.146	4706.49
323.211	4651.21
323.275	4607.32
323.34	4560.19
323.404	4525.51
323.468	4478.23
323.533	4437.28
323.597	4389.94
323.662	4341.29
323.726	4304.6
323.79	4262.66
323.855	4199.6
323.919	4154.42
323.983	4107.89
324.048	4034.79
324.112	4196.45
324.177	4070.8
324.241	3860.5
324.305	3655.5
324.37	3453.28
324.434	3263.25
324.498	3220.14
324.562	3172.76
324.627	3115.87
324.691	3062.45
324.755	2998.59
324.82	2925.14
324.884	2847.87
324.948	2777.62
325.012	2680.53
325.077	2561.31
