Data from 20250702_background_lightoff_MAYP1162681_12-13-06-631.txt Node
Date: Fri Jul 04 12:13:06 BST 2025
User: adleo
Spectrometer: MAYP116268
Trigger mode: 0
Integration Time (sec): 1.000000E0
Scans to average: 1
Electric dark correction enabled: true
Nonlinearity correction enabled: true
Boxcar width: 10
XAxis mode: Wavelengths
Number of Pixels in Spectrum: 2068
>>>>>Begin Spectral Data<<<<<
179.565	1265.77
179.642	1324.59
179.718	1372.05
179.795	1409.95
179.871	1442.33
179.948	1461.87
180.024	1485.39
180.101	1507.85
180.177	1523.8
180.254	1546.88
180.33	1570.01
180.407	1628.22
180.483	1729.94
180.56	1824.49
180.636	1912.47
180.712	1900.86
180.789	1912.61
180.865	1924.3
180.942	1932.71
181.018	1942.51
181.095	1954.78
181.171	1959.53
181.248	1962.29
181.324	1979.08
181.4	1987.45
181.477	1999.34
181.553	2015.07
181.63	2037.43
181.706	2053.89
181.782	2060.02
181.859	2061.82
181.935	2066.44
182.011	2061.73
182.088	2075.29
182.164	2094.7
182.24	2108.3
182.317	2117.05
182.393	2113.1
182.469	2128.65
182.546	2144.02
182.622	2148.87
182.698	2147.11
182.775	2161.33
182.851	2176.04
182.927	2167.9
183.003	2163.71
183.08	2160.15
183.156	2166.33
183.232	2161.53
183.308	2150.54
183.385	2158.72
183.461	2174.46
183.537	2176.56
183.613	2192.97
183.69	2188.83
183.766	2177.7
183.842	2188.12
183.918	2193.02
183.995	2208.29
184.071	2215.81
184.147	2208.86
184.223	2199.21
184.299	2214.1
184.375	2201.88
184.452	2205.49
184.528	2259.33
184.604	2270.41
184.68	2281.92
184.756	2288.78
184.832	2289.92
184.908	2294.67
184.985	2296.01
185.061	2282.87
185.137	2293.72
185.213	2279.26
185.289	2276.93
185.365	2270.89
185.441	2267.27
185.517	2281.08
185.593	2277.51
185.669	2271.41
185.745	2284.55
185.822	2300.34
185.898	2287.4
185.974	2296.34
186.05	2289.77
186.126	2250.21
186.202	2243.32
186.278	2240.56
186.354	2230.61
186.43	2240.03
186.506	2239.08
186.582	2238.7
186.658	2243.75
186.734	2222.19
186.81	2224.57
186.886	2229.52
186.962	2242.94
187.038	2238.94
187.114	2230.47
187.19	2236.37
187.266	2227.95
187.341	2229.09
187.417	2223.62
187.493	2222.81
187.569	2225.09
187.645	2218.67
187.721	2205.25
187.797	2210.67
187.873	2213.24
187.949	2208.34
188.025	2199.35
188.101	2200.2
188.176	2206.39
188.252	2201.87
188.328	2211.43
188.404	2212.52
188.48	2204.58
188.556	2197.15
188.632	2196.58
188.707	2198.49
188.783	2193.06
188.859	2184.5
188.935	2170.94
189.011	2175.74
189.086	2170.65
189.162	2163.95
189.238	2161.19
189.314	2159.43
189.39	2156.86
189.465	2149.58
189.541	2166.33
189.617	2153.81
189.693	2152.2
189.768	2152.86
189.844	2179.04
189.92	2169.15
189.996	2178.62
190.071	2194.37
190.147	2191.99
190.223	2201.37
190.298	2192.51
190.374	2183.52
190.45	2197.08
190.526	2206.45
190.601	2200.27
190.677	2202.12
190.753	2228.35
190.828	2231.3
190.904	2248.58
190.98	2262.76
191.055	2275.32
191.131	2267.23
191.207	2287.93
191.282	2295.35
191.358	2288.74
191.433	2272.4
191.509	2284.3
191.585	2280.96
191.66	2277.92
191.736	2286.86
191.811	2277.63
191.887	2297.43
191.963	2319.04
192.038	2328.89
192.114	2326.85
192.189	2331.22
192.265	2329.94
192.34	2306.99
192.416	2308.08
192.491	2302.37
192.567	2303.56
192.642	2304.23
192.718	2302.09
192.793	2292.05
192.869	2291.43
192.944	2293.28
193.02	2300.42
193.095	2305.75
193.171	2314.22
193.246	2316.89
193.322	2312.37
193.397	2314.99
193.473	2298.51
193.548	2279.52
193.624	2280.62
193.699	2281.66
193.775	2297.66
193.85	2297.61
193.925	2307.18
194.001	2306.94
194.076	2298.66
194.152	2292.52
194.227	2284
194.302	2277.2
194.378	2277.39
194.453	2271.01
194.529	2284.91
194.604	2269.35
194.679	2262.69
194.755	2240.23
194.83	2250.9
194.905	2249.94
194.981	2259.13
195.056	2249.66
195.131	2258.66
195.207	2256.85
195.282	2245.71
195.357	2225.72
195.433	2242
195.508	2230.15
195.583	2236.9
195.659	2252.47
195.734	2257.66
195.809	2257.04
195.884	2266.46
195.96	2267.93
196.035	2287.39
196.11	2282.11
196.185	2296.05
196.261	2299.53
196.336	2335.56
196.411	2319.32
196.486	2324.46
196.561	2317.61
196.637	2328.69
196.712	2342.64
196.787	2347.83
196.862	2365.16
196.937	2375.39
197.013	2378.86
197.088	2389.62
197.163	2411.91
197.238	2429.82
197.313	2429.82
197.388	2444.15
197.464	2475.15
197.539	2488.53
197.614	2479.2
197.689	2491.39
197.764	2506.87
197.839	2529.15
197.914	2519
197.989	2544.48
198.065	2560.15
198.14	2611.28
198.215	2639.57
198.29	2653.34
198.365	2664.77
198.44	2673.82
198.515	2708.03
198.59	2725.99
198.665	2754.15
198.74	2761.87
198.815	2761.73
198.89	2784.26
198.965	2818.82
199.04	2813.86
199.115	2826.63
199.19	2870.61
199.265	2873.85
199.34	2885.86
199.415	2918.48
199.49	2940.73
199.565	2951.5
199.64	2972.33
199.715	2974.14
199.79	2980.67
199.865	2986.59
199.94	2990.68
200.015	3026.11
200.09	3027.88
200.165	3035.74
200.24	3042.89
200.315	3085.66
200.39	3103.01
200.464	3109.35
200.539	3108.92
200.614	3127.04
200.689	3156.13
200.764	3162.86
200.839	3180.69
200.914	3186.22
200.989	3176.96
201.063	3195.47
201.138	3179.5
201.213	3186.47
201.288	3161.33
201.363	3168.58
201.438	3167.06
201.512	3180.41
201.587	3162.85
201.662	3167.57
201.737	3178.88
201.812	3189.13
201.886	3152.43
201.961	3161.16
202.036	3152.77
202.111	3150.62
202.186	3120.69
202.26	3099.46
202.335	3077.14
202.41	3070.9
202.485	3054.74
202.559	3035.19
202.634	3004.81
202.709	3013.15
202.784	2991.03
202.858	2992.94
202.933	2970.91
203.008	2967.34
203.082	2950.41
203.157	2946.7
203.232	2904.95
203.306	2882.25
203.381	2847.35
203.456	2825.19
203.53	2803.73
203.605	2782.62
203.68	2758.74
203.754	2751.31
203.829	2737.92
203.904	2717.43
203.978	2706.24
204.053	2708.71
204.127	2695.95
204.202	2695.99
204.277	2677.27
204.351	2670.17
204.426	2662.45
204.5	2654.59
204.575	2618.21
204.65	2624.5
204.724	2619.02
204.799	2622.97
204.873	2619.83
204.948	2617.64
205.022	2605.4
205.097	2595.96
205.171	2610.01
205.246	2618.3
205.32	2617.49
205.395	2615.26
205.469	2607.21
205.544	2614.26
205.618	2593.97
205.693	2604.88
205.767	2589.74
205.842	2610.27
205.916	2603.89
205.991	2593.12
206.065	2598.5
206.14	2613.07
206.214	2606.3
206.289	2601.82
206.363	2615.63
206.438	2616.4
206.512	2625.64
206.586	2644.4
206.661	2653.5
206.735	2629.27
206.81	2626.46
206.884	2641.74
206.958	2630.69
207.033	2645.64
207.107	2650.84
207.181	2686.82
207.256	2680.72
207.33	2702.58
207.405	2715.55
207.479	2735.75
207.553	2742.66
207.628	2725.09
207.702	2736.57
207.776	2735.33
207.851	2731.09
207.925	2743.43
207.999	2740.81
208.073	2736.86
208.148	2739.53
208.222	2725.23
208.296	2759
208.371	2777.59
208.445	2785.93
208.519	2810.42
208.593	2826.76
208.668	2821.33
208.742	2824.71
208.816	2827.57
208.89	2839.78
208.965	2836.77
209.039	2842.4
209.113	2862.18
209.187	2884.32
209.261	2882.65
209.336	2901.24
209.41	2923.31
209.484	2926.94
209.558	2952.92
209.632	2967.93
209.707	2981
209.781	3003.21
209.855	3017.8
209.929	3034.7
210.003	3046.33
210.077	3048.52
210.151	3096.11
210.226	3132.22
210.3	3156.52
210.374	3179.69
210.448	3183.55
210.522	3195.86
210.596	3207.31
210.67	3211.55
210.744	3260.45
210.818	3290.2
210.892	3311.15
210.966	3305.43
211.041	3320.41
211.115	3314.26
211.189	3337.54
211.263	3354.95
211.337	3360.05
211.411	3373.85
211.485	3367.02
211.559	3375.84
211.633	3376.99
211.707	3343.23
211.781	3350.73
211.855	3312.79
211.929	3303.45
212.003	3282.56
212.077	3292.68
212.151	3304.42
212.225	3315.21
212.299	3304.41
212.373	3294.59
212.447	3288.19
212.52	3317.73
212.594	3321.64
212.668	3329.85
212.742	3314.43
212.816	3305.46
212.89	3299.74
212.964	3294.87
213.038	3295.97
213.112	3307.33
213.186	3325.98
213.26	3301.14
213.333	3251.19
213.407	3258.58
213.481	3259.34
213.555	3271.74
213.629	3256.13
213.703	3237.19
213.777	3235.56
213.85	3206.75
213.924	3237.58
213.998	3237.1
214.072	3228.18
214.146	3207.71
214.219	3204.13
214.293	3195.69
214.367	3194.64
214.441	3199.74
214.515	3186.38
214.588	3159.43
214.662	3120.37
214.736	3089.95
214.81	3093.05
214.883	3098.19
214.957	3078.41
215.031	3060.73
215.105	3030.72
215.178	3007.83
215.252	2990.95
215.326	2957.01
215.4	2933.47
215.473	2875.24
215.547	2845.05
215.621	2820.06
215.694	2819.82
215.768	2786.65
215.842	2762.25
215.915	2735.27
215.989	2699.43
216.063	2680.36
216.136	2669.54
216.21	2659.11
216.284	2663.26
216.357	2653.35
216.431	2637.96
216.504	2637.49
216.578	2650.49
216.652	2651.97
216.725	2643.39
216.799	2645.87
216.873	2640.49
216.946	2642.4
217.02	2629.4
217.093	2616.49
217.167	2587.2
217.24	2558.66
217.314	2547
217.387	2533.39
217.461	2521.1
217.535	2527.1
217.608	2505.43
217.682	2493.77
217.755	2494.1
217.829	2472.24
217.902	2467.09
217.976	2460.76
218.049	2443.05
218.123	2421.57
218.196	2413.43
218.27	2399.9
218.343	2373.19
218.417	2367.9
218.49	2355.81
218.563	2368.76
218.637	2367.43
218.71	2386.19
218.784	2390.19
218.857	2399.66
218.931	2405.75
219.004	2404.7
219.077	2406.61
219.151	2410.65
219.224	2406.28
219.298	2401.28
219.371	2413.61
219.444	2400.24
219.518	2402.23
219.591	2403
219.665	2431.01
219.738	2440.29
219.811	2434.01
219.885	2448.82
219.958	2454.48
220.031	2453.96
220.105	2457.82
220.178	2456.87
220.251	2444.86
220.325	2451.58
220.398	2453.2
220.471	2456.44
220.544	2464.58
220.618	2453.67
220.691	2455.81
220.764	2464.05
220.838	2471
220.911	2465.24
220.984	2487.09
221.057	2494.28
221.131	2503.18
221.204	2471.41
221.277	2487.89
221.35	2522.41
221.424	2518.32
221.497	2520.79
221.57	2524.36
221.643	2533.18
221.716	2546.7
221.79	2549.08
221.863	2551.75
221.936	2551.37
222.009	2552.27
222.082	2558.23
222.155	2559.04
222.229	2581.38
222.302	2586.95
222.375	2589.43
222.448	2599.38
222.521	2599.24
222.594	2596.1
222.667	2584.67
222.74	2599.19
222.814	2593.52
222.887	2587.42
222.96	2600.95
223.033	2610.96
223.106	2620.57
223.179	2627.39
223.252	2633.11
223.325	2636.35
223.398	2635.2
223.471	2639.92
223.544	2643.58
223.617	2644.11
223.69	2652.73
223.763	2637.43
223.837	2641.29
223.91	2647.53
223.983	2627.86
224.056	2614.72
224.129	2619.39
224.202	2634.24
224.275	2628.05
224.348	2618.05
224.42	2602.62
224.493	2581.71
224.566	2572.8
224.639	2575.75
224.712	2561.5
224.785	2552.69
224.858	2550.83
224.931	2544.02
225.004	2532.45
225.077	2531.31
225.15	2502.65
225.223	2496.41
225.296	2517.91
225.369	2496.43
225.442	2483.71
225.514	2489.28
225.587	2491.28
225.66	2492.14
225.733	2485.52
225.806	2485.66
225.879	2481.09
225.952	2472.34
226.025	2483.52
226.097	2495.87
226.17	2489.06
226.243	2466.3
226.316	2459.21
226.389	2452.92
226.461	2457.87
226.534	2461.92
226.607	2455.83
226.68	2477.62
226.753	2474.58
226.825	2444.94
226.898	2457.75
226.971	2454.51
227.044	2457.18
227.117	2460.37
227.189	2460.84
227.262	2472.99
227.335	2474.8
227.407	2467.37
227.48	2471.66
227.553	2473.85
227.626	2464.65
227.698	2465.94
227.771	2471.27
227.844	2464.46
227.916	2468.27
227.989	2450.46
228.062	2438.8
228.134	2458.75
228.207	2456.13
228.28	2447.52
228.352	2447.57
228.425	2445.52
228.498	2453.38
228.57	2439
228.643	2448.91
228.716	2441.43
228.788	2431.57
228.861	2424.95
228.934	2440
229.006	2435.81
229.079	2429.19
229.151	2420.47
229.224	2402.06
229.296	2405.91
229.369	2429.25
229.442	2443.83
229.514	2436.4
229.587	2451.97
229.659	2430.49
229.732	2430.87
229.804	2443.25
229.877	2466.3
229.949	2472.97
230.022	2488.69
230.094	2486.79
230.167	2481.03
230.239	2471.6
230.312	2468.84
230.384	2486.75
230.457	2486.42
230.529	2490.27
230.602	2491.18
230.674	2490.84
230.747	2505.64
230.819	2516.5
230.892	2481.78
230.964	2477.16
231.037	2485.01
231.109	2479.11
231.181	2487.11
231.254	2472.26
231.326	2465.78
231.399	2458.87
231.471	2450.73
231.544	2425.91
231.616	2441.14
231.688	2444.19
231.761	2436.25
231.833	2428.53
231.905	2403.63
231.978	2402.82
232.05	2396.01
232.122	2393.16
232.195	2388.92
232.267	2397.87
232.339	2389.82
232.412	2405.72
232.484	2397.62
232.556	2385.78
232.629	2403.3
232.701	2404.83
232.773	2410.54
232.846	2404.97
232.918	2404.16
232.99	2408.73
233.062	2419.59
233.135	2419.4
233.207	2403.64
233.279	2416.96
233.351	2424.24
233.424	2423
233.496	2412.25
233.568	2437.39
233.64	2428.2
233.713	2427.15
233.785	2424.06
233.857	2424.77
233.929	2407.4
234.001	2422.17
234.074	2441.53
234.146	2419.39
234.218	2419.3
234.29	2416.63
234.362	2409.92
234.434	2389.16
234.507	2374.02
234.579	2353.51
234.651	2346.32
234.723	2351.84
234.795	2356.22
234.867	2352.51
234.939	2365.74
235.012	2367.55
235.084	2366.98
235.156	2373.36
235.228	2365.22
235.3	2357.22
235.372	2358.7
235.444	2373.59
235.516	2346.88
235.588	2349.64
235.66	2350.4
235.732	2338.88
235.804	2398.03
235.876	2411.21
235.948	2429.92
236.02	2432.82
236.092	2433.49
236.164	2436.44
236.236	2435.68
236.308	2429.25
236.38	2434.92
236.452	2427.2
236.524	2430.68
236.596	2445.31
236.668	2452.64
236.74	2458.88
236.812	2464.88
236.884	2474.97
236.956	2478.49
237.028	2475.02
237.1	2465.64
237.172	2486.45
237.244	2509.07
237.316	2469.01
237.388	2459.73
237.46	2450.21
237.532	2465.25
237.604	2461.78
237.675	2475.26
237.747	2482.59
237.819	2475.4
237.891	2474.17
237.963	2467.84
238.035	2467.08
238.107	2428.54
238.178	2445.22
238.25	2446.26
238.322	2469.04
238.394	2449.94
238.466	2446.52
238.538	2462.41
238.609	2471.89
238.681	2452.79
238.753	2442.55
238.825	2446.88
238.897	2455.83
238.968	2480.13
239.04	2474.32
239.112	2507.74
239.184	2497.6
239.255	2497.84
239.327	2506.88
239.399	2511.5
239.471	2522.78
239.542	2528.35
239.614	2549.15
239.686	2522.58
239.758	2535.43
239.829	2524.71
239.901	2539.9
239.973	2542.09
240.044	2543.7
240.116	2545.8
240.188	2548.8
240.259	2546.75
240.331	2539.89
240.403	2547.99
240.474	2527.78
240.546	2521.5
240.618	2499.11
240.689	2494.35
240.761	2496.93
240.833	2513.59
240.904	2509.16
240.976	2507.26
241.048	2509.83
241.119	2518.41
241.191	2529.41
241.262	2545.85
241.334	2542.08
241.405	2543.8
241.477	2541.42
241.549	2543.94
241.62	2548.66
241.692	2558.09
241.763	2577.47
241.835	2578.24
241.906	2579.14
241.978	2567.71
242.049	2585.76
242.121	2600.52
242.192	2619
242.264	2606.67
242.335	2590.86
242.407	2602.43
242.478	2597.48
242.55	2602.96
242.621	2594.24
242.693	2589.81
242.764	2584.61
242.836	2584.04
242.907	2593.28
242.979	2601.24
243.05	2606.81
243.122	2609.38
243.193	2606.14
243.264	2581.66
243.336	2581.95
243.407	2590.9
243.479	2616.57
243.55	2620.81
243.622	2623.67
243.693	2623.01
243.764	2643.15
243.836	2633.59
243.907	2628.78
243.978	2633.73
244.05	2637.68
244.121	2621.3
244.192	2636.26
244.264	2617.68
244.335	2620.77
244.407	2602.01
244.478	2602.96
244.549	2597.24
244.62	2583.43
244.692	2580.86
244.763	2591.62
244.834	2585.34
244.906	2578.38
244.977	2577.43
245.048	2589.01
245.119	2580.34
245.191	2568.72
245.262	2545.58
245.333	2564.81
245.405	2567.76
245.476	2575
245.547	2576.81
245.618	2591.05
245.689	2587.24
245.761	2597.47
245.832	2595.47
245.903	2605.24
245.974	2611.57
246.045	2609.67
246.117	2631.58
246.188	2621.15
246.259	2613.49
246.33	2616.15
246.401	2614.3
246.473	2600.43
246.544	2587.66
246.615	2600.38
246.686	2599.04
246.757	2614.47
246.828	2604.37
246.899	2620.53
246.97	2603.15
247.042	2594.91
247.113	2603.68
247.184	2627.04
247.255	2620.94
247.326	2620.46
247.397	2617.41
247.468	2617.61
247.539	2619.37
247.61	2601.6
247.681	2616.45
247.752	2630.98
247.823	2622.65
247.894	2624.03
247.965	2614.22
248.037	2611.93
248.108	2599.02
248.179	2600.74
248.25	2600.31
248.321	2610.4
248.392	2598.44
248.463	2625.58
248.534	2624.39
248.605	2627.82
248.675	2620.05
248.746	2622.86
248.817	2631.72
248.888	2640.2
248.959	2623.15
249.03	2628.92
249.101	2630.82
249.172	2625.49
249.243	2602.44
249.314	2621.06
249.385	2625.06
249.456	2636.2
249.527	2633.54
249.598	2639.11
249.669	2636.78
249.739	2641.16
249.81	2645.68
249.881	2630.59
249.952	2627.35
250.023	2626.11
250.094	2610.53
250.165	2600.8
250.235	2599.47
250.306	2597.28
250.377	2581.56
250.448	2589.32
250.519	2567.99
250.59	2584.52
250.66	2580.76
250.731	2600.43
250.802	2597.95
250.873	2600.14
250.944	2602.33
251.014	2596.33
251.085	2618.49
251.156	2628.54
251.227	2642.55
251.297	2652.56
251.368	2664.32
251.439	2673.61
251.51	2687.29
251.58	2679.1
251.651	2675.81
251.722	2687.48
251.792	2670.53
251.863	2668.48
251.934	2685.01
252.005	2716.64
252.075	2716.07
252.146	2730.5
252.217	2741.74
252.287	2748.7
252.358	2746.79
252.429	2769.77
252.499	2765.43
252.57	2770.97
252.641	2775.87
252.711	2773.73
252.782	2758.91
252.852	2782.79
252.923	2780.07
252.994	2780.5
253.064	2793.88
253.135	2779.07
253.205	2771.64
253.276	2791.98
253.347	2814.93
253.417	2802.07
253.488	2794.78
253.558	2789.73
253.629	2787.92
253.699	2789.87
253.77	2797.02
253.841	2793.78
253.911	2789.82
253.982	2793.92
254.052	2795.11
254.123	2801.16
254.193	2799.73
254.264	2838.78
254.334	2822.76
254.405	2808.75
254.475	2795.18
254.546	2795.08
254.616	2815.09
254.687	2820.14
254.757	2826.14
254.827	2821.14
254.898	2825.43
254.968	2827.33
255.039	2817.71
255.109	2824.43
255.18	2810.66
255.25	2787.88
255.321	2796.46
255.391	2784.16
255.461	2807.79
255.532	2777.67
255.602	2770.52
255.673	2747.56
255.743	2733.53
255.813	2707.86
255.884	2719.06
255.954	2729.06
256.024	2745.89
256.095	2746.46
256.165	2733.36
256.235	2734.41
256.306	2725.59
256.376	2740.27
256.446	2747.19
256.517	2755.43
256.587	2766.49
256.657	2769.96
256.728	2774.34
256.798	2770.96
256.868	2763.72
256.938	2750.56
257.009	2761.81
257.079	2766.62
257.149	2794.21
257.219	2770.23
257.29	2775.85
257.36	2755.37
257.43	2763.71
257.5	2740.03
257.571	2730.69
257.641	2738.12
257.711	2722.3
257.781	2730.11
257.852	2727.2
257.922	2700.9
257.992	2698.14
258.062	2688.37
258.132	2695.76
258.202	2690.75
258.273	2690.37
258.343	2707.39
258.413	2699.1
258.483	2697.24
258.553	2684.14
258.623	2675.7
258.693	2682.08
258.764	2702.99
258.834	2721.81
258.904	2718.09
258.974	2708.8
259.044	2707.14
259.114	2710.47
259.184	2713.85
259.254	2711.28
259.324	2692.32
259.394	2703.37
259.464	2720.52
259.535	2715.81
259.605	2709.66
259.675	2699.19
259.745	2702.14
259.815	2685.7
259.885	2679.51
259.955	2707.5
260.025	2696.89
260.095	2690.79
260.165	2696.03
260.235	2708.81
260.305	2694.37
260.375	2682.51
260.445	2705.94
260.515	2719.33
260.585	2732.1
260.655	2730.1
260.725	2736.01
260.795	2741.34
260.865	2757.79
260.934	2744.34
261.004	2752.21
261.074	2748.06
261.144	2769.35
261.214	2778.31
261.284	2778.12
261.354	2788.07
261.424	2773.04
261.494	2795.95
261.564	2794.62
261.634	2798.86
261.703	2772.27
261.773	2779.22
261.843	2784.98
261.913	2779.7
261.983	2761.73
262.053	2761.64
262.123	2757.68
262.192	2740.92
262.262	2748.83
262.332	2733.82
262.402	2739.82
262.472	2737.63
262.541	2718.58
262.611	2724.35
262.681	2713.43
262.751	2722.15
262.821	2716.15
262.89	2699.28
262.96	2701.23
263.03	2719.96
263.1	2719.63
263.169	2725.63
263.239	2730.87
263.309	2751.32
263.379	2758.71
263.448	2758.28
263.518	2760.24
263.588	2759.95
263.657	2779.24
263.727	2790.25
263.797	2788.25
263.867	2780.96
263.936	2765.34
264.006	2777.43
264.076	2770.28
264.145	2767.85
264.215	2758.51
264.285	2767.13
264.354	2749.28
264.424	2738.17
264.494	2718.01
264.563	2710.58
264.633	2727.98
264.702	2727.55
264.772	2703.33
264.842	2694.71
264.911	2700.75
264.981	2684.74
265.05	2682.02
265.12	2675.5
265.19	2673.73
265.259	2680.12
265.329	2687.41
265.398	2688.46
265.468	2710.9
265.537	2704.99
265.607	2708.28
265.676	2718.86
265.746	2721.62
265.815	2734.76
265.885	2733.14
265.955	2724.62
266.024	2720.09
266.094	2692.17
266.163	2708.38
266.232	2722.48
266.302	2718.72
266.371	2719.19
266.441	2719.1
266.51	2727.44
266.58	2720.43
266.649	2704.23
266.719	2713.57
266.788	2713.19
266.858	2730.87
266.927	2704.57
266.996	2705.61
267.066	2705.14
267.135	2690.37
267.205	2695.9
267.274	2693.23
267.343	2703.43
267.413	2700.57
267.482	2712.15
267.552	2728.01
267.621	2707.28
267.69	2685.46
267.76	2686.22
267.829	2687.31
267.898	2686.65
267.968	2676.79
268.037	2682.36
268.106	2692.03
268.176	2674.69
268.245	2669.54
268.314	2660.06
268.384	2672.16
268.453	2673.3
268.522	2676.68
268.592	2684.97
268.661	2671.44
268.73	2676.53
268.799	2664.15
268.869	2681.58
268.938	2658.43
269.007	2645.9
269.076	2646.14
269.146	2654.52
269.215	2657.9
269.284	2671.58
269.353	2663.91
269.422	2656.53
269.492	2650.44
269.561	2618.62
269.63	2625.05
269.699	2617.38
269.768	2617.95
269.838	2617.91
269.907	2621.81
269.976	2604.33
270.045	2578.58
270.114	2585.15
270.183	2579.53
270.253	2578.86
270.322	2560.72
270.391	2560.29
270.46	2572.68
270.529	2580.58
270.598	2583.59
270.667	2575.63
270.736	2558.95
270.806	2561.38
270.875	2573.62
270.944	2569.81
271.013	2602
271.082	2599.62
271.151	2604.81
271.22	2580.01
271.289	2576.39
271.358	2568.81
271.427	2571.29
271.496	2577.48
271.565	2568.61
271.634	2568.95
271.703	2577.86
271.772	2585.66
271.841	2584.43
271.91	2567.76
271.979	2561.42
272.048	2545.8
272.117	2553.37
272.186	2545.04
272.255	2552.71
272.324	2555.8
272.393	2553.66
272.462	2540.84
272.531	2540.46
272.6	2532.08
272.669	2545.12
272.738	2538.17
272.807	2539.83
272.876	2526.41
272.945	2556.7
273.013	2563.42
273.082	2569.85
273.151	2555.09
273.22	2554.28
273.289	2550.94
273.358	2567.23
273.427	2560.09
273.496	2567.57
273.564	2569.38
273.633	2577.71
273.702	2559.61
273.771	2553.32
273.84	2557.8
273.909	2562.37
273.977	2561.28
274.046	2558.71
274.115	2568.47
274.184	2556.33
274.253	2555.52
274.322	2567.57
274.39	2541.37
274.459	2529.03
274.528	2505.27
274.597	2505.61
274.665	2508.13
274.734	2520.13
274.803	2511.6
274.872	2509.6
274.94	2496.08
275.009	2551.71
275.078	2538.28
275.147	2545.14
275.215	2544.85
275.284	2552.9
275.353	2541.33
275.421	2518.05
275.49	2534.53
275.559	2526.96
275.627	2524.68
275.696	2516.53
275.765	2520.34
275.833	2513.21
275.902	2516.49
275.971	2531.67
276.039	2547.77
276.108	2554.73
276.177	2553.68
276.245	2546.06
276.314	2544.54
276.383	2557.58
276.451	2495.09
276.52	2501.04
276.588	2509.95
276.657	2518.43
276.725	2507.09
276.794	2509.19
276.863	2526.61
276.931	2506.22
277	2515.75
277.068	2530.41
277.137	2551.03
277.205	2550.6
277.274	2571.41
277.342	2583.46
277.411	2566.52
277.48	2552.51
277.548	2541.75
277.617	2542.7
277.685	2537.27
277.754	2542.13
277.822	2530.75
277.89	2547.71
277.959	2544.57
278.027	2528.14
278.096	2512.14
278.164	2543.73
278.233	2538.54
278.301	2528.31
278.37	2533.4
278.438	2519.21
278.507	2519.11
278.575	2492.4
278.643	2490.78
278.712	2472.02
278.78	2456.16
278.849	2469.1
278.917	2480.25
278.985	2475.53
279.054	2481.63
279.122	2493.73
279.191	2494.34
279.259	2493.15
279.327	2472.38
279.396	2484.53
279.464	2481.15
279.532	2492.81
279.601	2485.99
279.669	2483.76
279.737	2496.09
279.806	2501.85
279.874	2512.09
279.942	2513.28
280.011	2510.42
280.079	2516.62
280.147	2535.57
280.215	2543.71
280.284	2538.42
280.352	2523.85
280.42	2532.85
280.488	2518.76
280.557	2513.52
280.625	2513.76
280.693	2513.71
280.761	2518.23
280.83	2500.9
280.898	2512.61
280.966	2490.19
281.034	2455.61
281.102	2440.62
281.171	2435.29
281.239	2440.63
281.307	2431.43
281.375	2417.01
281.443	2443.49
281.512	2437.53
281.58	2441.96
281.648	2423.3
281.716	2421.45
281.784	2420.92
281.852	2413.64
281.92	2415.68
281.989	2423.45
282.057	2405.5
282.125	2447
282.193	2442.62
282.261	2446.05
282.329	2440.57
282.397	2448.23
282.465	2454.71
282.533	2471.88
282.601	2461.46
282.67	2439.79
282.738	2431.51
282.806	2443.22
282.874	2425.12
282.942	2430.55
283.01	2423.5
283.078	2433.21
283.146	2429.21
283.214	2437.73
283.282	2439.31
283.35	2450.21
283.418	2442.21
283.486	2448.3
283.554	2406.09
283.622	2401.23
283.69	2397.85
283.758	2392.38
283.826	2395
283.894	2402.85
283.962	2422.62
284.03	2435.9
284.098	2437.38
284.165	2430.05
284.233	2427.53
284.301	2423.72
284.369	2412.67
284.437	2400.2
284.505	2392.15
284.573	2408.19
284.641	2393.58
284.709	2399.01
284.777	2377.68
284.845	2385.35
284.912	2385.44
284.98	2391.91
285.048	2385.44
285.116	2391.63
285.184	2406.77
285.252	2406.06
285.319	2390.35
285.387	2377.48
285.455	2360.92
285.523	2364.4
285.591	2362.4
285.659	2366.11
285.726	2382.4
285.794	2367.07
285.862	2370.02
285.93	2371.17
285.997	2365.22
286.065	2364.88
286.133	2357.69
286.201	2359.93
286.269	2349.07
286.336	2347.17
286.404	2339.84
286.472	2354.31
286.539	2333.18
286.607	2315.52
286.675	2316.19
286.743	2324.71
286.81	2318.99
286.878	2336.08
286.946	2330.37
287.013	2334.08
287.081	2334.03
287.149	2315.7
287.216	2336.45
287.284	2330.79
287.352	2332.4
287.419	2330.6
287.487	2346.64
287.555	2349.3
287.622	2345.5
287.69	2347.78
287.758	2359.16
287.825	2355.02
287.893	2340.41
287.96	2347.59
288.028	2358.15
288.096	2359.77
288.163	2358.92
288.231	2345.73
288.298	2339.64
288.366	2353.21
288.433	2347.93
288.501	2336.03
288.569	2335.46
288.636	2324.03
288.704	2333.27
288.771	2335.65
288.839	2320.37
288.906	2309.61
288.974	2314.38
289.041	2306.57
289.109	2291.2
289.176	2295.11
289.244	2295.92
289.311	2308.1
289.379	2311.39
289.446	2308.1
289.514	2303.25
289.581	2303.1
289.649	2303.15
289.716	2300.91
289.783	2286.87
289.851	2301.71
289.918	2297.96
289.986	2305
290.053	2305.57
290.121	2300.52
290.188	2297.24
290.255	2323.27
290.323	2313.19
290.39	2303.19
290.458	2307.9
290.525	2317.89
290.592	2304.13
290.66	2299.32
290.727	2286.09
290.794	2295.94
290.862	2290.57
290.929	2289.47
290.996	2278.67
291.064	2281.57
291.131	2287.95
291.198	2293.47
291.266	2289.76
291.333	2284.86
291.4	2281.43
291.468	2296.62
291.535	2281.39
291.602	2281.35
291.669	2267.78
291.737	2266.21
291.804	2259.02
291.871	2267.78
291.938	2270.06
292.006	2294.59
292.073	2300.87
292.14	2306.86
292.207	2289.92
292.275	2285.88
292.342	2288.74
292.409	2313.63
292.476	2334.72
292.543	2318.07
292.611	2313.78
292.678	2323.21
292.745	2344.34
292.812	2347.72
292.879	2331.62
292.946	2335.14
293.014	2341.38
293.081	2345.57
293.148	2352.37
293.215	2360.51
293.282	2349
293.349	2353.52
293.416	2324.85
293.484	2336.04
293.551	2339.85
293.618	2355.21
293.685	2376.59
293.752	2363.08
293.819	2349.22
293.886	2329.41
293.953	2334.31
294.02	2337.93
294.087	2338.36
294.154	2324.98
294.221	2334.84
294.288	2330.32
294.356	2344.69
294.423	2342.5
294.49	2325.9
294.557	2333.37
294.624	2321.04
294.691	2336.89
294.758	2329.61
294.825	2330.8
294.892	2314.33
294.959	2305.86
295.026	2306
295.093	2289.76
295.16	2288.15
295.226	2284.62
295.293	2306.67
295.36	2304.53
295.427	2312.19
295.494	2313.81
295.561	2314.43
295.628	2332.73
295.695	2343.63
295.762	2334.92
295.829	2342.2
295.896	2355.29
295.963	2360.71
296.03	2365.28
296.096	2365.76
296.163	2373.8
296.23	2385.56
296.297	2394.46
296.364	2392.36
296.431	2393.84
296.498	2382.85
296.564	2401.98
296.631	2399.74
296.698	2375.41
296.765	2389.79
296.832	2374.55
296.899	2356.85
296.965	2372.89
297.032	2341.97
297.099	2355.83
297.166	2360.83
297.233	2347.12
297.299	2334.61
297.366	2329.03
297.433	2325.51
297.5	2331.37
297.566	2321.66
297.633	2312.81
297.7	2310.57
297.767	2301.25
297.833	2303.53
297.9	2304.91
297.967	2283.17
298.033	2292.02
298.1	2317.59
298.167	2302.31
298.234	2302.12
298.3	2312.73
298.367	2300.45
298.434	2305.35
298.5	2288.54
298.567	2280.64
298.634	2276.31
298.7	2289.97
298.767	2288.64
298.834	2296.87
298.9	2285.3
298.967	2276.21
299.033	2282.93
299.1	2291.64
299.167	2304.77
299.233	2292.96
299.3	2303.38
299.366	2315.89
299.433	2327.08
299.5	2296.42
299.566	2298.57
299.633	2309.7
299.699	2314.22
299.766	2308.32
299.832	2310.42
299.899	2316.23
299.965	2325.94
300.032	2320.85
300.099	2324.99
300.165	2323.99
300.232	2318.28
300.298	2315.56
300.365	2328.03
300.431	2326.03
300.498	2318.99
300.564	2320.22
300.631	2330.5
300.697	2339.17
300.763	2340.55
300.83	2330.31
300.896	2343.39
300.963	2352.2
301.029	2357.48
301.096	2357.15
301.162	2367.05
301.229	2359.81
301.295	2346.92
301.361	2347.91
301.428	2350.53
301.494	2332.02
301.561	2334.97
301.627	2334.4
301.693	2332.83
301.76	2335.54
301.826	2329.31
301.892	2337.97
301.959	2348.21
302.025	2342.26
302.092	2337.59
302.158	2338.59
302.224	2341.54
302.291	2329.41
302.357	2322.41
302.423	2310.61
302.49	2299.61
302.556	2311.04
302.622	2309.09
302.688	2318.84
302.755	2328.84
302.821	2337.6
302.887	2347.25
302.954	2341.92
303.02	2351.54
303.086	2361.25
303.152	2355.73
303.219	2349.87
303.285	2353.35
303.351	2359.64
303.417	2361.4
303.483	2350.83
303.55	2345.74
303.616	2346.65
303.682	2349.26
303.748	2344.46
303.815	2362.79
303.881	2375.45
303.947	2362.64
304.013	2365.35
304.079	2358.26
304.145	2339.03
304.212	2335.41
304.278	2332.04
304.344	2330.85
304.41	2320.52
304.476	2308.14
304.542	2303.43
304.608	2312.28
304.674	2298.29
304.741	2291.38
304.807	2294.91
304.873	2300.71
304.939	2320.61
305.005	2302.24
305.071	2298.76
305.137	2302.47
305.203	2277.34
305.269	2275.58
305.335	2288.62
305.401	2290.15
305.467	2292.38
305.533	2302.28
305.599	2313.8
305.666	2323.13
305.732	2324.79
305.798	2340.22
305.864	2370.88
305.93	2380.78
305.996	2380.4
306.062	2382.11
306.128	2380.78
306.194	2370.88
306.259	2374.49
306.325	2361.73
306.391	2376.58
306.457	2387.38
306.523	2394.67
306.589	2421.99
306.655	2415.71
306.721	2400
306.787	2389.81
306.853	2406.24
306.919	2393.53
306.985	2390.63
307.051	2386.87
307.117	2385.3
307.183	2382.35
307.248	2357.63
307.314	2363.77
307.38	2369.53
307.446	2380.2
307.512	2375.15
307.578	2385.1
307.644	2382.72
307.709	2390.19
307.775	2389.62
307.841	2393.05
307.907	2390.33
307.973	2371.57
308.039	2377.14
308.104	2385.14
308.17	2389.56
308.236	2377.66
308.302	2387.22
308.368	2378.89
308.433	2382.66
308.499	2382.7
308.565	2371.04
308.631	2377.66
308.696	2360.05
308.762	2352
308.828	2357.24
308.894	2342.3
308.959	2325.12
309.025	2320.37
309.091	2322.08
309.156	2318.7
309.222	2323.41
309.288	2319.08
309.354	2304.43
309.419	2307.95
309.485	2297.96
309.551	2304.76
309.616	2294.48
309.682	2295.96
309.748	2295.15
309.813	2293.68
309.879	2288.11
309.945	2285.92
310.01	2281.64
310.076	2289.01
310.141	2291.63
310.207	2278.11
310.273	2287.19
310.338	2295.09
310.404	2284.72
310.469	2273.82
310.535	2268.2
310.601	2249.45
310.666	2260.78
310.732	2279.53
310.797	2269.15
310.863	2266.44
310.928	2264.82
310.994	2275.24
311.059	2273.24
311.125	2273.81
311.191	2287.86
311.256	2281.77
311.322	2288.91
311.387	2272.21
311.453	2699.51
311.518	2673.88
311.584	2676.02
311.649	2685.49
311.715	2679.26
311.78	2686.44
311.846	2682.44
311.911	2692.2
311.976	2699.77
312.042	2686.77
312.107	2672.21
312.173	2671.88
312.238	2668.55
312.304	2669.26
312.369	2665.17
312.434	2659.6
312.5	2655.37
312.565	2627.28
312.631	2639.42
312.696	2638.13
312.761	2648.12
312.827	2220.67
312.892	2265.36
312.958	2263.79
313.023	2264.4
313.088	2273.73
313.154	2267.21
313.219	2263.84
313.284	2259.5
313.35	2258.74
313.415	2255.13
313.48	2257.84
313.546	2261.26
313.611	2276.83
313.676	2272.45
313.741	2267.4
313.807	2280.64
313.872	2289.63
313.937	2301.95
314.003	2318.47
314.068	2322.47
314.133	2334.84
314.198	2328.9
314.264	2315.27
314.329	2311.04
314.394	2310.18
314.459	2308.04
314.525	2332.74
314.59	2334.5
314.655	2325.46
314.72	2338.36
314.785	2345.59
314.851	2341.59
314.916	2328.13
314.981	2316.8
315.046	2313.23
315.111	2306.05
315.176	2297.67
315.242	2304.38
315.307	2308.19
315.372	2287.96
315.437	2280.34
315.502	2273.77
315.567	2288.34
315.632	2276.73
315.698	2283.91
315.763	2283.39
315.828	2283.91
315.893	2284.63
315.958	2289.05
316.023	2294.67
316.088	2284.81
316.153	2277.49
316.218	2289.81
316.283	2292.09
316.348	2291.19
316.413	2307.61
316.479	2314.37
316.544	2304.52
316.609	2303.23
316.674	2290.24
316.739	2286.1
316.804	2286.77
316.869	2286.34
316.934	2280.15
316.999	2285.72
317.064	2268.73
317.129	2263.21
317.194	2263.3
317.259	2249.16
317.324	2235.7
317.389	2225.52
317.454	2224.62
317.518	2228.18
317.583	2236.99
317.648	2251.41
317.713	2256.22
317.778	2234.99
317.843	2246.79
317.908	2245.27
317.973	2240.94
318.038	2253.83
318.103	2253.98
318.168	2260.78
318.233	2266.35
318.297	2258.07
318.362	2257.88
318.427	2260.45
318.492	2273.45
318.557	2259.03
318.622	2271.89
318.687	2286.44
318.751	2285.49
318.816	2291.3
318.881	2294.63
318.946	2278.88
319.011	2270.36
319.075	2268.4
319.14	2272.45
319.205	2265.45
319.27	2272.44
319.335	2267.73
319.399	2262.88
319.464	2276.16
319.529	2261.21
319.594	2260.5
319.658	2269.26
319.723	2265.5
319.788	2274.11
319.853	2254.93
319.917	2269.91
319.982	2254.2
320.047	2256.72
320.112	2271.28
320.176	2261.34
320.241	2265.67
320.306	2276.14
320.37	2274.61
320.435	2281.09
320.5	2295.08
320.564	2292.94
320.629	2288.71
320.694	2295.42
320.758	2292.56
320.823	2282.95
320.888	2297.51
320.952	2284.09
321.017	2277.76
321.082	2278.76
321.146	2284.94
321.211	2291.18
321.275	2287.23
321.34	2282.9
321.405	2276.19
321.469	2264.48
321.534	2259.73
321.598	2247.83
321.663	2254.02
321.727	2261.16
321.792	2251.45
321.857	2242.69
321.921	2244.17
321.986	2238.94
322.05	2218.62
322.115	2221.1
322.179	2218.15
322.244	2197.07
322.308	2205.21
322.373	2197.93
322.437	2193.36
322.502	2198.84
322.566	2192.89
322.631	2193.13
322.695	2189.99
322.76	2183.8
322.824	2189.42
322.889	2185.14
322.953	2180.24
323.018	2148.84
323.082	2118.78
323.146	2104.47
323.211	2089.05
323.275	2081.58
323.34	2074.88
323.404	2077.26
323.468	2066.08
323.533	2058.32
323.597	2048.72
323.662	2031.65
323.726	2033.45
323.79	2021.04
323.855	1994.11
323.919	1979.27
323.983	1969.95
324.048	1956.64
324.112	2172.91
324.177	2157.07
324.241	2060.25
324.305	1964.81
324.37	1874.83
324.434	1792.08
324.498	1788.15
324.562	1777.76
324.627	1759.28
324.691	1751.37
324.755	1736.12
324.82	1715.63
324.884	1697.42
324.948	1695.83
325.012	1676.6
325.077	1636.08
