Data from 20250704_urea_0.1M_MAYP1162681_11-18-30-697.txt Node
Date: Fri Jul 04 11:18:30 BST 2025
User: adleo
Spectrometer: MAYP116268
Trigger mode: 0
Integration Time (sec): 1.000000E0
Scans to average: 1
Electric dark correction enabled: true
Nonlinearity correction enabled: true
Boxcar width: 10
XAxis mode: Wavelengths
Number of Pixels in Spectrum: 2068
>>>>>Begin Spectral Data<<<<<
179.565	1241.61
179.642	1299.72
179.718	1341.52
179.795	1384.47
179.871	1420.11
179.948	1440.06
180.024	1461.47
180.101	1484.06
180.177	1498.33
180.254	1522.56
180.33	1546.72
180.407	1603.5
180.483	1700.52
180.56	1793.5
180.636	1880.9
180.712	1867.06
180.789	1878.19
180.865	1891.45
180.942	1901.24
181.018	1912.03
181.095	1927.82
181.171	1933.15
181.248	1933.76
181.324	1951.69
181.4	1960.78
181.477	1974.47
181.553	1986.78
181.63	2008.04
181.706	2025.92
181.782	2037.1
181.859	2036
181.935	2038.71
182.011	2035.67
182.088	2053.84
182.164	2070.15
182.24	2085.51
182.317	2094.02
182.393	2094.69
182.469	2110.05
182.546	2125.27
182.622	2130.55
182.698	2123.89
182.775	2136.98
182.851	2150.91
182.927	2142.16
183.003	2133.46
183.08	2124.7
183.156	2134.69
183.232	2129.65
183.308	2115.48
183.385	2121.61
183.461	2140.07
183.537	2143.59
183.613	2155.77
183.69	2147.68
183.766	2141.25
183.842	2148.72
183.918	2154.72
183.995	2164.42
184.071	2165.42
184.147	2153.58
184.223	2142.35
184.299	2154.63
184.375	2142.69
184.452	2154.11
184.528	2205.36
184.604	2215.11
184.68	2225.05
184.756	2232.29
184.832	2239.42
184.908	2247.08
184.985	2247.55
185.061	2230.67
185.137	2242.52
185.213	2232.19
185.289	2233.05
185.365	2223.35
185.441	2220.16
185.517	2235.48
185.593	2231.87
185.669	2231.06
185.745	2246.38
185.822	2260.45
185.898	2252.17
185.974	2262.07
186.05	2248.98
186.126	2214.62
186.202	2210.2
186.278	2206.44
186.354	2197.21
186.43	2206.45
186.506	2204.02
186.582	2204.45
186.658	2211.91
186.734	2188.03
186.81	2188.13
186.886	2191.36
186.962	2205.4
187.038	2200.97
187.114	2191.69
187.19	2199.25
187.266	2188.46
187.341	2185.55
187.417	2179.37
187.493	2179.99
187.569	2181.6
187.645	2177.47
187.721	2166.38
187.797	2173.89
187.873	2181.46
187.949	2178.7
188.025	2167.66
188.101	2169.51
188.176	2171.42
188.252	2165.71
188.328	2174.27
188.404	2176.93
188.48	2170.98
188.556	2163.42
188.632	2165.94
188.707	2168.75
188.783	2164.42
188.859	2159.85
188.935	2151.96
189.011	2162.09
189.086	2155.86
189.162	2147.91
189.238	2144.44
189.314	2140.97
189.39	2133.07
189.465	2125.74
189.541	2140.97
189.617	2127.13
189.693	2123.99
189.768	2128.03
189.844	2155.88
189.92	2146.41
189.996	2154.22
190.071	2166.4
190.147	2167.06
190.223	2173.15
190.298	2161.83
190.374	2153.07
190.45	2163.49
190.526	2171.86
190.601	2165.44
190.677	2166.15
190.753	2194.24
190.828	2199.33
190.904	2212.94
190.98	2227.69
191.055	2237.25
191.131	2224.93
191.207	2246.19
191.282	2258.42
191.358	2251.81
191.433	2232.91
191.509	2247.74
191.585	2244.6
191.66	2244.79
191.736	2253.41
191.811	2245.7
191.887	2264.36
191.963	2284.96
192.038	2292.15
192.114	2292.29
192.189	2297.9
192.265	2297.43
192.34	2273.81
192.416	2272.62
192.491	2270.67
192.567	2274.96
192.642	2276.72
192.718	2277.34
192.793	2263.25
192.869	2252.69
192.944	2254.83
193.02	2262.97
193.095	2268.16
193.171	2274.87
193.246	2274.82
193.322	2271.91
193.397	2272.68
193.473	2258.68
193.548	2244.07
193.624	2248.16
193.699	2249.92
193.775	2264.25
193.85	2262.64
193.925	2270.92
194.001	2272.06
194.076	2265.3
194.152	2255.11
194.227	2248.12
194.302	2238.56
194.378	2244.08
194.453	2246.36
194.529	2257.45
194.604	2243.51
194.679	2237.37
194.755	2218.34
194.83	2230.72
194.905	2226.96
194.981	2235.57
195.056	2225.63
195.131	2230.53
195.207	2229.63
195.282	2218.16
195.357	2199.64
195.433	2216.15
195.508	2204.64
195.583	2209.87
195.659	2222.96
195.734	2229.39
195.809	2230.19
195.884	2241.75
195.96	2240.9
196.035	2253.93
196.11	2249.75
196.185	2263.07
196.261	2264.12
196.336	2297.1
196.411	2282.53
196.486	2287.33
196.561	2281.24
196.637	2291.85
196.712	2307.32
196.787	2308.99
196.862	2322.08
196.937	2332.83
197.013	2338.35
197.088	2355.44
197.163	2375.15
197.238	2392.92
197.313	2395.54
197.388	2407.2
197.464	2437.49
197.539	2449.67
197.614	2445.39
197.689	2458.86
197.764	2473.29
197.839	2497.81
197.914	2491.14
197.989	2512.48
198.065	2528.14
198.14	2579.65
198.215	2604.98
198.29	2616.66
198.365	2630.99
198.44	2646.47
198.515	2676.96
198.59	2689.3
198.665	2712.26
198.74	2725.94
198.815	2726.65
198.89	2749.76
198.965	2781.98
199.04	2775.83
199.115	2792.55
199.19	2834.33
199.265	2834.24
199.34	2847.73
199.415	2879.34
199.49	2899.16
199.565	2910.65
199.64	2931.28
199.715	2928.61
199.79	2938
199.865	2943.48
199.94	2944.67
200.015	2972.99
200.09	2973.99
200.165	2983.67
200.24	2989.11
200.315	3029.53
200.39	3045.55
200.464	3052.37
200.539	3053.56
200.614	3073.01
200.689	3097.38
200.764	3105.01
200.839	3123.36
200.914	3126.31
200.989	3114.53
201.063	3130.17
201.138	3113.88
201.213	3119.12
201.288	3101.62
201.363	3112.87
201.438	3116.64
201.512	3134.99
201.587	3120.59
201.662	3128.56
201.737	3143.72
201.812	3152.5
201.886	3116.94
201.961	3127.34
202.036	3115.85
202.111	3111.99
202.186	3085.06
202.26	3069.8
202.335	3049.1
202.41	3046.33
202.485	3033.46
202.559	3017.82
202.634	2993.37
202.709	3005.18
202.784	2988.07
202.858	2991.55
202.933	2973.95
203.008	2972.76
203.082	2958.6
203.157	2966.42
203.232	2931.01
203.306	2916.84
203.381	2898.15
203.456	2886.33
203.53	2878.6
203.605	2870.78
203.68	2865.63
203.754	2877.31
203.829	2880.22
203.904	2879.98
203.978	2894.47
204.053	2924.95
204.127	2939.77
204.202	2968.91
204.277	2983.74
204.351	3011.92
204.426	3038.45
204.5	3066.11
204.575	3067.73
204.65	3114.06
204.724	3149.82
204.799	3204.51
204.873	3252.92
204.948	3302.93
205.022	3346.92
205.097	3392.1
205.171	3469.53
205.246	3543.52
205.32	3603.66
205.395	3675.18
205.469	3740.16
205.544	3820.18
205.618	3882.69
205.693	3977.34
205.767	4052.73
205.842	4167.18
205.916	4253.5
205.991	4342.62
206.065	4449.61
206.14	4574.58
206.214	4677.75
206.289	4787.33
206.363	4919.02
206.438	5043.7
206.512	5172.92
206.586	5316.98
206.661	5462.45
206.735	5574.99
206.81	5710.08
206.884	5872.25
206.958	6002.1
207.033	6166.82
207.107	6326.74
207.181	6509.14
207.256	6660.5
207.33	6838.09
207.405	7008.75
207.479	7194.39
207.553	7368.14
207.628	7519.51
207.702	7696.74
207.776	7867.96
207.851	8038.06
207.925	8224.9
207.999	8392.81
208.073	8570.11
208.148	8759.38
208.222	8927.18
208.296	9143.32
208.371	9344.11
208.445	9538.25
208.519	9756.04
208.593	9964.76
208.668	10144.14
208.742	10333.95
208.816	10530.06
208.89	10737.33
208.965	10928.98
209.039	11128.04
209.113	11337.51
209.187	11552.41
209.261	11746.52
209.336	11960.41
209.41	12173.68
209.484	12364.21
209.558	12586.6
209.632	12796.18
209.707	12996.36
209.781	13208.3
209.855	13416.59
209.929	13621.51
210.003	13818.81
210.077	13999.81
210.151	14229.02
210.226	14455.91
210.3	14677.35
210.374	14880.53
210.448	15062.64
210.522	15251.35
210.596	15445.55
210.67	15630.88
210.744	15855.11
210.818	16066.61
210.892	16265.62
210.966	16443.81
211.041	16643.88
211.115	16805
211.189	17002.79
211.263	17189.31
211.337	17367.15
211.411	17548.79
211.485	17709.37
211.559	17889.52
211.633	18054.1
211.707	18177.8
211.781	18348.4
211.855	18471
211.929	18616.2
212.003	18761.83
212.077	18931.71
212.151	19088.81
212.225	19256.13
212.299	19404.51
212.373	19536.74
212.447	19680.84
212.52	19846.52
212.594	19979.63
212.668	20142.61
212.742	20257.84
212.816	20383.43
212.89	20506.18
212.964	20628.11
213.038	20763.4
213.112	20909.24
213.186	21065.49
213.26	21182.95
213.333	21260.88
213.407	21387.21
213.481	21509.68
213.555	21631.81
213.629	21733.81
213.703	21849.83
213.777	21958.92
213.85	22044.49
213.924	22193.11
213.998	22297.87
214.072	22400.56
214.146	22495.73
214.219	22578.94
214.293	22686.83
214.367	22784.22
214.441	22904.95
214.515	22999.74
214.588	23073.46
214.662	23125.92
214.736	23194.63
214.81	23290.68
214.883	23397.49
214.957	23477.29
215.031	23550.77
215.105	23617.27
215.178	23698.68
215.252	23762.19
215.326	23822.09
215.4	23891.93
215.473	23912.67
215.547	23966.69
215.621	24018.64
215.694	24099.38
215.768	24160.83
215.842	24206.7
215.915	24274.18
215.989	24309.74
216.063	24367
216.136	24439.17
216.21	24489.29
216.284	24557.11
216.357	24619.4
216.431	24667.16
216.504	24732.97
216.578	24816
216.652	24884.17
216.725	24921.66
216.799	24979.08
216.873	25029.79
216.946	25081.47
217.02	25132.42
217.093	25181.2
217.167	25218.93
217.24	25258.94
217.314	25313.04
217.387	25358.49
217.461	25388.46
217.535	25449.41
217.608	25482.13
217.682	25521.81
217.755	25581.02
217.829	25613.94
217.902	25654.33
217.976	25694.35
218.049	25725.82
218.123	25752.37
218.196	25792.91
218.27	25830.32
218.343	25859.33
218.417	25898.43
218.49	25930.33
218.563	25989.13
218.637	26024.56
218.71	26062.84
218.784	26098.71
218.857	26124.92
218.931	26166.97
219.004	26208.44
219.077	26241.42
219.151	26270.53
219.224	26285.4
219.298	26322.09
219.371	26369.07
219.444	26385.2
219.518	26402.58
219.591	26426.81
219.665	26487.18
219.738	26513.93
219.811	26531.89
219.885	26560.18
219.958	26586.89
220.031	26610.55
220.105	26631.5
220.178	26656.42
220.251	26682.06
220.325	26711.28
220.398	26737.84
220.471	26756.28
220.544	26782.12
220.618	26790.18
220.691	26814.76
220.764	26843.06
220.838	26870.49
220.911	26867.5
220.984	26901.11
221.057	26921.59
221.131	26940.9
221.204	26909.51
221.277	26938.88
221.35	26979.01
221.424	26979.44
221.497	26991.61
221.57	27002.24
221.643	27013.25
221.716	27027.93
221.79	27037.16
221.863	27026.39
221.936	27033.44
222.009	27042.57
222.082	27048.56
222.155	27046.96
222.229	27059.09
222.302	27062.42
222.375	27045.95
222.448	27058.75
222.521	27054.69
222.594	27059.52
222.667	27041.89
222.74	27063.29
222.814	27062.51
222.887	27047.15
222.96	27064.3
223.033	27072.32
223.106	27065.85
223.179	27063.33
223.252	27061.5
223.325	27050.15
223.398	27043.05
223.471	27035.52
223.544	27022.28
223.617	27015.91
223.69	27004.56
223.763	26988.91
223.837	26992.87
223.91	26993.02
223.983	26963.65
224.056	26935.84
224.129	26929.07
224.202	26927.72
224.275	26897.59
224.348	26860.88
224.42	26840.12
224.493	26797.72
224.566	26764.15
224.639	26762.17
224.712	26733.87
224.785	26711.61
224.858	26692.68
224.931	26673.51
225.004	26647.48
225.077	26631.64
225.15	26584.23
225.223	26566.02
225.296	26556.9
225.369	26511.89
225.442	26484.37
225.514	26472.15
225.587	26459.36
225.66	26433.18
225.733	26418.7
225.806	26406.53
225.879	26379.69
225.952	26337.69
226.025	26335.95
226.097	26338.03
226.17	26299.93
226.243	26256.05
226.316	26228.53
226.389	26204.44
226.461	26184.93
226.534	26166.35
226.607	26129.08
226.68	26129.18
226.753	26107.74
226.825	26065.74
226.898	26051.64
226.971	26024.13
227.044	25987.54
227.117	25958.82
227.189	25936.32
227.262	25905.18
227.335	25867.53
227.407	25847.36
227.48	25841.76
227.553	25810.67
227.626	25773.21
227.698	25752.64
227.771	25740.29
227.844	25703.36
227.916	25673.2
227.989	25624.21
228.062	25584.4
228.134	25578.41
228.207	25536.66
228.28	25493.38
228.352	25459.55
228.425	25429.53
228.498	25409.74
228.57	25374.17
228.643	25351.11
228.716	25304.83
228.788	25276.11
228.861	25246.48
228.934	25233.36
229.006	25192.29
229.079	25161.45
229.151	25120.48
229.224	25068.47
229.296	25031.85
229.369	25021.37
229.442	25008.83
229.514	24973.27
229.587	24958.31
229.659	24912.09
229.732	24891.34
229.804	24876.29
229.877	24874.6
229.949	24849.7
230.022	24827.56
230.094	24804.54
230.167	24773.71
230.239	24741.78
230.312	24702.46
230.384	24688.66
230.457	24643.16
230.529	24615.52
230.602	24583.78
230.674	24552.42
230.747	24532.45
230.819	24509.25
230.892	24437.85
230.964	24401.33
231.037	24383.73
231.109	24335.44
231.181	24314.31
231.254	24264.78
231.326	24226.38
231.399	24183.39
231.471	24136.56
231.544	24078.58
231.616	24053.88
231.688	24021.85
231.761	23979.56
231.833	23945.12
231.905	23903.44
231.978	23865.68
232.05	23822.71
232.122	23777.81
232.195	23732.23
232.267	23710.82
232.339	23670.93
232.412	23663.89
232.484	23622.71
232.556	23579.35
232.629	23576.31
232.701	23539.04
232.773	23504.9
232.846	23463.04
232.918	23422.58
232.99	23401.12
233.062	23371.22
233.135	23331.48
233.207	23280.47
233.279	23251.68
233.351	23220.63
233.424	23162.96
233.496	23118.16
233.568	23105.24
233.64	23059.05
233.713	23027.23
233.785	22979.3
233.857	22941.16
233.929	22880.65
234.001	22861.7
234.074	22837.21
234.146	22773.03
234.218	22730.27
234.29	22689.29
234.362	22635.44
234.434	22576.33
234.507	22519.97
234.579	22463.47
234.651	22423.12
234.723	22388.94
234.795	22350.52
234.867	22311.13
234.939	22291.03
235.012	22259.89
235.084	22213.56
235.156	22185.5
235.228	22133.82
235.3	22089.91
235.372	22054.91
235.444	22040.84
235.516	21969.34
235.588	21929.67
235.66	21894.24
235.732	21841.51
235.804	21854.62
235.876	21829.03
235.948	21801.07
236.02	21748.05
236.092	21704.19
236.164	21657.14
236.236	21610.2
236.308	21561.95
236.38	21512.93
236.452	21468.05
236.524	21419.04
236.596	21391.8
236.668	21352.38
236.74	21313.29
236.812	21279.31
236.884	21236.99
236.956	21183.54
237.028	21133.61
237.1	21076.78
237.172	21037.17
237.244	21011.86
237.316	20937.92
237.388	20885.29
237.46	20836.42
237.532	20815.07
237.604	20761.92
237.675	20740.86
237.747	20713
237.819	20674.35
237.891	20638.2
237.963	20583.79
238.035	20530.83
238.107	20457
238.178	20423.84
238.25	20374.3
238.322	20338.78
238.394	20268.85
238.466	20215.89
238.538	20190.2
238.609	20151.99
238.681	20094.16
238.753	20035.89
238.825	19994.25
238.897	19959.94
238.968	19940.57
239.04	19891.75
239.112	19885.49
239.184	19822.21
239.255	19770.17
239.327	19728.38
239.399	19680.15
239.471	19642.56
239.542	19615.28
239.614	19580.58
239.686	19514.52
239.758	19486.37
239.829	19442.52
239.901	19430.57
239.973	19392.21
240.044	19349.61
240.116	19311.78
240.188	19270.53
240.259	19236.89
240.331	19181.62
240.403	19149.91
240.474	19085.09
240.546	19034.5
240.618	18971.8
240.689	18923.47
240.761	18886.46
240.833	18861.74
240.904	18815.81
240.976	18775.72
241.048	18739.77
241.119	18711.24
241.191	18682.18
241.262	18658.95
241.334	18620.26
241.405	18567.39
241.477	18524.41
241.549	18477.52
241.62	18441.52
241.692	18411.74
241.763	18382.39
241.835	18341.57
241.906	18292.71
241.978	18234.88
242.049	18205.63
242.121	18187.12
242.192	18160.71
242.264	18103.22
242.335	18043.13
242.407	18010.12
242.478	17971.95
242.55	17923.56
242.621	17873.25
242.693	17828.1
242.764	17778.94
242.836	17730.08
242.907	17699.43
242.979	17665.64
243.05	17625.26
243.122	17590.46
243.193	17548.25
243.264	17485.6
243.336	17447.04
243.407	17416.15
243.479	17395.33
243.55	17358.75
243.622	17308.25
243.693	17271.77
243.764	17253.07
243.836	17204.44
243.907	17162.41
243.978	17123.18
244.05	17094.41
244.121	17041.88
244.192	17019.37
244.264	16965.73
244.335	16926.89
244.407	16878.55
244.478	16845.1
244.549	16814.55
244.62	16756.66
244.692	16717.77
244.763	16692.95
244.834	16650.3
244.906	16604.7
244.977	16565.23
245.048	16538.87
245.119	16490.86
245.191	16442.76
245.262	16385.07
245.333	16372.59
245.405	16340.73
245.476	16303.28
245.547	16267.85
245.618	16239.03
245.689	16189.58
245.761	16164.28
245.832	16127.45
245.903	16097.28
245.974	16065.52
246.045	16022
246.117	16014.62
246.188	15961.8
246.259	15917.79
246.33	15884.29
246.401	15843.27
246.473	15803.07
246.544	15764.37
246.615	15747.26
246.686	15711.98
246.757	15683.78
246.828	15633.6
246.899	15609.65
246.97	15554.84
247.042	15506.16
247.113	15480.76
247.184	15474.59
247.255	15421.95
247.326	15388.06
247.397	15355.58
247.468	15322.66
247.539	15291.52
247.61	15244.28
247.681	15226.01
247.752	15202.68
247.823	15157.47
247.894	15133.56
247.965	15090.8
248.037	15051.95
248.108	14999.75
248.179	14964.75
248.25	14930.04
248.321	14911.48
248.392	14872.06
248.463	14868.25
248.534	14840.14
248.605	14818.21
248.675	14774.73
248.746	14753.81
248.817	14722.29
248.888	14689.17
248.959	14635.33
249.03	14610.07
249.101	14568.76
249.172	14535.25
249.243	14485.02
249.314	14472.97
249.385	14439.61
249.456	14416.91
249.527	14379.07
249.598	14355.69
249.669	14323
249.739	14306.13
249.81	14279.62
249.881	14233.82
249.952	14200.13
250.023	14162.96
250.094	14114.03
250.165	14078.55
250.235	14047.61
250.306	14025.43
250.377	13985.03
250.448	13960.35
250.519	13905.25
250.59	13900.77
250.66	13860.42
250.731	13848.22
250.802	13820.41
250.873	13801.08
250.944	13781.17
251.014	13748.63
251.085	13744.87
251.156	13726.79
251.227	13708.38
251.297	13686.88
251.368	13669.67
251.439	13653.57
251.51	13641.32
251.58	13606.61
251.651	13567.28
251.722	13556.96
251.792	13514.06
251.863	13490.68
251.934	13486.1
252.005	13501.43
252.075	13474.05
252.146	13462.04
252.217	13450.95
252.287	13433.94
252.358	13409.06
252.429	13398.79
252.499	13369.58
252.57	13349.87
252.641	13332.22
252.711	13309.42
252.782	13266.76
252.852	13262.13
252.923	13236.87
252.994	13222.6
253.064	13211.51
253.135	13185.53
253.205	13155.06
253.276	13155.5
253.347	13150.48
253.417	13110.76
253.488	13075.23
253.558	13043.56
253.629	13014.35
253.699	12991.21
253.77	12970
253.841	12934.81
253.911	12913.55
253.982	12897.26
254.052	12875.71
254.123	12856.76
254.193	12829.19
254.264	12848.76
254.334	12815.31
254.405	12781.85
254.475	12742.9
254.546	12714.03
254.616	12707.23
254.687	12688.62
254.757	12666.69
254.827	12639.12
254.898	12624.61
254.968	12605.95
255.039	12570.43
255.109	12564.59
255.18	12527.96
255.25	12489.44
255.321	12484.96
255.391	12445.09
255.461	12443.99
255.532	12399.35
255.602	12370.43
255.673	12330.85
255.743	12292.05
255.813	12246.16
255.884	12233.72
255.954	12219.02
256.024	12229.43
256.095	12203.45
256.165	12168.41
256.235	12155.49
256.306	12127.77
256.376	12123
256.446	12106.76
256.517	12092.05
256.587	12081.69
256.657	12069.78
256.728	12045.97
256.798	12025.58
256.868	12003.46
256.938	11970.49
257.009	11960.32
257.079	11951.07
257.149	11957.14
257.219	11913.52
257.29	11899.59
257.36	11856.59
257.43	11847.58
257.5	11797.5
257.571	11779.43
257.641	11767.95
257.711	11728.14
257.781	11720.28
257.852	11703.9
257.922	11664.61
257.992	11651.02
258.062	11629.33
258.132	11617.86
258.202	11598.68
258.273	11571.3
258.343	11575.54
258.413	11550.92
258.483	11524.84
258.553	11488.69
258.623	11461.65
258.693	11453.27
258.764	11457.27
258.834	11461.03
258.904	11446.57
258.974	11422.33
259.044	11397.51
259.114	11384.45
259.184	11370.18
259.254	11346.71
259.324	11296.01
259.394	11284.3
259.464	11282.66
259.535	11256.01
259.605	11231.09
259.675	11210.27
259.745	11201.4
259.815	11172.29
259.885	11149.31
259.955	11161.31
260.025	11139.72
260.095	11122.13
260.165	11109.07
260.235	11105.5
260.305	11077.02
260.375	11039.92
260.445	11045.94
260.515	11045.02
260.585	11038.57
260.655	11017.8
260.725	11012.49
260.795	11019.14
260.865	11021.6
260.934	10992.45
261.004	10987.68
261.074	10970.09
261.144	10961.08
261.214	10957.85
261.284	10940.98
261.354	10934.86
261.424	10907.29
261.494	10915.73
261.564	10895.01
261.634	10892.6
261.703	10855.06
261.773	10847.16
261.843	10841.57
261.913	10814.87
261.983	10782.15
262.053	10770.2
262.123	10751.99
262.192	10719.13
262.262	10710.26
262.332	10679.76
262.402	10677.4
262.472	10660.82
262.541	10622.66
262.611	10623.48
262.681	10591.73
262.751	10576.12
262.821	10556.8
262.89	10526.63
262.96	10511.17
263.03	10511.7
263.1	10486.88
263.169	10474.88
263.239	10465.92
263.309	10473.1
263.379	10469.15
263.448	10458.94
263.518	10443.95
263.588	10431.14
263.657	10435.42
263.727	10423.43
263.797	10411.09
263.867	10383.1
263.936	10350.29
264.006	10352.89
264.076	10333.81
264.145	10318.78
264.215	10299.8
264.285	10298.16
264.354	10268.1
264.424	10243.2
264.494	10219.44
264.563	10203.79
264.633	10200.99
264.702	10182.98
264.772	10148.53
264.842	10136.48
264.911	10130.08
264.981	10103.05
265.05	10091.39
265.12	10068.17
265.19	10055.79
265.259	10043.55
265.329	10040.9
265.398	10028.19
265.468	10040.04
265.537	10018.56
265.607	10011.67
265.676	10019.33
265.746	10008.87
265.815	10005.89
265.885	9995
265.955	9969.47
266.024	9951.99
266.094	9917.21
266.163	9923.71
266.232	9922.46
266.302	9899
266.371	9882
266.441	9875.11
266.51	9871.98
266.58	9857.29
266.649	9841.25
266.719	9843.32
266.788	9833.4
266.858	9844.04
266.927	9809.56
266.996	9799.1
267.066	9787.98
267.135	9753.83
267.205	9749.88
267.274	9741.21
267.343	9738.27
267.413	9727.87
267.482	9730.66
267.552	9740.2
267.621	9709.9
267.69	9680.52
267.76	9674.22
267.829	9663.96
267.898	9648.4
267.968	9625.57
268.037	9625.77
268.106	9618.64
268.176	9596.05
268.245	9584.44
268.314	9568.79
268.384	9564.07
268.453	9558.24
268.522	9552.89
268.592	9556.55
268.661	9534.79
268.73	9530.36
268.799	9513.21
268.869	9518.75
268.938	9487.98
269.007	9464.24
269.076	9451.04
269.146	9453.98
269.215	9446.08
269.284	9458.65
269.353	9440.93
269.422	9427.4
269.492	9407.13
269.561	9370.73
269.63	9363.55
269.699	9339.09
269.768	9321.61
269.838	9317.52
269.907	9313.18
269.976	9284.87
270.045	9249.96
270.114	9249.77
270.183	9235.57
270.253	9223.91
270.322	9195.94
270.391	9187.18
270.46	9196.71
270.529	9197.92
270.598	9194.83
270.667	9181.35
270.736	9155.88
270.806	9151.21
270.875	9156.65
270.944	9143.65
271.013	9157.66
271.082	9149.72
271.151	9154.97
271.22	9131.52
271.289	9115.44
271.358	9105.91
271.427	9105.28
271.496	9099.26
271.565	9079.38
271.634	9074.08
271.703	9098.35
271.772	9100.23
271.841	9094.74
271.91	9068.7
271.979	9056.76
272.048	9029.55
272.117	9032.06
272.186	9020.31
272.255	9018.67
272.324	9020.65
272.393	9018.24
272.462	9001.68
272.531	8987.24
272.6	8973.95
272.669	8978.52
272.738	8964.08
272.807	8956.86
272.876	8938.33
272.945	8971.45
273.013	8972.8
273.082	8971.4
273.151	8928.6
273.22	8928.5
273.289	8922.68
273.358	8929.03
273.427	8919.79
273.496	8919.21
273.564	8916.13
273.633	8914.3
273.702	8895.05
273.771	8873.43
273.84	8867.8
273.909	8877.62
273.977	8881.38
274.046	8868.14
274.115	8872.76
274.184	8863.47
274.253	8856.54
274.322	8859.72
274.39	8819.52
274.459	8806
274.528	8781.88
274.597	8781.35
274.665	8778.51
274.734	8784.72
274.803	8780.63
274.872	8774.85
274.94	8766.82
275.009	8820.37
275.078	8806.75
275.147	8805.54
275.215	8804.24
275.284	8810.07
275.353	8790.57
275.421	8761.7
275.49	8780.95
275.559	8768.72
275.627	8766.22
275.696	8757.41
275.765	8760.35
275.833	8762.27
275.902	8763.24
275.971	8772.09
276.039	8783.21
276.108	8783.84
276.177	8778.69
276.245	8760.59
276.314	8756.26
276.383	8757.41
276.451	8693.17
276.52	8702.7
276.588	8717.67
276.657	8724.75
276.725	8713.87
276.794	8716.42
276.863	8731.39
276.931	8708.43
277	8714.78
277.068	8719.5
277.137	8740.48
277.205	8740.53
277.274	8751.22
277.342	8757.62
277.411	8741.26
277.48	8729.51
277.548	8714.54
277.617	8716.57
277.685	8712.14
277.754	8715.07
277.822	8712.33
277.89	8724.94
277.959	8715.17
278.027	8693.66
278.096	8682.59
278.164	8709.93
278.233	8699.63
278.301	8691.16
278.37	8693.42
278.438	8678.98
278.507	8682.98
278.575	8654
278.643	8643.85
278.712	8631.19
278.78	8617.57
278.849	8623.97
278.917	8625.56
278.985	8619.54
279.054	8618.1
279.122	8630.71
279.191	8624.74
279.259	8616.22
279.327	8592.59
279.396	8604.81
279.464	8598.85
279.532	8597.26
279.601	8591.72
279.669	8587.54
279.737	8602.65
279.806	8610.01
279.874	8613.33
279.942	8607.7
280.011	8611.12
280.079	8620.55
280.147	8634.12
280.215	8637.93
280.284	8633.64
280.352	8626.04
280.42	8633.74
280.488	8628.49
280.557	8621.18
280.625	8626.13
280.693	8634.8
280.761	8637.44
280.83	8621.08
280.898	8636
280.966	8627.62
281.034	8596.43
281.102	8582.34
281.171	8573.86
281.239	8580.41
281.307	8580.7
281.375	8572.52
281.443	8586.43
281.512	8584.55
281.58	8590.47
281.648	8578.44
281.716	8582.29
281.784	8580.8
281.852	8580.9
281.92	8584.36
281.989	8596.34
282.057	8578.54
282.125	8615.75
282.193	8613.64
282.261	8614.31
282.329	8614.45
282.397	8615.46
282.465	8622.2
282.533	8638.56
282.601	8627.73
282.67	8600.16
282.738	8588.75
282.806	8603.57
282.874	8592.12
282.942	8596.45
283.01	8589.85
283.078	8597.31
283.146	8593.75
283.214	8602.32
283.282	8605.83
283.35	8611.27
283.418	8602.37
283.486	8610.16
283.554	8563.81
283.622	8565.11
283.69	8563.33
283.758	8552.79
283.826	8561.5
283.894	8566.36
283.962	8585.61
284.03	8598.36
284.098	8605.77
284.165	8603.94
284.233	8600.14
284.301	8593.31
284.369	8582.77
284.437	8572.33
284.505	8564.1
284.573	8580.12
284.641	8566.65
284.709	8573.53
284.777	8550.48
284.845	8551.73
284.912	8556.54
284.98	8563.37
285.048	8561.3
285.116	8570.06
285.184	8590.47
285.252	8589.36
285.319	8573.53
285.387	8563.81
285.455	8550.77
285.523	8552.79
285.591	8552.02
285.659	8554.86
285.726	8570.21
285.794	8555.39
285.862	8556.93
285.93	8558.47
285.997	8551.92
286.065	8547.54
286.133	8538.35
286.201	8546.92
286.269	8541.72
286.336	8535.99
286.404	8528.87
286.472	8536.52
286.539	8511.93
286.607	8491.1
286.675	8489.17
286.743	8501.87
286.81	8496.1
286.878	8510.68
286.946	8504.47
287.013	8504.86
287.081	8506.49
287.149	8492.63
287.216	8515.83
287.284	8508.9
287.352	8508.95
287.419	8509.72
287.487	8532.48
287.555	8533.78
287.622	8528.92
287.69	8533.49
287.758	8540.52
287.825	8537.34
287.893	8527.96
287.96	8543.02
288.028	8554.81
288.096	8560.68
288.163	8557.02
288.231	8552.11
288.298	8552.3
288.366	8568.57
288.433	8568.96
288.501	8558.46
288.569	8557.21
288.636	8548.94
288.704	8566.84
288.771	8575.07
288.839	8564.58
288.906	8550.33
288.974	8564
289.041	8560.01
289.109	8553.41
289.176	8568.86
289.244	8572.04
289.311	8584.26
289.379	8587.63
289.446	8591.48
289.514	8587.1
289.581	8593.07
289.649	8592.06
289.716	8595.67
289.783	8586.38
289.851	8605.53
289.918	8604.57
289.986	8617.08
290.053	8625.36
290.121	8617.76
290.188	8620.74
290.255	8646.44
290.323	8643.89
290.39	8632.72
290.458	8640.95
290.525	8651.88
290.592	8638.74
290.66	8642.11
290.727	8639.27
290.794	8660.16
290.862	8655.73
290.929	8658.37
290.996	8658.61
291.064	8669.88
291.131	8679.26
291.198	8696.45
291.266	8694.09
291.333	8700.05
291.4	8711.99
291.468	8729.13
291.535	8730.38
291.602	8737.79
291.669	8732.93
291.737	8739.48
291.804	8741.74
291.871	8756.56
291.938	8763.35
292.006	8800.66
292.073	8818.03
292.14	8822.03
292.207	8811.25
292.275	8817.79
292.342	8827.56
292.409	8855.68
292.476	8877.58
292.543	8866.7
292.611	8863.91
292.678	8882.83
292.745	8904.49
292.812	8909.73
292.879	8903.91
292.946	8909.78
293.014	8923.88
293.081	8938.52
293.148	8954.5
293.215	8970.05
293.282	8966.82
293.349	8982.04
293.416	8958.88
293.484	8975.82
293.551	8995.13
293.618	9009.81
293.685	9036.96
293.752	9037.25
293.819	9034.12
293.886	9020.64
293.953	9030.99
294.02	9043.99
294.087	9056.7
294.154	9053.43
294.221	9068.55
294.288	9071.67
294.356	9092.9
294.423	9094.88
294.49	9082.07
294.557	9098.35
294.624	9089.97
294.691	9109.56
294.758	9112.64
294.825	9124.29
294.892	9122.51
294.959	9121.26
295.026	9130.31
295.093	9118.95
295.16	9119.09
295.226	9115.53
295.293	9146.68
295.36	9155.25
295.427	9167.39
295.494	9177.26
295.561	9184.29
295.628	9207.6
295.695	9225.07
295.762	9228.54
295.829	9242.51
295.896	9267.64
295.963	9275.87
296.03	9290.12
296.096	9300.81
296.163	9309.67
296.23	9322.96
296.297	9329.65
296.364	9325.47
296.431	9332.83
296.498	9330.33
296.564	9354.11
296.631	9360.66
296.698	9345.16
296.765	9360.47
296.832	9349.39
296.899	9335.38
296.965	9359.74
297.032	9337.4
297.099	9356.23
297.166	9359.26
297.233	9354.25
297.299	9342.94
297.366	9344.62
297.433	9341.93
297.5	9353.97
297.566	9351.99
297.633	9347.85
297.7	9355.08
297.767	9353.29
297.833	9360.23
297.9	9364.08
297.967	9346.6
298.033	9362.69
298.1	9396.54
298.167	9391.77
298.234	9399.19
298.3	9410.02
298.367	9405.79
298.434	9417.39
298.5	9400.58
298.567	9399.43
298.634	9401.16
298.7	9416.96
298.767	9418.3
298.834	9437.28
298.9	9424.66
298.967	9422.25
299.033	9439.06
299.1	9451.92
299.167	9473.92
299.233	9471.61
299.3	9493.23
299.366	9522.51
299.433	9531.61
299.5	9502.42
299.566	9503.48
299.633	9520.34
299.699	9526.02
299.766	9519.42
299.832	9526.55
299.899	9538.83
299.965	9550.87
300.032	9545.29
300.099	9558.87
300.165	9569.27
300.232	9568.21
300.298	9570.33
300.365	9587.91
300.431	9588.73
300.498	9576.69
300.564	9582.13
300.631	9590.94
300.697	9602.69
300.763	9597.93
300.83	9596.87
300.896	9608.33
300.963	9619.45
301.029	9619.93
301.096	9629.13
301.162	9646.71
301.229	9639.2
301.295	9633.9
301.361	9630.38
301.428	9635.01
301.494	9617.28
301.561	9618.01
301.627	9624.94
301.693	9635.05
301.76	9634.86
301.826	9628.07
301.892	9647.48
301.959	9654.66
302.025	9648.49
302.092	9640.54
302.158	9645.79
302.224	9654.32
302.291	9653.12
302.357	9651.38
302.423	9650.32
302.49	9642.95
302.556	9652.1
302.622	9650.8
302.688	9659.96
302.755	9679.37
302.821	9691.69
302.887	9700.41
302.954	9696.99
303.02	9701.42
303.086	9705.9
303.152	9706.72
303.219	9701.04
303.285	9705.03
303.351	9714.19
303.417	9721.94
303.483	9715.54
303.55	9708.84
303.616	9709.95
303.682	9709.95
303.748	9703.59
303.815	9716.55
303.881	9715.44
303.947	9699.16
304.013	9703.88
304.079	9693.14
304.145	9681
304.212	9679.03
304.278	9678.64
304.344	9677.2
304.41	9659.67
304.476	9650.28
304.542	9647.39
304.608	9658.18
304.674	9643.29
304.741	9643.39
304.807	9646.04
304.873	9651.38
304.939	9671.66
305.005	9648.69
305.071	9642.47
305.137	9649.46
305.203	9623.4
305.269	9629.47
305.335	9644.5
305.401	9639.05
305.467	9635.35
305.533	9642.09
305.599	9652.06
305.666	9659.86
305.732	9663.81
305.798	9680.52
305.864	9706.34
305.93	9710.87
305.996	9711.93
306.062	9708.27
306.128	9698.2
306.194	9684.28
306.259	9691.65
306.325	9678.07
306.391	9685.48
306.457	9704.94
306.523	9709.56
306.589	9737.11
306.655	9731.62
306.721	9718.42
306.787	9710.33
306.853	9733.21
306.919	9711.68
306.985	9698.58
307.051	9687.36
307.117	9683.36
307.183	9674.98
307.248	9644.11
307.314	9644.01
307.38	9645.89
307.446	9654.51
307.512	9646.04
307.578	9651.72
307.644	9639.34
307.709	9642.67
307.775	9642.76
307.841	9631.44
307.907	9626.05
307.973	9610.59
308.039	9610.16
308.104	9614.35
308.17	9614.49
308.236	9600.14
308.302	9603.41
308.368	9595.32
308.433	9597.49
308.499	9583.81
308.565	9572.64
308.631	9578.37
308.696	9556.12
308.762	9543.21
308.828	9542.3
308.894	9524.67
308.959	9507.53
309.025	9500.89
309.091	9498.14
309.156	9490.82
309.222	9492.65
309.288	9480.95
309.354	9459.47
309.419	9460.53
309.485	9444.98
309.551	9447.29
309.616	9431.25
309.682	9433.23
309.748	9428.17
309.813	9427.78
309.879	9426.44
309.945	9417.19
310.01	9409.49
310.076	9413.1
310.141	9405.78
310.207	9382.52
310.273	9381.27
310.338	9380.11
310.404	9363.55
310.469	9351.99
310.535	9340.19
310.601	9316.69
310.666	9322.71
310.732	9333.16
310.797	9314.09
310.863	9304.22
310.928	9302.78
310.994	9301.43
311.059	9294.3
311.125	9290.79
311.191	9296.18
311.256	9279.57
311.322	9284.87
311.387	9268.83
311.453	9651.89
311.518	9627.82
311.584	9630.47
311.649	9644
311.715	9638.85
311.78	9640.68
311.846	9626.47
311.911	9631.09
311.976	9632.01
312.042	9616.74
312.107	9598.11
312.173	9594.12
312.238	9586.36
312.304	9579.43
312.369	9571.34
312.434	9559.35
312.5	9553.77
312.565	9519
312.631	9526.27
312.696	9517.12
312.761	9515.87
312.827	9125.64
312.892	9163.34
312.958	9159.06
313.023	9151.21
313.088	9151.06
313.154	9138.93
313.219	9136.62
313.284	9129.54
313.35	9124.58
313.415	9114.67
313.48	9114.38
313.546	9117.7
313.611	9126.99
313.676	9116.49
313.741	9111.05
313.807	9121.21
313.872	9126.27
313.937	9135.03
314.003	9139.75
314.068	9146.49
314.133	9149.81
314.198	9138.16
314.264	9114.61
314.329	9108.74
314.394	9103.15
314.459	9097.18
314.525	9113.5
314.59	9103.11
314.655	9090.16
314.72	9103.25
314.785	9101.18
314.851	9091.79
314.916	9074.56
314.981	9059.54
315.046	9052.9
315.111	9045.29
315.176	9034.46
315.242	9032.29
315.307	9030.12
315.372	9014.57
315.437	8999.46
315.502	8999.31
315.567	9013.66
315.632	8999.89
315.698	9005.57
315.763	9004.37
315.828	8991.81
315.893	8985.98
315.958	8981.36
316.023	8969.42
316.088	8943.28
316.153	8930.33
316.218	8926.39
316.283	8909.69
316.348	8897.51
316.413	8893.61
316.479	8873.68
316.544	8836.77
316.609	8805.68
316.674	8772.18
316.739	8737.29
316.804	8704.71
316.869	8660.82
316.934	8618.94
316.999	8593.29
317.064	8527.07
317.129	8477.84
317.194	8449.79
317.259	8400.03
317.324	8350.09
317.389	8307.7
317.454	8272.53
317.518	8232.02
317.583	8203.34
317.648	8177.32
317.713	8136.09
317.778	8077.78
317.843	8052.76
317.908	8013.42
317.973	7974.12
318.038	7942.91
318.103	7905.2
318.168	7876.92
318.233	7848.21
318.297	7793.77
318.362	7751.74
318.427	7715.78
318.492	7695.97
318.557	7642.51
318.622	7616.01
318.687	7594.28
318.751	7558.04
318.816	7522.36
318.881	7490.68
318.946	7438.42
319.011	7388.43
319.075	7349.06
319.14	7310.33
319.205	7267.07
319.27	7233.91
319.335	7191.28
319.399	7151.83
319.464	7127.46
319.529	7074.08
319.594	7035.16
319.658	7011.62
319.723	6970.06
319.788	6948.54
319.853	6889.68
319.917	6859.71
319.982	6808.98
320.047	6765.75
320.112	6737.94
320.176	6687.51
320.241	6654.04
320.306	6618.93
320.37	6583.59
320.435	6550.65
320.5	6526.6
320.564	6482.66
320.629	6445.41
320.694	6411.95
320.758	6369.37
320.823	6326.36
320.888	6297.32
320.952	6245.21
321.017	6197.36
321.082	6159.4
321.146	6120.67
321.211	6087.94
321.275	6049.47
321.34	6001.07
321.405	5961.4
321.469	5914.77
321.534	5876.88
321.598	5825.13
321.663	5797.59
321.727	5765.79
321.792	5717.45
321.857	5671.84
321.921	5632.33
321.986	5587.03
322.05	5533.25
322.115	5495.56
322.179	5445.57
322.244	5394.63
322.308	5366.02
322.373	5320.55
322.437	5277.8
322.502	5247.13
322.566	5199.21
322.631	5164.14
322.695	5128.03
322.76	5085.02
322.824	5049.96
322.889	5006.14
322.953	4962.04
323.018	4891.07
323.082	4826.3
323.146	4773.6
323.211	4720.13
323.275	4676.04
323.34	4628.62
323.404	4591.45
323.468	4544.97
323.533	4500.48
323.597	4452.94
323.662	4399.45
323.726	4366.11
323.79	4318.19
323.855	4256.51
323.919	4207.4
323.983	4157.38
324.048	4092.63
324.112	4217.24
324.177	4083.79
324.241	3868.75
324.305	3659.88
324.37	3458.09
324.434	3260.88
324.498	3217.34
324.562	3163.98
324.627	3100.51
324.691	3044.74
324.755	2977.12
324.82	2896.26
324.884	2819.05
324.948	2742.16
325.012	2642.25
325.077	2510.86
