Data from 20250704_urea_1M_MAYP1162681_11-32-24-655.txt Node
Date: Fri Jul 04 11:32:24 BST 2025
User: adleo
Spectrometer: MAYP116268
Trigger mode: 0
Integration Time (sec): 1.000000E0
Scans to average: 1
Electric dark correction enabled: true
Nonlinearity correction enabled: true
Boxcar width: 10
XAxis mode: Wavelengths
Number of Pixels in Spectrum: 2068
>>>>>Begin Spectral Data<<<<<
179.565	1257.17
179.642	1321.18
179.718	1365.05
179.795	1401.23
179.871	1437.71
179.948	1455.34
180.024	1477.71
180.101	1500.75
180.177	1515.96
180.254	1542.03
180.33	1564.37
180.407	1622.07
180.483	1719.46
180.56	1813.63
180.636	1901.8
180.712	1887.2
180.789	1898.22
180.865	1908.73
180.942	1915.48
181.018	1921.32
181.095	1937.35
181.171	1943.63
181.248	1940.25
181.324	1958.33
181.4	1970.45
181.477	1980.34
181.553	1995.18
181.63	2018.2
181.706	2035.79
181.782	2044.11
181.859	2039.83
181.935	2047.73
182.011	2045.02
182.088	2061.95
182.164	2080.12
182.24	2094.67
182.317	2102.04
182.393	2101.52
182.469	2119.31
182.546	2134.58
182.622	2142.09
182.698	2136.1
182.775	2144.04
182.851	2158.84
182.927	2148.8
183.003	2140.05
183.08	2133.72
183.156	2140
183.232	2132.81
183.308	2121.54
183.385	2129.82
183.461	2151.56
183.537	2151.61
183.613	2162.26
183.69	2156.17
183.766	2144.42
183.842	2153.03
183.918	2160.59
183.995	2174.44
184.071	2174.58
184.147	2165.02
184.223	2153.46
184.299	2166.36
184.375	2156.27
184.452	2163.98
184.528	2213.37
184.604	2223.27
184.68	2233.64
184.756	2243.87
184.832	2248.72
184.908	2251.48
184.985	2250.15
185.061	2232.92
185.137	2243.39
185.213	2233.16
185.289	2233.16
185.365	2229.31
185.441	2225.22
185.517	2237.21
185.593	2234.12
185.669	2234.64
185.745	2248.25
185.822	2263.09
185.898	2256.04
185.974	2269.55
186.05	2259.32
186.126	2225.63
186.202	2224.83
186.278	2222.64
186.354	2211.84
186.43	2221.16
186.506	2221.02
186.582	2222.35
186.658	2226.63
186.734	2206.46
186.81	2208.36
186.886	2211.08
186.962	2221.5
187.038	2220.21
187.114	2213.88
187.19	2220.45
187.266	2209.31
187.341	2209.55
187.417	2206.89
187.493	2209.17
187.569	2210.79
187.645	2208.46
187.721	2195.75
187.797	2200.89
187.873	2205.17
187.949	2200.66
188.025	2193.85
188.101	2199.65
188.176	2207.27
188.252	2201.89
188.328	2207.84
188.404	2209.64
188.48	2204.13
188.556	2200.13
188.632	2197.84
188.707	2198.27
188.783	2192.7
188.859	2188.04
188.935	2177.77
189.011	2183.57
189.086	2173.48
189.162	2165.11
189.238	2157.45
189.314	2155.84
189.39	2150.41
189.465	2145.18
189.541	2160.5
189.617	2144.37
189.693	2138
189.768	2136.62
189.844	2164.41
189.92	2157.8
189.996	2164.51
190.071	2176.26
190.147	2175.36
190.223	2184.16
190.298	2177.78
190.374	2165.84
190.45	2178.5
190.526	2186.63
190.601	2180.4
190.677	2183.92
190.753	2211.44
190.828	2218.71
190.904	2234.84
190.98	2249.74
191.055	2258.4
191.131	2249.22
191.207	2270.39
191.282	2277.38
191.358	2271.67
191.433	2254.34
191.509	2265.9
191.585	2263.05
191.66	2262.67
191.736	2269.04
191.811	2260.62
191.887	2273.18
191.963	2296.07
192.038	2301.12
192.114	2302.83
192.189	2309.21
192.265	2304.59
192.34	2279.74
192.416	2279.5
192.491	2277.12
192.567	2278.88
192.642	2283.45
192.718	2283.41
192.793	2268.8
192.869	2266.18
192.944	2267.51
193.02	2278.27
193.095	2284.22
193.171	2291.07
193.246	2292.45
193.322	2289.64
193.397	2290.45
193.473	2281.03
193.548	2264.04
193.624	2269.37
193.699	2268.08
193.775	2283.32
193.85	2283.55
193.925	2294.64
194.001	2293.22
194.076	2283.65
194.152	2273.18
194.227	2262.52
194.302	2253.34
194.378	2259.14
194.453	2256.81
194.529	2268.38
194.604	2254.14
194.679	2247.29
194.755	2226.98
194.83	2242.07
194.905	2242.07
194.981	2250.88
195.056	2243.6
195.131	2250.35
195.207	2249.69
195.282	2239.98
195.357	2218.8
195.433	2235.79
195.508	2223.6
195.583	2230.6
195.659	2245.49
195.734	2251.49
195.809	2251.82
195.884	2262.72
195.96	2264.14
196.035	2280.04
196.11	2274.99
196.185	2285.32
196.261	2288.41
196.336	2322.58
196.411	2305.44
196.486	2309.15
196.561	2301.63
196.637	2311.96
196.712	2331.15
196.787	2333.91
196.862	2347.09
196.937	2359.13
197.013	2366.56
197.088	2376.74
197.163	2401.22
197.238	2416.41
197.313	2416.79
197.388	2428.69
197.464	2456.22
197.539	2465.4
197.614	2458.12
197.689	2474.07
197.764	2491.88
197.839	2512.45
197.914	2505.12
197.989	2528.36
198.065	2545.5
198.14	2598.15
198.215	2620.68
198.29	2628.64
198.365	2642.17
198.44	2656.26
198.515	2684.42
198.59	2699.57
198.665	2727.1
198.74	2736.16
198.815	2737.16
198.89	2758.88
198.965	2794.15
199.04	2793.2
199.115	2812.68
199.19	2856.8
199.265	2854.52
199.34	2864.96
199.415	2898.95
199.49	2919.68
199.565	2929.59
199.64	2949.66
199.715	2947.89
199.79	2959.34
199.865	2964.44
199.94	2963.43
200.015	2993.81
200.09	3000.91
200.165	3008.16
200.24	3018.89
200.315	3058.69
200.39	3076.33
200.464	3086.92
200.539	3086.63
200.614	3104.17
200.689	3126.73
200.764	3131.65
200.839	3155
200.914	3158.91
200.989	3150.23
201.063	3166.97
201.138	3149.19
201.213	3152.63
201.288	3131.98
201.363	3135.27
201.438	3137.98
201.512	3154.96
201.587	3138.69
201.662	3140.74
201.737	3153.48
201.812	3157.77
201.886	3122.16
201.961	3133.57
202.036	3120.74
202.111	3118.31
202.186	3088.62
202.26	3070.49
202.335	3050.18
202.41	3042.41
202.485	3025.63
202.559	3004.41
202.634	2975.85
202.709	2985.72
202.784	2962.79
202.858	2965.17
202.933	2945.86
203.008	2940.24
203.082	2915.26
203.157	2912.07
203.232	2870.14
203.306	2845.54
203.381	2812.5
203.456	2790.2
203.53	2762.25
203.605	2741.77
203.68	2717.12
203.754	2709.51
203.829	2695.26
203.904	2674.06
203.978	2663.62
204.053	2665.05
204.127	2652.38
204.202	2652.66
204.277	2635.37
204.351	2631.42
204.426	2619.32
204.5	2613.27
204.575	2576.6
204.65	2589.75
204.724	2584.41
204.799	2590.03
204.873	2584.46
204.948	2584.17
205.022	2572.93
205.097	2566.36
205.171	2581.45
205.246	2586.46
205.32	2588.41
205.395	2588.65
205.469	2579.6
205.544	2582.17
205.618	2564.74
205.693	2575.03
205.767	2558.13
205.842	2579.57
205.916	2572.61
205.991	2565.99
206.065	2570.09
206.14	2588.03
206.214	2583.31
206.289	2574.98
206.363	2591.84
206.438	2595.93
206.512	2602.79
206.586	2621.75
206.661	2631.33
206.735	2608.23
206.81	2611.05
206.884	2625.57
206.958	2610.52
207.033	2629.28
207.107	2636
207.181	2671.21
207.256	2665.5
207.33	2688.6
207.405	2701.76
207.479	2719.19
207.553	2725.57
207.628	2711.38
207.702	2723.24
207.776	2716.38
207.851	2719.05
207.925	2731.49
207.999	2729.63
208.073	2727.78
208.148	2732.35
208.222	2718.44
208.296	2748.91
208.371	2767.18
208.445	2777.8
208.519	2808.24
208.593	2819.25
208.668	2817.87
208.742	2821.97
208.816	2824.54
208.89	2841.23
208.965	2839.13
209.039	2850.43
209.113	2871.55
209.187	2890.12
209.261	2890.4
209.336	2916.43
209.41	2945.7
209.484	2952.62
209.558	2982.18
209.632	3003.77
209.707	3018.36
209.781	3051.16
209.855	3080.4
209.929	3106.42
210.003	3120.92
210.077	3131.89
210.151	3194.43
210.226	3243.73
210.3	3287.57
210.374	3327.53
210.448	3350.87
210.522	3384.47
210.596	3418.5
210.67	3451.96
210.744	3528.4
210.818	3587.57
210.892	3638.24
210.966	3659.82
211.041	3709.06
211.115	3740.05
211.189	3802.92
211.263	3862.73
211.337	3916.09
211.411	3977.57
211.485	4021.51
211.559	4086.73
211.633	4145.69
211.707	4171.43
211.781	4237.27
211.855	4263.3
211.929	4327.93
212.003	4377.85
212.077	4461.32
212.151	4547.19
212.225	4637.99
212.299	4711.56
212.373	4786.53
212.447	4868.48
212.52	4991.42
212.594	5089.93
212.668	5204.66
212.742	5293.6
212.816	5399.2
212.89	5500.34
212.964	5609.12
213.038	5732.21
213.112	5867.31
213.186	6006.84
213.26	6110.72
213.333	6192.97
213.407	6328.02
213.481	6460.81
213.555	6612.41
213.629	6737.35
213.703	6867.1
213.777	7009.67
213.85	7139.95
213.924	7323.9
213.998	7481.87
214.072	7637.45
214.146	7782.61
214.219	7943.64
214.293	8099.99
214.367	8258.41
214.441	8432.95
214.515	8590.36
214.588	8734.99
214.662	8870
214.736	9018.98
214.81	9200.08
214.883	9382.26
214.957	9545.6
215.031	9700.34
215.105	9850.29
215.178	10011.1
215.252	10184.08
215.326	10339.1
215.4	10493.83
215.473	10618.19
215.547	10768.52
215.621	10921.48
215.694	11087.87
215.768	11228.34
215.842	11382.07
215.915	11541.16
215.989	11686.96
216.063	11849.39
216.136	12010.85
216.21	12168.26
216.284	12350.61
216.357	12514.44
216.431	12676.11
216.504	12850.27
216.578	13048.05
216.652	13213.04
216.725	13378.19
216.799	13538.19
216.873	13687.43
216.946	13841.44
217.02	14001.48
217.093	14159.11
217.167	14285.7
217.24	14423.37
217.314	14564.32
217.387	14711.11
217.461	14845.84
217.535	14996.28
217.608	15125.46
217.682	15269.63
217.755	15432.31
217.829	15551.85
217.902	15685.99
217.976	15817.68
218.049	15940.78
218.123	16049.32
218.196	16186.35
218.27	16303.52
218.343	16411.09
218.417	16549.76
218.49	16676.13
218.563	16806.11
218.637	16925.59
218.71	17069.5
218.784	17193.69
218.857	17324.11
218.931	17440.35
219.004	17544.79
219.077	17660.98
219.151	17763.63
219.224	17864.79
219.298	17961.65
219.371	18077.31
219.444	18162.42
219.518	18255.91
219.591	18355.86
219.665	18474.45
219.738	18570.98
219.811	18646.73
219.885	18747.98
219.958	18833.66
220.031	18911.35
220.105	19001.27
220.178	19077.94
220.251	19155.38
220.325	19245.5
220.398	19323.13
220.471	19408.52
220.544	19502.78
220.618	19565.62
220.691	19646.34
220.764	19716.75
220.838	19793.23
220.911	19850.91
220.984	19943.05
221.057	20019.34
221.131	20070.76
221.204	20100.73
221.277	20181.75
221.35	20278.85
221.424	20325.79
221.497	20382.56
221.57	20447.33
221.643	20507.58
221.716	20560.59
221.79	20597.46
221.863	20642.66
221.936	20688.3
222.009	20727.58
222.082	20771.34
222.155	20816.11
222.229	20868.93
222.302	20914.96
222.375	20940.65
222.448	20983.93
222.521	21023.35
222.594	21066.68
222.667	21102.25
222.74	21154.83
222.814	21175.75
222.887	21201.73
222.96	21254.17
223.033	21294.17
223.106	21330.03
223.179	21360.2
223.252	21396.06
223.325	21426.14
223.398	21459.25
223.471	21481.81
223.544	21509.04
223.617	21537.48
223.69	21555.94
223.763	21558.4
223.837	21581.72
223.91	21608.96
223.983	21614.11
224.056	21608.19
224.129	21619.9
224.202	21650.36
224.275	21651.85
224.348	21649.97
224.42	21641.44
224.493	21631.71
224.566	21629.39
224.639	21636.14
224.712	21626.93
224.785	21629.78
224.858	21639.37
224.931	21621.34
225.004	21620.67
225.077	21625.2
225.15	21599.07
225.223	21606.83
225.296	21644.63
225.369	21632.91
225.442	21623.9
225.514	21626.5
225.587	21626.98
225.66	21628.53
225.733	21622.45
225.806	21620.28
225.879	21606.89
225.952	21602.79
226.025	21611.22
226.097	21619.85
226.17	21612.43
226.243	21590.02
226.316	21578.45
226.389	21575.56
226.461	21584.09
226.534	21582.11
226.607	21569.68
226.68	21586.79
226.753	21579.89
226.825	21533.38
226.898	21536.46
226.971	21534.68
227.044	21528.9
227.117	21531.93
227.189	21526.53
227.262	21531.4
227.335	21525.18
227.407	21525.57
227.48	21518.48
227.553	21498.05
227.626	21477.56
227.698	21468.93
227.771	21471.15
227.844	21451.97
227.916	21436.54
227.989	21411.77
228.062	21400.16
228.134	21408.88
228.207	21391.53
228.28	21368.73
228.352	21360.73
228.425	21343.23
228.498	21338.89
228.57	21313.83
228.643	21315.62
228.716	21290.7
228.788	21255.8
228.861	21244.91
228.934	21237.44
229.006	21218.74
229.079	21209.92
229.151	21188.42
229.224	21148.03
229.296	21127.5
229.369	21141.48
229.442	21135.84
229.514	21104.95
229.587	21094.58
229.659	21054.29
229.732	21037.95
229.804	21043.16
229.877	21049.81
229.949	21048.12
230.022	21046.73
230.094	21037.13
230.167	21017.86
230.239	20989.13
230.312	20978.19
230.384	20976.84
230.457	20964.74
230.529	20954.96
230.602	20929.13
230.674	20918.91
230.747	20922.96
230.819	20919.63
230.892	20863.15
230.964	20851.34
231.037	20844.79
231.109	20816.93
231.181	20807.73
231.254	20776.93
231.326	20737.12
231.399	20702.28
231.471	20670.56
231.544	20627.33
231.616	20606.61
231.688	20578.37
231.761	20562.56
231.833	20530.17
231.905	20484.63
231.978	20461.64
232.05	20434.65
232.122	20416.49
232.195	20382.27
232.267	20373.69
232.339	20346.27
232.412	20341.69
232.484	20301.98
232.556	20272.53
232.629	20273.45
232.701	20254.56
232.773	20236.73
232.846	20208.44
232.918	20198.32
232.99	20177.31
233.062	20157.84
233.135	20142.17
233.207	20110.61
233.279	20088.39
233.351	20080.83
233.424	20052.01
233.496	20019.24
233.568	20016.97
233.64	19980.78
233.713	19962.04
233.785	19935.68
233.857	19909.12
233.929	19872.26
234.001	19867.1
234.074	19859.2
234.146	19818.52
234.218	19793.71
234.29	19764.6
234.362	19736.31
234.434	19687.69
234.507	19644.56
234.579	19591.35
234.651	19558.1
234.723	19531.74
234.795	19510.2
234.867	19477.48
234.939	19464.66
235.012	19444.23
235.084	19416.04
235.156	19406.06
235.228	19366.07
235.3	19334.79
235.372	19306.41
235.444	19291.52
235.516	19235.09
235.588	19218.56
235.66	19191.09
235.732	19154.46
235.804	19182.9
235.876	19174.8
235.948	19172.54
236.02	19148.1
236.092	19131.09
236.164	19099.43
236.236	19072.69
236.308	19039.1
236.38	19007.39
236.452	18976.98
236.524	18945.56
236.596	18932.26
236.668	18905.85
236.74	18878.87
236.812	18851.06
236.884	18829.14
236.956	18799.55
237.028	18761.04
237.1	18712.66
237.172	18698.2
237.244	18692.32
237.316	18626.98
237.388	18585.53
237.46	18545.83
237.532	18527.23
237.604	18487.08
237.675	18476.87
237.747	18455.76
237.819	18419.57
237.891	18387.38
237.963	18338.37
238.035	18303.72
238.107	18228.3
238.178	18205.94
238.25	18171.96
238.322	18164.83
238.394	18108.02
238.466	18075.63
238.538	18059.05
238.609	18042.23
238.681	17987.39
238.753	17930.53
238.825	17906.05
238.897	17868.41
238.968	17848.27
239.04	17807.69
239.112	17805.91
239.184	17753.18
239.255	17715.31
239.327	17688.9
239.399	17662.49
239.471	17648.8
239.542	17619.35
239.614	17610.78
239.686	17556.17
239.758	17543.93
239.829	17499.02
239.901	17491.36
239.973	17460.42
240.044	17435.45
240.116	17391.65
240.188	17366.78
240.259	17347.21
240.331	17302.87
240.403	17284.42
240.474	17239.89
240.546	17199.45
240.618	17145.72
240.689	17112.12
240.761	17084.89
240.833	17065.04
240.904	17028.65
240.976	16998.19
241.048	16970.48
241.119	16945.56
241.191	16917.08
241.262	16899.68
241.334	16859.06
241.405	16826.81
241.477	16783.68
241.549	16749.99
241.62	16721.84
241.692	16699.91
241.763	16679.91
241.835	16648.54
241.906	16617.45
241.978	16571.81
242.049	16560.24
242.121	16535.08
242.192	16526.21
242.264	16477.49
242.335	16430.74
242.407	16413.19
242.478	16372.13
242.55	16344.22
242.621	16303.16
242.693	16275.69
242.764	16236.36
242.836	16195.34
242.907	16164.78
242.979	16141.5
243.05	16117.16
243.122	16096.53
243.193	16056.96
243.264	16001.2
243.336	15971.36
243.407	15951.89
243.479	15938.68
243.55	15908.71
243.622	15883.88
243.693	15841.9
243.764	15822.57
243.836	15782.57
243.907	15743.43
243.978	15718.56
244.05	15699.56
244.121	15653
244.192	15635.12
244.264	15589.81
244.335	15563.78
244.407	15516.84
244.478	15492.25
244.549	15464.01
244.62	15419.57
244.692	15390.11
244.763	15372.71
244.834	15338.88
244.906	15297.95
244.977	15270.67
245.048	15263.78
245.119	15232.54
245.191	15200.2
245.262	15151.13
245.333	15145.97
245.405	15116.04
245.476	15095.69
245.547	15059.4
245.618	15037.95
245.689	15000.74
245.761	14980.97
245.832	14948.19
245.903	14933.35
245.974	14914.26
246.045	14873.24
246.117	14858.2
246.188	14816.64
246.259	14774.37
246.33	14738.17
246.401	14702.35
246.473	14659.35
246.544	14614.81
246.615	14596.83
246.686	14559.28
246.757	14555.81
246.828	14517.87
246.899	14501.15
246.97	14450.63
247.042	14411.24
247.113	14396.64
247.184	14391.77
247.255	14350.22
247.326	14331.32
247.397	14293.67
247.468	14260.27
247.539	14237.61
247.61	14204.44
247.681	14186.75
247.752	14169.45
247.823	14134.64
247.894	14117.82
247.965	14080.6
248.037	14053.17
248.108	14010.17
248.179	13993.25
248.25	13965.68
248.321	13942.2
248.392	13916.89
248.463	13919.02
248.534	13900.65
248.605	13878.91
248.675	13852.83
248.746	13840.2
248.817	13818.26
248.888	13803.75
248.959	13764.27
249.03	13743.83
249.101	13720.16
249.172	13689.36
249.243	13646.31
249.314	13646.22
249.385	13620.76
249.456	13611.12
249.527	13576.41
249.598	13560.36
249.669	13533.27
249.739	13509.26
249.81	13487.76
249.881	13442.49
249.952	13414.53
250.023	13387.49
250.094	13347.14
250.165	13308.82
250.235	13282.35
250.306	13268.37
250.377	13233.57
250.448	13214.43
250.519	13164.87
250.59	13157.74
250.66	13136.96
250.731	13131.27
250.802	13103.94
250.873	13092.71
250.944	13068.41
251.014	13045.95
251.085	13044.65
251.156	13022.18
251.227	13012.35
251.297	13007.43
251.368	13010.18
251.439	13002.85
251.51	12990.27
251.58	12966.65
251.651	12941.05
251.722	12932.71
251.792	12887.98
251.863	12868.31
251.934	12864.02
252.005	12881.23
252.075	12853.7
252.146	12840.98
252.217	12830.03
252.287	12815.19
252.358	12784.67
252.429	12790.65
252.499	12769.68
252.57	12747.41
252.641	12743.26
252.711	12716.41
252.782	12683.25
252.852	12669.51
252.923	12639.33
252.994	12618.46
253.064	12611.81
253.135	12583.13
253.205	12551.89
253.276	12550.83
253.347	12543.98
253.417	12519.26
253.488	12496.45
253.558	12469.07
253.629	12447.91
253.699	12439.33
253.77	12426.51
253.841	12403.57
253.911	12379.56
253.982	12359.75
254.052	12350.73
254.123	12332.08
254.193	12319.11
254.264	12333.77
254.334	12311.01
254.405	12280.16
254.475	12253.75
254.546	12231.62
254.616	12229.36
254.687	12217.79
254.757	12203.23
254.827	12185.01
254.898	12166.7
254.968	12141.58
255.039	12117.77
255.109	12109.77
255.18	12075.35
255.25	12040.5
255.321	12027.59
255.391	11996.3
255.461	12002.38
255.532	11954.37
255.602	11930.36
255.673	11890.45
255.743	11859.84
255.813	11815.12
255.884	11810.87
255.954	11801.19
256.024	11803.79
256.095	11786.05
256.165	11758.67
256.235	11747.73
256.306	11723.01
256.376	11717.94
256.446	11707.77
256.517	11699.68
256.587	11697.56
256.657	11683.1
256.728	11665.31
256.798	11649.6
256.868	11627
256.938	11594.8
257.009	11585.26
257.079	11575.52
257.149	11582.03
257.219	11543.03
257.29	11533.59
257.36	11499.85
257.43	11487.47
257.5	11445.2
257.571	11418.69
257.641	11403.27
257.711	11363.07
257.781	11358.25
257.852	11344.47
257.922	11308.22
257.992	11283.84
258.062	11261.96
258.132	11258.05
258.202	11238.78
258.273	11225.28
258.343	11225.23
258.413	11199.31
258.483	11187.45
258.553	11161.28
258.623	11132.32
258.693	11128.41
258.764	11121.52
258.834	11120.37
258.904	11106.82
258.974	11077.48
259.044	11063.46
259.114	11056.18
259.184	11051.07
259.254	11022.93
259.324	10981.68
259.394	10968.81
259.464	10975.65
259.535	10954.11
259.605	10927.9
259.675	10901.92
259.745	10885.44
259.815	10857.4
259.885	10836.39
259.955	10850.7
260.025	10830.37
260.095	10815.29
260.165	10799.43
260.235	10806.03
260.305	10777.31
260.375	10751.29
260.445	10766.23
260.515	10764.78
260.585	10759.19
260.655	10740.59
260.725	10739.2
260.795	10736.64
260.865	10744.4
260.934	10717.71
261.004	10709.71
261.074	10694.87
261.144	10696.84
261.214	10694.62
261.284	10677.18
261.354	10679.83
261.424	10650.96
261.494	10655.16
261.564	10640.99
261.634	10633.67
261.703	10598.44
261.773	10588.13
261.843	10581.73
261.913	10558.55
261.983	10522.03
262.053	10507
262.123	10498.9
262.192	10473.03
262.262	10467.92
262.332	10440.7
262.402	10433.33
262.472	10414.44
262.541	10378.94
262.611	10377.59
262.681	10350.89
262.751	10341.31
262.821	10319.24
262.89	10293.9
262.96	10272.8
263.03	10277.71
263.1	10267.21
263.169	10257.91
263.239	10250.63
263.309	10252.37
263.379	10248.27
263.448	10239.6
263.518	10230.59
263.588	10214.41
263.657	10220.09
263.727	10218.31
263.797	10207.95
263.867	10190.27
263.936	10172.64
264.006	10182.61
264.076	10161.17
264.145	10147.88
264.215	10131.07
264.285	10132.46
264.354	10102.93
264.424	10092.1
264.494	10066.08
264.563	10041.66
264.633	10047.49
264.702	10044.55
264.772	10011.02
264.842	9989.87
264.911	9978.89
264.981	9953.79
265.05	9938.81
265.12	9916.99
265.19	9900.76
265.259	9900.03
265.329	9891.51
265.398	9872.43
265.468	9878.89
265.537	9862.51
265.607	9854.57
265.676	9855.43
265.746	9841.95
265.815	9837.95
265.885	9818.83
265.955	9794.84
266.024	9781.45
266.094	9738.59
266.163	9735.99
266.232	9737.72
266.302	9718.74
266.371	9711.28
266.441	9701.45
266.51	9694.09
266.58	9681.08
266.649	9659.21
266.719	9648.04
266.788	9641.2
266.858	9646.98
266.927	9611.24
266.996	9609.75
267.066	9601.95
267.135	9573.39
267.205	9568.91
267.274	9559.04
267.343	9560.68
267.413	9550.61
267.482	9553.31
267.552	9562.51
267.621	9533.61
267.69	9510.01
267.76	9507.07
267.829	9502.5
267.898	9488.1
267.968	9465.71
268.037	9464.22
268.106	9465.95
268.176	9448.61
268.245	9436.38
268.314	9423.19
268.384	9423.33
268.453	9408.26
268.522	9395.26
268.592	9400.84
268.661	9375.95
268.73	9366.7
268.799	9343.54
268.869	9352.74
268.938	9323.22
269.007	9301.94
269.076	9294.91
269.146	9290.86
269.215	9281.52
269.284	9286.38
269.353	9276.71
269.422	9269.97
269.492	9244.5
269.561	9202.61
269.63	9197.07
269.699	9180.84
269.768	9170.44
269.838	9166.4
269.907	9161.34
269.976	9145.07
270.045	9113.59
270.114	9112.38
270.183	9106.56
270.253	9110.99
270.322	9086.67
270.391	9077.81
270.46	9084.84
270.529	9081.91
270.598	9079.11
270.667	9073.82
270.736	9047.1
270.806	9036.36
270.875	9038.43
270.944	9036.12
271.013	9060.09
271.082	9045.31
271.151	9047.91
271.22	9013.98
271.289	8996.5
271.358	8987.5
271.427	8985.72
271.496	8979.99
271.565	8967.71
271.634	8955.73
271.703	8954.67
271.772	8957.46
271.841	8945.67
271.91	8921.31
271.979	8911.73
272.048	8893.63
272.117	8888.62
272.186	8883.42
272.255	8889.44
272.324	8890.21
272.393	8885.59
272.462	8870.62
272.531	8868.21
272.6	8849.44
272.669	8860.55
272.738	8849.87
272.807	8841.15
272.876	8819.83
272.945	8848.67
273.013	8847.7
273.082	8857.72
273.151	8835.43
273.22	8829.41
273.289	8826.72
273.358	8833.79
273.427	8824.36
273.496	8824.89
273.564	8824.7
273.633	8826.14
273.702	8802.8
273.771	8787.1
273.84	8782.39
273.909	8779.84
273.977	8774.2
274.046	8765.83
274.115	8778.34
274.184	8765.74
274.253	8766.55
274.322	8772.91
274.39	8739.74
274.459	8726.17
274.528	8691.27
274.597	8682.37
274.665	8676.98
274.734	8686.22
274.803	8679.58
274.872	8669.38
274.94	8649.79
275.009	8685.32
275.078	8667.42
275.147	8666.84
275.215	8666.7
275.284	8672.95
275.353	8658.56
275.421	8634.93
275.49	8652.02
275.559	8631.9
275.627	8624.73
275.696	8608.18
275.765	8604.18
275.833	8593.79
275.902	8593.84
275.971	8606.25
276.039	8622.76
276.108	8626.18
276.177	8616.98
276.245	8607.89
276.314	8608.8
276.383	8618.91
276.451	8568.84
276.52	8569.13
276.588	8579.72
276.657	8581.74
276.725	8570.81
276.794	8572.88
276.863	8584.53
276.931	8565.95
277	8577.59
277.068	8594.05
277.137	8614.26
277.205	8616.09
277.274	8636.83
277.342	8647.52
277.411	8629.14
277.48	8614.6
277.548	8603.34
277.617	8607.24
277.685	8598.15
277.754	8600.5
277.822	8593.62
277.89	8614.42
277.959	8611.77
278.027	8600.27
278.096	8594.15
278.164	8621.06
278.233	8613.41
278.301	8609.8
278.37	8606.43
278.438	8591.18
278.507	8583.96
278.575	8559.08
278.643	8557.39
278.712	8541.9
278.78	8527.17
278.849	8544.2
278.917	8554.07
278.985	8550.31
279.054	8552.96
279.122	8566.1
279.191	8563.55
279.259	8555.75
279.327	8528.56
279.396	8541.6
279.464	8529.52
279.532	8534.77
279.601	8527.69
279.669	8530.87
279.737	8535.68
279.806	8544.54
279.874	8552.28
279.942	8555.03
280.011	8554.69
280.079	8564.32
280.147	8579.04
280.215	8588.28
280.284	8577.5
280.352	8565.14
280.42	8573.8
280.488	8563.21
280.557	8555.27
280.625	8558.54
280.693	8562.97
280.761	8564.75
280.83	8549.11
280.898	8568.16
280.966	8548.39
281.034	8520.42
281.102	8493.62
281.171	8489.15
281.239	8494.11
281.307	8488.52
281.375	8475.82
281.443	8500.17
281.512	8488.96
281.58	8491.85
281.648	8475.77
281.716	8478.37
281.784	8476.25
281.852	8473.61
281.92	8469.08
281.989	8479.19
282.057	8460.62
282.125	8505.58
282.193	8508.37
282.261	8509.23
282.329	8504.03
282.397	8501.48
282.465	8500.14
282.533	8519.48
282.601	8510.14
282.67	8484.49
282.738	8476.94
282.806	8490.36
282.874	8473.61
282.942	8483.96
283.01	8482.18
283.078	8493.25
283.146	8488.97
283.214	8501.96
283.282	8502.87
283.35	8525.45
283.418	8520.39
283.486	8527.66
283.554	8486.74
283.622	8485.44
283.69	8485.83
283.758	8479.28
283.826	8490.06
283.894	8503.34
283.962	8530.58
284.03	8545.98
284.098	8550.12
284.165	8545.4
284.233	8544.49
284.301	8537.95
284.369	8527.5
284.437	8513.74
284.505	8499.88
284.573	8517.35
284.641	8501.61
284.709	8506.91
284.777	8484.14
284.845	8488.67
284.912	8493.38
284.98	8495.93
285.048	8489.68
285.116	8497.28
285.184	8512.25
285.252	8515.86
285.319	8497.57
285.387	8488.23
285.455	8472.3
285.523	8486.93
285.591	8486.64
285.659	8482.89
285.726	8496.6
285.794	8480.39
285.862	8479.76
285.93	8480.82
285.997	8477.69
286.065	8470.19
286.133	8463.79
286.201	8464.41
286.269	8453.68
286.336	8443.48
286.404	8434.39
286.472	8447.48
286.539	8420.58
286.607	8395.7
286.675	8389.83
286.743	8398.3
286.81	8394.21
286.878	8411.44
286.946	8397.39
287.013	8397.24
287.081	8398.2
287.149	8384.49
287.216	8406.82
287.284	8402.53
287.352	8406.86
287.419	8394.98
287.487	8420.1
287.555	8422.89
287.622	8422.02
287.69	8427.12
287.758	8440.84
287.825	8439.3
287.893	8424.76
287.96	8435.49
288.028	8455.12
288.096	8457.72
288.163	8462.97
288.231	8448.58
288.298	8443.43
288.366	8461.91
288.433	8459.98
288.501	8454.98
288.569	8458.64
288.636	8451.61
288.704	8465.23
288.771	8466.53
288.839	8464.07
288.906	8454.74
288.974	8458.25
289.041	8450.41
289.109	8443.72
289.176	8455.46
289.244	8463.02
289.311	8474.95
289.379	8488.57
289.446	8488.38
289.514	8489.29
289.581	8485.25
289.649	8486.88
289.716	8488.23
289.783	8478.32
289.851	8501.41
289.918	8503.34
289.986	8508.25
290.053	8511.76
290.121	8512.39
290.188	8515.03
290.255	8544.2
290.323	8539.72
290.39	8536.26
290.458	8543.28
290.525	8557.96
290.592	8549.44
290.66	8552.04
290.727	8545.01
290.794	8553.29
290.862	8551.27
290.929	8557.43
290.996	8560.12
291.064	8570.85
291.131	8582.94
291.198	8602.14
291.266	8592.51
291.333	8593.24
291.4	8603.82
291.468	8620.04
291.535	8618.26
291.602	8625.39
291.669	8614.75
291.737	8620.62
291.804	8619.46
291.871	8642.13
291.938	8642.81
292.006	8668.08
292.073	8679.92
292.14	8692.53
292.207	8687.9
292.275	8687.95
292.342	8699.36
292.409	8726.03
292.476	8750.19
292.543	8744.85
292.611	8738.4
292.678	8762.61
292.745	8791.87
292.812	8798.71
292.879	8795.34
292.946	8799.57
293.014	8816.37
293.081	8827.35
293.148	8839.09
293.215	8859.93
293.282	8853.19
293.349	8861.76
293.416	8846.69
293.484	8861.9
293.551	8873.99
293.618	8892.95
293.685	8925.4
293.752	8915.86
293.819	8907.3
293.886	8892.56
293.953	8898.39
294.02	8913.41
294.087	8916.78
294.154	8908.45
294.221	8927.37
294.288	8931.75
294.356	8952.69
294.423	8956.88
294.49	8947.64
294.557	8964.39
294.624	8959.05
294.691	8980.42
294.758	8980.28
294.825	8987.88
294.892	8975.94
294.959	8977.29
295.026	8980.66
295.093	8967.95
295.16	8967.13
295.226	8976.04
295.293	9004.69
295.36	9006.9
295.427	9014.8
295.494	9025.44
295.561	9033.62
295.628	9049.46
295.695	9060.97
295.762	9056.2
295.829	9067.95
295.896	9087.88
295.963	9094.96
296.03	9099.96
296.096	9102.08
296.163	9120.62
296.23	9132.85
296.297	9141.85
296.364	9138.33
296.431	9148.21
296.498	9151.62
296.564	9183.4
296.631	9184.26
296.698	9166.5
296.765	9189.7
296.832	9174.2
296.899	9159.85
296.965	9179.54
297.032	9161.97
297.099	9179.11
297.166	9189.12
297.233	9179.11
297.299	9173.14
297.366	9172.75
297.433	9172.37
297.5	9178.82
297.566	9179.74
297.633	9177.42
297.7	9187.34
297.767	9187.39
297.833	9185.95
297.9	9183.3
297.967	9164.76
298.033	9174.25
298.1	9206.85
298.167	9198.37
298.234	9207.33
298.3	9220.66
298.367	9213.68
298.434	9217.1
298.5	9208.34
298.567	9199.09
298.634	9200.73
298.7	9215.22
298.767	9222.2
298.834	9241.75
298.9	9237.76
298.967	9227.36
299.033	9239.39
299.1	9256.1
299.167	9272.76
299.233	9269.82
299.3	9286.43
299.366	9303.53
299.433	9319.32
299.5	9287.64
299.566	9287.88
299.633	9301.5
299.699	9310.65
299.766	9311.09
299.832	9322.59
299.899	9330.01
299.965	9349.8
300.032	9351.44
300.099	9357.21
300.165	9360.06
300.232	9355.14
300.298	9360.63
300.365	9373.15
300.431	9371.32
300.498	9364.05
300.564	9367.57
300.631	9383.02
300.697	9394
300.763	9394.15
300.83	9391.64
300.896	9409.89
300.963	9424.87
301.029	9432.96
301.096	9436.62
301.162	9450.15
301.229	9443.17
301.295	9435.46
301.361	9436.09
301.428	9432.04
301.494	9421.69
301.561	9424.77
301.627	9425.06
301.693	9425.25
301.76	9428.53
301.826	9426.55
301.892	9435.8
301.959	9445.05
302.025	9437.87
302.092	9440.62
302.158	9449.72
302.224	9452.7
302.291	9441.53
302.357	9437.44
302.423	9429.35
302.49	9420.05
302.556	9423.33
302.622	9419.24
302.688	9429.64
302.755	9448.28
302.821	9458.92
302.887	9468.74
302.954	9463.15
303.02	9474.33
303.086	9479.24
303.152	9483.43
303.219	9478.27
303.285	9482.13
303.351	9490.94
303.417	9496.14
303.483	9476.78
303.55	9467.25
303.616	9469.13
303.682	9474.33
303.748	9468.5
303.815	9484.97
303.881	9494.03
303.947	9481.5
304.013	9488.29
304.079	9483.19
304.145	9458.63
304.212	9457.52
304.278	9445.15
304.344	9444.04
304.41	9428.82
304.476	9424.25
304.542	9412.55
304.608	9423.96
304.674	9404.02
304.741	9395.26
304.807	9398.24
304.873	9404.55
304.939	9422.7
305.005	9398.58
305.071	9393.23
305.137	9393.72
305.203	9366.17
305.269	9361.64
305.335	9372.48
305.401	9369.11
305.467	9364.48
305.533	9369.3
305.599	9384.13
305.666	9398.82
305.732	9395.59
305.798	9406.28
305.864	9430.89
305.93	9436.43
305.996	9430.94
306.062	9438.84
306.128	9437.92
306.194	9422.37
306.259	9420.3
306.325	9403.59
306.391	9417.7
306.457	9423.38
306.523	9427.37
306.589	9452.51
306.655	9447.89
306.721	9428.1
306.787	9411.2
306.853	9429.59
306.919	9416.26
306.985	9403.45
307.051	9397.14
307.117	9392.9
307.183	9380.04
307.248	9347.3
307.314	9353.85
307.38	9356.25
307.446	9357.51
307.512	9345.08
307.578	9349.8
307.644	9349.56
307.709	9352.45
307.775	9353.46
307.841	9359.62
307.907	9355.48
307.973	9333.62
308.039	9336.36
308.104	9347.1
308.17	9355.24
308.236	9335.06
308.302	9340.4
308.368	9327.31
308.433	9324.76
308.499	9320.62
308.565	9314.21
308.631	9316.09
308.696	9290.81
308.762	9276.41
308.828	9278.58
308.894	9258.27
308.959	9234.19
309.025	9223.26
309.091	9218.21
309.156	9204.92
309.222	9194.18
309.288	9179.01
309.354	9162.36
309.419	9151.57
309.485	9135.63
309.551	9135.73
309.616	9125.04
309.682	9118.54
309.748	9106.17
309.813	9099.19
309.879	9090.71
309.945	9082.19
310.01	9072.37
310.076	9076.61
310.141	9072.8
310.207	9054.56
310.273	9059.22
310.338	9066.93
310.404	9056.91
310.469	9050.85
310.535	9043.67
310.601	9026.1
310.666	9034.86
310.732	9046.03
310.797	9040.3
310.863	9031.25
310.928	9027.21
310.994	9025.81
311.059	9021.19
311.125	9027.11
311.191	9041.36
311.256	9026.35
311.322	9030.73
311.387	9016
311.453	9405.93
311.518	9377.68
311.584	9374.84
311.649	9379.56
311.715	9369.98
311.78	9365.79
311.846	9352.5
311.911	9356.79
311.976	9361.51
312.042	9345.19
312.107	9322.71
312.173	9316.06
312.238	9312.5
312.304	9302.39
312.369	9292.81
312.434	9280.92
312.5	9269.8
312.565	9236.01
312.631	9242.02
312.696	9234.08
312.761	9236.05
312.827	8840.19
312.892	8881.45
312.958	8879.38
313.023	8872.97
313.088	8872.69
313.154	8864.02
313.219	8860.22
313.284	8846.88
313.35	8836.78
313.415	8828.4
313.48	8829.6
313.546	8826.57
313.611	8832.44
313.676	8828.01
313.741	8811.31
313.807	8821.38
313.872	8826.57
313.937	8830.09
314.003	8844.53
314.068	8851.51
314.133	8856.71
314.198	8842.89
314.264	8823.39
314.329	8814.34
314.394	8811.5
314.459	8812.47
314.525	8832.39
314.59	8818.15
314.655	8801.25
314.72	8807.37
314.785	8807.75
314.851	8801.02
314.916	8780.42
314.981	8766.55
315.046	8753.03
315.111	8749.47
315.176	8738.49
315.242	8742.59
315.307	8740.61
315.372	8716.74
315.437	8702.87
315.502	8688.53
315.567	8696.91
315.632	8679.15
315.698	8679
315.763	8678.18
315.828	8668.03
315.893	8652
315.958	8656.33
316.023	8653.63
316.088	8638.76
316.153	8618.41
316.218	8609.84
316.283	8599.93
316.348	8579.91
316.413	8578.85
316.479	8567.6
316.544	8533.58
316.609	8498.88
316.674	8466.54
316.739	8432.87
316.804	8401.54
316.869	8373.54
316.934	8338.22
316.999	8310.75
317.064	8258.65
317.129	8212.94
317.194	8176.47
317.259	8134.9
317.324	8082.33
317.389	8037.84
317.454	7995.5
317.518	7963.23
317.583	7942.11
317.648	7917.68
317.713	7884.4
317.778	7825.15
317.843	7798.84
317.908	7762.06
317.973	7726.42
318.038	7696.66
318.103	7660.84
318.168	7628.86
318.233	7600.4
318.297	7554.05
318.362	7519.72
318.427	7479.35
318.492	7459.49
318.557	7409.56
318.622	7386.57
318.687	7363.17
318.751	7327.37
318.816	7297.23
318.881	7263.93
318.946	7203.61
319.011	7159.59
319.075	7117.64
319.14	7087.61
319.205	7040.47
319.27	7002.67
319.335	6959.05
319.399	6919.12
319.464	6893.32
319.529	6845.86
319.594	6803.16
319.658	6775.49
319.723	6732.84
319.788	6713.67
319.853	6654.74
319.917	6632.75
319.982	6579.24
320.047	6546.44
320.112	6518.69
320.176	6471.4
320.241	6443.02
320.306	6425.26
320.37	6386.23
320.435	6360.07
320.5	6333.47
320.564	6299.49
320.629	6267.82
320.694	6246.12
320.758	6208.16
320.823	6163.82
320.888	6138.15
320.952	6095.64
321.017	6049.44
321.082	6009.38
321.146	5974.45
321.211	5940.78
321.275	5897.18
321.34	5853.93
321.405	5808.17
321.469	5764.48
321.534	5722.48
321.598	5667.72
321.663	5631.7
321.727	5603.41
321.792	5555.99
321.857	5513.75
321.921	5476.31
321.986	5432.94
322.05	5364.94
322.115	5327.84
322.179	5283.81
322.244	5224.69
322.308	5191.78
322.373	5149.62
322.437	5112.5
322.502	5082.78
322.566	5042.16
322.631	5008.78
322.695	4970.81
322.76	4929.1
322.824	4895.44
322.889	4857.48
322.953	4814.79
323.018	4749.77
323.082	4686.16
323.146	4634.77
323.211	4581.5
323.275	4534.7
323.34	4489.54
323.404	4460.7
323.468	4419.02
323.533	4382.05
323.597	4337.16
323.662	4285.27
323.726	4252.65
323.79	4208.17
323.855	4144.12
323.919	4099.89
323.983	4056.57
324.048	3993.65
324.112	4152.51
324.177	4027.28
324.241	3817.89
324.305	3616.81
324.37	3418.31
324.434	3225.89
324.498	3186.35
324.562	3138.94
324.627	3082.75
324.691	3031.05
324.755	2969.75
324.82	2891.25
324.884	2813.86
324.948	2751.04
325.012	2662.19
325.077	2540.05
