Data from 20250704_urea_2M_MAYP1162681_11-59-43-531.txt Node
Date: Fri Jul 04 11:59:43 BST 2025
User: adleo
Spectrometer: MAYP116268
Trigger mode: 0
Integration Time (sec): 1.000000E0
Scans to average: 1
Electric dark correction enabled: true
Nonlinearity correction enabled: true
Boxcar width: 10
XAxis mode: Wavelengths
Number of Pixels in Spectrum: 2068
>>>>>Begin Spectral Data<<<<<
179.565	1273.16
179.642	1334.31
179.718	1381.3
179.795	1424.49
179.871	1458.67
179.948	1477.77
180.024	1497.98
180.101	1522.38
180.177	1535.64
180.254	1560.81
180.33	1583.24
180.407	1641.55
180.483	1742.94
180.56	1838.54
180.636	1927.89
180.712	1915.48
180.789	1928.08
180.865	1939.39
180.942	1947.38
181.018	1957.03
181.095	1971.02
181.171	1974.2
181.248	1976.58
181.324	1992.23
181.4	1997.08
181.477	2008.92
181.553	2021.61
181.63	2043.68
181.706	2057.62
181.782	2067.08
181.859	2064.89
181.935	2069.74
182.011	2066.89
182.088	2083.87
182.164	2104.28
182.24	2117.93
182.317	2127.59
182.393	2125.59
182.469	2142.71
182.546	2155.75
182.622	2159.84
182.698	2153.89
182.775	2165.78
182.851	2178.91
182.927	2168.45
183.003	2164.5
183.08	2159.6
183.156	2170.26
183.232	2168.07
183.308	2155.99
183.385	2164.31
183.461	2183.44
183.537	2186
183.613	2202.13
183.69	2192.19
183.766	2179.29
183.842	2185.24
183.918	2192.33
183.995	2203.75
184.071	2206.08
184.147	2200.7
184.223	2190.05
184.299	2206.85
184.375	2197.71
184.452	2205.05
184.528	2260.73
184.604	2273.62
184.68	2284.37
184.756	2293.18
184.832	2297.03
184.908	2304.5
184.985	2303.88
185.061	2287.13
185.137	2298.99
185.213	2281.81
185.289	2285.42
185.365	2277.2
185.441	2275.58
185.517	2290.29
185.593	2286.01
185.669	2285.48
185.745	2294.09
185.822	2314.26
185.898	2303.36
185.974	2312.93
186.05	2304.79
186.126	2267.23
186.202	2259.19
186.278	2254.81
186.354	2242.2
186.43	2248.53
186.506	2247.72
186.582	2249.72
186.658	2258.05
186.734	2235.97
186.81	2241.25
186.886	2243.68
186.962	2258.42
187.038	2255.38
187.114	2245.76
187.19	2253.52
187.266	2242.24
187.341	2246.19
187.417	2234.82
187.493	2233.54
187.569	2235.77
187.645	2228.97
187.721	2215.98
187.797	2224.25
187.873	2229.63
187.949	2225.06
188.025	2220.59
188.101	2224.73
188.176	2228.92
188.252	2223.83
188.328	2231.01
188.404	2231.44
188.48	2224.01
188.556	2216.78
188.632	2214.88
188.707	2215.21
188.783	2211.88
188.859	2206.46
188.935	2196.89
189.011	2206.65
189.086	2201.51
189.162	2195.46
189.238	2190.66
189.314	2190.04
189.39	2183.76
189.465	2176.15
189.541	2195.23
189.617	2176.06
189.693	2169.35
189.768	2172.49
189.844	2198.67
189.92	2190.78
189.996	2200.01
190.071	2212.57
190.147	2211.91
190.223	2224.56
190.298	2216.19
190.374	2201.73
190.45	2212.81
190.526	2220.52
190.601	2214.9
190.677	2216.28
190.753	2242.23
190.828	2244.8
190.904	2259.88
190.98	2275.59
191.055	2288.92
191.131	2278.06
191.207	2299.24
191.282	2309.42
191.358	2299.52
191.433	2282.66
191.509	2294.6
191.585	2291.32
191.66	2291.75
191.736	2299.45
191.811	2288.41
191.887	2304.79
191.963	2332.49
192.038	2335.72
192.114	2333.96
192.189	2337.53
192.265	2334.63
192.34	2313.49
192.416	2316.67
192.491	2312.91
192.567	2316.82
192.642	2317.53
192.718	2315.91
192.793	2305.44
192.869	2301.54
192.944	2305.44
193.02	2310.68
193.095	2316.01
193.171	2321.15
193.246	2318.53
193.322	2317.77
193.397	2320.91
193.473	2306.2
193.548	2285.78
193.624	2295.21
193.699	2295.87
193.775	2313.49
193.85	2314.77
193.925	2321.39
194.001	2318.91
194.076	2309.68
194.152	2297.97
194.227	2288.97
194.302	2280.65
194.378	2287.55
194.453	2285.65
194.529	2296.02
194.604	2281.93
194.679	2276.51
194.755	2258.86
194.83	2274.14
194.905	2270.19
194.981	2278.85
195.056	2273.43
195.131	2279.52
195.207	2277.9
195.282	2266.05
195.357	2245.3
195.433	2261.34
195.508	2249.87
195.583	2258.86
195.659	2274.9
195.734	2282.8
195.809	2282.47
195.884	2289.79
195.96	2288.7
196.035	2302.36
196.11	2298.17
196.185	2311.97
196.261	2314.92
196.336	2344
196.411	2328.38
196.486	2332.24
196.561	2323.72
196.637	2329.76
196.712	2347.23
196.787	2350.62
196.862	2367.03
196.937	2377.03
197.013	2383.93
197.088	2398.26
197.163	2419.78
197.238	2436.46
197.313	2435.22
197.388	2450.69
197.464	2485.6
197.539	2498.12
197.614	2494.84
197.689	2509.31
197.764	2527.99
197.839	2547.41
197.914	2542.74
197.989	2568.13
198.065	2582.75
198.14	2636.98
198.215	2668.27
198.29	2679.52
198.365	2692.76
198.44	2707.14
198.515	2737.06
198.59	2752.64
198.665	2776.28
198.74	2786.48
198.815	2786.86
198.89	2809.49
198.965	2839.23
199.04	2832.75
199.115	2848.9
199.19	2889.12
199.265	2889.17
199.34	2897.51
199.415	2934.13
199.49	2955.91
199.565	2964.25
199.64	2989.56
199.715	2983.84
199.79	2990.42
199.865	2995.99
199.94	2994.66
200.015	3024.61
200.09	3032
200.165	3039.05
200.24	3050.07
200.315	3091.55
200.39	3108.57
200.464	3114.29
200.539	3114.01
200.614	3129.69
200.689	3151.73
200.764	3160.55
200.839	3179.86
200.914	3188.2
200.989	3175.51
201.063	3189.05
201.138	3169.85
201.213	3171.33
201.288	3154.49
201.363	3160.36
201.438	3161.17
201.512	3178.43
201.587	3161.35
201.662	3162.73
201.737	3177.81
201.812	3182.53
201.886	3143.44
201.961	3155.46
202.036	3144.64
202.111	3141.35
202.186	3113.19
202.26	3093.44
202.335	3069.16
202.41	3064.01
202.485	3043.32
202.559	3026.16
202.634	2999.79
202.709	3010.94
202.784	2991.39
202.858	2990.15
202.933	2970.61
203.008	2963.03
203.082	2943.29
203.157	2941.58
203.232	2896.69
203.306	2872.08
203.381	2841.33
203.456	2822.12
203.53	2798.41
203.605	2776.84
203.68	2754.91
203.754	2749.82
203.829	2736.33
203.904	2714.51
203.978	2702.74
204.053	2708.55
204.127	2692.69
204.202	2693.45
204.277	2677.07
204.351	2669.2
204.426	2660.96
204.5	2650.58
204.575	2616.58
204.65	2623.34
204.724	2615.52
204.799	2625.09
204.873	2620.52
204.948	2617.66
205.022	2604.66
205.097	2594.27
205.171	2608.6
205.246	2616.75
205.32	2613.23
205.395	2615.18
205.469	2607.23
205.544	2611.76
205.618	2592.51
205.693	2605.71
205.767	2591.71
205.842	2614.43
205.916	2607.77
205.991	2597.91
206.065	2605.19
206.14	2623.04
206.214	2618.85
206.289	2614.51
206.363	2625.18
206.438	2624.61
206.512	2633.47
206.586	2653.71
206.661	2661.1
206.735	2639.96
206.81	2639.63
206.884	2657.82
206.958	2644.1
207.033	2661.1
207.107	2672.73
207.181	2705.56
207.256	2699.08
207.33	2717.19
207.405	2728.87
207.479	2750.26
207.553	2759.88
207.628	2745.12
207.702	2755.88
207.776	2748.21
207.851	2748.74
207.925	2767.95
207.999	2768.52
208.073	2764.9
208.148	2767.14
208.222	2758.8
208.296	2792.61
208.371	2809.35
208.445	2822.12
208.519	2850.62
208.593	2864.77
208.668	2858.67
208.742	2861.96
208.816	2865.96
208.89	2881.6
208.965	2876.92
209.039	2886.84
209.113	2902.66
209.187	2922
209.261	2918.09
209.336	2942.35
209.41	2962.85
209.484	2961.9
209.558	2986.12
209.632	2997.99
209.707	3012.15
209.781	3033.13
209.855	3050.96
209.929	3068
210.003	3073.2
210.077	3073.82
210.151	3125.99
210.226	3162.3
210.3	3190.42
210.374	3215.11
210.448	3220.5
210.522	3234.15
210.596	3246.79
210.67	3258.14
210.744	3308.05
210.818	3339.76
210.892	3362.43
210.966	3360.19
211.041	3380.37
211.115	3378.8
211.189	3406.18
211.263	3424.84
211.337	3434.57
211.411	3451.23
211.485	3452.67
211.559	3470.75
211.633	3475.99
211.707	3449.29
211.781	3464.87
211.855	3435.89
211.929	3431.89
212.003	3419.15
212.077	3440.35
212.151	3458.78
212.225	3477.26
212.299	3478.07
212.373	3483.22
212.447	3491.68
212.52	3540.05
212.594	3557.67
212.668	3585.27
212.742	3596.44
212.816	3614.07
212.89	3631.26
212.964	3659.31
213.038	3687.98
213.112	3729.31
213.186	3784.09
213.26	3796.36
213.333	3783.7
213.407	3830.98
213.481	3879.02
213.555	3944.11
213.629	3975.62
213.703	4010.33
213.777	4066.56
213.85	4104.05
213.924	4195.22
213.998	4258.08
214.072	4316.67
214.146	4375.23
214.219	4444.56
214.293	4510.34
214.367	4589.36
214.441	4680.5
214.515	4748.16
214.588	4810.26
214.662	4864.27
214.736	4933
214.81	5032.85
214.883	5143.16
214.957	5231.44
215.031	5319.28
215.105	5395.98
215.178	5493.96
215.252	5598.47
215.326	5682.2
215.4	5772.52
215.473	5840.75
215.547	5940.75
215.621	6045.79
215.694	6174.01
215.768	6276.15
215.842	6392.98
215.915	6506.85
215.989	6609.58
216.063	6728.85
216.136	6870.86
216.21	7002.32
216.284	7150.39
216.357	7289.8
216.431	7428.14
216.504	7574.23
216.578	7748.1
216.652	7904.05
216.725	8048.54
216.799	8206
216.873	8358.2
216.946	8516.85
217.02	8666.33
217.093	8815.57
217.167	8933.54
217.24	9065.36
217.314	9214.34
217.387	9358.81
217.461	9505.91
217.535	9678.55
217.608	9821.34
217.682	9964.25
217.755	10129.84
217.829	10271.24
217.902	10427.27
217.976	10568.05
218.049	10709.69
218.123	10838.36
218.196	10991.48
218.27	11134.56
218.343	11261.5
218.417	11411.33
218.49	11558.17
218.563	11719.62
218.637	11866.53
218.71	12043.75
218.784	12190.37
218.857	12346.73
218.931	12494.42
219.004	12636.71
219.077	12774.09
219.151	12913.16
219.224	13049.67
219.298	13188.6
219.371	13330.95
219.444	13451.22
219.518	13587.64
219.591	13718.57
219.665	13880.15
219.738	14013.25
219.811	14132.12
219.885	14270.81
219.958	14400.72
220.031	14523.26
220.105	14651.53
220.178	14773.05
220.251	14881.56
220.325	15011.13
220.398	15131.44
220.471	15253.3
220.544	15375.05
220.618	15478.64
220.691	15602.42
220.764	15718.01
220.838	15825.64
220.911	15923.48
220.984	16044.8
221.057	16155.9
221.131	16271.86
221.204	16331.29
221.277	16445.33
221.35	16575.94
221.424	16661.34
221.497	16752.1
221.57	16850.75
221.643	16935.05
221.716	17034.04
221.79	17111.44
221.863	17192.02
221.936	17268.36
222.009	17339.74
222.082	17418.63
222.155	17492.51
222.229	17579.4
222.302	17650.87
222.375	17715.54
222.448	17791.01
222.521	17867.78
222.594	17934
222.667	17982.38
222.74	18061.56
222.814	18120.98
222.887	18164.01
222.96	18238.08
223.033	18298.46
223.106	18351.52
223.179	18411.09
223.252	18461.83
223.325	18524.43
223.398	18574.11
223.471	18622.74
223.544	18683.84
223.617	18729.96
223.69	18785.09
223.763	18820.07
223.837	18872.41
223.91	18919.59
223.983	18944.98
224.056	18966.38
224.129	19008.26
224.202	19057.17
224.275	19082.13
224.348	19102.32
224.42	19129.21
224.493	19146.99
224.566	19178.9
224.639	19212.77
224.712	19231.71
224.785	19261.2
224.858	19293.06
224.931	19318.26
225.004	19337.05
225.077	19351.75
225.15	19348.14
225.223	19367.75
225.296	19413.87
225.369	19407.61
225.442	19422.11
225.514	19447.36
225.587	19472.57
225.66	19493.72
225.733	19512.85
225.806	19537.57
225.879	19555.45
225.952	19557.72
226.025	19594.87
226.097	19633.86
226.17	19650.29
226.243	19655.3
226.316	19660.8
226.389	19664.75
226.461	19674.87
226.534	19686.05
226.607	19701.85
226.68	19742.58
226.753	19754.43
226.825	19733.66
226.898	19759.73
226.971	19776.79
227.044	19785.9
227.117	19784.5
227.189	19794.38
227.262	19814.62
227.335	19829.7
227.407	19829.94
227.48	19850.96
227.553	19849.12
227.626	19836.98
227.698	19845.12
227.771	19850.71
227.844	19843.05
227.916	19847.63
227.989	19830.14
228.062	19839.1
228.134	19862.42
228.207	19855.34
228.28	19839
228.352	19839.1
228.425	19845.46
228.498	19852.64
228.57	19842.14
228.643	19856.45
228.716	19853.08
228.788	19839.63
228.861	19823
228.934	19835.2
229.006	19835.1
229.079	19826.04
229.151	19814.86
229.224	19792.5
229.296	19799.34
229.369	19818.67
229.442	19829.17
229.514	19830.09
229.587	19838.33
229.659	19812.21
229.732	19822.19
229.804	19834.57
229.877	19858.86
229.949	19864.88
230.022	19872.3
230.094	19870.96
230.167	19867.44
230.239	19848.59
230.312	19841.03
230.384	19865.08
230.457	19859.73
230.529	19855.1
230.602	19856.98
230.674	19851.2
230.747	19862.57
230.819	19864.5
230.892	19831.63
230.964	19823.44
231.037	19825.75
231.109	19808.64
231.181	19809.8
231.254	19783.34
231.326	19782.38
231.399	19763.83
231.471	19745.85
231.544	19709.71
231.616	19712.36
231.688	19705.71
231.761	19685.9
231.833	19675.88
231.905	19637.23
231.978	19623.79
232.05	19611.79
232.122	19598.92
232.195	19583.84
232.267	19576.99
232.339	19556.17
232.412	19565.52
232.484	19549.86
232.556	19525.57
232.629	19532.85
232.701	19527.21
232.773	19512.85
232.846	19477.34
232.918	19462.25
232.99	19449
233.062	19449.39
233.135	19443.22
233.207	19415.22
233.279	19417.63
233.351	19407.22
233.424	19392.81
233.496	19367.56
233.568	19372.09
233.64	19338.69
233.713	19324.57
233.785	19304.67
233.857	19292.43
233.929	19249.93
234.001	19244.58
234.074	19248.96
234.146	19215.28
234.218	19194.32
234.29	19175.72
234.362	19156.87
234.434	19117.7
234.507	19085.36
234.579	19047.77
234.651	19020.88
234.723	19008.98
234.795	18989.51
234.867	18965.51
234.939	18965.46
235.012	18946.72
235.084	18928.65
235.156	18917.42
235.228	18886.24
235.3	18865.33
235.372	18838.97
235.444	18836.36
235.516	18796.9
235.588	18781.14
235.66	18746.01
235.732	18703.41
235.804	18745.28
235.876	18735.6
235.948	18731.79
236.02	18706.15
236.092	18683.07
236.164	18657.05
236.236	18629.68
236.308	18603.27
236.38	18583.94
236.452	18536.43
236.524	18509.11
236.596	18498.12
236.668	18486.75
236.74	18469.35
236.812	18452
236.884	18439.37
236.956	18414.99
237.028	18373.21
237.1	18329.64
237.172	18334.13
237.244	18337.26
237.316	18262.76
237.388	18230.9
237.46	18200.3
237.532	18193.56
237.604	18166.91
237.675	18159.53
237.747	18139
237.819	18105.27
237.891	18073.9
237.963	18051.73
238.035	18026.14
238.107	17947.11
238.178	17924.7
238.25	17901.42
238.322	17892.12
238.394	17843.49
238.466	17810.68
238.538	17801.76
238.609	17779.16
238.681	17731.88
238.753	17696.03
238.825	17678.54
238.897	17662.54
238.968	17653.72
239.04	17618.49
239.112	17616.75
239.184	17572.22
239.255	17548.08
239.327	17534.68
239.399	17513.19
239.471	17492.66
239.542	17468.13
239.614	17466.97
239.686	17417.86
239.758	17393.19
239.829	17349.48
239.901	17338.44
239.973	17312.71
240.044	17285.52
240.116	17261.04
240.188	17229.43
240.259	17195.79
240.331	17154.34
240.403	17127.79
240.474	17078.73
240.546	17047.11
240.618	16999.98
240.689	16969.13
240.761	16938
240.833	16922.48
240.904	16891.49
240.976	16858.53
241.048	16846.14
241.119	16827.1
241.191	16810.23
241.262	16800.4
241.334	16762.04
241.405	16736.83
241.477	16706.71
241.549	16673.84
241.62	16649.26
241.692	16633.98
241.763	16623.81
241.835	16594.27
241.906	16557.59
241.978	16516.67
242.049	16498.5
242.121	16488.38
242.192	16475.37
242.264	16433.73
242.335	16377.91
242.407	16359.31
242.478	16332.65
242.55	16301.71
242.621	16261.08
242.693	16228.6
242.764	16189.27
242.836	16165.89
242.907	16145.75
242.979	16122.8
243.05	16097.4
243.122	16071.09
243.193	16038.07
243.264	15979.17
243.336	15953.67
243.407	15940.71
243.479	15936.66
243.55	15913.96
243.622	15888.61
243.693	15852.46
243.764	15843.06
243.836	15812.11
243.907	15773.5
243.978	15739.04
244.05	15708.14
244.121	15659.27
244.192	15640.13
244.264	15597.23
244.335	15567.35
244.407	15516.11
244.478	15497.99
244.549	15470.42
244.62	15430.6
244.692	15398.84
244.763	15386.88
244.834	15352.81
244.906	15313.18
244.977	15280.21
245.048	15262.19
245.119	15216.25
245.191	15187.67
245.262	15138.74
245.333	15132.19
245.405	15105.29
245.476	15087.45
245.547	15064.41
245.618	15060.07
245.689	15033.76
245.761	15006.86
245.832	14979.48
245.903	14959.33
245.974	14929.54
246.045	14902.74
246.117	14887.7
246.188	14846
246.259	14807.25
246.33	14776.3
246.401	14742.75
246.473	14702.16
246.544	14667.07
246.615	14649.14
246.686	14616.89
246.757	14596.59
246.828	14557.31
246.899	14553.45
246.97	14503.85
247.042	14463.11
247.113	14442.05
247.184	14434.96
247.255	14411.24
247.326	14383.24
247.397	14358.94
247.468	14329.73
247.539	14305.1
247.61	14264.7
247.681	14250.24
247.752	14237.9
247.823	14204.25
247.894	14186.99
247.965	14156.24
248.037	14127.02
248.108	14088.94
248.179	14059.92
248.25	14038.32
248.321	14013.31
248.392	13969.53
248.463	13973.87
248.534	13949.19
248.605	13930.78
248.675	13897.23
248.746	13872.01
248.817	13855.48
248.888	13833.84
248.959	13791.8
249.03	13774.97
249.101	13762.15
249.172	13731.25
249.243	13685.21
249.314	13678.18
249.385	13655.52
249.456	13640.96
249.527	13608.71
249.598	13592.66
249.669	13575.69
249.739	13549.9
249.81	13533.75
249.881	13491.62
249.952	13467.61
250.023	13444.62
250.094	13399.64
250.165	13360.83
250.235	13341.69
250.306	13320.63
250.377	13285.92
250.448	13272.95
250.519	13227.2
250.59	13212.5
250.66	13189.8
250.731	13185.22
250.802	13162.12
250.873	13139.85
250.944	13117.1
251.014	13088.95
251.085	13091.65
251.156	13070.44
251.227	13063.88
251.297	13059.06
251.368	13048.36
251.439	13036.93
251.51	13022.76
251.58	12991.43
251.651	12964.82
251.722	12950.89
251.792	12912.9
251.863	12886.72
251.934	12875.64
252.005	12884.55
252.075	12863.2
252.146	12856.35
252.217	12852.4
252.287	12844.74
252.358	12820.63
252.429	12815.86
252.499	12787.32
252.57	12760.71
252.641	12744.57
252.711	12721.33
252.782	12679.73
252.852	12686.67
252.923	12659.1
252.994	12641.26
253.064	12635.43
253.135	12601.11
253.205	12571.65
253.276	12565.34
253.347	12563.56
253.417	12534.78
253.488	12509.62
253.558	12482.38
253.629	12462.91
253.699	12439.77
253.77	12421.88
253.841	12400.72
253.911	12385.87
253.982	12376.09
254.052	12360.86
254.123	12346.93
254.193	12329.04
254.264	12351.65
254.334	12317.91
254.405	12289.52
254.475	12264.5
254.546	12238.9
254.616	12245.31
254.687	12236.54
254.757	12221.89
254.827	12195.38
254.898	12183.37
254.968	12160.81
255.039	12134.79
255.109	12121.53
255.18	12094.34
255.25	12053.76
255.321	12038.72
255.391	12000.69
255.461	12004.11
255.532	11963.09
255.602	11933.59
255.673	11893.01
255.743	11861.72
255.813	11819.89
255.884	11811.89
255.954	11804.61
256.024	11809.14
256.095	11789.62
256.165	11754.19
256.235	11743.15
256.306	11721.13
256.376	11715.2
256.446	11706.81
256.517	11699.49
256.587	11687.82
256.657	11674.28
256.728	11657.75
256.798	11646.13
256.868	11625.74
256.938	11600.58
257.009	11589.93
257.079	11586.32
257.149	11597.84
257.219	11556.82
257.29	11548.82
257.36	11509.93
257.43	11493.54
257.5	11450.93
257.571	11428.23
257.641	11422.74
257.711	11386.74
257.781	11382.54
257.852	11371.22
257.922	11332.85
257.992	11309.67
258.062	11292.27
258.132	11277.04
258.202	11259.26
258.273	11245.81
258.343	11251.93
258.413	11219.26
258.483	11206.54
258.553	11178.15
258.623	11155.07
258.693	11142.34
258.764	11136.51
258.834	11142.54
258.904	11131.4
258.974	11112.08
259.044	11088.56
259.114	11073.91
259.184	11061.67
259.254	11038.59
259.324	10992.95
259.394	10984.9
259.464	10992.23
259.535	10972.57
259.605	10952.47
259.675	10931.66
259.745	10909.25
259.815	10874.74
259.885	10861.2
259.955	10871.23
260.025	10848.29
260.095	10832.49
260.165	10822.41
260.235	10825.21
260.305	10795.09
260.375	10764.45
260.445	10770.81
260.515	10779.87
260.585	10780.01
260.655	10771.96
260.725	10769.89
260.795	10770.95
260.865	10777.36
260.934	10748.16
261.004	10740.5
261.074	10720.5
261.144	10716.89
261.214	10718.14
261.284	10707.54
261.354	10701.42
261.424	10674.58
261.494	10678.43
261.564	10658.53
261.634	10652.75
261.703	10616.76
261.773	10609.77
261.843	10606.78
261.913	10591.56
261.983	10553.49
262.053	10543.37
262.123	10517.65
262.192	10487.77
262.262	10482.47
262.332	10449.95
262.402	10438.87
262.472	10424.12
262.541	10396.91
262.611	10395.75
262.681	10374.84
262.751	10374.16
262.821	10355.04
262.89	10324.25
262.96	10316.98
263.03	10326.61
263.1	10311.29
263.169	10300.5
263.239	10291.1
263.309	10299.34
263.379	10287.73
263.448	10273.14
263.518	10255.74
263.588	10247.07
263.657	10250.69
263.727	10243.03
263.797	10226.31
263.867	10210.46
263.936	10179.87
264.006	10177.32
264.076	10163.54
264.145	10142.53
264.215	10117.24
264.285	10112.91
264.354	10082.56
264.424	10058.62
264.494	10030.2
264.563	10011.65
264.633	10018.44
264.702	10009.87
264.772	9973.4
264.842	9961.55
264.911	9959.33
264.981	9935.1
265.05	9926.38
265.12	9908.32
265.19	9893.87
265.259	9892.08
265.329	9886.83
265.398	9881.39
265.468	9898.3
265.537	9879.56
265.607	9877.25
265.676	9878.69
265.746	9869.4
265.815	9870.17
265.885	9853.89
265.955	9828.51
266.024	9811.22
266.094	9776.3
266.163	9777.02
266.232	9778.08
266.302	9760.45
266.371	9747.3
266.441	9741.09
266.51	9732.95
266.58	9716.62
266.649	9693.12
266.719	9692.49
266.788	9682.14
266.858	9684.83
266.927	9645.34
266.996	9634.12
267.066	9629.01
267.135	9595.06
267.205	9589.48
267.274	9583.79
267.343	9587.65
267.413	9581.39
267.482	9585.38
267.552	9589.81
267.621	9560.92
267.69	9526.15
267.76	9520.03
267.829	9514.73
267.898	9495.81
267.968	9479.34
268.037	9476.98
268.106	9474.72
268.176	9449.48
268.245	9437.39
268.314	9412.93
268.384	9417.31
268.453	9406.52
268.522	9395.11
268.592	9399.97
268.661	9383.55
268.73	9375.94
268.799	9359.62
268.869	9359.33
268.938	9332.27
269.007	9309.93
269.076	9302.46
269.146	9314.26
269.215	9304.63
269.284	9313.35
269.353	9301.5
269.422	9282.2
269.492	9264.19
269.561	9228.32
269.63	9226.3
269.699	9210.6
269.768	9210.12
269.838	9199.43
269.907	9195.92
269.976	9171.02
270.045	9138.38
270.114	9134.77
270.183	9120.86
270.253	9113.4
270.322	9092.69
270.391	9081.43
270.46	9090.91
270.529	9083.11
270.598	9075.46
270.667	9062.75
270.736	9037.47
270.806	9035.83
270.875	9038.72
270.944	9023.75
271.013	9048.69
271.082	9034.34
271.151	9031.4
271.22	9007.33
271.289	8994.91
271.358	8984.03
271.427	8981.96
271.496	8981
271.565	8966.56
271.634	8959.05
271.703	8982.64
271.772	8988.9
271.841	8980.09
271.91	8951.45
271.979	8949.43
272.048	8930.65
272.117	8930.12
272.186	8918.95
272.255	8918.52
272.324	8922.61
272.393	8918.81
272.462	8903.59
272.531	8898.2
272.6	8888.62
272.669	8892.33
272.738	8883.09
272.807	8880.1
272.876	8855.7
272.945	8883.24
273.013	8889.93
273.082	8895.46
273.151	8851.22
273.22	8844.91
273.289	8839.62
273.358	8858.1
273.427	8848.53
273.496	8843.95
273.564	8840.44
273.633	8844.67
273.702	8829.22
273.771	8819.35
273.84	8817.62
273.909	8814.93
273.977	8814.45
274.046	8807.32
274.115	8808.62
274.184	8795.53
274.253	8778.59
274.322	8784.85
274.39	8748.5
274.459	8726.12
274.528	8696.81
274.597	8692.29
274.665	8688.87
274.734	8693.63
274.803	8674.57
274.872	8666.78
274.94	8650.51
275.009	8677.23
275.078	8663.27
275.147	8659.08
275.215	8652.49
275.284	8656.05
275.353	8645.56
275.421	8618.9
275.49	8629.92
275.559	8620.2
275.627	8612.07
275.696	8612.26
275.765	8617.79
275.833	8612.98
275.902	8618.47
275.971	8633.39
276.039	8649.46
276.108	8647.58
276.177	8651.48
276.245	8644.99
276.314	8637.72
276.383	8646.09
276.451	8606.76
276.52	8598.1
276.588	8603.73
276.657	8608.21
276.725	8602.67
276.794	8599.25
276.863	8613.64
276.931	8592.27
277	8600.65
277.068	8609.79
277.137	8628.9
277.205	8628.03
277.274	8647.57
277.342	8657.2
277.411	8633.28
277.48	8618.65
277.548	8611.28
277.617	8609.07
277.685	8598.92
277.754	8609.12
277.822	8595.02
277.89	8614.13
277.959	8611.58
278.027	8593.49
278.096	8584.05
278.164	8612.98
278.233	8610.29
278.301	8599.8
278.37	8603.6
278.438	8588.1
278.507	8596.38
278.575	8568.95
278.643	8564.52
278.712	8544.74
278.78	8531.6
278.849	8548.06
278.917	8552.53
278.985	8549.88
279.054	8547.81
279.122	8563.5
279.191	8560.52
279.259	8564.7
279.327	8544.87
279.396	8566.53
279.464	8571.82
279.532	8571.58
279.601	8568.6
279.669	8560.08
279.737	8575.62
279.806	8578.32
279.874	8591.94
279.942	8584.96
280.011	8579.67
280.079	8585.68
280.147	8601.52
280.215	8600.22
280.284	8592.42
280.352	8584.72
280.42	8589.44
280.488	8586.07
280.557	8579.86
280.625	8577.5
280.693	8577.31
280.761	8575.87
280.83	8559.5
280.898	8567.4
280.966	8552.53
281.034	8515.56
281.102	8501.18
281.171	8492.9
281.239	8501.9
281.307	8491.99
281.375	8477.55
281.443	8498.63
281.512	8493.05
281.58	8503.97
281.648	8488.86
281.716	8492.13
281.784	8487.76
281.852	8480.78
281.92	8483.67
281.989	8496.13
282.057	8478.95
282.125	8523.19
282.193	8520.11
282.261	8516.07
282.329	8513.85
282.397	8519.34
282.465	8525.79
282.533	8545.9
282.601	8533.39
282.67	8511.2
282.738	8504.75
282.806	8521.21
282.874	8512.06
282.942	8515.53
283.01	8503.54
283.078	8513.79
283.146	8508.55
283.214	8519.09
283.282	8526.11
283.35	8525.1
283.418	8515.14
283.486	8529.24
283.554	8485.72
283.622	8493.57
283.69	8495.88
283.758	8487.41
283.826	8490.78
283.894	8501.12
283.962	8522.3
284.03	8538.9
284.098	8541.4
284.165	8532.31
284.233	8531.3
284.301	8531.49
284.369	8524.23
284.437	8518.79
284.505	8511.14
284.573	8523.55
284.641	8510.32
284.709	8513.78
284.777	8498.87
284.845	8509.5
284.912	8512.73
284.98	8523.12
285.048	8512.49
285.116	8508.93
285.184	8523.84
285.252	8525.14
285.319	8508.06
285.387	8502.77
285.455	8491.12
285.523	8495.07
285.591	8493.57
285.659	8496.85
285.726	8507.05
285.794	8496.18
285.862	8489.1
285.93	8496.08
285.997	8492.61
286.065	8494.59
286.133	8488.28
286.201	8492.52
286.269	8475.72
286.336	8462.63
286.404	8450.5
286.472	8459.6
286.539	8450.31
286.607	8435.44
286.675	8437.08
286.743	8449.4
286.81	8435.15
286.878	8451.56
286.946	8446.22
287.013	8446.94
287.081	8444.92
287.149	8431.64
287.216	8452.19
287.284	8455.56
287.352	8454.69
287.419	8449.11
287.487	8462.1
287.555	8464.36
287.622	8459.98
287.69	8467.59
287.758	8482.22
287.825	8480.63
287.893	8466.24
287.96	8469.8
288.028	8479.66
288.096	8482.46
288.163	8485.05
288.231	8472.98
288.298	8462.05
288.366	8476.59
288.433	8478.7
288.501	8469.75
288.569	8472.21
288.636	8463.4
288.704	8468.21
288.771	8474.95
288.839	8471.05
288.906	8464.12
288.974	8469.75
289.041	8468.79
289.109	8458.4
289.176	8466.48
289.244	8470.96
289.311	8485.15
289.379	8499.15
289.446	8504.88
289.514	8504.26
289.581	8500.02
289.649	8510.99
289.716	8515.18
289.783	8505.7
289.851	8526.1
289.918	8526.2
289.986	8537.46
290.053	8543.04
290.121	8544.72
290.188	8547.56
290.255	8577.84
290.323	8578.03
290.39	8575.48
290.458	8583.8
290.525	8597.95
290.592	8590.63
290.66	8594.87
290.727	8591.26
290.794	8604.06
290.862	8599.39
290.929	8602.14
290.996	8605.02
291.064	8610.65
291.131	8621.1
291.198	8631.98
291.266	8630.87
291.333	8630.82
291.4	8634.53
291.468	8650.46
291.535	8646.08
291.602	8646.32
291.669	8636.07
291.737	8639.2
291.804	8640.49
291.871	8656.95
291.938	8665.76
292.006	8697.63
292.073	8713.37
292.14	8724.87
292.207	8716.59
292.275	8718.13
292.342	8729.2
292.409	8752.16
292.476	8778.01
292.543	8770.5
292.611	8779.94
292.678	8799.14
292.745	8836.06
292.812	8845.5
292.879	8839.43
292.946	8848.04
293.014	8866.67
293.081	8883.67
293.148	8895.41
293.215	8912.02
293.282	8907.78
293.349	8918.61
293.416	8897.33
293.484	8906.19
293.551	8918.9
293.618	8941.81
293.685	8970.12
293.752	8959.91
293.819	8956.59
293.886	8943.55
293.953	8956.64
294.02	8959.72
294.087	8960.63
294.154	8951.01
294.221	8968.34
294.288	8973.39
294.356	8991.64
294.423	8990.58
294.49	8974.79
294.557	8986.58
294.624	8975.03
294.691	8991.83
294.758	8990.29
294.825	9000.78
294.892	8998.33
294.959	8999.24
295.026	8998.13
295.093	8989.18
295.16	9001.07
295.226	9010.55
295.293	9041.66
295.36	9041.8
295.427	9055.67
295.494	9067.94
295.561	9078.25
295.628	9103.58
295.695	9123.13
295.762	9127.03
295.829	9143.44
295.896	9157.6
295.963	9167.85
296.03	9180.56
296.096	9186.05
296.163	9198.28
296.23	9210.56
296.297	9220.91
296.364	9219.85
296.431	9228.76
296.498	9228.9
296.564	9250.85
296.631	9247.15
296.698	9225.48
296.765	9252.15
296.832	9247
296.899	9237.61
296.965	9253.36
297.032	9226.53
297.099	9238.09
297.166	9247.29
297.233	9243.53
297.299	9242.62
297.366	9239.39
297.433	9243.72
297.5	9262.17
297.566	9265.15
297.633	9265.63
297.7	9268.76
297.767	9267.41
297.833	9271.17
297.9	9277.14
297.967	9264.43
298.033	9282.15
298.1	9311.67
298.167	9296.64
298.234	9301.84
298.3	9313.5
298.367	9305.79
298.434	9312.53
298.5	9303.38
298.567	9297.51
298.634	9293.37
298.7	9314.46
298.767	9321.44
298.834	9332.71
298.9	9321.68
298.967	9307.91
299.033	9319.85
299.1	9329.77
299.167	9342.91
299.233	9337.18
299.3	9351.05
299.366	9365.59
299.433	9376.57
299.5	9355.34
299.566	9366.27
299.633	9381.58
299.699	9390.39
299.766	9389.09
299.832	9394.68
299.899	9403.88
299.965	9419.67
300.032	9423.33
300.099	9426.03
300.165	9436.77
300.232	9437.82
300.298	9437.92
300.365	9456.17
300.431	9457.13
300.498	9455.4
300.564	9463.83
300.631	9476.54
300.697	9489.16
300.763	9490.26
300.83	9488.63
300.896	9500.09
300.963	9510.92
301.029	9516.22
301.096	9516.7
301.162	9525.85
301.229	9522
301.295	9510.49
301.361	9511.16
301.428	9518.1
301.494	9504.52
301.561	9501.53
301.627	9504.42
301.693	9509
301.76	9514.87
301.826	9507.74
301.892	9526.33
301.959	9537.03
302.025	9534.86
302.092	9531.78
302.158	9535.24
302.224	9543.48
302.291	9534.91
302.357	9527.88
302.423	9512.9
302.49	9508.04
302.556	9527.98
302.622	9531.44
302.688	9545.02
302.755	9558.99
302.821	9561.49
302.887	9577.82
302.954	9577.58
303.02	9584.85
303.086	9593.28
303.152	9590.29
303.219	9580.76
303.285	9580.37
303.351	9587.55
303.417	9589.67
303.483	9578.25
303.55	9572.09
303.616	9565.54
303.682	9564.1
303.748	9557.35
303.815	9579.51
303.881	9590.78
303.947	9570.07
304.013	9571.66
304.079	9560.24
304.145	9540.55
304.212	9537.41
304.278	9522.63
304.344	9516.42
304.41	9501.15
304.476	9487.96
304.542	9489.98
304.608	9506.88
304.674	9489.4
304.741	9482.75
304.807	9482.27
304.873	9487.18
304.939	9512.81
305.005	9496.24
305.071	9493.78
305.137	9497.4
305.203	9469.17
305.269	9467.44
305.335	9479.24
305.401	9475.77
305.467	9477.07
305.533	9490.46
305.599	9500.19
305.666	9514.01
305.732	9510.64
305.798	9527.59
305.864	9558.61
305.93	9557.21
305.996	9556.92
306.062	9560
306.128	9557.64
306.194	9548.78
306.259	9544.74
306.325	9526.39
306.391	9533.37
306.457	9542.33
306.523	9548.35
306.589	9581.48
306.655	9574.06
306.721	9555.47
306.787	9548.01
306.853	9564.24
306.919	9540.69
306.985	9530.67
307.051	9522.58
307.117	9524.46
307.183	9516.13
307.248	9483.04
307.314	9488.29
307.38	9484.73
307.446	9490.75
307.512	9476.49
307.578	9482.75
307.644	9485.98
307.709	9485.74
307.775	9489.88
307.841	9492.48
307.907	9488.63
307.973	9462.53
308.039	9464.98
308.104	9475.67
308.17	9469.85
308.236	9459.3
308.302	9462.14
308.368	9458.24
308.433	9453.52
308.499	9447.65
308.565	9432.14
308.631	9439.51
308.696	9412.83
308.762	9399.97
308.828	9393.18
308.894	9380.04
308.959	9360.11
309.025	9345.56
309.091	9345.85
309.156	9329.96
309.222	9325.82
309.288	9314.84
309.354	9291.73
309.419	9280.7
309.485	9260.86
309.551	9267.75
309.616	9248.01
309.682	9249.84
309.748	9239.82
309.813	9241.8
309.879	9231.78
309.945	9225.81
310.01	9212.72
310.076	9219.22
310.141	9222.73
310.207	9204.43
310.273	9200.63
310.338	9204.14
310.404	9188.64
310.469	9172.08
310.535	9164.71
310.601	9143.05
310.666	9150.41
310.732	9161.82
310.797	9152.82
310.863	9143.05
310.928	9130.67
310.994	9136.79
311.059	9128.74
311.125	9129.76
311.191	9135.1
311.256	9128.84
311.322	9130
311.387	9115.6
311.453	9437.88
311.518	9402.88
311.584	9402.07
311.649	9406.11
311.715	9400.33
311.78	9403.46
311.846	9392.87
311.911	9397.16
311.976	9400.04
312.042	9383.24
312.107	9370
312.173	9363.98
312.238	9363.07
312.304	9361.05
312.369	9352.14
312.434	9341.36
312.5	9329.56
312.565	9292.06
312.631	9299.13
312.696	9290.13
312.761	9289.03
312.827	8956.4
312.892	9000.74
312.958	9001.02
313.023	9004.92
313.088	9001.79
313.154	8987.26
313.219	8984.9
313.284	8971.37
313.35	8968.39
313.415	8957.41
313.48	8957.17
313.546	8961.46
313.611	8969.4
313.676	8959.87
313.741	8950.53
313.807	8962.13
313.872	8969.01
313.937	8984.47
314.003	8990
314.068	8990.96
314.133	9000.93
314.198	8989.09
314.264	8968.53
314.329	8956.44
314.394	8946.29
314.459	8942.39
314.525	8968.96
314.59	8960.73
314.655	8958.08
314.72	8965.21
314.785	8963.04
314.851	8951.63
314.916	8927.42
314.981	8912.83
315.046	8917.31
315.111	8904.46
315.176	8889.63
315.242	8885.06
315.307	8877.65
315.372	8859.69
315.437	8856.37
315.502	8845.54
315.567	8858.44
315.632	8835.33
315.698	8839.76
315.763	8838.22
315.828	8830.62
315.893	8823.68
315.958	8823.64
316.023	8817.47
316.088	8797.21
316.153	8785.71
316.218	8782.67
316.283	8766.03
316.348	8748.46
316.413	8739.75
316.479	8727.33
316.544	8695.19
316.609	8669.63
316.674	8637.29
316.739	8604.19
316.804	8574.16
316.869	8535.18
316.934	8495.43
316.999	8475.89
317.064	8422.53
317.129	8383.84
317.194	8346.36
317.259	8289.34
317.324	8239.26
317.389	8187.3
317.454	8147.28
317.518	8110.76
317.583	8082.09
317.648	8064.05
317.713	8027.78
317.778	7963.95
317.843	7933.31
317.908	7898.15
317.973	7864.2
318.038	7836.49
318.103	7799.9
318.168	7761.09
318.233	7738.11
318.297	7692.81
318.362	7652.61
318.427	7617.71
318.492	7591.79
318.557	7547.85
318.622	7524.92
318.687	7498.34
318.751	7461.28
318.816	7430.37
318.881	7396.87
318.946	7346.3
319.011	7298.09
319.075	7263
319.14	7230.81
319.205	7187.7
319.27	7153.49
319.335	7103.46
319.399	7062.28
319.464	7031.82
319.529	6984.26
319.594	6943.18
319.658	6912.77
319.723	6871.41
319.788	6839.04
319.853	6783.88
319.917	6754.88
319.982	6702.9
320.047	6669.19
320.112	6648.06
320.176	6595.91
320.241	6562.19
320.306	6535.64
320.37	6496.66
320.435	6463.53
320.5	6442.59
320.564	6406.83
320.629	6365.12
320.694	6336.84
320.758	6295.28
320.823	6253.81
320.888	6226.75
320.952	6176.32
321.017	6133.75
321.082	6094.41
321.146	6065.23
321.211	6029.73
321.275	5985.88
321.34	5945.26
321.405	5900.17
321.469	5850.33
321.534	5808.71
321.598	5757.54
321.663	5725.54
321.727	5697
321.792	5648.38
321.857	5597.21
321.921	5557.61
321.986	5515.38
322.05	5454.13
322.115	5417.37
322.179	5370.26
322.244	5315.21
322.308	5285.88
322.373	5243.96
322.437	5202.46
322.502	5174.71
322.566	5133.98
322.631	5102.61
322.695	5061.18
322.76	5015.74
322.824	4985.46
322.889	4950.04
322.953	4904.41
323.018	4836.32
323.082	4771.65
323.146	4720.06
323.211	4667.12
323.275	4620.17
323.34	4578.16
323.404	4549.69
323.468	4504.19
323.533	4464.77
323.597	4422.83
323.662	4371.74
323.726	4333.95
323.79	4286.75
323.855	4221.44
323.919	4168.51
323.983	4122.16
324.048	4058.66
324.112	4213.01
324.177	4080.07
324.241	3866.8
324.305	3661.76
324.37	3459.82
324.434	3265.25
324.498	3223.62
324.562	3174.6
324.627	3117.12
324.691	3060.38
324.755	2992.84
324.82	2918.38
324.884	2840.59
324.948	2766.42
325.012	2671.11
325.077	2546.25
