Data from 20250704_urea_0.5M_MAYP1162681_11-04-55-767.txt Node
Date: Fri Jul 04 11:04:55 BST 2025
User: adleo
Spectrometer: MAYP116268
Trigger mode: 0
Integration Time (sec): 1.000000E0
Scans to average: 1
Electric dark correction enabled: true
Nonlinearity correction enabled: true
Boxcar width: 10
XAxis mode: Wavelengths
Number of Pixels in Spectrum: 2068
>>>>>Begin Spectral Data<<<<<
179.565	1237.99
179.642	1298.8
179.718	1347.03
179.795	1385.3
179.871	1419.14
179.948	1438.64
180.024	1459.72
180.101	1482.4
180.177	1495.75
180.254	1518.05
180.33	1539.42
180.407	1596.39
180.483	1693.93
180.56	1785.25
180.636	1870.09
180.712	1857.63
180.789	1867.18
180.865	1880.49
180.942	1890.23
181.018	1897.51
181.095	1912.2
181.171	1919.62
181.248	1917.67
181.324	1931.51
181.4	1939.83
181.477	1948.77
181.553	1961.27
181.63	1982.86
181.706	1997.27
181.782	2006.78
181.859	2005.73
181.935	2014.34
182.011	2009.16
182.088	2027.13
182.164	2046.54
182.24	2059.85
182.317	2069.7
182.393	2069.32
182.469	2084.39
182.546	2096.05
182.622	2100.99
182.698	2095.95
182.775	2107.32
182.851	2126.44
182.927	2119.5
183.003	2117.45
183.08	2115.5
183.156	2125.3
183.232	2123.82
183.308	2113.27
183.385	2122.68
183.461	2144.33
183.537	2142.81
183.613	2156.74
183.69	2146.61
183.766	2136.62
183.842	2145.56
183.918	2153.17
183.995	2167.49
184.071	2170.77
184.147	2166.21
184.223	2155.7
184.299	2169.07
184.375	2157.08
184.452	2158.37
184.528	2210.91
184.604	2220.66
184.68	2231.74
184.756	2237.4
184.832	2239.55
184.908	2244.87
184.985	2243.06
185.061	2224.84
185.137	2237.6
185.213	2227.18
185.289	2228.65
185.365	2224.89
185.441	2223.85
185.517	2235.41
185.593	2229.37
185.669	2222.14
185.745	2232.32
185.822	2248.54
185.898	2239.26
185.974	2251.24
186.05	2242.58
186.126	2202.51
186.202	2194.23
186.278	2190.52
186.354	2180.72
186.43	2187.57
186.506	2185.72
186.582	2185.62
186.658	2193.33
186.734	2173.68
186.81	2175.06
186.886	2178.1
186.962	2188.29
187.038	2185.29
187.114	2180.43
187.19	2188.52
187.266	2181.01
187.341	2179.86
187.417	2172.4
187.493	2169.49
187.569	2173.35
187.645	2171.3
187.721	2160.55
187.797	2168.49
187.873	2172.06
187.949	2167.69
188.025	2157.74
188.101	2160.97
188.176	2164.64
188.252	2160.02
188.328	2162.12
188.404	2160.07
188.48	2155.22
188.556	2149.03
188.632	2148.56
188.707	2144.37
188.783	2142.28
188.859	2139.47
188.935	2129.91
189.011	2136.85
189.086	2132.57
189.162	2121.15
189.238	2114.97
189.314	2112.88
189.39	2105.55
189.465	2096.99
189.541	2113.02
189.617	2100.18
189.693	2097.94
189.768	2104.04
189.844	2128.88
189.92	2123.27
189.996	2135.07
190.071	2146.63
190.147	2144.58
190.223	2154.76
190.298	2147.48
190.374	2134.45
190.45	2144.25
190.526	2153.57
190.601	2149.24
190.677	2152.29
190.753	2178.27
190.828	2183.6
190.904	2201.21
190.98	2217.53
191.055	2228.8
191.131	2221.62
191.207	2243.98
191.282	2251.02
191.358	2240.93
191.433	2228.17
191.509	2241.01
191.585	2237.02
191.66	2239.11
191.736	2250.24
191.811	2242.92
191.887	2261.57
191.963	2285.13
192.038	2291.79
192.114	2293.88
192.189	2299.59
192.265	2296.07
192.34	2277.08
192.416	2275.84
192.491	2270.42
192.567	2272.18
192.642	2275.89
192.718	2273.75
192.793	2261.04
192.869	2258.71
192.944	2260.33
193.02	2264.14
193.095	2269.8
193.171	2279.84
193.246	2278.51
193.322	2273.7
193.397	2272.51
193.473	2258.66
193.548	2240.95
193.624	2246.05
193.699	2243.38
193.775	2257.57
193.85	2258.8
193.925	2268.23
194.001	2268.99
194.076	2262.42
194.152	2251.09
194.227	2240.29
194.302	2232.21
194.378	2236.06
194.453	2233.49
194.529	2246.05
194.604	2232.25
194.679	2226.26
194.755	2202.71
194.83	2214.61
194.905	2211.19
194.981	2218.94
195.056	2210.95
195.131	2216.04
195.207	2213.85
195.282	2204.62
195.357	2187.06
195.433	2203.14
195.508	2192.15
195.583	2198.95
195.659	2214.13
195.734	2226.56
195.809	2228.51
195.884	2236.35
195.96	2236.16
196.035	2251.58
196.11	2246.82
196.185	2261.43
196.261	2264.48
196.336	2297.64
196.411	2280.89
196.486	2287.26
196.561	2281.32
196.637	2287.45
196.712	2305.4
196.787	2311.11
196.862	2325.39
196.937	2334.95
197.013	2341.67
197.088	2348.33
197.163	2370.56
197.238	2386.81
197.313	2381.14
197.388	2396.52
197.464	2431.33
197.539	2441.7
197.614	2434.85
197.689	2450.18
197.764	2465.56
197.839	2485.75
197.914	2477.85
197.989	2501.22
198.065	2518.03
198.14	2567.01
198.215	2595.87
198.29	2603.96
198.365	2615.54
198.44	2627.16
198.515	2656.31
198.59	2671.37
198.665	2699.42
198.74	2705.76
198.815	2702.76
198.89	2729
198.965	2756.88
199.04	2747.4
199.115	2765.26
199.19	2811.15
199.265	2810.38
199.34	2820.77
199.415	2855.06
199.49	2880.78
199.565	2891.93
199.64	2911.29
199.715	2910.33
199.79	2918.39
199.865	2927.82
199.94	2925.59
200.015	2958.1
200.09	2963.39
200.165	2967.4
200.24	2974.74
200.315	3021.84
200.39	3039.33
200.464	3045.58
200.539	3049.44
200.614	3070.8
200.689	3092.3
200.764	3094.59
200.839	3117.42
200.914	3118.09
200.989	3104.92
201.063	3117.99
201.138	3099.84
201.213	3103.22
201.288	3083.53
201.363	3090.87
201.438	3092.45
201.512	3107.75
201.587	3087.67
201.662	3088.14
201.737	3104.98
201.812	3112.47
201.886	3076.19
201.961	3087.83
202.036	3074.01
202.111	3067.09
202.186	3033.69
202.26	3019.29
202.335	2996.68
202.41	2987.86
202.485	2973.28
202.559	2956.03
202.634	2928.95
202.709	2942.76
202.784	2920.41
202.858	2920.31
202.933	2901.1
203.008	2893.95
203.082	2875.32
203.157	2876.08
203.232	2836.35
203.306	2815.22
203.381	2782.86
203.456	2755.65
203.53	2730.75
203.605	2710.99
203.68	2689.73
203.754	2686.35
203.829	2670.63
203.904	2653.29
203.978	2642.57
204.053	2646.95
204.127	2633.62
204.202	2630.71
204.277	2611.56
204.351	2606.56
204.426	2598.65
204.5	2588.79
204.575	2555.41
204.65	2564.13
204.724	2558.55
204.799	2563.98
204.873	2556.88
204.948	2560.07
205.022	2550.5
205.097	2542.83
205.171	2558.11
205.246	2566.35
205.32	2565.64
205.395	2566.45
205.469	2555.46
205.544	2561.03
205.618	2545.69
205.693	2557.6
205.767	2543.03
205.842	2564.42
205.916	2559.04
205.991	2550.66
206.065	2557.09
206.14	2569.94
206.214	2567.32
206.289	2558.55
206.363	2574.12
206.438	2580.46
206.512	2585.7
206.586	2610.32
206.661	2621.09
206.735	2601.76
206.81	2605.86
206.884	2619.62
206.958	2610
207.033	2631.57
207.107	2642.82
207.181	2676.56
207.256	2675.89
207.33	2702.85
207.405	2722.21
207.479	2748.84
207.553	2763.8
207.628	2753.42
207.702	2776.24
207.776	2782.86
207.851	2799.54
207.925	2825.43
207.999	2833.63
208.073	2848.07
208.148	2866.71
208.222	2872.15
208.296	2924.33
208.371	2960.11
208.445	2999.54
208.519	3050.46
208.593	3091.43
208.668	3115.57
208.742	3152.61
208.816	3189.67
208.89	3241.5
208.965	3276.94
209.039	3323.62
209.113	3386.67
209.187	3454.97
209.261	3499.31
209.336	3573.9
209.41	3653.24
209.484	3712.39
209.558	3802.27
209.632	3881.05
209.707	3961.88
209.781	4059.24
209.855	4150.29
209.929	4250.51
210.003	4335.21
210.077	4426.01
210.151	4562.48
210.226	4693.37
210.3	4820.48
210.374	4948.43
210.448	5059.95
210.522	5182.23
210.596	5305.94
210.67	5428.43
210.744	5598.77
210.818	5759.24
210.892	5904.49
210.966	6028.29
211.041	6179.22
211.115	6310.66
211.189	6476.93
211.263	6639.22
211.337	6791.68
211.411	6959.81
211.485	7108.93
211.559	7277.12
211.633	7436.86
211.707	7565.39
211.781	7739.69
211.855	7868.43
211.929	8027.79
212.003	8182.83
212.077	8362.97
212.151	8552.26
212.225	8747.11
212.299	8915.61
212.373	9085.04
212.447	9263.86
212.52	9480.91
212.594	9670.35
212.668	9874.44
212.742	10042.58
212.816	10226.92
212.89	10415.71
212.964	10602.4
213.038	10796.58
213.112	11003.24
213.186	11211.82
213.26	11381.96
213.333	11534.78
213.407	11737.37
213.481	11934.77
213.555	12139.2
213.629	12321.59
213.703	12498.01
213.777	12688.89
213.85	12864.39
213.924	13093.45
213.998	13287.52
214.072	13467.23
214.146	13650.4
214.219	13830.54
214.293	14020.47
214.367	14204.08
214.441	14405.57
214.515	14588.12
214.588	14747.77
214.662	14894.84
214.736	15052.03
214.81	15242.91
214.883	15420.54
214.957	15587.12
215.031	15741.7
215.105	15887.22
215.178	16045.99
215.252	16210.93
215.326	16348.29
215.4	16488.26
215.473	16599.64
215.547	16737.72
215.621	16879.56
215.694	17033.25
215.768	17152.15
215.842	17292.97
215.915	17429.74
215.989	17538.61
216.063	17658.37
216.136	17793.55
216.21	17933.02
216.284	18089.11
216.357	18222.31
216.431	18344.52
216.504	18479.02
216.578	18626.15
216.652	18765.47
216.725	18882.14
216.799	19000.06
216.873	19115.24
216.946	19235.28
217.02	19333.35
217.093	19436.09
217.167	19522.88
217.24	19614.15
217.314	19721.86
217.387	19811.98
217.461	19902.53
217.535	20004.93
217.608	20096.5
217.682	20186.38
217.755	20287.92
217.829	20353.65
217.902	20436.21
217.976	20525.75
218.049	20595.53
218.123	20677.8
218.196	20755.06
218.27	20835.83
218.343	20904.13
218.417	20987.55
218.49	21069.01
218.563	21160.96
218.637	21238.37
218.71	21333.08
218.784	21406.15
218.857	21486.06
218.931	21555.61
219.004	21616.92
219.077	21692.31
219.151	21749.96
219.224	21808.67
219.298	21866.32
219.371	21944.6
219.444	22000.47
219.518	22053.64
219.591	22112.45
219.665	22191.22
219.738	22243.72
219.811	22282.91
219.885	22345.39
219.958	22399.81
220.031	22437.61
220.105	22482.78
220.178	22537.5
220.251	22568.31
220.325	22620.18
220.398	22656.1
220.471	22706.58
220.544	22753.82
220.618	22785.11
220.691	22829.66
220.764	22870.64
220.838	22913.7
220.911	22938.29
220.984	22991.86
221.057	23028.84
221.131	23056.27
221.204	23046.72
221.277	23102.22
221.35	23165.97
221.424	23180.72
221.497	23193.6
221.57	23223.3
221.643	23258.21
221.716	23283.38
221.79	23293.65
221.863	23301.71
221.936	23317.91
222.009	23326.15
222.082	23345.3
222.155	23345.39
222.229	23369.17
222.302	23387.59
222.375	23392.46
222.448	23407.79
222.521	23414.88
222.594	23424.19
222.667	23428.38
222.74	23445.98
222.814	23443.47
222.887	23432.48
222.96	23450.56
223.033	23476.84
223.106	23480.03
223.179	23487.31
223.252	23484.08
223.325	23493.63
223.398	23500.52
223.471	23512.53
223.544	23514.02
223.617	23506.16
223.69	23517.35
223.763	23511.03
223.837	23513.54
223.91	23507.85
223.983	23488.56
224.056	23461.03
224.129	23459
224.202	23464.02
224.275	23458.04
224.348	23424.67
224.42	23405.14
224.493	23370.37
224.566	23354.07
224.639	23347.27
224.712	23327.4
224.785	23309.08
224.858	23297.31
224.931	23277.01
225.004	23252.85
225.077	23244.95
225.15	23210.91
225.223	23188.68
225.296	23186.55
225.369	23140.36
225.442	23124.02
225.514	23115.53
225.587	23111.29
225.66	23094.41
225.733	23078.74
225.806	23052.41
225.879	23047.49
225.952	23022.95
226.025	23026.91
226.097	23004.19
226.17	22981.24
226.243	22937.56
226.316	22914.32
226.389	22895.66
226.461	22888.33
226.534	22874.35
226.607	22849.47
226.68	22859.07
226.753	22850.39
226.825	22807.67
226.898	22815.48
226.971	22790.84
227.044	22764.18
227.117	22739.35
227.189	22728.6
227.262	22712.93
227.335	22695.57
227.407	22662.31
227.48	22638.68
227.553	22612.02
227.626	22593.6
227.698	22570.9
227.771	22561.84
227.844	22536.38
227.916	22512.13
227.989	22465.8
228.062	22431.53
228.134	22422.12
228.207	22388.86
228.28	22346.24
228.352	22320.55
228.425	22293.7
228.498	22271.81
228.57	22235.61
228.643	22222.35
228.716	22187.88
228.788	22142.71
228.861	22122.08
228.934	22111.72
229.006	22092.34
229.079	22061.39
229.151	22021.67
229.224	21985.23
229.296	21959.73
229.369	21958.71
229.442	21944.11
229.514	21905.55
229.587	21895.47
229.659	21857.25
229.732	21839.27
229.804	21829.1
229.877	21834.11
229.949	21821.96
230.022	21824.66
230.094	21803.74
230.167	21772.75
230.239	21742.72
230.312	21728.98
230.384	21718.52
230.457	21699.92
230.529	21676.92
230.602	21665.69
230.674	21654.66
230.747	21632.44
230.819	21617.98
230.892	21556.47
230.964	21525.29
231.037	21514.92
231.109	21479.4
231.181	21456.89
231.254	21411.15
231.326	21381.03
231.399	21349.31
231.471	21307.23
231.544	21257.97
231.616	21238.89
231.688	21217.49
231.761	21178.45
231.833	21142.69
231.905	21089.48
231.978	21056.27
232.05	21020.03
232.122	20984.75
232.195	20949.37
232.267	20948.79
232.339	20903.15
232.412	20890.57
232.484	20867.34
232.556	20828.98
232.629	20826.66
232.701	20799.39
232.773	20776.16
232.846	20735.1
232.918	20701.02
232.99	20669.02
233.062	20646.66
233.135	20624.34
233.207	20569.11
233.279	20551.09
233.351	20525.93
233.424	20486.71
233.496	20441.16
233.568	20429.6
233.64	20380.92
233.713	20340.06
233.785	20291.38
233.857	20272.68
233.929	20228.44
234.001	20207.38
234.074	20201.41
234.146	20142.51
234.218	20116.49
234.29	20076.64
234.362	20044.45
234.434	19990.28
234.507	19949.99
234.579	19890.81
234.651	19855.49
234.723	19837.7
234.795	19808.89
234.867	19776.84
234.939	19768.07
235.012	19743.83
235.084	19723.83
235.156	19698.24
235.228	19660.46
235.3	19624.85
235.372	19589.52
235.444	19558.83
235.516	19497.53
235.588	19455.22
235.66	19432.86
235.732	19386.55
235.804	19427.36
235.876	19408.43
235.948	19403.12
236.02	19363.42
236.092	19324.91
236.164	19284.19
236.236	19249.54
236.308	19202.51
236.38	19162.8
236.452	19114.9
236.524	19081.31
236.596	19055.68
236.668	19026.81
236.74	18993.41
236.812	18963.97
236.884	18935.97
236.956	18919.83
237.028	18875.64
237.1	18831.79
237.172	18812.75
237.244	18794.15
237.316	18709.14
237.388	18666.35
237.46	18610.11
237.532	18592.76
237.604	18563.03
237.675	18544.19
237.747	18512.57
237.819	18473.97
237.891	18454.46
237.963	18415.76
238.035	18369.93
238.107	18296.34
238.178	18271.43
238.25	18240.88
238.322	18232.73
238.394	18179.53
238.466	18133.89
238.538	18112.3
238.609	18085.12
238.681	18029.75
238.753	17989.32
238.825	17955.4
238.897	17920.79
238.968	17901.28
239.04	17868.84
239.112	17855.06
239.184	17805.57
239.255	17775.26
239.327	17749.96
239.399	17710.49
239.471	17684.95
239.542	17662.15
239.614	17643.07
239.686	17582.73
239.758	17563.02
239.829	17509.57
239.901	17493.43
239.973	17451.07
240.044	17426.3
240.116	17394.39
240.188	17354.58
240.259	17314.97
240.331	17279.5
240.403	17250.01
240.474	17199.79
240.546	17143.83
240.618	17093.95
240.689	17048.84
240.761	17015.16
240.833	16999.93
240.904	16956.99
240.976	16918.29
241.048	16886.19
241.119	16862.91
241.191	16844.02
241.262	16822.38
241.334	16779.2
241.405	16743.87
241.477	16714.71
241.549	16667.67
241.62	16631.72
241.692	16605.84
241.763	16577.93
241.835	16537.49
241.906	16503.47
241.978	16456.67
242.049	16446.06
242.121	16425.53
242.192	16419.89
242.264	16367.31
242.335	16312.6
242.407	16287.01
242.478	16249.85
242.55	16218.62
242.621	16169.99
242.693	16133.07
242.764	16088.34
242.836	16056.29
242.907	16027.27
242.979	15994.84
243.05	15975.22
243.122	15948.47
243.193	15918.97
243.264	15871.78
243.336	15842.91
243.407	15815.68
243.479	15809.46
243.55	15773.31
243.622	15743.62
243.693	15705.69
243.764	15690.65
243.836	15651.75
243.907	15610.59
243.978	15570.87
244.05	15547.97
244.121	15495.43
244.192	15474.71
244.264	15426.12
244.335	15400.14
244.407	15344.9
244.478	15328.46
244.549	15289.52
244.62	15245.27
244.692	15202.75
244.763	15173.44
244.834	15133.97
244.906	15103.74
244.977	15067.01
245.048	15054.29
245.119	15007.97
245.191	14963.04
245.262	14915.42
245.333	14900.66
245.405	14876.56
245.476	14861.86
245.547	14831.73
245.618	14819.49
245.689	14794.95
245.761	14769.55
245.832	14736.87
245.903	14729.16
245.974	14700.38
246.045	14671.94
246.117	14658.44
246.188	14622
246.259	14590.33
246.33	14563.09
246.401	14523.61
246.473	14488.71
246.544	14454.53
246.615	14443.78
246.686	14418.57
246.757	14409.08
246.828	14373.31
246.899	14356.82
246.97	14312.62
247.042	14270
247.113	14247.64
247.184	14237.13
247.255	14207.05
247.326	14186.27
247.397	14150.89
247.468	14119.31
247.539	14088.12
247.61	14049.32
247.681	14031.77
247.752	14017.84
247.823	13980.43
247.894	13964.76
247.965	13924.7
248.037	13881.85
248.108	13840.1
248.179	13814.89
248.25	13778.78
248.321	13753.28
248.392	13721.51
248.463	13721.85
248.534	13695.43
248.605	13668.92
248.675	13634.12
248.746	13611.94
248.817	13587.64
248.888	13566.87
248.959	13528.69
249.03	13516.35
249.101	13493.3
249.172	13461.01
249.243	13410
249.314	13401.23
249.385	13375.54
249.456	13366.86
249.527	13342.51
249.598	13326.51
249.669	13299.27
249.739	13281.05
249.81	13263.89
249.881	13218.24
249.952	13190.23
250.023	13167.86
250.094	13134.36
250.165	13101.58
250.235	13077.91
250.306	13051.4
250.377	13013.6
250.448	12995.38
250.519	12943.56
250.59	12935.07
250.66	12919.26
250.731	12920.23
250.802	12891.83
250.873	12873.52
250.944	12853.75
251.014	12822.03
251.085	12819.62
251.156	12803.04
251.227	12792.82
251.297	12780.91
251.368	12778.07
251.439	12766.5
251.51	12749.72
251.58	12722.34
251.651	12692.07
251.722	12687.73
251.792	12656.59
251.863	12632.44
251.934	12622.61
252.005	12631.77
252.075	12603.81
252.146	12585.01
252.217	12580.67
252.287	12571.7
252.358	12548.08
252.429	12541.24
252.499	12522.68
252.57	12498.72
252.641	12483.97
252.711	12465.65
252.782	12431.23
252.852	12435.19
252.923	12410.46
252.994	12395.8
253.064	12388.24
253.135	12362.11
253.205	12334.63
253.276	12331.4
253.347	12334.54
253.417	12310.77
253.488	12288.84
253.558	12267.2
253.629	12251
253.699	12227.72
253.77	12216.44
253.841	12193.54
253.911	12173.44
253.982	12156.14
254.052	12150.11
254.123	12132.47
254.193	12111.98
254.264	12132.76
254.334	12095.98
254.405	12068.02
254.475	12032.55
254.546	12005.65
254.616	12002.91
254.687	11983.67
254.757	11962.56
254.827	11938.51
254.898	11921.4
254.968	11900
255.039	11872.96
255.109	11862.45
255.18	11833.19
255.25	11788.37
255.321	11771.5
255.391	11738.29
255.461	11744.6
255.532	11697.56
255.602	11672.88
255.673	11629.36
255.743	11591.47
255.813	11551.9
255.884	11545.06
255.954	11539.52
256.024	11545.88
256.095	11528.33
256.165	11503.61
256.235	11495.32
256.306	11470.31
256.376	11467.22
256.446	11455.56
256.517	11447.94
256.587	11437.24
256.657	11421.24
256.728	11413.24
256.798	11402.59
256.868	11384.52
256.938	11358.2
257.009	11353.96
257.079	11348.03
257.149	11364.61
257.219	11332.56
257.29	11319.98
257.36	11280.42
257.43	11274.97
257.5	11230.39
257.571	11205.58
257.641	11188.9
257.711	11153.09
257.781	11139.26
257.852	11122.06
257.922	11088.66
257.992	11070.16
258.062	11049.67
258.132	11041.38
258.202	11024.13
258.273	11004.37
258.343	11003.99
258.413	10977.34
258.483	10952.67
258.553	10919.85
258.623	10888.23
258.693	10870.55
258.764	10877.01
258.834	10875.37
258.904	10857.59
258.974	10833.21
259.044	10816.87
259.114	10808.97
259.184	10800.54
259.254	10788.39
259.324	10747.19
259.394	10739.92
259.464	10744.45
259.535	10723.82
259.605	10704.89
259.675	10677.42
259.745	10668.94
259.815	10643.02
259.885	10620.47
259.955	10633.62
260.025	10612.67
260.095	10599.22
260.165	10596.38
260.235	10592.24
260.305	10573.16
260.375	10544.34
260.445	10556.29
260.515	10554.84
260.585	10549.21
260.655	10536.34
260.725	10530.99
260.795	10530.13
260.865	10536.68
260.934	10513.98
261.004	10507.09
261.074	10491.92
261.144	10493.94
261.214	10485.03
261.284	10463.92
261.354	10459.69
261.424	10432.46
261.494	10444.94
261.564	10429.86
261.634	10413.38
261.703	10378.35
261.773	10364.33
261.843	10362.55
261.913	10349.74
261.983	10320.93
262.053	10313.41
262.123	10291.1
262.192	10256.52
262.262	10251.55
262.332	10221.25
262.402	10205.11
262.472	10194.51
262.541	10157.85
262.611	10154.53
262.681	10131.21
262.751	10128.56
262.821	10109.39
262.89	10081.88
262.96	10062.23
263.03	10076.92
263.1	10077.45
263.169	10062.81
263.239	10062.18
263.309	10066.13
263.379	10058.95
263.448	10045.56
263.518	10038
263.588	10028.8
263.657	10037.42
263.727	10032.36
263.797	10015.7
263.867	10007.03
263.936	9982.8
264.006	9988.09
264.076	9974.46
264.145	9962.71
264.215	9947.54
264.285	9952.4
264.354	9924.42
264.424	9906.36
264.494	9866.66
264.563	9839.83
264.633	9852.02
264.702	9840.89
264.772	9805.2
264.842	9788.2
264.911	9781.16
264.981	9745.09
265.05	9730.73
265.12	9713.68
265.19	9700.53
265.259	9691.77
265.329	9676.11
265.398	9662.44
265.468	9672.31
265.537	9654.11
265.607	9646.54
265.676	9638.55
265.746	9628.29
265.815	9629.4
265.885	9620.25
265.955	9596.51
266.024	9575.56
266.094	9536.21
266.163	9537.13
266.232	9541.65
266.302	9525.14
266.371	9517
266.441	9509.34
266.51	9509.25
266.58	9492.49
266.649	9467.64
266.719	9472.36
266.788	9469.71
266.858	9473.7
266.927	9436.58
266.996	9424.63
267.066	9409.61
267.135	9383.17
267.205	9378.45
267.274	9370.94
267.343	9368.58
267.413	9355.63
267.482	9366.56
267.552	9367.48
267.621	9335.07
267.69	9307.04
267.76	9302.9
267.829	9300.3
267.898	9292.17
267.968	9271.61
268.037	9271.41
268.106	9271.46
268.176	9250.66
268.245	9236.89
268.314	9216.57
268.384	9218.06
268.453	9210.5
268.522	9210.64
268.592	9217.05
268.661	9197.88
268.73	9192.59
268.799	9170.54
268.869	9185.03
268.938	9156.24
269.007	9144.39
269.076	9139.72
269.146	9140.11
269.215	9129.56
269.284	9128.36
269.353	9109.63
269.422	9092.59
269.492	9078.58
269.561	9036.56
269.63	9030.06
269.699	9013.98
269.768	9008.25
269.838	9005.65
269.907	9002.62
269.976	8976.23
270.045	8947.83
270.114	8942.78
270.183	8928.82
270.253	8933.54
270.322	8908.02
270.391	8893.49
270.46	8895.7
270.529	8893.92
270.598	8891.42
270.667	8876.16
270.736	8858.58
270.806	8855.12
270.875	8859.35
270.944	8843.81
271.013	8872.01
271.082	8863.54
271.151	8864.7
271.22	8836.01
271.289	8822.29
271.358	8808.57
271.427	8805.59
271.496	8799.77
271.565	8785.23
271.634	8779.45
271.703	8801.84
271.772	8798.33
271.841	8795.78
271.91	8776.24
271.979	8768.63
272.048	8743.89
272.117	8752.31
272.186	8735.13
272.255	8740.14
272.324	8742.54
272.393	8736
272.462	8720.45
272.531	8714.58
272.6	8702.98
272.669	8711.83
272.738	8702.01
272.807	8703.41
272.876	8683.53
272.945	8707.6
273.013	8709.24
273.082	8707.89
273.151	8665.33
273.22	8667.88
273.289	8657.06
273.358	8660.76
273.427	8643.96
273.496	8643.15
273.564	8634.29
273.633	8636.12
273.702	8613.98
273.771	8601.8
273.84	8603.44
273.909	8597.14
273.977	8597.52
274.046	8581.45
274.115	8586.84
274.184	8571.54
274.253	8561.77
274.322	8572.35
274.39	8542.27
274.459	8538.08
274.528	8509.07
274.597	8500.84
274.665	8496.65
274.734	8511.67
274.803	8506.09
274.872	8499.73
274.94	8489.15
275.009	8541.82
275.078	8530.95
275.147	8529.21
275.215	8522.81
275.284	8524.88
275.353	8516.08
275.421	8494.18
275.49	8516.7
275.559	8508.04
275.627	8504.53
275.696	8496.97
275.765	8497.41
275.833	8486.49
275.902	8478.69
275.971	8496.01
276.039	8512.57
276.108	8515.31
276.177	8510.4
276.245	8499.57
276.314	8496.88
276.383	8505.44
276.451	8442.71
276.52	8444.11
276.588	8457.96
276.657	8468.84
276.725	8460.42
276.794	8461.33
276.863	8472.21
276.931	8443.09
277	8445.6
277.068	8457.96
277.137	8470.47
277.205	8463.06
277.274	8488.95
277.342	8493.91
277.411	8478.32
277.48	8461.38
277.548	8454.16
277.617	8451.66
277.685	8447.18
277.754	8452.76
277.822	8445.93
277.89	8464.46
277.959	8456.91
278.027	8437.03
278.096	8422.98
278.164	8452
278.233	8448.44
278.301	8435.21
278.37	8440.65
278.438	8429.72
278.507	8426.89
278.575	8405.67
278.643	8409.27
278.712	8386.27
278.78	8376.79
278.849	8381.65
278.917	8391.47
278.985	8386.51
279.054	8393.68
279.122	8406.72
279.191	8404.75
279.259	8394.17
279.327	8364.96
279.396	8381.46
279.464	8382.42
279.532	8391.66
279.601	8383.82
279.669	8380.25
279.737	8395.12
279.806	8405.57
279.874	8414.13
279.942	8413.26
280.011	8409.42
280.079	8410.81
280.147	8430.88
280.215	8431.84
280.284	8431.74
280.352	8421.54
280.42	8425.97
280.488	8417.3
280.557	8410.18
280.625	8410.81
280.693	8411.48
280.761	8417.93
280.83	8396.71
280.898	8404.17
280.966	8383.53
281.034	8347.15
281.102	8333.49
281.171	8323.24
281.239	8326.61
281.307	8317.46
281.375	8303.37
281.443	8329.88
281.512	8331.03
281.58	8333.34
281.648	8319.68
281.716	8318.81
281.784	8313.04
281.852	8305.63
281.92	8300.53
281.989	8308.13
282.057	8292.21
282.125	8344.91
282.193	8339.04
282.261	8345.29
282.329	8341.88
282.397	8343.61
282.465	8352.65
282.533	8367.86
282.601	8361.55
282.67	8338.02
282.738	8333.5
282.806	8345.05
282.874	8329.98
282.942	8332.29
283.01	8330.95
283.078	8336.29
283.146	8337.2
283.214	8345.81
283.282	8351.78
283.35	8361.64
283.418	8354.33
283.486	8364.96
283.554	8319.96
283.622	8324.43
283.69	8323.04
283.758	8315.15
283.826	8324.15
283.894	8337.76
283.962	8356.29
284.03	8368.99
284.098	8371.69
284.165	8366.97
284.233	8376.5
284.301	8372.36
284.369	8362.5
284.437	8345.32
284.505	8341.95
284.573	8358.55
284.641	8346.52
284.709	8351.24
284.777	8335.36
284.845	8336.13
284.912	8337.33
284.98	8342.82
285.048	8334.78
285.116	8339.84
285.184	8355.04
285.252	8350.95
285.319	8332.86
285.387	8320.01
285.455	8301.53
285.523	8302.4
285.591	8296.48
285.659	8291.91
285.726	8301.78
285.794	8288.93
285.862	8295.19
285.93	8295.09
285.997	8289.03
286.065	8282.77
286.133	8279.12
286.201	8278.92
286.269	8275.41
286.336	8268.72
286.404	8256.07
286.472	8268.15
286.539	8245.54
286.607	8225.43
286.675	8230.33
286.743	8241.21
286.81	8240.25
286.878	8260.45
286.946	8262.33
287.013	8266.56
287.081	8263.96
287.149	8251.69
287.216	8270.65
287.284	8266.51
287.352	8269.4
287.419	8263.48
287.487	8283.93
287.555	8283.4
287.622	8284.5
287.69	8286.86
287.758	8298.89
287.825	8296.05
287.893	8283.3
287.96	8296.14
288.028	8313.8
288.096	8312.36
288.163	8311.44
288.231	8297.92
288.298	8289.6
288.366	8299.27
288.433	8295.71
288.501	8286.95
288.569	8291.04
288.636	8284.79
288.704	8297.64
288.771	8301.2
288.839	8291.67
288.906	8287.44
288.974	8298.07
289.041	8298.46
289.109	8288.74
289.176	8298.6
289.244	8301.44
289.311	8316.79
289.379	8323.24
289.446	8328.19
289.514	8331.32
289.581	8332.96
289.649	8340.8
289.716	8344.02
289.783	8337.86
289.851	8358.02
289.918	8362.98
289.986	8370.48
290.053	8378.13
290.121	8375.97
290.188	8382.22
290.255	8411.19
290.323	8407.68
290.39	8397.96
290.458	8401.66
290.525	8414.17
290.592	8405.27
290.66	8412
290.727	8405.99
290.794	8420.62
290.862	8418.79
290.929	8424.08
290.996	8422.64
291.064	8425.33
291.131	8436.64
291.198	8447.42
291.266	8451.46
291.333	8453.72
291.4	8458.58
291.468	8473.41
291.535	8465.08
291.602	8466.77
291.669	8460.37
291.737	8461.81
291.804	8463.93
291.871	8480.58
291.938	8487.8
292.006	8511.67
292.073	8528.27
292.14	8539.43
292.207	8528.17
292.275	8524.13
292.342	8528.65
292.409	8556.18
292.476	8585.21
292.543	8580.87
292.611	8584.39
292.678	8597.96
292.745	8622.94
292.812	8635.35
292.879	8635.11
292.946	8640.02
293.014	8655.47
293.081	8657.25
293.148	8668.99
293.215	8685.64
293.282	8676.89
293.349	8687.04
293.416	8669.38
293.484	8681.17
293.551	8690.46
293.618	8712.84
293.685	8742.63
293.752	8739.45
293.819	8737.48
293.886	8720.01
293.953	8722.12
294.02	8731.27
294.087	8737.14
294.154	8728.24
294.221	8744.27
294.288	8740.66
294.356	8757.41
294.423	8762.75
294.49	8757.7
294.557	8770.84
294.624	8760.82
294.691	8783.54
294.758	8786.38
294.825	8799.28
294.892	8795.62
294.959	8796.25
295.026	8802.75
295.093	8797.35
295.16	8798.75
295.226	8798.56
295.293	8824.84
295.36	8835.81
295.427	8847.75
295.494	8859.84
295.561	8870.09
295.628	8892.96
295.695	8913.71
295.762	8920.35
295.829	8931.52
295.896	8952.55
295.963	8962.09
296.03	8977.73
296.096	8980.62
296.163	8990.39
296.23	9002.47
296.297	9012.92
296.364	9009.31
296.431	9017.06
296.498	9011.43
296.564	9036.27
296.631	9037.9
296.698	9025.15
296.765	9046.91
296.832	9038.19
296.899	9024.33
296.965	9039.59
297.032	9017.49
297.099	9026.73
297.166	9034.05
297.233	9030.53
297.299	9021.48
297.366	9029.23
297.433	9026.83
297.5	9034.92
297.566	9030.78
297.633	9029.57
297.7	9034.82
297.767	9038.14
297.833	9040.84
297.9	9042.23
297.967	9026.25
298.033	9037.08
298.1	9067.95
298.167	9056.54
298.234	9056.01
298.3	9067.75
298.367	9062.22
298.434	9065.35
298.5	9055.48
298.567	9045.37
298.634	9044.21
298.7	9065.1
298.767	9063.85
298.834	9076.47
298.9	9072.52
298.967	9069.58
299.033	9078.83
299.1	9088.94
299.167	9104.77
299.233	9100.92
299.3	9118.49
299.366	9141.12
299.433	9154.99
299.5	9126.05
299.566	9134.96
299.633	9153.93
299.699	9165.77
299.766	9166.4
299.832	9168.03
299.899	9179.97
299.965	9200.44
300.032	9196.39
300.099	9200.34
300.165	9200.97
300.232	9200
300.298	9201.16
300.365	9219.79
300.431	9219.74
300.498	9211.75
300.564	9213.24
300.631	9220.85
300.697	9234.19
300.763	9233.08
300.83	9233.99
300.896	9254.7
300.963	9258.16
301.029	9262.88
301.096	9263.17
301.162	9269.34
301.229	9270.68
301.295	9260.91
301.361	9259.46
301.428	9265.43
301.494	9254.31
301.561	9261.82
301.627	9264.52
301.693	9265.58
301.76	9264.76
301.826	9261.68
301.892	9270.35
301.959	9281.95
302.025	9281.81
302.092	9269.96
302.158	9273.48
302.224	9275.5
302.291	9259.03
302.357	9258.36
302.423	9253.11
302.49	9243.48
302.556	9261.01
302.622	9260.09
302.688	9266.83
302.755	9282.48
302.821	9291.25
302.887	9297.94
302.954	9289.56
303.02	9294.76
303.086	9303.43
303.152	9302.7
303.219	9301.55
303.285	9308.82
303.351	9319.17
303.417	9321.77
303.483	9318.21
303.55	9311.52
303.616	9312.53
303.682	9311.42
303.748	9305.5
303.815	9324.04
303.881	9333.53
303.947	9318.84
304.013	9319.37
304.079	9312.39
304.145	9292.93
304.212	9295.1
304.278	9286.29
304.344	9290.82
304.41	9275.6
304.476	9271.99
304.542	9271.22
304.608	9279.45
304.674	9265.2
304.741	9257.3
304.807	9259.23
304.873	9266.98
304.939	9282.73
305.005	9260.29
305.071	9261.68
305.137	9258.99
305.203	9234.48
305.269	9235.63
305.335	9246.95
305.401	9245.31
305.467	9243.53
305.533	9254.41
305.599	9257.35
305.666	9271.02
305.732	9268.66
305.798	9287.01
305.864	9306.7
305.93	9306.32
305.996	9301.7
306.062	9301.89
306.128	9296.3
306.194	9286.38
306.259	9287.88
306.325	9275.55
306.391	9286
306.457	9291.77
306.523	9301.79
306.589	9326.73
306.655	9319.9
306.721	9300.78
306.787	9287.44
306.853	9304.25
306.919	9282.15
306.985	9273.67
307.051	9267.75
307.117	9259.09
307.183	9249.26
307.248	9221.67
307.314	9223.79
307.38	9225.38
307.446	9229.04
307.512	9216.33
307.578	9218.64
307.644	9207.85
307.709	9209.25
307.775	9209.44
307.841	9207.03
307.907	9202.56
307.973	9180.84
308.039	9175.83
308.104	9180.84
308.17	9183.92
308.236	9168.13
308.302	9176.36
308.368	9163.5
308.433	9165.62
308.499	9161.96
308.565	9154.98
308.631	9158.16
308.696	9132.6
308.762	9118.92
308.828	9118.73
308.894	9102.99
308.959	9085.37
309.025	9079.88
309.091	9075.16
309.156	9066.69
309.222	9064.81
309.288	9056.48
309.354	9032.03
309.419	9028.03
309.485	9012.91
309.551	9017.68
309.616	9001.41
309.682	9000.59
309.748	8996.93
309.813	8983.21
309.879	8977.34
309.945	8965.5
310.01	8958.52
310.076	8967.71
310.141	8962.85
310.207	8948.5
310.273	8951.2
310.338	8950.81
310.404	8930.98
310.469	8918.13
310.535	8907.1
310.601	8885.73
310.666	8886.5
310.732	8902.19
310.797	8890.69
310.863	8880.34
310.928	8874.75
310.994	8882.46
311.059	8874.75
311.125	8874.22
311.191	8886.69
311.256	8877.02
311.322	8879.09
311.387	8860.07
311.453	9304.03
311.518	9280.21
311.584	9278.33
311.649	9284.54
311.715	9275.73
311.78	9275.2
311.846	9268.51
311.911	9275.78
311.976	9278.96
312.042	9267.35
312.107	9252.24
312.173	9249.06
312.238	9247.86
312.304	9238.42
312.369	9226.1
312.434	9216.28
312.5	9207.43
312.565	9176.47
312.631	9178.69
312.696	9166.75
312.761	9169.59
312.827	8714.37
312.892	8753.51
312.958	8748.98
313.023	8741.13
313.088	8740.12
313.154	8729.1
313.219	8715
313.284	8704.75
313.35	8702.92
313.415	8688.82
313.48	8675.73
313.546	8674.57
313.611	8677.94
313.676	8670.68
313.741	8660.62
313.807	8663.94
313.872	8667.12
313.937	8668.37
314.003	8678.09
314.068	8686.9
314.133	8693.54
314.198	8683.87
314.264	8660.61
314.329	8651.23
314.394	8646.7
314.459	8646.27
314.525	8668.41
314.59	8671.92
314.655	8657.15
314.72	8662.87
314.785	8666.43
314.851	8666.05
314.916	8648.87
314.981	8634.29
315.046	8623.99
315.111	8610.18
315.176	8599.11
315.242	8596.22
315.307	8596.75
315.372	8567.54
315.437	8554.21
315.502	8542.32
315.567	8553.58
315.632	8539.05
315.698	8538.09
315.763	8537.65
315.828	8527.11
315.893	8521.29
315.958	8519.89
316.023	8514.84
316.088	8499.01
316.153	8479.04
316.218	8471.63
316.283	8455.13
316.348	8435.12
316.413	8435.84
316.479	8429.25
316.544	8401.1
316.609	8370.4
316.674	8332.16
316.739	8304.12
316.804	8277.61
316.869	8241.43
316.934	8200.05
316.999	8173.11
317.064	8120.34
317.129	8079.31
317.194	8045.25
317.259	7996.86
317.324	7944.05
317.389	7897.44
317.454	7857.9
317.518	7828.47
317.583	7805.67
317.648	7790.76
317.713	7764.03
317.778	7701.03
317.843	7675.16
317.908	7638.33
317.973	7606.69
318.038	7587.55
318.103	7557.85
318.168	7531.07
318.233	7504.48
318.297	7460.93
318.362	7424.39
318.427	7391.48
318.492	7370.37
318.557	7325.77
318.622	7302.32
318.687	7280.4
318.751	7247.63
318.816	7213.51
318.881	7175.17
318.946	7119.03
319.011	7070.55
319.075	7029.51
319.14	6996.52
319.205	6953.66
319.27	6921.57
319.335	6881.02
319.399	6838.99
319.464	6813.14
319.529	6759.21
319.594	6723.66
319.658	6698.35
319.723	6657.58
319.788	6628.82
319.853	6574.78
319.917	6545.74
319.982	6495.94
320.047	6462.23
320.112	6436.64
320.176	6389.21
320.241	6360.74
320.306	6337.03
320.37	6294.36
320.435	6272.62
320.5	6249.92
320.564	6209.84
320.629	6170.5
320.694	6140.5
320.758	6102.55
320.823	6061.04
320.888	6041.42
320.952	5995.36
321.017	5956.79
321.082	5921.25
321.146	5889.3
321.211	5856.68
321.275	5815.06
321.34	5772.29
321.405	5724.58
321.469	5674.57
321.534	5637.8
321.598	5585.59
321.663	5556.19
321.727	5531.98
321.792	5474.07
321.857	5433.22
321.921	5396.85
321.986	5352.53
322.05	5291.01
322.115	5257.56
322.179	5217.89
322.244	5154.17
322.308	5117.24
322.373	5075.13
322.437	5033.94
322.502	5011.32
322.566	4965.58
322.631	4936.56
322.695	4902.08
322.76	4861.68
322.824	4833.62
322.889	4792.99
322.953	4752.6
323.018	4685.96
323.082	4622.12
323.146	4582.17
323.211	4532.11
323.275	4490.25
323.34	4448.35
323.404	4423.24
323.468	4375.16
323.533	4328.91
323.597	4287.32
323.662	4239.22
323.726	4201.67
323.79	4158.64
323.855	4091.58
323.919	4041.68
323.983	3997.46
324.048	3927.34
324.112	4062.47
324.177	3938.3
324.241	3733.79
324.305	3533.86
324.37	3338.33
324.434	3149.78
324.498	3103.8
324.562	3052.29
324.627	2992.66
324.691	2939.37
324.755	2870.25
324.82	2795.59
324.884	2720.09
324.948	2651.57
325.012	2560.43
325.077	2432.84
