Data from 20250704_urea_0.1M_MAYP1162681_11-18-40-695.txt Node
Date: Fri Jul 04 11:18:40 BST 2025
User: adleo
Spectrometer: MAYP116268
Trigger mode: 0
Integration Time (sec): 1.000000E0
Scans to average: 1
Electric dark correction enabled: true
Nonlinearity correction enabled: true
Boxcar width: 10
XAxis mode: Wavelengths
Number of Pixels in Spectrum: 2068
>>>>>Begin Spectral Data<<<<<
179.565	1242.48
179.642	1298.71
179.718	1345.53
179.795	1387.22
179.871	1420.57
179.948	1443.19
180.024	1463.09
180.101	1486.83
180.177	1500.76
180.254	1524.09
180.33	1545.05
180.407	1601.36
180.483	1700.03
180.56	1793.54
180.636	1881.04
180.712	1867.96
180.789	1878.61
180.865	1888.93
180.942	1898.53
181.018	1908.27
181.095	1921.88
181.171	1928.77
181.248	1931.05
181.324	1945.8
181.4	1953.17
181.477	1963.77
181.553	1976.42
181.63	2001.38
181.706	2015.27
181.782	2024.4
181.859	2025.44
181.935	2033.19
182.011	2029.72
182.088	2047.51
182.164	2068.11
182.24	2081.71
182.317	2094.46
182.393	2093.74
182.469	2111.01
182.546	2124.23
182.622	2130.41
182.698	2124.56
182.775	2136.07
182.851	2148.68
182.927	2141.59
183.003	2137.17
183.08	2132.08
183.156	2136.69
183.232	2130.79
183.308	2121.95
183.385	2130.79
183.461	2146.2
183.537	2145.44
183.613	2158.72
183.69	2148.77
183.766	2137.64
183.842	2145.34
183.918	2149.43
183.995	2161.61
184.071	2161.8
184.147	2154.71
184.223	2141.92
184.299	2156.77
184.375	2145.07
184.452	2152.92
184.528	2200.31
184.604	2209.58
184.68	2222.52
184.756	2234.85
184.832	2239.61
184.908	2242.08
184.985	2241.89
185.061	2227.28
185.137	2236.61
185.213	2225.05
185.289	2226.71
185.365	2221.29
185.441	2217.48
185.517	2230.05
185.593	2225.29
185.669	2222.82
185.745	2236.57
185.822	2252.83
185.898	2243.27
185.974	2254.16
186.05	2246.59
186.126	2214.34
186.202	2209.96
186.278	2204.3
186.354	2192.11
186.43	2199.97
186.506	2199.49
186.582	2198.68
186.658	2204.34
186.734	2184.27
186.81	2188.88
186.886	2190.98
186.962	2201.54
187.038	2201.68
187.114	2196.02
187.19	2204.01
187.266	2195.35
187.341	2195.59
187.417	2188.6
187.493	2187.51
187.569	2188.12
187.645	2182.84
187.721	2172.18
187.797	2177.32
187.873	2185.74
187.949	2181.32
188.025	2174.99
188.101	2179.03
188.176	2184.46
188.252	2180.41
188.328	2189.45
188.404	2189.11
188.48	2183.69
188.556	2177.27
188.632	2172.7
188.707	2172.32
188.783	2168.04
188.859	2162
188.935	2150.67
189.011	2160.9
189.086	2155.38
189.162	2148.2
189.238	2144.77
189.314	2143.25
189.39	2138.97
189.465	2129.88
189.541	2147.49
189.617	2130.17
189.693	2124.42
189.768	2124.32
189.844	2150.17
189.92	2142.03
189.996	2151.22
190.071	2165.06
190.147	2163.21
190.223	2174.86
190.298	2165.44
190.374	2153.65
190.45	2165.15
190.526	2173.05
190.601	2165.68
190.677	2167.39
190.753	2197
190.828	2201.19
190.904	2214.7
190.98	2227.93
191.055	2238.11
191.131	2226.55
191.207	2247.58
191.282	2257.23
191.358	2249.81
191.433	2232.48
191.509	2246.32
191.585	2242.13
191.66	2240.99
191.736	2251.22
191.811	2242.28
191.887	2262.51
191.963	2285.25
192.038	2290.53
192.114	2289.96
192.189	2294.81
192.265	2293.29
192.34	2271.34
192.416	2270.39
192.491	2264.25
192.567	2267.39
192.642	2268.63
192.718	2268.3
192.793	2254.17
192.869	2251.07
192.944	2253.64
193.02	2263.3
193.095	2268.3
193.171	2273.77
193.246	2274.53
193.322	2268.16
193.397	2268.78
193.473	2252.45
193.548	2233.74
193.624	2237.88
193.699	2237.69
193.775	2254.59
193.85	2255.59
193.925	2263.3
194.001	2260.07
194.076	2258.5
194.152	2247.6
194.227	2240.08
194.302	2232.42
194.378	2238.27
194.453	2235.32
194.529	2248.5
194.604	2231.85
194.679	2223.43
194.755	2202.93
194.83	2215.3
194.905	2213.07
194.981	2222.4
195.056	2219.59
195.131	2224.35
195.207	2223.96
195.282	2215.69
195.357	2195.74
195.433	2209.3
195.508	2197.26
195.583	2205.45
195.659	2215.44
195.734	2224.34
195.809	2224.48
195.884	2232.52
195.96	2231.71
196.035	2247.51
196.11	2244.13
196.185	2256.46
196.261	2260.98
196.336	2295.33
196.411	2278.34
196.486	2284.29
196.561	2280.05
196.637	2285.62
196.712	2304.04
196.787	2308.42
196.862	2322.65
196.937	2335.69
197.013	2340.59
197.088	2352.39
197.163	2376.2
197.238	2393.73
197.313	2394.78
197.388	2408.3
197.464	2439.39
197.539	2450.91
197.614	2444.91
197.689	2458.19
197.764	2477.86
197.839	2501.76
197.914	2494.86
197.989	2521.91
198.065	2538.71
198.14	2584.55
198.215	2610.89
198.29	2620.61
198.365	2633.42
198.44	2645.8
198.515	2672.33
198.59	2685.24
198.665	2710.25
198.74	2721.21
198.815	2723.31
198.89	2747.85
198.965	2778.01
199.04	2775.01
199.115	2792.59
199.19	2833.9
199.265	2835.23
199.34	2841.04
199.415	2870.08
199.49	2890.52
199.565	2896.57
199.64	2919.45
199.715	2921.12
199.79	2930.04
199.865	2938.9
199.94	2941.33
200.015	2972.8
200.09	2978.28
200.165	2989.25
200.24	2993.77
200.315	3035.96
200.39	3051.41
200.464	3052.46
200.539	3055.75
200.614	3067.96
200.689	3091.94
200.764	3099
200.839	3121.88
200.914	3130.37
200.989	3121.3
201.063	3136.99
201.138	3122.03
201.213	3123.61
201.288	3099.81
201.363	3102.77
201.438	3105.63
201.512	3120.69
201.587	3101.23
201.662	3108.53
201.737	3123.94
201.812	3135.48
201.886	3099.06
201.961	3108.32
202.036	3101.93
202.111	3099.45
202.186	3074.72
202.26	3062.31
202.335	3044.43
202.41	3039.9
202.485	3024.98
202.559	3010.96
202.634	2989.65
202.709	3003.56
202.784	2989.26
202.858	3000.98
202.933	2990.07
203.008	2987.68
203.082	2974.53
203.157	2983.49
203.232	2948.84
203.306	2936.15
203.381	2914.84
203.456	2904.54
203.53	2897.05
203.605	2892.04
203.68	2885.7
203.754	2898.47
203.829	2897.99
203.904	2896.51
203.978	2904.19
204.053	2933.13
204.127	2941.86
204.202	2968.09
204.277	2979.2
204.351	3002.37
204.426	3026.71
204.5	3053.61
204.575	3058.28
204.65	3108.96
204.724	3143.23
204.799	3196.11
204.873	3239.65
204.948	3292.57
205.022	3332.75
205.097	3381.13
205.171	3456.61
205.246	3528.93
205.32	3592.31
205.395	3669.71
205.469	3733.55
205.544	3822.22
205.618	3886.64
205.693	3986.69
205.767	4060.4
205.842	4175.13
205.916	4264.46
205.991	4354.49
206.065	4466.12
206.14	4590.48
206.214	4699.91
206.289	4807.99
206.363	4937.33
206.438	5060.45
206.512	5190.39
206.586	5343.05
206.661	5479.31
206.735	5587.87
206.81	5723.62
206.884	5885.9
206.958	6015.67
207.033	6184.9
207.107	6336.15
207.181	6521.33
207.256	6675.49
207.33	6854.08
207.405	7024.92
207.479	7211.25
207.553	7379.42
207.628	7519.4
207.702	7697.02
207.776	7860.75
207.851	8035.56
207.925	8225.87
207.999	8402.19
208.073	8580.26
208.148	8758.09
208.222	8932.57
208.296	9150.1
208.371	9356.86
208.445	9549.27
208.519	9769.14
208.593	9964.09
208.668	10152.04
208.742	10338.49
208.816	10521.68
208.89	10725.73
208.965	10918.67
209.039	11113.78
209.113	11326.81
209.187	11545.56
209.261	11733.12
209.336	11942.42
209.41	12157.14
209.484	12348.97
209.558	12565.49
209.632	12769.95
209.707	12979.49
209.781	13194.32
209.855	13411.86
209.929	13615.91
210.003	13810.99
210.077	13995.47
210.151	14232.97
210.226	14445.3
210.3	14667.42
210.374	14879.9
210.448	15068.42
210.522	15259.73
210.596	15450.23
210.67	15641.68
210.744	15869.57
210.818	16094.04
210.892	16298.01
210.966	16470.56
211.041	16668.31
211.115	16836.91
211.189	17025.79
211.263	17210.37
211.337	17381.32
211.411	17549.08
211.485	17706.96
211.559	17889.42
211.633	18041.86
211.707	18165.32
211.781	18330.76
211.855	18449.7
211.929	18592.1
212.003	18725.45
212.077	18889.06
212.151	19058.59
212.225	19215.84
212.299	19357.96
212.373	19479.3
212.447	19611.59
212.52	19785.7
212.594	19920.88
212.668	20074.13
212.742	20201.22
212.816	20333.31
212.89	20463.72
212.964	20594.86
213.038	20726.53
213.112	20868.14
213.186	21020.92
213.26	21138.13
213.333	21227.63
213.407	21356.46
213.481	21486.74
213.555	21626.85
213.629	21728.7
213.703	21820.33
213.777	21928.36
213.85	22019.22
213.924	22166.45
213.998	22282.25
214.072	22386.24
214.146	22490.95
214.219	22590.56
214.293	22691.99
214.367	22792.66
214.441	22899.69
214.515	22990.82
214.588	23068.84
214.662	23132.87
214.736	23209.78
214.81	23296.18
214.883	23387.69
214.957	23456.89
215.031	23528.01
215.105	23589.39
215.178	23661.59
215.252	23743.62
215.326	23803.9
215.4	23866.02
215.473	23887.58
215.547	23941.31
215.621	23999.58
215.694	24071.55
215.768	24123.4
215.842	24180.03
215.915	24240.47
215.989	24285.72
216.063	24335.02
216.136	24403.24
216.21	24449.01
216.284	24517.57
216.357	24583.13
216.431	24636.58
216.504	24715.17
216.578	24806.07
216.652	24871
216.725	24929.72
216.799	24987.48
216.873	25052.38
216.946	25120.27
217.02	25181.45
217.093	25228.01
217.167	25246.54
217.24	25281.43
217.314	25319.5
217.387	25356.75
217.461	25389.23
217.535	25448.45
217.608	25480.35
217.682	25510.41
217.755	25566.44
217.829	25594.97
217.902	25639.61
217.976	25685.12
218.049	25703.66
218.123	25717.9
218.196	25762.74
218.27	25794.11
218.343	25809.08
218.417	25838.52
218.49	25856.48
218.563	25904.41
218.637	25944.58
218.71	26002.89
218.784	26043.06
218.857	26089.16
218.931	26121.45
219.004	26146.55
219.077	26190.64
219.151	26227.62
219.224	26258.32
219.298	26284.49
219.371	26321.66
219.444	26333.88
219.518	26361.25
219.591	26395.05
219.665	26440.82
219.738	26458.16
219.811	26478.24
219.885	26513.78
219.958	26547.05
220.031	26571.67
220.105	26597.65
220.178	26619.91
220.251	26637.54
220.325	26653.67
220.398	26680.91
220.471	26713.69
220.544	26753.58
220.618	26740.44
220.691	26771.83
220.764	26794.04
220.838	26828.91
220.911	26838.23
220.984	26878.07
221.057	26893.33
221.131	26912.79
221.204	26902.51
221.277	26935.59
221.35	26972.54
221.424	26983.45
221.497	26988.62
221.57	27009.82
221.643	27026.92
221.716	27050.35
221.79	27050.68
221.863	27050.2
221.936	27045.27
222.009	27045.03
222.082	27049.28
222.155	27060.58
222.229	27071.21
222.302	27075.22
222.375	27070
222.448	27084.25
222.521	27084.83
222.594	27091.88
222.667	27076.33
222.74	27093.86
222.814	27087
222.887	27074.16
222.96	27081.69
223.033	27086.76
223.106	27079.23
223.179	27073.62
223.252	27057.78
223.325	27053.63
223.398	27048.27
223.471	27046.58
223.544	27044.6
223.617	27036.82
223.69	27033.73
223.763	27009.34
223.837	27002
223.91	26994.08
223.983	26964.37
224.056	26943.17
224.129	26930.33
224.202	26936.12
224.275	26906.47
224.348	26878.89
224.42	26848.47
224.493	26814.57
224.566	26792.54
224.639	26779.36
224.712	26753.04
224.785	26736.33
224.858	26709.38
224.931	26687.22
225.004	26645.7
225.077	26621.94
225.15	26567.72
225.223	26536.62
225.296	26541.21
225.369	26502.48
225.442	26472.64
225.514	26454.15
225.587	26430.25
225.66	26414.65
225.733	26386.65
225.806	26371.44
225.879	26344.79
225.952	26309.83
226.025	26300.23
226.097	26295.11
226.17	26271.98
226.243	26223.51
226.316	26189.76
226.389	26170.74
226.461	26151.09
226.534	26136.95
226.607	26106.92
226.68	26107.74
226.753	26085.88
226.825	26023.26
226.898	26017.71
226.971	25995.26
227.044	25979.14
227.117	25947.04
227.189	25923.48
227.262	25905.52
227.335	25880.61
227.407	25846.34
227.48	25836.88
227.553	25812.07
227.626	25773.69
227.698	25731.89
227.771	25708.44
227.844	25668.33
227.916	25637.1
227.989	25599.75
228.062	25561
228.134	25554.48
228.207	25521.85
228.28	25487.01
228.352	25461.87
228.425	25427.84
228.498	25401.73
228.57	25356.32
228.643	25341.5
228.716	25299.37
228.788	25254.54
228.861	25207.68
228.934	25203.1
229.006	25166.28
229.079	25135.35
229.151	25098.72
229.224	25054.72
229.296	25028.42
229.369	25035.75
229.442	25026.63
229.514	24990.35
229.587	24983.89
229.659	24932.6
229.732	24902.25
229.804	24877.3
229.877	24875.04
229.949	24850.14
230.022	24836.44
230.094	24798.52
230.167	24773.19
230.239	24731.12
230.312	24710.32
230.384	24712.11
230.457	24677.85
230.529	24646.93
230.602	24615.77
230.674	24574.42
230.747	24561.69
230.819	24536.02
230.892	24465.83
230.964	24434.95
231.037	24409.34
231.109	24379.96
231.181	24351.07
231.254	24306.69
231.326	24273.99
231.399	24225.75
231.471	24176.74
231.544	24112.2
231.616	24088.81
231.688	24040.33
231.761	24005.9
231.833	23963.69
231.905	23909.09
231.978	23869.83
232.05	23830.04
232.122	23793.19
232.195	23757.65
232.267	23731.41
232.339	23700.45
232.412	23683.18
232.484	23629.07
232.556	23578.34
232.629	23552.92
232.701	23522.44
232.773	23489.56
232.846	23444.47
232.918	23410.66
232.99	23390.36
233.062	23370.11
233.135	23337.08
233.207	23289.53
233.279	23258.82
233.351	23229.55
233.424	23179.98
233.496	23127.33
233.568	23103.22
233.64	23042.8
233.713	23001.48
233.785	22966.04
233.857	22922.55
233.929	22856.79
234.001	22837.07
234.074	22812.91
234.146	22746.9
234.218	22711.08
234.29	22671.69
234.362	22625.12
234.434	22566.69
234.507	22506.33
234.579	22442.35
234.651	22403.11
234.723	22375.68
234.795	22331.33
234.867	22278.4
234.939	22249.95
235.012	22216.98
235.084	22191.53
235.156	22168.63
235.228	22119.89
235.3	22064.02
235.372	22024.01
235.444	22000.01
235.516	21933.63
235.588	21895.64
235.66	21855.54
235.732	21802.75
235.804	21819.68
235.876	21801.74
235.948	21776.1
236.02	21743.37
236.092	21700.81
236.164	21654.2
236.236	21605.95
236.308	21566.86
236.38	21531.73
236.452	21481.98
236.524	21430.7
236.596	21396.57
236.668	21347.46
236.74	21314.2
236.812	21276.42
236.884	21245.04
236.956	21201.18
237.028	21150.14
237.1	21103.15
237.172	21083.2
237.244	21065.75
237.316	20980.72
237.388	20922.94
237.46	20871.8
237.532	20834.3
237.604	20782.59
237.675	20750.45
237.747	20713.77
237.819	20657.19
237.891	20608.13
237.963	20559.36
238.035	20517.58
238.107	20439.98
238.178	20419.65
238.25	20367.74
238.322	20342.1
238.394	20279.79
238.466	20239.12
238.538	20208.08
238.609	20166.83
238.681	20092.37
238.753	20038.25
238.825	19994.25
238.897	19958.88
238.968	19937.53
239.04	19889.2
239.112	19871.12
239.184	19820.19
239.255	19781.68
239.327	19747.27
239.399	19705.73
239.471	19673.25
239.542	19651.33
239.614	19621.98
239.686	19551.28
239.758	19526.03
239.829	19475.34
239.901	19442.33
239.973	19402.81
240.044	19374.52
240.116	19337.71
240.188	19293.18
240.259	19249.95
240.331	19201.38
240.403	19167.79
240.474	19118.39
240.546	19063.41
240.618	19005
240.689	18954.02
240.761	18906.99
240.833	18882.07
240.904	18840.58
240.976	18792.63
241.048	18745.07
241.119	18714.8
241.191	18681.55
241.262	18653.6
241.334	18612.26
241.405	18561.9
241.477	18506.82
241.549	18446.63
241.62	18405.57
241.692	18383.88
241.763	18353.33
241.835	18309.48
241.906	18257.58
241.978	18192.81
242.049	18168.04
242.121	18151.27
242.192	18122.45
242.264	18065.58
242.335	18004.86
242.407	17970.26
242.478	17929.25
242.55	17883.52
242.621	17825.98
242.693	17775.18
242.764	17729.21
242.836	17680.82
242.907	17657.16
242.979	17631.48
243.05	17602.03
243.122	17567.04
243.193	17522.71
243.264	17453.4
243.336	17416.15
243.407	17394.51
243.479	17384.78
243.55	17355.72
243.622	17307.91
243.693	17267.14
243.764	17258.56
243.836	17217.88
243.907	17172.92
243.978	17135.71
244.05	17108
244.121	17058.46
244.192	17041.73
244.264	16982.94
244.335	16951.76
244.407	16896.33
244.478	16854.64
244.549	16822.74
244.62	16767.6
244.692	16729.05
244.763	16711.41
244.834	16669.48
244.906	16621.14
244.977	16570.53
245.048	16545.37
245.119	16500.45
245.191	16457.94
245.262	16388.01
245.333	16372.1
245.405	16343.43
245.476	16309.93
245.547	16272.38
245.618	16245.44
245.689	16205.05
245.761	16177.19
245.832	16135.65
245.903	16096.27
245.974	16064.65
246.045	16019.39
246.117	16005.85
246.188	15958.08
246.259	15909.26
246.33	15873.44
246.401	15833.25
246.473	15786.88
246.544	15735.59
246.615	15710.19
246.686	15680.12
246.757	15665.61
246.828	15615.05
246.899	15593.4
246.97	15535.13
247.042	15482.25
247.113	15454.73
247.184	15437.47
247.255	15399.44
247.326	15367.44
247.397	15341.6
247.468	15310.8
247.539	15277.64
247.61	15231.46
247.681	15201.38
247.752	15181.95
247.823	15140.21
247.894	15103.29
247.965	15066.22
248.037	15027.37
248.108	14981.24
248.179	14937.32
248.25	14898.08
248.321	14872.05
248.392	14819.71
248.463	14813.63
248.534	14790.4
248.605	14768.08
248.675	14735.69
248.746	14705.85
248.817	14681.94
248.888	14653.16
248.959	14602.79
249.03	14580.71
249.101	14550.05
249.172	14519.06
249.243	14461.98
249.314	14455.18
249.385	14424.14
249.456	14397.39
249.527	14368.46
249.598	14347.06
249.669	14321.61
249.739	14298.61
249.81	14279.72
249.881	14244.91
249.952	14215.65
250.023	14186.49
250.094	14140.11
250.165	14097.84
250.235	14069.54
250.306	14036.18
250.377	14001.18
250.448	13981.66
250.519	13924.39
250.59	13907.52
250.66	13874.5
250.731	13866.59
250.802	13827.35
250.873	13810.19
250.944	13790.38
251.014	13756.92
251.085	13750.56
251.156	13726.6
251.227	13713.73
251.297	13698.5
251.368	13684.85
251.439	13671.89
251.51	13652.6
251.58	13615.34
251.651	13588.15
251.722	13577.4
251.792	13540.96
251.863	13512.71
251.934	13501.09
252.005	13504.13
252.075	13477.9
252.146	13473.03
252.217	13462.04
252.287	13448.3
252.358	13418.56
252.429	13417.64
252.499	13393.97
252.57	13374.21
252.641	13365.73
252.711	13336.27
252.782	13289.99
252.852	13279.05
252.923	13252.54
252.994	13235.76
253.064	13234.22
253.135	13194.64
253.205	13161.14
253.276	13155.16
253.347	13151.93
253.417	13124.16
253.488	13099.91
253.558	13069.54
253.629	13035.95
253.699	13010.4
253.77	12995.55
253.841	12977.04
253.911	12949.42
253.982	12923.24
254.052	12905.89
254.123	12878.02
254.193	12854.16
254.264	12868.14
254.334	12839.84
254.405	12801.47
254.475	12762.81
254.546	12736.49
254.616	12730.42
254.687	12714.9
254.757	12695.56
254.827	12667.99
254.898	12646.59
254.968	12627.26
255.039	12596.89
255.109	12585.18
255.18	12557.02
255.25	12512.34
255.321	12494.07
255.391	12450.2
255.461	12451.02
255.532	12396.07
255.602	12371.15
255.673	12329.5
255.743	12299.66
255.813	12253.68
255.884	12249.05
255.954	12238.83
256.024	12234.35
256.095	12211.84
256.165	12179.78
256.235	12157.99
256.306	12130.42
256.376	12120.88
256.446	12107.14
256.517	12090.9
256.587	12081.26
256.657	12061.59
256.728	12041.06
256.798	12015.75
256.868	11999.03
256.938	11970.54
257.009	11967.12
257.079	11958.58
257.149	11966.97
257.219	11924.41
257.29	11911.73
257.36	11866.91
257.43	11854.38
257.5	11809.93
257.571	11783.28
257.641	11768.05
257.711	11742.36
257.781	11729.3
257.852	11712.91
257.922	11675.94
257.992	11663.22
258.062	11639.45
258.132	11629.43
258.202	11611.69
258.273	11602.05
258.343	11595.59
258.413	11565.37
258.483	11535.93
258.553	11499.97
258.623	11475.87
258.693	11459.58
258.764	11455.82
258.834	11457.7
258.904	11435.14
258.974	11409.07
259.044	11392.83
259.114	11380.49
259.184	11362.81
259.254	11333.07
259.324	11293.12
259.394	11286.32
259.464	11285.07
259.535	11264.87
259.605	11245.55
259.675	11219.43
259.745	11194.66
259.815	11168.82
259.885	11150.71
259.955	11175.14
260.025	11144.98
260.095	11119.24
260.165	11109.26
260.235	11104.78
260.305	11076.83
260.375	11048.35
260.445	11054.37
260.515	11049.27
260.585	11043.24
260.655	11022.86
260.725	11022.23
260.795	11008.45
260.865	11002.86
260.934	10969.08
261.004	10957.37
261.074	10934.62
261.144	10935.83
261.214	10933.85
261.284	10917.47
261.354	10913.08
261.424	10882.14
261.494	10888.02
261.564	10873.61
261.634	10862.91
261.703	10832.22
261.773	10824.99
261.843	10819.98
261.913	10801.76
261.983	10773.81
262.053	10758.78
262.123	10744.76
262.192	10717.78
262.262	10714.59
262.332	10682.84
262.402	10676.82
262.472	10663.08
262.541	10622.28
262.611	10615.1
262.681	10585.46
262.751	10576.21
262.821	10555.16
262.89	10515.79
262.96	10509.29
263.03	10517.43
263.1	10509.77
263.169	10492.9
263.239	10484.18
263.309	10485.77
263.379	10474.21
263.448	10462.89
263.518	10448.19
263.588	10433.55
263.657	10437.59
263.727	10430.61
263.797	10417.55
263.867	10399.19
263.936	10370.72
264.006	10379.34
264.076	10364.17
264.145	10349.09
264.215	10325
264.285	10321.24
264.354	10294.02
264.424	10266.71
264.494	10236.45
264.563	10209.71
264.633	10215.25
264.702	10204.8
264.772	10169.1
264.842	10149.92
264.911	10140.92
264.981	10113.41
265.05	10098.91
265.12	10075.64
265.19	10064.75
265.259	10056.95
265.329	10053.05
265.398	10044.13
265.468	10054.35
265.537	10029.06
265.607	10021.01
265.676	10017.54
265.746	10003.14
265.815	10006.71
265.885	9992.59
265.955	9962.92
266.024	9943.51
266.094	9904.64
266.163	9902.33
266.232	9907.67
266.302	9894.72
266.371	9887.92
266.441	9876.08
266.51	9875.93
266.58	9857.87
266.649	9833.64
266.719	9833.54
266.788	9818.8
266.858	9821.93
266.927	9781.04
266.996	9772.81
267.066	9764.67
267.135	9741.26
267.205	9734.37
267.274	9717.85
267.343	9722.38
267.413	9714.34
267.482	9720.5
267.552	9723.54
267.621	9691.46
267.69	9665.4
267.76	9654.56
267.829	9644.45
267.898	9636.5
267.968	9608.57
268.037	9610.02
268.106	9606.98
268.176	9580.59
268.245	9572.01
268.314	9553.52
268.384	9558.34
268.453	9552.61
268.522	9543.36
268.592	9541.24
268.661	9522.99
268.73	9516.2
268.799	9491.4
268.869	9500.79
268.938	9471.84
269.007	9458.89
269.076	9451.04
269.146	9440.98
269.215	9431.88
269.284	9438.28
269.353	9420.27
269.422	9411.12
269.492	9393.69
269.561	9353.97
269.63	9350.12
269.699	9327.39
269.768	9316.46
269.838	9308.22
269.907	9303.79
269.976	9279.91
270.045	9253.19
270.114	9241.92
270.183	9229.4
270.253	9226.03
270.322	9193.87
270.391	9181.06
270.46	9184.58
270.529	9186.27
270.598	9188.05
270.667	9182.46
270.736	9155.78
270.806	9150.29
270.875	9152.8
270.944	9141.34
271.013	9163.87
271.082	9152.46
271.151	9151.98
271.22	9129.78
271.289	9116.11
271.358	9100.9
271.427	9101.28
271.496	9091.7
271.565	9082.6
271.634	9081.59
271.703	9108.95
271.772	9113.04
271.841	9114.77
271.91	9092.29
271.979	9081.84
272.048	9061.23
272.117	9056.85
272.186	9041.35
272.255	9039.33
272.324	9034.61
272.393	9028.11
272.462	9014
272.531	9008.8
272.6	8995.85
272.669	8998.45
272.738	8987.86
272.807	8979.05
272.876	8954.17
272.945	8985.03
273.013	8987.72
273.082	8980.45
273.151	8932.69
273.22	8930.52
273.289	8915.46
273.358	8922.63
273.427	8908.14
273.496	8903.86
273.564	8897.93
273.633	8902.89
273.702	8887.78
273.771	8877.72
273.84	8877.23
273.909	8875.5
273.977	8874.49
274.046	8862.41
274.115	8867.13
274.184	8852.83
274.253	8856.3
274.322	8866.45
274.39	8834.68
274.459	8824.04
274.528	8806.09
274.597	8802.48
274.665	8795.02
274.734	8803.83
274.803	8787.61
274.872	8783.03
274.94	8769.85
275.009	8834.14
275.078	8818.69
275.147	8814.89
275.215	8810.41
275.284	8807.67
275.353	8794.67
275.421	8765.5
275.49	8786.78
275.559	8769.64
275.627	8757.47
275.696	8741.63
275.765	8741.25
275.833	8728.06
275.902	8727.44
275.971	8732.73
276.039	8749.34
276.108	8757.09
276.177	8750.59
276.245	8741.59
276.314	8739.81
276.383	8750.45
276.451	8681.53
276.52	8680.28
276.588	8687.64
276.657	8695.3
276.725	8690.53
276.794	8691.69
276.863	8710.46
276.931	8683.36
277	8695.82
277.068	8711.66
277.137	8725.52
277.205	8725.08
277.274	8749.53
277.342	8755.07
277.411	8740.01
277.48	8722.68
277.548	8705.16
277.617	8710.84
277.685	8708.96
277.754	8704.44
277.822	8690.96
277.89	8703.81
277.959	8700.01
278.027	8683.46
278.096	8668.49
278.164	8687.69
278.233	8678.6
278.301	8665.41
278.37	8668.01
278.438	8656.17
278.507	8656.17
278.575	8635.57
278.643	8630.71
278.712	8607.7
278.78	8595.05
278.849	8605.2
278.917	8612.18
278.985	8620.46
279.054	8615.26
279.122	8628.54
279.191	8629.17
279.259	8631.48
279.327	8610.1
279.396	8623.48
279.464	8625.75
279.532	8630.99
279.601	8628.15
279.669	8626.8
279.737	8638.11
279.806	8645.81
279.874	8653.42
279.942	8645.72
280.011	8640.04
280.079	8650.53
280.147	8666.85
280.215	8671.42
280.284	8669.11
280.352	8655.78
280.42	8654.86
280.488	8642.88
280.557	8635.76
280.625	8641
280.693	8635.04
280.761	8632.24
280.83	8618.43
280.898	8622.91
280.966	8600.96
281.034	8569.29
281.102	8553.42
281.171	8543.6
281.239	8547.88
281.307	8537.29
281.375	8534.7
281.443	8566.85
281.512	8555.34
281.58	8563.62
281.648	8550.34
281.716	8548.41
281.784	8547.69
281.852	8537.59
281.92	8538.84
281.989	8547.79
282.057	8528.11
282.125	8580.05
282.193	8578.17
282.261	8580.39
282.329	8583.32
282.397	8592.22
282.465	8603.72
282.533	8625.14
282.601	8622.78
282.67	8602.71
282.738	8593.42
282.806	8602.33
282.874	8585.77
282.942	8600.4
283.01	8596.79
283.078	8604.87
283.146	8601.41
283.214	8613.44
283.282	8620.18
283.35	8634.57
283.418	8624.41
283.486	8633.41
283.554	8587
283.622	8591.43
283.69	8590.9
283.758	8583.44
283.826	8587.77
283.894	8594.03
283.962	8606.54
284.03	8617.71
284.098	8622.66
284.165	8620.55
284.233	8622.47
284.301	8619.06
284.369	8604.14
284.437	8593.16
284.505	8582.33
284.573	8592.34
284.641	8581.76
284.709	8583.73
284.777	8565.83
284.845	8574.3
284.912	8573.86
284.98	8575.98
285.048	8567.17
285.116	8567.66
285.184	8582.43
285.252	8584.16
285.319	8571.22
285.387	8563.13
285.455	8545.9
285.523	8551.49
285.591	8551.1
285.659	8549.71
285.726	8560.63
285.794	8546.05
285.862	8542.92
285.93	8545.57
285.997	8545.42
286.065	8539.7
286.133	8539.46
286.201	8548.7
286.269	8538.93
286.336	8531.85
286.404	8526.56
286.472	8538.21
286.539	8516.17
286.607	8497.74
286.675	8501.4
286.743	8506.69
286.81	8499.61
286.878	8510.68
286.946	8505.92
287.013	8505.24
287.081	8508.52
287.149	8490.61
287.216	8512.7
287.284	8509
287.352	8513.76
287.419	8511.5
287.487	8528.92
287.555	8524.54
287.622	8515.3
287.69	8519.49
287.758	8533.35
287.825	8532.24
287.893	8519.97
287.96	8535.12
288.028	8547.78
288.096	8544.75
288.163	8553.07
288.231	8545.47
288.298	8544.65
288.366	8558.27
288.433	8559.43
288.501	8548.65
288.569	8554.37
288.636	8549.7
288.704	8564
288.771	8567.8
288.839	8564
288.906	8556.83
288.974	8573.29
289.041	8571.7
289.109	8560.53
289.176	8572.09
289.244	8572.9
289.311	8588.02
289.379	8602.74
289.446	8603.27
289.514	8607.7
289.581	8606.64
289.649	8612.8
289.716	8616.46
289.783	8609.29
289.851	8630.85
289.918	8635.32
289.986	8641.96
290.053	8642.16
290.121	8637.87
290.188	8638.45
290.255	8664.68
290.323	8659.53
290.39	8651.16
290.458	8660.73
290.525	8684.46
290.592	8680.75
290.66	8684.84
290.727	8675.03
290.794	8682.97
290.862	8686.58
290.929	8687.35
290.996	8687.68
291.064	8695.53
291.131	8707.56
291.198	8718.58
291.266	8714.64
291.333	8715.26
291.4	8719.02
291.468	8741.35
291.535	8741.93
291.602	8744.91
291.669	8738.95
291.737	8748.52
291.804	8753.77
291.871	8768.45
291.938	8767.87
292.006	8795.84
292.073	8811.87
292.14	8830.06
292.207	8822.55
292.275	8821.74
292.342	8831.36
292.409	8851.15
292.476	8878.54
292.543	8876.66
292.611	8880.42
292.678	8898.18
292.745	8925.42
292.812	8935.92
292.879	8925.42
292.946	8929.61
293.014	8947.57
293.081	8955.99
293.148	8967.16
293.215	8977.07
293.282	8971.39
293.349	8983.09
293.416	8966.96
293.484	8980.25
293.551	8987.38
293.618	9002.64
293.685	9026.8
293.752	9027.33
293.819	9030.85
293.886	9015.49
293.953	9021.65
294.02	9031.57
294.087	9034.94
294.154	9028.34
294.221	9049.04
294.288	9055.35
294.356	9069.36
294.423	9076.05
294.49	9064.31
294.557	9078.7
294.624	9072.49
294.691	9094.25
294.758	9091.22
294.825	9090.49
294.892	9077.3
294.959	9076.77
295.026	9082.94
295.093	9082.31
295.16	9076.63
295.226	9075.67
295.293	9103.31
295.36	9110.96
295.427	9117.51
295.494	9132.53
295.561	9136.43
295.628	9153.91
295.695	9165.95
295.762	9176.11
295.829	9190.75
295.896	9210.92
295.963	9214.92
296.03	9229.55
296.096	9228.11
296.163	9241.2
296.23	9263.83
296.297	9281.16
296.364	9281.31
296.431	9284.54
296.498	9276.88
296.564	9304.47
296.631	9310.58
296.698	9292.38
296.765	9313.42
296.832	9306.34
296.899	9291.51
296.965	9314.58
297.032	9292.81
297.099	9313.23
297.166	9323.44
297.233	9322.23
297.299	9316.21
297.366	9320.4
297.433	9323.29
297.5	9338.08
297.566	9336.97
297.633	9327.05
297.7	9337.16
297.767	9337.88
297.833	9349.15
297.9	9354.74
297.967	9345.68
298.033	9353.24
298.1	9384.5
298.167	9371.26
298.234	9378.28
298.3	9391.43
298.367	9384.83
298.434	9401.83
298.5	9388.49
298.567	9380.16
298.634	9373.47
298.7	9390.18
298.767	9395.38
298.834	9403.8
298.9	9403.03
298.967	9398.46
299.033	9419.6
299.1	9429.67
299.167	9448.01
299.233	9443.24
299.3	9460.96
299.366	9469.2
299.433	9490.49
299.5	9466.84
299.566	9474.78
299.633	9490.63
299.699	9503.2
299.766	9505.75
299.832	9503.49
299.899	9520.49
299.965	9539.46
300.032	9541.15
300.099	9550.34
300.165	9554.44
300.232	9550.05
300.298	9547.98
300.365	9566.77
300.431	9565.71
300.498	9560.94
300.564	9564.79
300.631	9580.1
300.697	9590.75
300.763	9601.68
300.83	9597.92
300.896	9610.97
300.963	9622.1
301.029	9631.63
301.096	9636.11
301.162	9646.52
301.229	9647.19
301.295	9634.86
301.361	9634.14
301.428	9638.33
301.494	9622.73
301.561	9631.06
301.627	9639.82
301.693	9641.89
301.76	9643
301.826	9639.77
301.892	9650.47
301.959	9661.5
302.025	9655.72
302.092	9653.16
302.158	9655.72
302.224	9658.27
302.291	9650.23
302.357	9644.59
302.423	9636.07
302.49	9626.72
302.556	9639.68
302.622	9636.65
302.688	9650.03
302.755	9666.36
302.821	9673.44
302.887	9687.21
302.954	9681.58
303.02	9686.49
303.086	9693.04
303.152	9693.67
303.219	9687.46
303.285	9694.58
303.351	9702.72
303.417	9706.67
303.483	9696.03
303.55	9687.89
303.616	9685.58
303.682	9681.05
303.748	9678.93
303.815	9694.83
303.881	9703.83
303.947	9686.98
304.013	9689.24
304.079	9676.43
304.145	9655.48
304.212	9652.44
304.278	9640.6
304.344	9635.83
304.41	9624.99
304.476	9619.98
304.542	9612.52
304.608	9616.81
304.674	9599.51
304.741	9588.58
304.807	9593.25
304.873	9603.13
304.939	9625.67
305.005	9612.52
305.071	9617.19
305.137	9615.79
305.203	9592
305.269	9593.59
305.335	9603.51
305.401	9603.65
305.467	9605.53
305.533	9612.52
305.599	9621.33
305.666	9634.48
305.732	9636.64
305.798	9652.2
305.864	9681.34
305.93	9686.69
305.996	9694.49
306.062	9696.51
306.128	9696.08
306.194	9686.83
306.259	9684.76
306.325	9670.65
306.391	9675.51
306.457	9685.62
306.523	9695.26
306.589	9724.64
306.655	9713.18
306.721	9698.44
306.787	9687.94
306.853	9705.81
306.919	9698.68
306.985	9689.77
307.051	9681.49
307.117	9675.52
307.183	9669.64
307.248	9627.83
307.314	9639.83
307.38	9640.69
307.446	9644.11
307.512	9628.94
307.578	9623.16
307.644	9617.05
307.709	9623.12
307.775	9617.72
307.841	9619.84
307.907	9612.67
307.973	9587.57
308.039	9590.8
308.104	9598.65
308.17	9603.32
308.236	9585.16
308.302	9577.65
308.368	9563.25
308.433	9564.31
308.499	9556.65
308.565	9547.17
308.631	9567.54
308.696	9543.84
308.762	9526.46
308.828	9527.71
308.894	9517.4
308.959	9499.68
309.025	9490.87
309.091	9475.99
309.156	9470.02
309.222	9466.21
309.288	9459.09
309.354	9436.55
309.419	9432.99
309.485	9418.01
309.551	9418.73
309.616	9407.37
309.682	9406.93
309.748	9407.32
309.813	9407.13
309.879	9402.6
309.945	9390.23
310.01	9372.36
310.076	9370.38
310.141	9367.06
310.207	9352.33
310.273	9357.33
310.338	9366.14
310.404	9349
310.469	9341.25
310.535	9338.36
310.601	9319.58
310.666	9327.67
310.732	9341.35
310.797	9331.57
310.863	9319.39
310.928	9314.48
310.994	9314.96
311.059	9315.2
311.125	9308.56
311.191	9322.52
311.256	9313.95
311.322	9322.76
311.387	9305
311.453	9639.72
311.518	9612.52
311.584	9609.34
311.649	9614.59
311.715	9605.78
311.78	9614.25
311.846	9609.39
311.911	9609.05
311.976	9607.27
312.042	9588.44
312.107	9578.86
312.173	9565.14
312.238	9558.97
312.304	9550.74
312.369	9544.58
312.434	9529.89
312.5	9527.58
312.565	9484.19
312.631	9486.22
312.696	9474.03
312.761	9478.46
312.827	9135.8
312.892	9173.74
312.958	9172.44
313.023	9165.7
313.088	9166.13
313.154	9148.99
313.219	9137.15
313.284	9133.88
313.35	9130.51
313.415	9120.39
313.48	9103.59
313.546	9107.93
313.611	9121.41
313.676	9109.52
313.741	9098.49
313.807	9110.29
313.872	9111.54
313.937	9127.28
314.003	9145.34
314.068	9145.29
314.133	9155.83
314.198	9145.87
314.264	9127.38
314.329	9118.04
314.394	9111.1
314.459	9107.78
314.525	9129.01
314.59	9122.66
314.655	9103.4
314.72	9112.21
314.785	9115.68
314.851	9113.94
314.916	9101.52
314.981	9080.97
315.046	9075.58
315.111	9067.39
315.176	9055.55
315.242	9059.06
315.307	9050.69
315.372	9025.26
315.437	9015.73
315.502	9002.3
315.567	9010.96
315.632	8995.51
315.698	8989.93
315.763	8992.04
315.828	8982.22
315.893	8979.62
315.958	8977.07
316.023	8967.59
316.088	8947.13
316.153	8923.3
316.218	8917.62
316.283	8899.29
316.348	8880.85
316.413	8877.24
316.479	8861.41
316.544	8826.85
316.609	8794.12
316.674	8757.45
316.739	8720.3
316.804	8688.97
316.869	8652.01
316.934	8613.31
316.999	8585.64
317.064	8537.13
317.129	8482.22
317.194	8442.52
317.259	8386.89
317.324	8336.95
317.389	8294.57
317.454	8251.5
317.518	8221.53
317.583	8200.84
317.648	8176.44
317.713	8144.65
317.778	8082.3
317.843	8053.68
317.908	8012.12
317.973	7977.87
318.038	7946.56
318.103	7910.16
318.168	7876.97
318.233	7844.56
318.297	7794.74
318.362	7755.25
318.427	7714.63
318.492	7690.05
318.557	7643.57
318.622	7614.76
318.687	7592.02
318.751	7550.54
318.816	7519.2
318.881	7480.88
318.946	7422.65
319.011	7376.84
319.075	7338.82
319.14	7306.91
319.205	7261.92
319.27	7231.07
319.335	7187.33
319.399	7148.65
319.464	7124.09
319.529	7072.73
319.594	7034.24
319.658	7005.03
319.723	6959.82
319.788	6932.82
319.853	6882.76
319.917	6854.47
319.982	6801.01
320.047	6768.1
320.112	6742.6
320.176	6688
320.241	6652.84
320.306	6622.2
320.37	6580.62
320.435	6550.75
320.5	6525.68
320.564	6489.86
320.629	6446.32
320.694	6412.86
320.758	6371.82
320.823	6327.99
320.888	6302.79
320.952	6256.24
321.017	6213.52
321.082	6174.71
321.146	6143.85
321.211	6106.61
321.275	6067.8
321.34	6027.51
321.405	5977.9
321.469	5931.85
321.534	5889.89
321.598	5835.79
321.663	5805.18
321.727	5769.59
321.792	5716.02
321.857	5665.24
321.921	5624.38
321.986	5581.62
322.05	5516.92
322.115	5478.95
322.179	5435.76
322.244	5378.3
322.308	5348.1
322.373	5304.01
322.437	5268.84
322.502	5238.01
322.566	5195.42
322.631	5154.12
322.695	5114.66
322.76	5068.92
322.824	5036.06
322.889	4995.89
322.953	4948.74
323.018	4880.49
323.082	4819.27
323.146	4771.12
323.211	4720
323.275	4672.13
323.34	4627.77
323.404	4598.97
323.468	4552.02
323.533	4502.07
323.597	4456.78
323.662	4399.94
323.726	4360.95
323.79	4310.63
323.855	4242.88
323.919	4194.48
323.983	4150.63
324.048	4082.73
324.112	4205.5
324.177	4070.95
324.241	3859.55
324.305	3656.66
324.37	3451.62
324.434	3255.61
324.498	3207.97
324.562	3156.74
324.627	3093.68
324.691	3034.9
324.755	2963.94
324.82	2885.53
324.884	2806.74
324.948	2728.57
325.012	2628.59
325.077	2499.39
