Data from 20250704_urea_0.5M_MAYP1162681_11-05-19-765.txt Node
Date: Fri Jul 04 11:05:19 BST 2025
User: adleo
Spectrometer: MAYP116268
Trigger mode: 0
Integration Time (sec): 1.000000E0
Scans to average: 1
Electric dark correction enabled: true
Nonlinearity correction enabled: true
Boxcar width: 10
XAxis mode: Wavelengths
Number of Pixels in Spectrum: 2068
>>>>>Begin Spectral Data<<<<<
179.565	1234.59
179.642	1294.14
179.718	1340.77
179.795	1382.38
179.871	1416.31
179.948	1433.71
180.024	1453.35
180.101	1476.85
180.177	1489.69
180.254	1511.66
180.33	1531.93
180.407	1587.1
180.483	1685.07
180.56	1777.14
180.636	1862.17
180.712	1847.91
180.789	1861.65
180.865	1876.71
180.942	1886.36
181.018	1895.3
181.095	1909.18
181.171	1912.85
181.248	1912.23
181.324	1927.78
181.4	1933.58
181.477	1942.76
181.553	1957.92
181.63	1979.13
181.706	1995.58
181.782	2005.19
181.859	2004.38
181.935	2012.65
182.011	2011.22
182.088	2028.92
182.164	2050.42
182.24	2064.16
182.317	2075.62
182.393	2072.72
182.469	2086.42
182.546	2101.64
182.622	2105.82
182.698	2098.64
182.775	2110.96
182.851	2125.18
182.927	2115.62
183.003	2111.53
183.08	2107.58
183.156	2116.24
183.232	2112.15
183.308	2098.64
183.385	2107.63
183.461	2129.13
183.537	2128.27
183.613	2140.69
183.69	2128.66
183.766	2116.19
183.842	2123.18
183.918	2128.22
183.995	2143.16
184.071	2145.63
184.147	2139.88
184.223	2128.75
184.299	2143.12
184.375	2129.61
184.452	2137.7
184.528	2187.13
184.604	2198.88
184.68	2209.82
184.756	2216.63
184.832	2224.91
184.908	2231.33
184.985	2229.8
185.061	2212.3
185.137	2223.48
185.213	2210.59
185.289	2213.87
185.365	2208.92
185.441	2208.02
185.517	2224.77
185.593	2218.16
185.669	2216.78
185.745	2229.53
185.822	2245.13
185.898	2236.94
185.974	2248.31
186.05	2237.32
186.126	2205.35
186.202	2198.78
186.278	2196.17
186.354	2187.27
186.43	2194.69
186.506	2193.36
186.582	2194.74
186.658	2203.49
186.734	2180.99
186.81	2185.89
186.886	2190.27
186.962	2200.97
187.038	2198.45
187.114	2190.41
187.19	2196.97
187.266	2189.17
187.341	2184.55
187.417	2180.99
187.493	2179.04
187.569	2179.32
187.645	2175.94
187.721	2162.52
187.797	2168.8
187.873	2171.61
187.949	2165.48
188.025	2156.62
188.101	2162.47
188.176	2165.52
188.252	2159.86
188.328	2169.56
188.404	2168.03
188.48	2162.47
188.556	2155.66
188.632	2155.19
188.707	2153.9
188.783	2154.9
188.859	2146.44
188.935	2136.97
189.011	2145.25
189.086	2142.06
189.162	2134.07
189.238	2130.41
189.314	2128.74
189.39	2123.7
189.465	2116.61
189.541	2131.84
189.617	2117.66
189.693	2109.81
189.768	2116.29
189.844	2141.42
189.92	2133.62
189.996	2144.32
190.071	2156.64
190.147	2156.36
190.223	2166.64
190.298	2160.64
190.374	2147.51
190.45	2161.35
190.526	2171.44
190.601	2163.82
190.677	2164.82
190.753	2192.48
190.828	2197.18
190.904	2214.27
190.98	2231.54
191.055	2242.39
191.131	2237.01
191.207	2254.42
191.282	2264.56
191.358	2256.09
191.433	2239.19
191.509	2252.74
191.585	2249.31
191.66	2250.55
191.736	2258.26
191.811	2249.22
191.887	2263.4
191.963	2285.34
192.038	2290.81
192.114	2289.19
192.189	2295.19
192.265	2292.76
192.34	2271.58
192.416	2269.58
192.491	2263.58
192.567	2265.2
192.642	2269.44
192.718	2267.25
192.793	2255.16
192.869	2250.41
192.944	2251.12
193.02	2261.16
193.095	2266.3
193.171	2272.01
193.246	2269.49
193.322	2266.21
193.397	2268.63
193.473	2252.78
193.548	2234.46
193.624	2238.41
193.699	2237.27
193.775	2249.6
193.85	2250.36
193.925	2260.21
194.001	2261.45
194.076	2256.21
194.152	2243.36
194.227	2234.7
194.302	2228.56
194.378	2234.32
194.453	2230.42
194.529	2240.55
194.604	2222.52
194.679	2214.15
194.755	2195.4
194.83	2207.11
194.905	2204.78
194.981	2210.06
195.056	2204.17
195.131	2209.07
195.207	2208.64
195.282	2200.5
195.357	2182.75
195.433	2197.59
195.508	2184.75
195.583	2191.88
195.659	2204.02
195.734	2212.11
195.809	2213.16
195.884	2216.96
195.96	2216.72
196.035	2235.71
196.11	2233.38
196.185	2249.22
196.261	2254.31
196.336	2284.87
196.411	2272.01
196.486	2277.77
196.561	2274.39
196.637	2282.86
196.712	2298.19
196.787	2301.9
196.862	2317.17
196.937	2329.74
197.013	2333.16
197.088	2345.01
197.163	2369.77
197.238	2383.73
197.313	2382.25
197.388	2395.77
197.464	2430.1
197.539	2442.57
197.614	2434.15
197.689	2448.62
197.764	2463.77
197.839	2486
197.914	2478.24
197.989	2500.72
198.065	2513.9
198.14	2566.04
198.215	2591.46
198.29	2605.61
198.365	2620.24
198.44	2631.38
198.515	2658.96
198.59	2677.97
198.665	2700.5
198.74	2705.64
198.815	2705.64
198.89	2729.32
198.965	2758.96
199.04	2754.58
199.115	2772.2
199.19	2813.98
199.265	2813.41
199.34	2824.66
199.415	2856.03
199.49	2878.85
199.565	2891.05
199.64	2914.69
199.715	2910.16
199.79	2920.5
199.865	2926.75
199.94	2923.27
200.015	2958.07
200.09	2964.65
200.165	2970.37
200.24	2981.67
200.315	3024.33
200.39	3044.55
200.464	3053.08
200.539	3054.75
200.614	3072.77
200.689	3096.04
200.764	3103.25
200.839	3124.02
200.914	3129.89
200.989	3117.53
201.063	3129.93
201.138	3111.54
201.213	3112.16
201.288	3094.23
201.363	3099.71
201.438	3102.48
201.512	3120.59
201.587	3100.36
201.662	3103.27
201.737	3116.44
201.812	3124.88
201.886	3088.23
201.961	3098.63
202.036	3086.66
202.111	3083.61
202.186	3053.63
202.26	3033.98
202.335	3010.9
202.41	3000.99
202.485	2979.45
202.559	2962.48
202.634	2940.79
202.709	2948.31
202.784	2929.53
202.858	2926.34
202.933	2908.65
203.008	2898.02
203.082	2875.34
203.157	2873.24
203.232	2828.46
203.306	2807.67
203.381	2771.83
203.456	2748.38
203.53	2725.15
203.605	2702.29
203.68	2679.61
203.754	2673.23
203.829	2659.17
203.904	2644.16
203.978	2634.44
204.053	2641.88
204.127	2624.97
204.202	2621.16
204.277	2602.44
204.351	2595.58
204.426	2589.29
204.5	2578.48
204.575	2546.49
204.65	2556.06
204.724	2550.53
204.799	2560.2
204.873	2553.76
204.948	2555.67
205.022	2544.58
205.097	2535.33
205.171	2553.23
205.246	2560.24
205.32	2558
205.395	2557.67
205.469	2544.44
205.544	2549.2
205.618	2531.01
205.693	2544.91
205.767	2535.1
205.842	2558.11
205.916	2550.82
205.991	2541.34
206.065	2550.63
206.14	2565
206.214	2563.19
206.289	2555.05
206.363	2570.1
206.438	2575.62
206.512	2583.24
206.586	2604.91
206.661	2614.82
206.735	2590.97
206.81	2595.26
206.884	2612.98
206.958	2604.07
207.033	2628.07
207.107	2640.79
207.181	2675.82
207.256	2676.63
207.33	2698.21
207.405	2717.61
207.479	2747.63
207.553	2759.54
207.628	2746.77
207.702	2767.35
207.776	2772.16
207.851	2786.08
207.925	2810.44
207.999	2821.36
208.073	2834.32
208.148	2855.87
208.222	2861.26
208.296	2915.24
208.371	2950.69
208.445	2985.07
208.519	3037.37
208.593	3074.91
208.668	3097.42
208.742	3129.98
208.816	3164.6
208.89	3215.86
208.965	3249.62
209.039	3295.73
209.113	3358.87
209.187	3429.56
209.261	3474.89
209.336	3545.94
209.41	3620.48
209.484	3676.91
209.558	3759.8
209.632	3835.23
209.707	3916.82
209.781	4010.73
209.855	4101.2
209.929	4194.42
210.003	4280.26
210.077	4363.35
210.151	4496.59
210.226	4623.54
210.3	4747.6
210.374	4868.15
210.448	4975.53
210.522	5094.63
210.596	5222.28
210.67	5344.62
210.744	5509.43
210.818	5665.14
210.892	5811.52
210.966	5937.93
211.041	6088.7
211.115	6214.55
211.189	6378.63
211.263	6531.48
211.337	6684.12
211.411	6844.78
211.485	6993.83
211.559	7161.48
211.633	7322.49
211.707	7452.3
211.781	7624.46
211.855	7757.13
211.929	7922.04
212.003	8076.34
212.077	8263.64
212.151	8445.14
212.225	8635.16
212.299	8802.64
212.373	8971.86
212.447	9148.6
212.52	9357.49
212.594	9548.03
212.668	9754.88
212.742	9935.97
212.816	10122.38
212.89	10304.74
212.964	10494.99
213.038	10695.71
213.112	10901.88
213.186	11112.34
213.26	11289.46
213.333	11445.46
213.407	11648.67
213.481	11846.11
213.555	12055.6
213.629	12240.16
213.703	12424.14
213.777	12619.12
213.85	12789.47
213.924	13018.09
213.998	13217.46
214.072	13408.44
214.146	13589.11
214.219	13770.02
214.293	13949.39
214.367	14132.62
214.441	14329.87
214.515	14503.45
214.588	14660.4
214.662	14805.21
214.736	14969.34
214.81	15150.82
214.883	15337.51
214.957	15493.78
215.031	15655.16
215.105	15797.07
215.178	15948.27
215.252	16101.78
215.326	16235.54
215.4	16380.47
215.473	16487.08
215.547	16619.96
215.621	16757.46
215.694	16909.37
215.768	17041.85
215.842	17178.2
215.915	17321.52
215.989	17444.08
216.063	17578.3
216.136	17707.6
216.21	17845.81
216.284	17991.11
216.357	18120.89
216.431	18241.61
216.504	18377.32
216.578	18531.63
216.652	18658.42
216.725	18766.51
216.799	18897.25
216.873	19020.71
216.946	19148.37
217.02	19258.63
217.093	19372.31
217.167	19452.74
217.24	19539.19
217.314	19636.73
217.387	19738.12
217.461	19822.51
217.535	19933.15
217.608	20012.28
217.682	20107.17
217.755	20215.99
217.829	20296.86
217.902	20384.95
217.976	20470.69
218.049	20553.15
218.123	20620.62
218.196	20713.49
218.27	20800.39
218.343	20851.86
218.417	20927.09
218.49	20999.19
218.563	21089.51
218.637	21157.81
218.71	21257.14
218.784	21341.49
218.857	21415.38
218.931	21485.6
219.004	21564.02
219.077	21629.96
219.151	21702.75
219.224	21760.2
219.298	21808.69
219.371	21879.26
219.444	21930.55
219.518	21983.14
219.591	22043.88
219.665	22123.52
219.738	22183.1
219.811	22215.4
219.885	22281.25
219.958	22336.83
220.031	22386.92
220.105	22446.21
220.178	22501.13
220.251	22541.38
220.325	22575.95
220.398	22631.1
220.471	22675.55
220.544	22714.6
220.618	22746.33
220.691	22795.7
220.764	22836.53
220.838	22885.47
220.911	22914.26
220.984	22971.82
221.057	23010.73
221.131	23045.06
221.204	23033.49
221.277	23071.77
221.35	23141.69
221.424	23163.1
221.497	23187.59
221.57	23204.9
221.643	23227.37
221.716	23248.93
221.79	23261.46
221.863	23289.24
221.936	23299.07
222.009	23325.93
222.082	23346.04
222.155	23354.82
222.229	23381.44
222.302	23397.45
222.375	23406.8
222.448	23414.42
222.521	23426.28
222.594	23439.16
222.667	23422.86
222.74	23444.7
222.814	23449.29
222.887	23439.69
222.96	23464.28
223.033	23481.93
223.106	23486.51
223.179	23486.9
223.252	23487.53
223.325	23501.56
223.398	23502.14
223.471	23511.01
223.544	23496.45
223.617	23494.23
223.69	23495.34
223.763	23475.18
223.837	23480.97
223.91	23479.91
223.983	23459.99
224.056	23433.23
224.129	23433.18
224.202	23448.08
224.275	23444.85
224.348	23419.39
224.42	23393.16
224.493	23355.25
224.566	23330.71
224.639	23331.58
224.712	23313.83
224.785	23303.17
224.858	23277.04
224.931	23255.72
225.004	23229.88
225.077	23221.44
225.15	23184.6
225.223	23168.5
225.296	23178.86
225.369	23141.54
225.442	23114.88
225.514	23099.64
225.587	23093.66
225.66	23081.9
225.733	23062.03
225.806	23040
225.879	23029.2
225.952	23018.68
226.025	23026.3
226.097	23030.11
226.17	23010.39
226.243	22971.39
226.316	22949.01
226.389	22927.12
226.461	22921.87
226.534	22908.18
226.607	22873.66
226.68	22874.91
226.753	22859.67
226.825	22811.21
226.898	22815.51
226.971	22793.28
227.044	22780.12
227.117	22761.41
227.189	22736.87
227.262	22718.93
227.335	22699.17
227.407	22665.13
227.48	22651
227.553	22628.01
227.626	22592.86
227.698	22569.23
227.771	22559.88
227.844	22534.38
227.916	22512.64
227.989	22472.77
228.062	22440.9
228.134	22457.24
228.207	22427.16
228.28	22395.87
228.352	22371.77
228.425	22332.87
228.498	22322.4
228.57	22296.32
228.643	22280.03
228.716	22245.95
228.788	22217.89
228.861	22196.97
228.934	22188.24
229.006	22152.14
229.079	22110.15
229.151	22072.84
229.224	22033.22
229.296	22001.06
229.369	21994.17
229.442	21984.82
229.514	21956.67
229.587	21944.86
229.659	21880.07
229.732	21870.72
229.804	21849.32
229.877	21844.55
229.949	21838.13
230.022	21824.78
230.094	21797.6
230.167	21774.51
230.239	21734.07
230.312	21706.16
230.384	21691.5
230.457	21673.62
230.529	21651.55
230.602	21638.24
230.674	21625.52
230.747	21608.89
230.819	21597.18
230.892	21535
230.964	21511.14
231.037	21487.09
231.109	21457.98
231.181	21452.58
231.254	21400.14
231.326	21370.3
231.399	21332.03
231.471	21294.58
231.544	21243.06
231.616	21225.51
231.688	21197.89
231.761	21172.98
231.833	21153.07
231.905	21096.39
231.978	21055.71
232.05	21027.23
232.122	20998.07
232.195	20958.41
232.267	20939.85
232.339	20901.78
232.412	20897.87
232.484	20859.75
232.556	20826.11
232.629	20818.35
232.701	20799.41
232.773	20779.5
232.846	20747.6
232.918	20725
232.99	20703.41
233.062	20684.08
233.135	20654.05
233.207	20608.61
233.279	20584.9
233.351	20546.2
233.424	20518.68
233.496	20481.48
233.568	20466.87
233.64	20417.96
233.713	20379.11
233.785	20343.4
233.857	20319.6
233.929	20275.45
234.001	20256.42
234.074	20238.73
234.146	20188.27
234.218	20140.47
234.29	20114.83
234.362	20076.03
234.434	20020.9
234.507	19969.43
234.579	19925
234.651	19896.33
234.723	19872.33
234.795	19847.46
234.867	19812.52
234.939	19798.93
235.012	19769.92
235.084	19749.49
235.156	19724.05
235.228	19697.35
235.3	19665.3
235.372	19620.63
235.444	19588.58
235.516	19531
235.588	19499.09
235.66	19464.98
235.732	19424.98
235.804	19438.18
235.876	19423.34
235.948	19413.17
236.02	19378.09
236.092	19345.85
236.164	19293.95
236.236	19246.1
236.308	19208.8
236.38	19176.17
236.452	19123.94
236.524	19093.63
236.596	19067.36
236.668	19048.04
236.74	19012.47
236.812	18980.96
236.884	18965.73
236.956	18936.91
237.028	18904.77
237.1	18855.71
237.172	18846.17
237.244	18836.58
237.316	18761.21
237.388	18712.88
237.46	18666.04
237.532	18648.59
237.604	18600.26
237.675	18584.74
237.747	18569.27
237.819	18527.1
237.891	18494.77
237.963	18462.1
238.035	18421.47
238.107	18349.52
238.178	18330.97
238.25	18293.67
238.322	18279.84
238.394	18234.78
238.466	18200.23
238.538	18171.65
238.609	18153.58
238.681	18091.94
238.753	18036.09
238.825	18002.74
238.897	17978.12
238.968	17960.24
239.04	17914.17
239.112	17905.01
239.184	17857.4
239.255	17811.33
239.327	17781.01
239.399	17758.12
239.471	17731.28
239.542	17707.67
239.614	17685.74
239.686	17619.91
239.758	17596.87
239.829	17555.09
239.901	17527.67
239.973	17493.41
240.044	17466.32
240.116	17423.96
240.188	17388.1
240.259	17358.18
240.331	17321.6
240.403	17288.97
240.474	17234.08
240.546	17194.7
240.618	17139.67
240.689	17103.14
240.761	17075.28
240.833	17062.7
240.904	17019.86
240.976	16987.66
241.048	16947.71
241.119	16923.23
241.191	16890.26
241.262	16874.4
241.334	16826.98
241.405	16791.32
241.477	16744.62
241.549	16701
241.62	16667.16
241.692	16640.42
241.763	16624.32
241.835	16592.7
241.906	16554.24
241.978	16507.73
242.049	16485.56
242.121	16466.86
242.192	16450.91
242.264	16406.85
242.335	16348.97
242.407	16323.76
242.478	16282.46
242.55	16263.47
242.621	16219.85
242.693	16185.34
242.764	16140.37
242.836	16105.19
242.907	16078.97
242.979	16062.87
243.05	16046.38
243.122	16029.23
243.193	15996.5
243.264	15931.57
243.336	15895.57
243.407	15876.58
243.479	15870.8
243.55	15852.14
243.622	15830.74
243.693	15799.56
243.764	15782.11
243.836	15740.61
243.907	15704.7
243.978	15672.11
244.05	15641.03
244.121	15595.57
244.192	15577.54
244.264	15535.51
244.335	15513.34
244.407	15463.45
244.478	15426.14
244.549	15382.96
244.62	15324.63
244.692	15283.27
244.763	15268.67
244.834	15226.78
244.906	15184.75
244.977	15156.07
245.048	15138.81
245.119	15093.5
245.191	15053.16
245.262	15007.07
245.333	14993.72
245.405	14965.81
245.476	14938.14
245.547	14915.3
245.618	14896.5
245.689	14865.84
245.761	14839.71
245.832	14798.4
245.903	14776.66
245.974	14754.82
246.045	14723.78
246.117	14717.08
246.188	14683.67
246.259	14643.37
246.33	14617.44
246.401	14590.11
246.473	14548.12
246.544	14507.87
246.615	14494.33
246.686	14460.87
246.757	14439.9
246.828	14409.05
246.899	14391.26
246.97	14353.37
247.042	14311.44
247.113	14285.02
247.184	14278.32
247.255	14251.23
247.326	14231.51
247.397	14204.61
247.468	14172.99
247.539	14151.1
247.61	14107.53
247.681	14090.75
247.752	14082.84
247.823	14040.76
247.894	14013.04
247.965	13972.74
248.037	13939.24
248.108	13893.25
248.179	13866.16
248.25	13837.43
248.321	13818.58
248.392	13780.16
248.463	13775.29
248.534	13748.39
248.605	13737.88
248.675	13700.47
248.746	13677.19
248.817	13654.43
248.888	13634.72
248.959	13602.47
249.03	13585.5
249.101	13565.25
249.172	13534.74
249.243	13484.31
249.314	13484.75
249.385	13472.07
249.456	13459.58
249.527	13436.2
249.598	13422.37
249.669	13395.42
249.739	13379.17
249.81	13353.72
249.881	13320.41
249.952	13293.66
250.023	13265.31
250.094	13230.12
250.165	13203.51
250.235	13174.01
250.306	13147.69
250.377	13111.34
250.448	13090.8
250.519	13044.48
250.59	13042.74
250.66	13017.87
250.731	13010.93
250.802	12988.7
250.873	12958.96
250.944	12939.05
251.014	12901.88
251.085	12892.63
251.156	12875.37
251.227	12863.9
251.297	12847.51
251.368	12838.78
251.439	12824.18
251.51	12811.06
251.58	12776.74
251.651	12745.55
251.722	12740.54
251.792	12704.77
251.863	12683.66
251.934	12672.47
252.005	12675.41
252.075	12643.55
252.146	12631.89
252.217	12617.62
252.287	12601.23
252.358	12587.1
252.429	12579.73
252.499	12554.85
252.57	12536.01
252.641	12517.01
252.711	12489.05
252.782	12460.86
252.852	12459.65
252.923	12438.78
252.994	12422.97
253.064	12415.11
253.135	12391.25
253.205	12363.39
253.276	12364.16
253.347	12362.42
253.417	12333.12
253.488	12305.59
253.558	12287.95
253.629	12266.79
253.699	12254.45
253.77	12241.67
253.841	12209.23
253.911	12192.7
253.982	12177.08
254.052	12169.61
254.123	12163.39
254.193	12144.35
254.264	12160.74
254.334	12126.85
254.405	12091.57
254.475	12065.78
254.546	12044.14
254.616	12036.77
254.687	12024.57
254.757	12010.54
254.827	11980.13
254.898	11963.4
254.968	11941.23
255.039	11909.47
255.109	11900.22
255.18	11867.1
255.25	11825.89
255.321	11826.18
255.391	11796.44
255.461	11803.81
255.532	11758.02
255.602	11734.94
255.673	11695.08
255.743	11664.81
255.813	11618.25
255.884	11613.53
255.954	11602.34
256.024	11601.14
256.095	11580.41
256.165	11541.08
256.235	11526.33
256.306	11510.86
256.376	11508.74
256.446	11513.23
256.517	11505.08
256.587	11508.31
256.657	11499.3
256.728	11487.06
256.798	11464.31
256.868	11438.52
256.938	11407.97
257.009	11396.74
257.079	11379.48
257.149	11392.69
257.219	11356.97
257.29	11350.61
257.36	11311.34
257.43	11303.91
257.5	11262.08
257.571	11238.9
257.641	11240.16
257.711	11207.48
257.781	11188.83
257.852	11177.6
257.922	11133.17
257.992	11111.72
258.062	11080.83
258.132	11069.6
258.202	11048.06
258.273	11026.76
258.343	11030.66
258.413	11010.13
258.483	10996.88
258.553	10973.99
258.623	10946.28
258.693	10933.17
258.764	10931.73
258.834	10934.38
258.904	10916.26
258.974	10894.81
259.044	10880.94
259.114	10856.75
259.184	10846.43
259.254	10837.47
259.324	10805.14
259.394	10798.87
259.464	10801.57
259.535	10781.81
259.605	10756.66
259.675	10738.16
259.745	10726.78
259.815	10695.22
259.885	10668.87
259.955	10678.02
260.025	10649.02
260.095	10630.9
260.165	10624.35
260.235	10628.11
260.305	10606.09
260.375	10576.55
260.445	10583.1
260.515	10583.39
260.585	10581.71
260.655	10571.3
260.725	10562.63
260.795	10549.47
260.865	10555.88
260.934	10527.93
261.004	10518.39
261.074	10508.76
261.144	10512.08
261.214	10510.44
261.284	10497.34
261.354	10503.75
261.424	10474.3
261.494	10489.72
261.564	10483.07
261.634	10473.77
261.703	10435.9
261.773	10426.27
261.843	10419.14
261.913	10403.33
261.983	10373.46
262.053	10364.36
262.123	10346.05
262.192	10320.08
262.262	10319.65
262.332	10284.62
262.402	10280.96
262.472	10268.72
262.541	10235.92
262.611	10224.94
262.681	10197.86
262.751	10191.74
262.821	10163.75
262.89	10134.41
262.96	10119.34
263.03	10122.51
263.1	10106.23
263.169	10092.89
263.239	10086.53
263.309	10089.37
263.379	10080.36
263.448	10067.21
263.518	10060.13
263.588	10046.69
263.657	10049.97
263.727	10041.58
263.797	10026.89
263.867	10011.91
263.936	9983.59
264.006	9982.48
264.076	9965.77
264.145	9947.41
264.215	9928.39
264.285	9927.23
264.354	9901.9
264.424	9882.73
264.494	9846.26
264.563	9828.34
264.633	9842.41
264.702	9838.84
264.772	9809.27
264.842	9792.55
264.911	9786.63
264.981	9755.85
265.05	9740.63
265.12	9715.3
265.19	9704.65
265.259	9702.39
265.329	9698.87
265.398	9687.17
265.468	9704.94
265.537	9688.18
265.607	9685.34
265.676	9682.69
265.746	9671.28
265.815	9673.16
265.885	9661.02
265.955	9643.88
266.024	9626.1
266.094	9588.97
266.163	9586.56
266.232	9588.01
266.302	9572.89
266.371	9558.73
266.441	9550.78
266.51	9549.48
266.58	9536.77
266.649	9513.89
266.719	9511
266.788	9499.01
266.858	9504.26
266.927	9461.49
266.996	9449.6
267.066	9444.35
267.135	9419.46
267.205	9418.49
267.274	9408.14
267.343	9402.41
267.413	9389.75
267.482	9392.16
267.552	9398.51
267.621	9367.84
267.69	9342.31
267.76	9336.49
267.829	9336.1
267.898	9327.63
267.968	9305.82
268.037	9309.09
268.106	9306.49
268.176	9285.45
268.245	9272.01
268.314	9259.44
268.384	9260.89
268.453	9256.84
268.522	9242.93
268.592	9248.37
268.661	9227.9
268.73	9224.63
268.799	9210.67
268.869	9220.87
268.938	9194.49
269.007	9172.63
269.076	9166.13
269.146	9162.9
269.215	9157.13
269.284	9158.28
269.353	9141.96
269.422	9129.73
269.492	9109.66
269.561	9072.73
269.63	9071.1
269.699	9055.11
269.768	9042.21
269.838	9030.32
269.907	9021.7
269.976	9002.88
270.045	8967.79
270.114	8965.86
270.183	8952.96
270.253	8946.94
270.322	8923.35
270.391	8916.66
270.46	8918.01
270.529	8912.91
270.598	8908.24
270.667	8894.57
270.736	8872.03
270.806	8865.39
270.875	8868.91
270.944	8860.24
271.013	8880.12
271.082	8872.27
271.151	8872.42
271.22	8846.72
271.289	8839.79
271.358	8831.89
271.427	8828.52
271.496	8825.64
271.565	8810.62
271.634	8801.66
271.703	8829.45
271.772	8831.23
271.841	8821.31
271.91	8806.2
271.979	8800.37
272.048	8776.26
272.117	8772.89
272.186	8763.02
272.255	8763.55
272.324	8755.8
272.393	8752.53
272.462	8735.58
272.531	8729.28
272.6	8717.34
272.669	8727.59
272.738	8715.9
272.807	8708.15
272.876	8685.1
272.945	8712.63
273.013	8713.74
273.082	8721.73
273.151	8674.02
273.22	8671.8
273.289	8666.9
273.358	8672.58
273.427	8657.42
273.496	8657.08
273.564	8654.96
273.633	8655.25
273.702	8639.7
273.771	8635.9
273.84	8629.93
273.909	8630.7
273.977	8625.55
274.046	8621.51
274.115	8621.95
274.184	8615.83
274.253	8611.36
274.322	8626.52
274.39	8591.77
274.459	8578.82
274.528	8549.18
274.597	8540.32
274.665	8533.39
274.734	8536.91
274.803	8527.47
274.872	8523
274.94	8519.29
275.009	8579.82
275.078	8565.81
275.147	8563.89
275.215	8557.3
275.284	8559.89
275.353	8552.19
275.421	8526.79
275.49	8531.94
275.559	8520.39
275.627	8506.48
275.696	8493.06
275.765	8486.8
275.833	8481.08
275.902	8484.4
275.971	8491.76
276.039	8513.32
276.108	8515
276.177	8517.51
276.245	8505.57
276.314	8500.76
276.383	8502.59
276.451	8432.87
276.52	8434.36
276.588	8446.83
276.657	8453.08
276.725	8445.67
276.794	8444.13
276.863	8456.93
276.931	8437.63
277	8449.71
277.068	8461.69
277.137	8484.36
277.205	8484.55
277.274	8504.33
277.342	8511.35
277.411	8493.79
277.48	8481.57
277.548	8475.12
277.617	8472.86
277.685	8470.26
277.754	8478.87
277.822	8469.1
277.89	8486
277.959	8479.79
278.027	8457.46
278.096	8445.53
278.164	8480.23
278.233	8473.45
278.301	8461.75
278.37	8464.3
278.438	8444
278.507	8445.87
278.575	8419.07
278.643	8414.98
278.712	8397.61
278.78	8383.75
278.849	8394.67
278.917	8401.65
278.985	8395.64
279.054	8397.56
279.122	8404.54
279.191	8400.88
279.259	8398.33
279.327	8373.35
279.396	8395.59
279.464	8390.78
279.532	8399.44
279.601	8389.86
279.669	8380.09
279.737	8397.8
279.806	8401.89
279.874	8418.68
279.942	8416.08
280.011	8412.67
280.079	8422.29
280.147	8437.54
280.215	8440.82
280.284	8436.44
280.352	8423.83
280.42	8427.82
280.488	8421.14
280.557	8414.93
280.625	8412.33
280.693	8408.96
280.761	8416.37
280.83	8393.27
280.898	8406.65
280.966	8391.49
281.034	8353.76
281.102	8347.85
281.171	8339.57
281.239	8349
281.307	8336.2
281.375	8328.79
281.443	8355.64
281.512	8348.62
281.58	8355.88
281.648	8340.44
281.716	8345.78
281.784	8344.48
281.852	8346.07
281.92	8346.84
281.989	8355.45
282.057	8339.43
282.125	8388.38
282.193	8388.18
282.261	8390.35
282.329	8388.23
282.397	8391.22
282.465	8397.76
282.533	8413.06
282.601	8401.46
282.67	8377.64
282.738	8370.09
282.806	8379.47
282.874	8365.66
282.942	8366.43
283.01	8362.53
283.078	8369.65
283.146	8362.63
283.214	8364.41
283.282	8363.16
283.35	8369.51
283.418	8362.96
283.486	8378.22
283.554	8340.82
283.622	8336.92
283.69	8338.27
283.758	8338.07
283.826	8341.97
283.894	8353.86
283.962	8370.94
284.03	8388.74
284.098	8390.33
284.165	8384.99
284.233	8385.81
284.301	8386
284.369	8378.59
284.437	8365.84
284.505	8366.9
284.573	8388.31
284.641	8379.55
284.709	8388.17
284.777	8372.62
284.845	8378.69
284.912	8381.86
284.98	8381.91
285.048	8377.92
285.116	8377.63
285.184	8385.28
285.252	8381.38
285.319	8368.15
285.387	8354.53
285.455	8331.87
285.523	8344.77
285.591	8343.56
285.659	8347.99
285.726	8358.19
285.794	8345.73
285.862	8347.13
285.93	8346.02
285.997	8342.36
286.065	8343.42
286.133	8332.74
286.201	8333.27
286.269	8319.22
286.336	8306.18
286.404	8303.34
286.472	8317.54
286.539	8298.05
286.607	8281.12
286.675	8280.59
286.743	8289.54
286.81	8287.76
286.878	8304.55
286.946	8294.3
287.013	8298.05
287.081	8293.57
287.149	8277.5
287.216	8302.38
287.284	8296.17
287.352	8295.16
287.419	8284.81
287.487	8302.28
287.555	8305.79
287.622	8302.14
287.69	8310.46
287.758	8322.63
287.825	8316.19
287.893	8296.75
287.96	8305.45
288.028	8315.94
288.096	8316.81
288.163	8314.02
288.231	8299.25
288.298	8299.92
288.366	8313.68
288.433	8306.13
288.501	8299.83
288.569	8304.74
288.636	8297.76
288.704	8309.98
288.771	8317.97
288.839	8309.69
288.906	8299.78
288.974	8307.86
289.041	8303.25
289.109	8292.71
289.176	8300.79
289.244	8304.02
289.311	8319.08
289.379	8328.79
289.446	8331.97
289.514	8331.54
289.581	8333.61
289.649	8350.01
289.716	8351.46
289.783	8342.84
289.851	8368.49
289.918	8362.95
289.986	8371.71
290.053	8372.58
290.121	8371.37
290.188	8366.37
290.255	8400.2
290.323	8389.52
290.39	8384.8
290.458	8395.96
290.525	8414.3
290.592	8410.11
290.66	8412.37
290.727	8409.72
290.794	8424.69
290.862	8424.74
290.929	8432.77
290.996	8430.8
291.064	8431.81
291.131	8444.03
291.198	8451.54
291.266	8449.28
291.333	8457.22
291.4	8458.95
291.468	8476.23
291.535	8471.13
291.602	8483.78
291.669	8471.75
291.737	8486.86
291.804	8487.72
291.871	8506.73
291.938	8512.41
292.006	8536.09
292.073	8553.32
292.14	8562.56
292.207	8553.8
292.275	8555.53
292.342	8560.87
292.409	8586.81
292.476	8614.78
292.543	8605.73
292.611	8607.75
292.678	8624.6
292.745	8649.19
292.812	8663.39
292.879	8663.96
292.946	8674.36
293.014	8688.46
293.081	8701.02
293.148	8713.15
293.215	8727.35
293.282	8712.77
293.349	8725.38
293.416	8709.78
293.484	8718.88
293.551	8729.56
293.618	8747.61
293.685	8773.12
293.752	8771.15
293.819	8772.93
293.886	8756.51
293.953	8762.53
294.02	8771.14
294.087	8776.68
294.154	8770.13
294.221	8785.59
294.288	8779.72
294.356	8793.48
294.423	8797.38
294.49	8789.58
294.557	8804.89
294.624	8801.28
294.691	8825.54
294.758	8822.41
294.825	8833.82
294.892	8823.95
294.959	8827.99
295.026	8839.26
295.093	8830.5
295.16	8835.41
295.226	8837.76
295.293	8862.03
295.36	8871.03
295.427	8886.86
295.494	8896.83
295.561	8906.36
295.628	8925.43
295.695	8944.01
295.762	8946.18
295.829	8956.14
295.896	8971.01
295.963	8978.77
296.03	8987.38
296.096	8994.7
296.163	9009.53
296.23	9023.49
296.297	9041.35
296.364	9032.83
296.431	9031.38
296.498	9030.18
296.564	9050.97
296.631	9051.36
296.698	9040.19
296.765	9058.58
296.832	9052.95
296.899	9041.25
296.965	9055.31
297.032	9035.37
297.099	9046.4
297.166	9059.68
297.233	9049.62
297.299	9037.83
297.366	9037.25
297.433	9039.85
297.5	9048.23
297.566	9042.55
297.633	9036.96
297.7	9046.11
297.767	9049.09
297.833	9053.62
297.9	9057.76
297.967	9042.06
298.033	9052.85
298.1	9084.2
298.167	9076.97
298.234	9079.19
298.3	9090.36
298.367	9092.19
298.434	9093.87
298.5	9088.05
298.567	9082.17
298.634	9083.38
298.7	9106.68
298.767	9105.33
298.834	9121.5
298.9	9115.87
298.967	9113.51
299.033	9123.19
299.1	9136.34
299.167	9151.02
299.233	9150.01
299.3	9162.04
299.366	9181.83
299.433	9197.77
299.5	9168.73
299.566	9174.36
299.633	9188.09
299.699	9194.3
299.766	9187.85
299.832	9197.96
299.899	9207.73
299.965	9220.35
300.032	9221.89
300.099	9224.53
300.165	9228.34
300.232	9216.01
300.298	9219.86
300.365	9231.23
300.431	9233.59
300.498	9218.37
300.564	9228.39
300.631	9239.94
300.697	9258.14
300.763	9257.9
300.83	9252.65
300.896	9260.16
300.963	9271.43
301.029	9276.78
301.096	9286.26
301.162	9297.82
301.229	9290.55
301.295	9279.42
301.361	9283.66
301.428	9285.35
301.494	9271.24
301.561	9270.66
301.627	9278.32
301.693	9282.12
301.76	9286.26
301.826	9281.88
301.892	9303.02
301.959	9311.93
302.025	9315.2
302.092	9304.95
302.158	9311.35
302.224	9314.09
302.291	9307.07
302.357	9306.97
302.423	9301.91
302.49	9295.27
302.556	9311.11
302.622	9308.03
302.688	9318.48
302.755	9330.32
302.821	9340.68
302.887	9354.69
302.954	9360.99
303.02	9373.95
303.086	9381.7
303.152	9376.98
303.219	9373.27
303.285	9373.32
303.351	9372.55
303.417	9372.5
303.483	9367.3
303.55	9366.87
303.616	9364.8
303.682	9371.06
303.748	9359.21
303.815	9376.02
303.881	9380.88
303.947	9364.17
304.013	9372.02
304.079	9361.24
304.145	9339.57
304.212	9342.65
304.278	9331.62
304.344	9328.2
304.41	9312.51
304.476	9296.18
304.542	9294.59
304.608	9306.1
304.674	9293.29
304.741	9290.35
304.807	9290.35
304.873	9292.76
304.939	9305.62
305.005	9279.86
305.071	9276.97
305.137	9282.99
305.203	9254.53
305.269	9254.29
305.335	9260.07
305.401	9252.17
305.467	9255.35
305.533	9261.18
305.599	9267.24
305.666	9278.94
305.732	9272.64
305.798	9286.99
305.864	9316.84
305.93	9323.05
305.996	9322.96
306.062	9317.08
306.128	9315.73
306.194	9303.46
306.259	9306.83
306.325	9297.05
306.391	9317.18
306.457	9323.72
306.523	9318.23
306.589	9346.74
306.655	9334.37
306.721	9327.72
306.787	9317.13
306.853	9338.41
306.919	9326.86
306.985	9314.05
307.051	9308.37
307.117	9312.27
307.183	9304.76
307.248	9273.75
307.314	9273.65
307.38	9270.13
307.446	9275.67
307.512	9265.99
307.578	9273.02
307.644	9262.04
307.709	9259.44
307.775	9257.23
307.841	9249.24
307.907	9254.2
307.973	9232.53
308.039	9236.23
308.104	9240.9
308.17	9241.67
308.236	9225.93
308.302	9228.48
308.368	9222.89
308.433	9220.15
308.499	9212.3
308.565	9199.21
308.631	9204.07
308.696	9181.15
308.762	9169.31
308.828	9170.32
308.894	9151.21
308.959	9126.03
309.025	9119.38
309.091	9113.17
309.156	9097.86
309.222	9101.86
309.288	9088.43
309.354	9070.33
309.419	9064.84
309.485	9046.16
309.551	9054.15
309.616	9034.17
309.682	9027.86
309.748	9013.95
309.813	9011.78
309.879	8997.24
309.945	8990.65
310.01	8981.84
310.076	8985.55
310.141	8978.47
310.207	8961.47
310.273	8964.84
310.338	8967.92
310.404	8957.38
310.469	8946.45
310.535	8944.38
310.601	8922.19
310.666	8931.34
310.732	8941.83
310.797	8932.35
310.863	8920.12
310.928	8915.64
310.994	8920.07
311.059	8915.64
311.125	8915.74
311.191	8917.76
311.256	8911.12
311.322	8913.09
311.387	8891.34
311.453	9322.62
311.518	9296.15
311.584	9295.72
311.649	9300.38
311.715	9291
311.78	9288.74
311.846	9279.45
311.911	9280.31
311.976	9286.76
312.042	9264.86
312.107	9245.75
312.173	9242.24
312.238	9239.01
312.304	9228.81
312.369	9217.06
312.434	9210.23
312.5	9205.51
312.565	9179.71
312.631	9184.76
312.696	9173.31
312.761	9185.1
312.827	8745.54
312.892	8790.06
312.958	8781.25
313.023	8775.52
313.088	8777.35
313.154	8767.44
313.219	8757.24
313.284	8747.85
313.35	8745.59
313.415	8735.63
313.48	8735.19
313.546	8731.87
313.611	8746.36
313.676	8735.29
313.741	8730.28
313.807	8732.26
313.872	8729.47
313.937	8734.57
314.003	8745.64
314.068	8748.53
314.133	8746.46
314.198	8738.66
314.264	8712.62
314.329	8701.11
314.394	8697.84
314.459	8689.85
314.525	8704.82
314.59	8704.24
314.655	8695.96
314.72	8698.75
314.785	8706.17
314.851	8695.1
314.916	8682.68
314.981	8663.28
315.046	8650.92
315.111	8639.66
315.176	8634.94
315.242	8636.53
315.307	8637.35
315.372	8613.81
315.437	8603.8
315.502	8598.41
315.567	8608.71
315.632	8597.35
315.698	8604.38
315.763	8601.3
315.828	8597.64
315.893	8589.02
315.958	8589.12
316.023	8579.01
316.088	8558.03
316.153	8539.46
316.218	8534.36
316.283	8515.93
316.348	8502.31
316.413	8510.49
316.479	8496.06
316.544	8462.47
316.609	8440.92
316.674	8404.54
316.739	8374.76
316.804	8351.77
316.869	8315.1
316.934	8274.25
316.999	8245.77
317.064	8193.91
317.129	8151.14
317.194	8112.23
317.259	8073.12
317.324	8019.06
317.389	7976.54
317.454	7936.52
317.518	7902.81
317.583	7883.28
317.648	7855.72
317.713	7818.74
317.778	7753.62
317.843	7724.09
317.908	7682.27
317.973	7641.82
318.038	7613.22
318.103	7579.85
318.168	7542.73
318.233	7516.96
318.297	7476.48
318.362	7435.52
318.427	7402.51
318.492	7378.9
318.557	7339.44
318.622	7310.98
318.687	7287.87
318.751	7250.82
318.816	7224.39
318.881	7188.68
318.946	7134.66
319.011	7098.57
319.075	7055.96
319.14	7028.33
319.205	6988.41
319.27	6957.9
319.335	6915.29
319.399	6875.57
319.464	6845.98
319.529	6798.42
319.594	6759.75
319.658	6725.27
319.723	6687.14
319.788	6659.14
319.853	6606.02
319.917	6576.4
319.982	6526.45
320.047	6492.03
320.112	6465.67
320.176	6416.99
320.241	6385.2
320.306	6356.35
320.37	6313.92
320.435	6284.98
320.5	6258.82
320.564	6221.62
320.629	6187.31
320.694	6156.74
320.758	6122.62
320.823	6081.36
320.888	6052.57
320.952	6004.55
321.017	5966.84
321.082	5928.71
321.146	5891.43
321.211	5859.25
321.275	5820.79
321.34	5776.38
321.405	5734.09
321.469	5689.59
321.534	5649.61
321.598	5602.57
321.663	5574.85
321.727	5548.29
321.792	5504.76
321.857	5461.42
321.921	5423.7
321.986	5378.56
322.05	5323.31
322.115	5284.45
322.179	5240.99
322.244	5186.62
322.308	5160.85
322.373	5117.2
322.437	5078.22
322.502	5051.72
322.566	5005.07
322.631	4966.9
322.695	4931.9
322.76	4890.58
322.824	4859.37
322.889	4818.87
322.953	4772.11
323.018	4705.04
323.082	4638.13
323.146	4589.9
323.211	4537.22
323.275	4496.25
323.34	4452.63
323.404	4419.87
323.468	4374.42
323.533	4330.8
323.597	4287.78
323.662	4231.29
323.726	4194.95
323.79	4152.3
323.855	4093.85
323.919	4049.63
323.983	4010.57
324.048	3942.88
324.112	4074.38
324.177	3947.97
324.241	3742.5
324.305	3543.48
324.37	3345.8
324.434	3158.44
324.498	3114.22
324.562	3066.25
324.627	3003.36
324.691	2950.72
324.755	2886.73
324.82	2811.67
324.884	2738.36
324.948	2669.12
325.012	2576.06
325.077	2453.76
