Data from 20250704_urea_0.5M_MAYP1162681_11-05-08-767.txt Node
Date: Fri Jul 04 11:05:08 BST 2025
User: adleo
Spectrometer: MAYP116268
Trigger mode: 0
Integration Time (sec): 1.000000E0
Scans to average: 1
Electric dark correction enabled: true
Nonlinearity correction enabled: true
Boxcar width: 10
XAxis mode: Wavelengths
Number of Pixels in Spectrum: 2068
>>>>>Begin Spectral Data<<<<<
179.565	1236.37
179.642	1292.98
179.718	1342.71
179.795	1383.92
179.871	1420.1
179.948	1438.16
180.024	1462.02
180.101	1485.22
180.177	1499.68
180.254	1520.93
180.33	1543.67
180.407	1600.84
180.483	1696.71
180.56	1789.98
180.636	1876.2
180.712	1863.74
180.789	1877.19
180.865	1891.31
180.942	1903.57
181.018	1913.55
181.095	1927.34
181.171	1928.96
181.248	1932.19
181.324	1943.18
181.4	1950.07
181.477	1960.2
181.553	1972.7
181.63	1992.3
181.706	2008.42
181.782	2015.26
181.859	2016.07
181.935	2020.73
182.011	2015.22
182.088	2033.81
182.164	2053.32
182.24	2068.3
182.317	2077.76
182.393	2074.53
182.469	2087.37
182.546	2099.64
182.622	2105.92
182.698	2101.26
182.775	2116.14
182.851	2133.79
182.927	2128.42
183.003	2125.33
183.08	2120.24
183.156	2130.08
183.232	2121.47
183.308	2109.68
183.385	2121.42
183.461	2139.21
183.537	2139.88
183.613	2155.29
183.69	2146.63
183.766	2133.07
183.842	2136.31
183.918	2142.82
183.995	2155.57
184.071	2158.67
184.147	2151.81
184.223	2138.64
184.299	2152.06
184.375	2137.93
184.452	2139.93
184.528	2187.99
184.604	2197.02
184.68	2206.92
184.756	2214.91
184.832	2225.09
184.908	2231.04
184.985	2230.23
185.061	2212.91
185.137	2222.67
185.213	2209.82
185.289	2210.96
185.365	2206.21
185.441	2209.44
185.517	2219.77
185.593	2217.87
185.669	2214.3
185.745	2226.34
185.822	2242.56
185.898	2232.99
185.974	2245.07
186.05	2236.7
186.126	2202.96
186.202	2197.4
186.278	2193.02
186.354	2183.69
186.43	2188.74
186.506	2187.27
186.582	2184.32
186.658	2192.97
186.734	2171.76
186.81	2173.99
186.886	2176.66
186.962	2189.12
187.038	2187.69
187.114	2181.22
187.19	2187.26
187.266	2176.51
187.341	2176.42
187.417	2168.33
187.493	2169.05
187.569	2173.71
187.645	2168.05
187.721	2155.87
187.797	2160.62
187.873	2166.71
187.949	2159.58
188.025	2154.06
188.101	2156.58
188.176	2163.62
188.252	2159.48
188.328	2169.85
188.404	2169.04
188.48	2166.23
188.556	2159.09
188.632	2152.77
188.707	2154.05
188.783	2152.67
188.859	2149.92
188.935	2137.73
189.011	2147.06
189.086	2142.35
189.162	2131.03
189.238	2126.94
189.314	2124.03
189.39	2121.7
189.465	2111.71
189.541	2129.27
189.617	2113.48
189.693	2107.34
189.768	2107.29
189.844	2132.71
189.92	2124.39
189.996	2133.9
190.071	2145.32
190.147	2145.51
190.223	2157.69
190.298	2152.17
190.374	2138.8
190.45	2149.93
190.526	2159.35
190.601	2155.02
190.677	2157.54
190.753	2187.63
190.828	2192.43
190.904	2208.56
190.98	2222.55
191.055	2237.01
191.131	2227.93
191.207	2247.76
191.282	2259.42
191.358	2252.61
191.433	2237.48
191.509	2254.08
191.585	2250.65
191.66	2253.08
191.736	2261.21
191.811	2252.51
191.887	2267.21
191.963	2291.39
192.038	2300.1
192.114	2297.53
192.189	2300.62
192.265	2295.29
192.34	2268.97
192.416	2268.4
192.491	2264.59
192.567	2267.73
192.642	2267.4
192.718	2268.16
192.793	2256.07
192.869	2251.17
192.944	2254.07
193.02	2263.69
193.095	2263.97
193.171	2269.49
193.246	2264.54
193.322	2259.5
193.397	2261.88
193.473	2247.26
193.548	2227.75
193.624	2230.7
193.699	2234.51
193.775	2251.88
193.85	2253.88
193.925	2267.3
194.001	2267.3
194.076	2260.74
194.152	2247.93
194.227	2241.98
194.302	2231.42
194.378	2237.47
194.453	2233.04
194.529	2246.32
194.604	2228.09
194.679	2222.19
194.755	2205.21
194.83	2221.49
194.905	2220.07
194.981	2226.25
195.056	2218.88
195.131	2223.21
195.207	2221.64
195.282	2208.79
195.357	2187.61
195.433	2203.26
195.508	2190.99
195.583	2199.41
195.659	2212.4
195.734	2220.82
195.809	2219.78
195.884	2230.43
195.96	2230.24
196.035	2247.56
196.11	2242.8
196.185	2255.03
196.261	2260.69
196.336	2293.19
196.411	2275.39
196.486	2281.48
196.561	2275.91
196.637	2284.95
196.712	2300.09
196.787	2302.8
196.862	2322.17
196.937	2334.83
197.013	2339.25
197.088	2348.25
197.163	2369.87
197.238	2385.87
197.313	2386.25
197.388	2400.15
197.464	2429.67
197.539	2437.34
197.614	2430.1
197.689	2443.34
197.764	2459.05
197.839	2479.05
197.914	2469.24
197.989	2494.05
198.065	2508.95
198.14	2560.03
198.215	2586.22
198.29	2601.85
198.365	2615.37
198.44	2622.66
198.515	2649.29
198.59	2665.77
198.665	2694.4
198.74	2701.6
198.815	2706.98
198.89	2726.89
198.965	2758.35
199.04	2752.82
199.115	2772.35
199.19	2816.32
199.265	2818.99
199.34	2832.33
199.415	2865.14
199.49	2890.58
199.565	2899.68
199.64	2922.7
199.715	2920.6
199.79	2928.09
199.865	2935.86
199.94	2936.81
200.015	2969.75
200.09	2977.19
200.165	2985.63
200.24	2994.16
200.315	3039.59
200.39	3052.8
200.464	3063.76
200.539	3066.82
200.614	3086.41
200.689	3109.01
200.764	3115.69
200.839	3135.04
200.914	3138.76
200.989	3127.69
201.063	3139.71
201.138	3121.6
201.213	3122.22
201.288	3102.39
201.363	3109.25
201.438	3104.91
201.512	3122.55
201.587	3107.15
201.662	3112.44
201.737	3123.22
201.812	3126.94
201.886	3090.09
201.961	3100.59
202.036	3086.52
202.111	3079.04
202.186	3051.39
202.26	3034.13
202.335	3010.14
202.41	3000.42
202.485	2983.5
202.559	2961.76
202.634	2935.4
202.709	2945.4
202.784	2922.57
202.858	2922.43
202.933	2901.27
203.008	2899.46
203.082	2876.15
203.157	2872.72
203.232	2827.4
203.306	2807.76
203.381	2774.73
203.456	2751.9
203.53	2728.67
203.605	2708.96
203.68	2689.99
203.754	2683.66
203.829	2669.22
203.904	2650.21
203.978	2641.45
204.053	2645.73
204.127	2635.49
204.202	2633.73
204.277	2615.16
204.351	2613.78
204.426	2608.39
204.5	2602.91
204.575	2566.68
204.65	2577.63
204.724	2571.63
204.799	2579.67
204.873	2573.62
204.948	2575.86
205.022	2562.48
205.097	2555.38
205.171	2571.05
205.246	2576.72
205.32	2572.34
205.395	2570.15
205.469	2561.58
205.544	2564.2
205.618	2547.91
205.693	2559.96
205.767	2547.25
205.842	2569.78
205.916	2561.45
205.991	2552.21
206.065	2555.06
206.14	2570.24
206.214	2565.29
206.289	2557.81
206.363	2572
206.438	2577.91
206.512	2586.1
206.586	2609.01
206.661	2614.73
206.735	2594.64
206.81	2596.3
206.884	2614.3
206.958	2608.02
207.033	2630.4
207.107	2644.6
207.181	2679.24
207.256	2677.1
207.33	2701.3
207.405	2720.47
207.479	2747.72
207.553	2759.82
207.628	2751.15
207.702	2775.4
207.776	2777.35
207.851	2792.46
207.925	2818.83
207.999	2828.88
208.073	2840.47
208.148	2856.06
208.222	2862.44
208.296	2914.15
208.371	2951.36
208.445	2988.55
208.519	3040.52
208.593	3078.58
208.668	3102.29
208.742	3135.51
208.816	3170.66
208.89	3222.63
208.965	3258.45
209.039	3304.46
209.113	3364.84
209.187	3434.71
209.261	3477.38
209.336	3552.96
209.41	3627.9
209.484	3686.29
209.558	3770.23
209.632	3851.21
209.707	3929.62
209.781	4029.09
209.855	4119.85
209.929	4218.62
210.003	4304.86
210.077	4390.34
210.151	4531.55
210.226	4658.04
210.3	4785.84
210.374	4909.18
210.448	5016.13
210.522	5133.9
210.596	5261.4
210.67	5390.07
210.744	5553.92
210.818	5710.55
210.892	5856.5
210.966	5981.29
211.041	6133.96
211.115	6266.2
211.189	6424.73
211.263	6585.48
211.337	6736.12
211.411	6899.58
211.485	7046.96
211.559	7216.35
211.633	7381.42
211.707	7510.05
211.781	7688.19
211.855	7817.51
211.929	7977.08
212.003	8132.39
212.077	8317.43
212.151	8507.02
212.225	8697.63
212.299	8871.04
212.373	9039.74
212.447	9217.2
212.52	9431.29
212.594	9613.56
212.668	9811.47
212.742	9989.86
212.816	10172.02
212.89	10355.06
212.964	10546
213.038	10742.24
213.112	10947.02
213.186	11155.17
213.26	11323.91
213.333	11462.08
213.407	11662.02
213.481	11867.31
213.555	12075.8
213.629	12264.69
213.703	12439.18
213.777	12625.24
213.85	12802.29
213.924	13035.59
213.998	13228.54
214.072	13413.99
214.146	13593.98
214.219	13778.89
214.293	13962.74
214.367	14155.95
214.441	14347.85
214.515	14527.45
214.588	14681.27
214.662	14825.93
214.736	14986.69
214.81	15175.84
214.883	15365.37
214.957	15534.18
215.031	15690.35
215.105	15829.22
215.178	15973.24
215.252	16129.36
215.326	16271.93
215.4	16411.94
215.473	16518.16
215.547	16658.17
215.621	16800.25
215.694	16962.67
215.768	17093.86
215.842	17231.26
215.915	17360.18
215.989	17476.37
216.063	17604.85
216.136	17744.95
216.21	17879.89
216.284	18015.21
216.357	18144.07
216.431	18268.94
216.504	18389.17
216.578	18537.99
216.652	18684.68
216.725	18812.68
216.799	18945.83
216.873	19062.11
216.946	19188.51
217.02	19287.59
217.093	19404.36
217.167	19487.2
217.24	19574.13
217.314	19672.2
217.387	19758.51
217.461	19847.28
217.535	19966.84
217.608	20046.5
217.682	20140.71
217.755	20248.04
217.829	20325.72
217.902	20419.17
217.976	20504.66
218.049	20586.98
218.123	20657.83
218.196	20735.76
218.27	20798.12
218.343	20850.7
218.417	20932.63
218.49	21008.06
218.563	21098.19
218.637	21161.13
218.71	21250.25
218.784	21328
218.857	21406.03
218.931	21480.69
219.004	21555.39
219.077	21623.36
219.151	21695.56
219.224	21751.09
219.298	21811.49
219.371	21896.62
219.444	21931.76
219.518	21988.97
219.591	22044.26
219.665	22115.18
219.738	22169.46
219.811	22226.05
219.885	22286.5
219.958	22345.65
220.031	22387.64
220.105	22444.91
220.178	22499.87
220.251	22543.4
220.325	22594.08
220.398	22638.57
220.471	22686.01
220.544	22728.82
220.618	22753.17
220.691	22788.75
220.764	22834.31
220.838	22868.35
220.911	22884.55
220.984	22942.5
221.057	22980.5
221.131	23022.25
221.204	23030.5
221.277	23083.2
221.35	23142.03
221.424	23157.02
221.497	23176.21
221.57	23197.43
221.643	23223.03
221.716	23244.2
221.79	23258.33
221.863	23268.84
221.936	23286.2
222.009	23309.35
222.082	23333.22
222.155	23349.75
222.229	23381.39
222.302	23407.91
222.375	23410.61
222.448	23433.28
222.521	23443.16
222.594	23460.14
222.667	23454.93
222.74	23470.55
222.814	23467.51
222.887	23454.78
222.96	23478.27
223.033	23491.29
223.106	23495.24
223.179	23501.46
223.252	23510
223.325	23511.49
223.398	23504.07
223.471	23508.5
223.544	23505.46
223.617	23503.39
223.69	23500.79
223.763	23476.96
223.837	23459.41
223.91	23467.95
223.983	23447.36
224.056	23434.05
224.129	23420.59
224.202	23431.3
224.275	23414.76
224.348	23385.15
224.42	23369.57
224.493	23347.78
224.566	23328.25
224.639	23326.27
224.712	23308.38
224.785	23272.12
224.858	23265.32
224.931	23252.11
225.004	23227.42
225.077	23217.19
225.15	23175.2
225.223	23159.09
225.296	23174.48
225.369	23146.46
225.442	23117.19
225.514	23095.49
225.587	23078.76
225.66	23062.47
225.733	23041.2
225.806	23025.92
225.879	23006.68
225.952	22975.92
226.025	22968.44
226.097	22967.48
226.17	22948.19
226.243	22914.1
226.316	22904.08
226.389	22884.02
226.461	22870.08
226.534	22854.85
226.607	22826.64
226.68	22837.93
226.753	22822.3
226.825	22777.99
226.898	22768.54
226.971	22744.63
227.044	22731.37
227.117	22716.09
227.189	22702.88
227.262	22697.86
227.335	22683.25
227.407	22662.77
227.48	22646.52
227.553	22623.38
227.626	22583.26
227.698	22558.77
227.771	22542.14
227.844	22515.58
227.916	22496.73
227.989	22464.62
228.062	22448.71
228.134	22450.2
228.207	22415.2
228.28	22374.85
228.352	22339.08
228.425	22313.73
228.498	22299.41
228.57	22262.73
228.643	22246.43
228.716	22225.99
228.788	22177.45
228.861	22141.48
228.934	22130.88
229.006	22106.68
229.079	22076.84
229.151	22052.98
229.224	22003.23
229.296	21982.22
229.369	21988.1
229.442	21969.49
229.514	21939.27
229.587	21906.68
229.659	21851.63
229.732	21833.51
229.804	21828.49
229.877	21837.99
229.949	21824.69
230.022	21829.94
230.094	21808.83
230.167	21782.17
230.239	21730.16
230.312	21705.1
230.384	21707.85
230.457	21687.8
230.529	21664.95
230.602	21637.67
230.674	21609.61
230.747	21604.31
230.819	21585.51
230.892	21523.38
230.964	21489.98
231.037	21459.76
231.109	21442.46
231.181	21434.79
231.254	21392.04
231.326	21362.3
231.399	21326.97
231.471	21293.14
231.544	21232.5
231.616	21216.07
231.688	21182.04
231.761	21156.69
231.833	21128.49
231.905	21070.03
231.978	21040.39
232.05	21002.94
232.122	20977.01
232.195	20947.08
232.267	20933.68
232.339	20906.21
232.412	20892.09
232.484	20858.88
232.556	20832.04
232.629	20821.63
232.701	20791.12
232.773	20767.7
232.846	20730.11
232.918	20697.91
232.99	20670.1
233.062	20651.89
233.135	20622.87
233.207	20582.39
233.279	20567.5
233.351	20541.57
233.424	20510.97
233.496	20465.47
233.568	20460.51
233.64	20420.46
233.713	20390.58
233.785	20346.54
233.857	20315.4
233.929	20266.92
234.001	20247.98
234.074	20235.12
234.146	20170.92
234.218	20136.61
234.29	20097.33
234.362	20058.49
234.434	20008.71
234.507	19959.41
234.579	19904.86
234.651	19872.52
234.723	19853.63
234.795	19821.39
234.867	19798.69
234.939	19773.68
235.012	19741.54
235.084	19708.1
235.156	19684.14
235.228	19649.01
235.3	19616
235.372	19577.02
235.444	19558.56
235.516	19508.49
235.588	19477.17
235.66	19448.06
235.732	19407.39
235.804	19433.89
235.876	19410.47
235.948	19394.47
236.02	19363.05
236.092	19327.83
236.164	19288.07
236.236	19250.53
236.308	19210.77
236.38	19169.33
236.452	19126.1
236.524	19090.59
236.596	19076.42
236.668	19052.9
236.74	19012.62
236.812	18979.27
236.884	18956.14
236.956	18916.67
237.028	18872.19
237.1	18822.12
237.172	18806.32
237.244	18784.63
237.316	18708.01
237.388	18669.31
237.46	18627.87
237.532	18613.94
237.604	18576.93
237.675	18560.6
237.747	18532.26
237.819	18486.34
237.891	18446.24
237.963	18416.36
238.035	18387.98
238.107	18303.55
238.178	18274.73
238.25	18237.82
238.322	18224.61
238.394	18165.82
238.466	18130.54
238.538	18106.11
238.609	18077.49
238.681	18026.93
238.753	17983.56
238.825	17953.4
238.897	17925.59
238.968	17909.59
239.04	17861.74
239.112	17862.46
239.184	17811.47
239.255	17774.12
239.327	17751.76
239.399	17720.44
239.471	17684.78
239.542	17650.46
239.614	17646.85
239.686	17594.7
239.758	17569.69
239.829	17513.79
239.901	17489.79
239.973	17464.68
240.044	17436.63
240.116	17404.1
240.188	17364.49
240.259	17324.97
240.331	17284.25
240.403	17249.45
240.474	17192.39
240.546	17149.11
240.618	17088.39
240.689	17060.77
240.761	17033.01
240.833	17016.63
240.904	16983.18
240.976	16955.66
241.048	16924.53
241.119	16890.12
241.191	16861.34
241.262	16849.2
241.334	16823.08
241.405	16790.21
241.477	16748.95
241.549	16707.55
241.62	16675.74
241.692	16649.53
241.763	16638.15
241.835	16601.62
241.906	16573.81
241.978	16518.82
242.049	16505.47
242.121	16480.5
242.192	16461.94
242.264	16411.53
242.335	16356.78
242.407	16328.15
242.478	16287.28
242.55	16259.08
242.621	16224.62
242.693	16180.57
242.764	16131.6
242.836	16095.26
242.907	16073.28
242.979	16040.84
243.05	16015.1
243.122	15994.72
243.193	15964.74
243.264	15906.9
243.336	15883.42
243.407	15854.84
243.479	15855.47
243.55	15825.34
243.622	15807.75
243.693	15763.6
243.764	15745.91
243.836	15699.73
243.907	15668.64
243.978	15633.84
244.05	15601.55
244.121	15553.83
244.192	15541.25
244.264	15496.81
244.335	15465.38
244.407	15408.16
244.478	15382.57
244.549	15347.62
244.62	15288.86
244.692	15251.7
244.763	15233.14
244.834	15189.28
244.906	15152.36
244.977	15121.84
245.048	15102.42
245.119	15055.57
245.191	15013.77
245.262	14962.82
245.333	14952.07
245.405	14920.89
245.476	14900.06
245.547	14875.24
245.618	14857.02
245.689	14814.94
245.761	14789.77
245.832	14760.32
245.903	14751.74
245.974	14725.37
246.045	14694.67
246.117	14692.4
246.188	14665.12
246.259	14621.73
246.33	14593.53
246.401	14556.41
246.473	14516.55
246.544	14479.14
246.615	14465.16
246.686	14439.47
246.757	14424.91
246.828	14392.66
246.899	14381.29
246.97	14343.64
247.042	14303.34
247.113	14287.38
247.184	14290.13
247.255	14262.7
247.326	14242.94
247.397	14205.14
247.468	14180.22
247.539	14156.26
247.61	14115.38
247.681	14090.85
247.752	14090.8
247.823	14052.96
247.894	14039.17
247.965	13999.74
248.037	13970.76
248.108	13923.47
248.179	13894.21
248.25	13865.96
248.321	13837.28
248.392	13791.92
248.463	13784.16
248.534	13759.91
248.605	13724.24
248.675	13686.49
248.746	13661.23
248.817	13638
248.888	13617.17
248.959	13576.24
249.03	13557.3
249.101	13532.04
249.172	13499.84
249.243	13450.13
249.314	13439.87
249.385	13412.68
249.456	13392.19
249.527	13361.19
249.598	13342.92
249.669	13312.41
249.739	13294.14
249.81	13281.51
249.881	13249.07
249.952	13219.47
250.023	13194.01
250.094	13167.64
250.165	13131.49
250.235	13104.06
250.306	13082.61
250.377	13051.56
250.448	13027.61
250.519	12984.08
250.59	12975.78
250.66	12950.04
250.731	12939.97
250.802	12918.66
250.873	12903.09
250.944	12887.23
251.014	12856.76
251.085	12859.32
251.156	12849.2
251.227	12839.46
251.297	12832.52
251.368	12827.21
251.439	12819.07
251.51	12809.71
251.58	12776.26
251.651	12754.37
251.722	12749.55
251.792	12709.83
251.863	12686.65
251.934	12686.89
252.005	12693.93
252.075	12668.52
252.146	12657.72
252.217	12651.46
252.287	12637.48
252.358	12613.71
252.429	12610.29
252.499	12585.9
252.57	12569.07
252.641	12559.77
252.711	12535.19
252.782	12495.56
252.852	12495.8
252.923	12473.87
252.994	12453.67
253.064	12440.9
253.135	12412.84
253.205	12383.63
253.276	12377.13
253.347	12375.44
253.417	12339.33
253.488	12313.02
253.558	12287.27
253.629	12268.43
253.699	12240.37
253.77	12229.24
253.841	12195.93
253.911	12172.46
253.982	12152.45
254.052	12137.7
254.123	12119.82
254.193	12100.78
254.264	12115.09
254.334	12074.41
254.405	12048.62
254.475	12016.42
254.546	12001.24
254.616	11997.87
254.687	11986.64
254.757	11975.31
254.827	11956.94
254.898	11946.05
254.968	11923.2
255.039	11901.8
255.109	11888.6
255.18	11864.11
255.25	11822.08
255.321	11820.35
255.391	11787.28
255.461	11798.27
255.532	11750.36
255.602	11725.25
255.673	11689.05
255.743	11655.26
255.813	11617.52
255.884	11602.87
255.954	11597.91
256.024	11591.45
256.095	11568.07
256.165	11530.24
256.235	11506.09
256.306	11475.78
256.376	11470.96
256.446	11467.44
256.517	11454.09
256.587	11447.39
256.657	11434.57
256.728	11424.88
256.798	11401.89
256.868	11386.08
256.938	11357.7
257.009	11353.6
257.079	11345.26
257.149	11345.07
257.219	11313.84
257.29	11298.66
257.36	11260.15
257.43	11246.85
257.5	11208.2
257.571	11190.47
257.641	11186.42
257.711	11160.68
257.781	11156.97
257.852	11139.09
257.922	11099.09
257.992	11086.23
258.062	11066.47
258.132	11059.28
258.202	11039.77
258.273	11027.14
258.343	11029.36
258.413	10996.93
258.483	10976.69
258.553	10941.36
258.623	10925.51
258.693	10914.91
258.764	10919.44
258.834	10920.98
258.904	10908.4
258.974	10890
259.044	10870.82
259.114	10856.65
259.184	10847.74
259.254	10824.08
259.324	10786.01
259.394	10773.14
259.464	10774.97
259.535	10755.22
259.605	10729.1
259.675	10705.01
259.745	10691.08
259.815	10664.96
259.885	10641.26
259.955	10657.31
260.025	10644.44
260.095	10624.88
260.165	10614.62
260.235	10615.92
260.305	10596.74
260.375	10568.41
260.445	10576.65
260.515	10582.72
260.585	10588.31
260.655	10572.12
260.725	10570
260.795	10566.53
260.865	10578.82
260.934	10541.28
261.004	10532.18
261.074	10516.61
261.144	10512.81
261.214	10507.41
261.284	10489.25
261.354	10496.86
261.424	10468.33
261.494	10465.2
261.564	10451.08
261.634	10441.06
261.703	10403.09
261.773	10394.57
261.843	10390.47
261.913	10369.76
261.983	10331.94
262.053	10312.37
262.123	10301.1
262.192	10268.63
262.262	10265.11
262.332	10235.87
262.402	10235.1
262.472	10223.05
262.541	10187.84
262.611	10184.23
262.681	10157.3
262.751	10154.07
262.821	10137.64
262.89	10105.61
262.96	10097.46
263.03	10103.25
263.1	10092.36
263.169	10081.95
263.239	10075.26
263.309	10080.99
263.379	10072.13
263.448	10064.23
263.518	10059.27
263.588	10036.14
263.657	10041.39
263.727	10036.58
263.797	10017.89
263.867	10000.74
263.936	9972.27
264.006	9978.48
264.076	9966.92
264.145	9954.16
264.215	9926.85
264.285	9922.22
264.354	9893.66
264.424	9873.63
264.494	9843.86
264.563	9818.09
264.633	9823.05
264.702	9810.19
264.772	9774.2
264.842	9760.33
264.911	9749.01
264.981	9719.92
265.05	9719.77
265.12	9699.21
265.19	9683.12
265.259	9682.35
265.329	9679.99
265.398	9669.92
265.468	9682.16
265.537	9661.79
265.607	9651.29
265.676	9659.81
265.746	9648.16
265.815	9646.52
265.885	9633.04
265.955	9604.62
266.024	9593.5
266.094	9556.32
266.163	9559.21
266.232	9562.87
266.302	9549.63
266.371	9542.31
266.441	9533.83
266.51	9523.14
266.58	9507.88
266.649	9489.33
266.719	9492.18
266.788	9482.78
266.858	9488.71
266.927	9449.65
266.996	9438.48
267.066	9434.92
267.135	9402.46
267.205	9399.57
267.274	9390.18
267.343	9397.17
267.413	9388.07
267.482	9392.26
267.552	9392.69
267.621	9362.74
267.69	9331.1
267.76	9319.49
267.829	9307.89
267.898	9296.29
267.968	9276.26
268.037	9278.18
268.106	9276.4
268.176	9242.31
268.245	9226.32
268.314	9210.77
268.384	9217.17
268.453	9212.74
268.522	9207.4
268.592	9215.92
268.661	9198.63
268.73	9196.32
268.799	9172.73
268.869	9185.92
268.938	9156.5
269.007	9144.32
269.076	9134.88
269.146	9138.2
269.215	9133.92
269.284	9148.94
269.353	9133.1
269.422	9125.74
269.492	9108.94
269.561	9071.29
269.63	9072.45
269.699	9056.32
269.768	9046.88
269.838	9040.72
269.907	9039.61
269.976	9009.96
270.045	8974.34
270.114	8966.59
270.183	8956.86
270.253	8955.47
270.322	8934.14
270.391	8928.07
270.46	8933.56
270.529	8932.45
270.598	8934.67
270.667	8920.81
270.736	8895.82
270.806	8890.09
270.875	8887.15
270.944	8876.13
271.013	8893.99
271.082	8888.21
271.151	8886.96
271.22	8854.52
271.289	8841.86
271.358	8830.6
271.427	8834.88
271.496	8825.5
271.565	8811.3
271.634	8800.9
271.703	8822.13
271.772	8819.2
271.841	8805.58
271.91	8787.28
271.979	8777.08
272.048	8747.86
272.117	8752
272.186	8732.32
272.255	8731.74
272.324	8730.73
272.393	8730.05
272.462	8721.48
272.531	8715.23
272.6	8699.87
272.669	8713.3
272.738	8702.08
272.807	8695.06
272.876	8670.66
272.945	8704.97
273.013	8706.32
273.082	8709.4
273.151	8666.51
273.22	8662.9
273.289	8654.34
273.358	8660.5
273.427	8645.96
273.496	8653.09
273.564	8646.35
273.633	8653.66
273.702	8630.85
273.771	8625.65
273.84	8613.57
273.909	8609.72
273.977	8604.96
274.046	8598.7
274.115	8599.09
274.184	8582.39
274.253	8572.04
274.322	8587.06
274.39	8556.98
274.459	8547.01
274.528	8521.41
274.597	8507.84
274.665	8505.92
274.734	8517.95
274.803	8502.89
274.872	8500.62
274.94	8480.8
275.009	8531.69
275.078	8519.42
275.147	8521.78
275.215	8511.72
275.284	8521.73
275.353	8506.28
275.421	8483.47
275.49	8498.34
275.559	8489.01
275.627	8484.34
275.696	8474.96
275.765	8470.05
275.833	8463.41
275.902	8462.01
275.971	8470.1
276.039	8491.75
276.108	8493.58
276.177	8489.25
276.245	8484.48
276.314	8482.61
276.383	8486.65
276.451	8426.37
276.52	8423.77
276.588	8441.53
276.657	8448.22
276.725	8437.25
276.794	8442.78
276.863	8453.95
276.931	8430.7
277	8437.54
277.068	8449.32
277.137	8473.72
277.205	8472.61
277.274	8488.11
277.342	8496.24
277.411	8478.83
277.48	8465.74
277.548	8452.94
277.617	8458.08
277.685	8448.61
277.754	8449.23
277.822	8442.98
277.89	8461.03
277.959	8460.02
278.027	8433.74
278.096	8419.07
278.164	8444.77
278.233	8439.42
278.301	8425.81
278.37	8432.3
278.438	8423.16
278.507	8426.96
278.575	8396.79
278.643	8395.92
278.712	8377.11
278.78	8366.43
278.849	8379.61
278.917	8391.21
278.985	8389.86
279.054	8392.46
279.122	8404.73
279.191	8405.59
279.259	8404.34
279.327	8378.26
279.396	8389.86
279.464	8388.6
279.532	8395.15
279.601	8389.47
279.669	8385.14
279.737	8401.02
279.806	8408.33
279.874	8416.8
279.942	8411.03
280.011	8406.02
280.079	8409.34
280.147	8425.46
280.215	8425.08
280.284	8420.65
280.352	8407.46
280.42	8417.38
280.488	8403.66
280.557	8397.17
280.625	8400.54
280.693	8399.53
280.761	8407.99
280.83	8395.43
280.898	8413.53
280.966	8399.91
281.034	8372.91
281.102	8357.57
281.171	8356.75
281.239	8358.82
281.307	8349.1
281.375	8342.17
281.443	8367.86
281.512	8368.49
281.58	8381.29
281.648	8372.97
281.716	8370.47
281.784	8369.46
281.852	8361.47
281.92	8359.21
281.989	8371.67
282.057	8353.58
282.125	8396.99
282.193	8388.86
282.261	8382.12
282.329	8376.06
282.397	8379.57
282.465	8382.79
282.533	8399.97
282.601	8382.07
282.67	8362.92
282.738	8351.81
282.806	8360.03
282.874	8353.2
282.942	8354.55
283.01	8341.07
283.078	8342.27
283.146	8344.49
283.214	8352.28
283.282	8353.15
283.35	8370.18
283.418	8367.34
283.486	8372.54
283.554	8333.75
283.622	8332.06
283.69	8340
283.758	8331.53
283.826	8338.7
283.894	8343.99
283.962	8365.22
284.03	8383.31
284.098	8381.14
284.165	8378.45
284.233	8375.37
284.301	8360.6
284.369	8355.11
284.437	8350.88
284.505	8348.19
284.573	8364.88
284.641	8350.93
284.709	8360.89
284.777	8339.43
284.845	8342.22
284.912	8348.76
284.98	8351.89
285.048	8350.06
285.116	8356.22
285.184	8374.6
285.252	8376.14
285.319	8359.3
285.387	8345.59
285.455	8329.32
285.523	8341.21
285.591	8338.56
285.659	8345.3
285.726	8371.96
285.794	8357.43
285.862	8353.63
285.93	8350.69
285.997	8345.88
286.065	8343.71
286.133	8336.59
286.201	8336.78
286.269	8322.73
286.336	8310.99
286.404	8304.16
286.472	8316.67
286.539	8292.52
286.607	8279.34
286.675	8271.73
286.743	8284.68
286.81	8284.05
286.878	8300.89
286.946	8289.82
287.013	8295.5
287.081	8292.32
287.149	8274.04
287.216	8290.73
287.284	8285.54
287.352	8293.04
287.419	8287.85
287.487	8303.53
287.555	8308.58
287.622	8307.24
287.69	8307.72
287.758	8324.65
287.825	8323.35
287.893	8305.84
287.96	8316.76
288.028	8323.64
288.096	8327.68
288.163	8331.87
288.231	8318.59
288.298	8311.18
288.366	8330.04
288.433	8320.95
288.501	8306.85
288.569	8303.87
288.636	8299.06
288.704	8304.88
288.771	8308.97
288.839	8297.86
288.906	8291.5
288.974	8294.25
289.041	8291.6
289.109	8282.75
289.176	8294.3
289.244	8296.66
289.311	8309.98
289.379	8316.29
289.446	8318.69
289.514	8319.51
289.581	8322.83
289.649	8325
289.716	8328.94
289.783	8317.35
289.851	8343.56
289.918	8344.48
289.986	8352.51
290.053	8357.61
290.121	8359.01
290.188	8355.64
290.255	8386.92
290.323	8385.67
290.39	8382.78
290.458	8392.07
290.525	8409.92
290.592	8401.45
290.66	8405.78
290.727	8398.8
290.794	8414.2
290.862	8411.74
290.929	8416.03
290.996	8405.49
291.064	8419.59
291.131	8430.22
291.198	8446.58
291.266	8443.74
291.333	8451.59
291.4	8464.19
291.468	8476.47
291.535	8471.65
291.602	8478.05
291.669	8467.71
291.737	8469.92
291.804	8470.4
291.871	8487.48
291.938	8496.1
292.006	8526.09
292.073	8539.8
292.14	8556.93
292.207	8541.49
292.275	8546.1
292.342	8554.57
292.409	8585.33
292.476	8605.2
292.543	8594.47
292.611	8588.99
292.678	8604.96
292.745	8631.91
292.812	8642.84
292.879	8640.24
292.946	8650.54
293.014	8667.58
293.081	8677.97
293.148	8692.26
293.215	8704.63
293.282	8702.42
293.349	8706.46
293.416	8680.18
293.484	8690.62
293.551	8699.62
293.618	8723.25
293.685	8749.05
293.752	8742.46
293.819	8742.61
293.886	8729.8
293.953	8737.36
294.02	8755.36
294.087	8765.56
294.154	8755.55
294.221	8766.67
294.288	8770.23
294.356	8792.28
294.423	8796.95
294.49	8788.28
294.557	8802.34
294.624	8799.88
294.691	8814.76
294.758	8824.05
294.825	8837.77
294.892	8825.49
294.959	8823.71
295.026	8834.83
295.093	8826.41
295.16	8829.29
295.226	8832.33
295.293	8856.59
295.36	8867.9
295.427	8872.42
295.494	8884.41
295.561	8896.97
295.628	8917.97
295.695	8935.3
295.762	8930.39
295.829	8941.03
295.896	8963.22
295.963	8967.5
296.03	8969.38
296.096	8972.8
296.163	8981.46
296.23	8991.62
296.297	9011.07
296.364	9012.7
296.431	9010.92
296.498	9007.41
296.564	9039.13
296.631	9039.23
296.698	9021.99
296.765	9041.59
296.832	9033.11
296.899	9014.63
296.965	9024.49
297.032	9005.38
297.099	9021.46
297.166	9029.79
297.233	9024.78
297.299	9013.04
297.366	9016.12
297.433	9027.09
297.5	9038.84
297.566	9033.54
297.633	9035.57
297.7	9036
297.767	9039.95
297.833	9049.14
297.9	9047.84
297.967	9028.68
298.033	9038.74
298.1	9068.35
298.167	9061.18
298.234	9068.21
298.3	9083.85
298.367	9085.92
298.434	9087.95
298.5	9071.48
298.567	9068.3
298.634	9070.66
298.7	9092.47
298.767	9093.1
298.834	9101.04
298.9	9094.83
298.967	9093.38
299.033	9102.87
299.1	9118.9
299.167	9129.98
299.233	9125.74
299.3	9141.58
299.366	9159.2
299.433	9176.48
299.5	9153.13
299.566	9150.92
299.633	9170.13
299.699	9177.74
299.766	9174.99
299.832	9180.87
299.899	9193.87
299.965	9205.18
300.032	9203.16
300.099	9207.15
300.165	9213.41
300.232	9215.77
300.298	9217.17
300.365	9232.38
300.431	9229.01
300.498	9229.25
300.564	9234.36
300.631	9245.96
300.697	9264.93
300.763	9262.48
300.83	9258.14
300.896	9274.18
300.963	9290.69
301.029	9288.72
301.096	9289.01
301.162	9302.01
301.229	9296.9
301.295	9287.08
301.361	9290.4
301.428	9298.59
301.494	9285.01
301.561	9294.3
301.627	9295.84
301.693	9305.23
301.76	9306.53
301.826	9300.85
301.892	9306.53
301.959	9320.74
302.025	9319.73
302.092	9307.59
302.158	9316.45
302.224	9320.78
302.291	9313.23
302.357	9302.58
302.423	9299.55
302.49	9297.34
302.556	9305.04
302.622	9308.94
302.688	9321.22
302.755	9336.87
302.821	9335.47
302.887	9344.52
302.954	9334.27
303.02	9337.98
303.086	9342.74
303.152	9345.3
303.219	9340.87
303.285	9348.76
303.351	9346.98
303.417	9346.98
303.483	9338.22
303.55	9327.39
303.616	9324.35
303.682	9327.05
303.748	9329.41
303.815	9346.12
303.881	9352.28
303.947	9342.7
304.013	9338.27
304.079	9329.41
304.145	9312.6
304.212	9314.38
304.278	9307.16
304.344	9303.98
304.41	9292.48
304.476	9277.55
304.542	9271.82
304.608	9279.43
304.674	9260.55
304.741	9259.54
304.807	9263.25
304.873	9272.64
304.939	9293.82
305.005	9275.24
305.071	9266.14
305.137	9268.21
305.203	9240.13
305.269	9236.72
305.335	9247.02
305.401	9249.28
305.467	9247.5
305.533	9253.91
305.599	9253.38
305.666	9260.79
305.732	9262.96
305.798	9277.07
305.864	9301.72
305.93	9303.6
305.996	9308.99
306.062	9307.93
306.128	9303.69
306.194	9292.33
306.259	9290.36
306.325	9283.52
306.391	9295.17
306.457	9304.08
306.523	9305.62
306.589	9333.16
306.655	9325.26
306.721	9307.88
306.787	9293.73
306.853	9309.81
306.919	9291.75
306.985	9293.49
307.051	9290.45
307.117	9286.51
307.183	9277.84
307.248	9251.4
307.314	9254.63
307.38	9250.25
307.446	9256.46
307.512	9245.53
307.578	9241.72
307.644	9242.35
307.709	9236.33
307.775	9229.78
307.841	9232.86
307.907	9234.55
307.973	9217.41
308.039	9218.27
308.104	9224.92
308.17	9229.59
308.236	9212.88
308.302	9219.71
308.368	9205.56
308.433	9210.71
308.499	9204.02
308.565	9194.05
308.631	9203.4
308.696	9182.31
308.762	9172.77
308.828	9164.49
308.894	9147.5
308.959	9135.95
309.025	9118.85
309.091	9108.5
309.156	9106.38
309.222	9105.61
309.288	9092.37
309.354	9066.23
309.419	9066.52
309.485	9052.99
309.551	9055.54
309.616	9040.81
309.682	9034.79
309.748	9031.38
309.813	9018.14
309.879	9012.5
309.945	9001.14
310.01	8989.35
310.076	8993.49
310.141	8988.58
310.207	8981.74
310.273	8982.9
310.338	8982.9
310.404	8965.57
310.469	8959.26
310.535	8942.51
310.601	8918.44
310.666	8922.19
310.732	8928.6
310.797	8908.81
310.863	8891.96
310.928	8884.5
310.994	8889.94
311.059	8883.25
311.125	8879.93
311.191	8891.58
311.256	8876.8
311.322	8882.43
311.387	8862.55
311.453	9296.87
311.518	9272.47
311.584	9266.89
311.649	9274.06
311.715	9264.92
311.78	9268.57
311.846	9261.98
311.911	9268.57
311.976	9269.2
312.042	9247.83
312.107	9238.82
312.173	9237.43
312.238	9231.8
312.304	9226.6
312.369	9216.01
312.434	9209.99
312.5	9205.52
312.565	9171.05
312.631	9173.12
312.696	9166.62
312.761	9169.12
312.827	8722.48
312.892	8760.8
312.958	8752.42
313.023	8743.71
313.088	8740.1
313.154	8726.87
313.219	8716.04
313.284	8707.52
313.35	8700.44
313.415	8693.9
313.48	8685.81
313.546	8691.15
313.611	8701.84
313.676	8694.47
313.741	8685.14
313.807	8692.17
313.872	8693.71
313.937	8696.83
314.003	8709.3
314.068	8708.72
314.133	8717
314.198	8710.02
314.264	8688.99
314.329	8684.89
314.394	8686.77
314.459	8681.04
314.525	8700.54
314.59	8697.02
314.655	8682.3
314.72	8691.73
314.785	8697.94
314.851	8690.24
314.916	8667.47
314.981	8652.99
315.046	8642.69
315.111	8635.57
315.176	8622.04
315.242	8617.23
315.307	8620.69
315.372	8602.5
315.437	8588.21
315.502	8574.83
315.567	8586.52
315.632	8566.89
315.698	8568.91
315.763	8561.16
315.828	8554.81
315.893	8553.46
315.958	8552.45
316.023	8548.02
316.088	8528.39
316.153	8505.96
316.218	8501.2
316.283	8483.93
316.348	8468.2
316.413	8463.58
316.479	8449.58
316.544	8415.9
316.609	8395.83
316.674	8362.35
316.739	8325.26
316.804	8302.12
316.869	8272.29
316.934	8232.01
316.999	8208.68
317.064	8158.03
317.129	8112.08
317.194	8080.86
317.259	8028.96
317.324	7975.09
317.389	7930.32
317.454	7890.2
317.518	7851.63
317.583	7830.37
317.648	7809.94
317.713	7778.97
317.778	7724.96
317.843	7697.74
317.908	7663.75
317.973	7620.81
318.038	7588.79
318.103	7561.24
318.168	7524.41
318.233	7490.52
318.297	7437.59
318.362	7402.5
318.427	7364.44
318.492	7341.51
318.557	7293.64
318.622	7268.65
318.687	7251.4
318.751	7215.55
318.816	7187.34
318.881	7161.11
318.946	7107.23
319.011	7067.39
319.075	7029.87
319.14	6999.46
319.205	6955.25
319.27	6927
319.335	6881.61
319.399	6842.41
319.464	6816.28
319.529	6771.57
319.594	6735.49
319.658	6711.72
319.723	6675.84
319.788	6652.65
319.853	6603.28
319.917	6577.21
319.982	6528.33
320.047	6493.61
320.112	6469.89
320.176	6421.84
320.241	6390.34
320.306	6366.43
320.37	6327.98
320.435	6298.65
320.5	6273.16
320.564	6233.57
320.629	6192.25
320.694	6168.6
320.758	6134.72
320.823	6087.03
320.888	6057.47
320.952	6010.41
321.017	5970.4
321.082	5930.06
321.146	5895.23
321.211	5863.71
321.275	5823.29
321.34	5786.32
321.405	5742.39
321.469	5695.21
321.534	5657.05
321.598	5606.75
321.663	5571.35
321.727	5541.15
321.792	5488.18
321.857	5445.17
321.921	5405.82
321.986	5364.71
322.05	5311.47
322.115	5273.32
322.179	5234.09
322.244	5178.81
322.308	5146.43
322.373	5103.08
322.437	5060.59
322.502	5037.35
322.566	4989.88
322.631	4958.66
322.695	4915.28
322.76	4874.73
322.824	4846.86
322.889	4807.42
322.953	4763.63
323.018	4701.4
323.082	4633.97
323.146	4588.18
323.211	4534.97
323.275	4495.54
323.34	4455.07
323.404	4416.28
323.468	4370.26
323.533	4328.17
323.597	4288.54
323.662	4238.14
323.726	4206.62
323.79	4160.53
323.855	4092.99
323.919	4046.63
323.983	4002.5
324.048	3938.11
324.112	4065.24
324.177	3938.16
324.241	3731.78
324.305	3531.94
324.37	3335.79
324.434	3149.34
324.498	3106.36
324.562	3056.16
324.627	2996.2
324.691	2936.63
324.755	2874.94
324.82	2800.54
324.884	2722.11
324.948	2650.06
325.012	2557.8
325.077	2428.89
