Data from 20250704_urea_0.5M_MAYP1162681_11-05-06-767.txt Node
Date: Fri Jul 04 11:05:06 BST 2025
User: adleo
Spectrometer: MAYP116268
Trigger mode: 0
Integration Time (sec): 1.000000E0
Scans to average: 1
Electric dark correction enabled: true
Nonlinearity correction enabled: true
Boxcar width: 10
XAxis mode: Wavelengths
Number of Pixels in Spectrum: 2068
>>>>>Begin Spectral Data<<<<<
179.565	1237.84
179.642	1296.39
179.718	1340.78
179.795	1380.76
179.871	1413.88
179.948	1433.25
180.024	1456.92
180.101	1482.06
180.177	1494.11
180.254	1517.62
180.33	1538.61
180.407	1595.11
180.483	1690.13
180.56	1784.53
180.636	1870.66
180.712	1858.63
180.789	1866.94
180.865	1878.83
180.942	1886.57
181.018	1901.17
181.095	1916.34
181.171	1922.57
181.248	1923.61
181.324	1939.78
181.4	1948.34
181.477	1959.9
181.553	1973.11
181.63	1992.04
181.706	2008.07
181.782	2018.71
181.859	2017.48
181.935	2025.47
182.011	2020.14
182.088	2040.35
182.164	2056.81
182.24	2070.65
182.317	2078.83
182.393	2077.31
182.469	2091.77
182.546	2106.8
182.622	2110.46
182.698	2104.28
182.775	2115.74
182.851	2134.82
182.927	2127.63
183.003	2123.88
183.08	2118.22
183.156	2127.4
183.232	2124.59
183.308	2111.75
183.385	2120.88
183.461	2142.81
183.537	2143
183.613	2157.13
183.69	2149.13
183.766	2138.14
183.842	2148.23
183.918	2155.13
183.995	2170.59
184.071	2176.92
184.147	2171.21
184.223	2157.08
184.299	2171.98
184.375	2160.7
184.452	2164.27
184.528	2214.38
184.604	2223.08
184.68	2235.97
184.756	2243.4
184.832	2248.68
184.908	2254.05
184.985	2253.1
185.061	2234.97
185.137	2245.39
185.213	2232.07
185.289	2234.5
185.365	2228.65
185.441	2224.46
185.517	2234.6
185.593	2229.94
185.669	2221.56
185.745	2233.51
185.822	2251.62
185.898	2242.92
185.974	2251.86
186.05	2241.58
186.126	2206.84
186.202	2199.33
186.278	2194.09
186.354	2183.39
186.43	2188.15
186.506	2186.48
186.582	2185.67
186.658	2190.52
186.734	2170.31
186.81	2176.54
186.886	2177.44
186.962	2192
187.038	2189
187.114	2182.15
187.19	2189.71
187.266	2180.53
187.341	2178.49
187.417	2173.54
187.493	2173.16
187.569	2176.82
187.645	2170.4
187.721	2159.93
187.797	2170.63
187.873	2172.44
187.949	2167.45
188.025	2163.26
188.101	2165.16
188.176	2172.77
188.252	2165.35
188.328	2172.01
188.404	2170.58
188.48	2166.45
188.556	2158.07
188.632	2157.22
188.707	2159.79
188.783	2157.17
188.859	2153.74
188.935	2143.61
189.011	2151.94
189.086	2144.85
189.162	2135.86
189.238	2132.29
189.314	2128.44
189.39	2119.54
189.465	2115.78
189.541	2131.58
189.617	2114.5
189.693	2109.08
189.768	2110.7
189.844	2139.15
189.92	2131.17
189.996	2141.97
190.071	2152.81
190.147	2154.1
190.223	2163.8
190.298	2154.34
190.374	2138.83
190.45	2152
190.526	2160.38
190.601	2154.62
190.677	2157.38
190.753	2184.13
190.828	2187.36
190.904	2203.16
190.98	2220.01
191.055	2230.52
191.131	2220.05
191.207	2241.56
191.282	2253.49
191.358	2245.12
191.433	2229.7
191.509	2246.39
191.585	2240.11
191.66	2240.87
191.736	2246.82
191.811	2238.35
191.887	2255.82
191.963	2281.8
192.038	2286.22
192.114	2285.56
192.189	2290.12
192.265	2286.13
192.34	2264.56
192.416	2267.99
192.491	2263.51
192.567	2264.94
192.642	2267.47
192.718	2270.32
192.793	2258.61
192.869	2254.43
192.944	2255.14
193.02	2265.09
193.095	2264.85
193.171	2271.51
193.246	2272.8
193.322	2268.75
193.397	2272.32
193.473	2258.8
193.548	2239.48
193.624	2245
193.699	2246.05
193.775	2261.9
193.85	2264.85
193.925	2273.61
194.001	2269.18
194.076	2261.81
194.152	2252.91
194.227	2245.53
194.302	2236.44
194.378	2241.34
194.453	2240.39
194.529	2252.53
194.604	2236.16
194.679	2231.4
194.755	2213.18
194.83	2221.18
194.905	2221.37
194.981	2225.65
195.056	2217.94
195.131	2227.79
195.207	2226.13
195.282	2214.85
195.357	2194.29
195.433	2209.99
195.508	2198
195.583	2204.61
195.659	2217.89
195.734	2225.36
195.809	2226.22
195.884	2234.3
195.96	2229.93
196.035	2241.58
196.11	2239.11
196.185	2251.77
196.261	2256.38
196.336	2289.55
196.411	2276.03
196.486	2282.08
196.561	2278.84
196.637	2287.02
196.712	2301.45
196.787	2303.92
196.862	2320.91
196.937	2331.62
197.013	2339.24
197.088	2353.23
197.163	2378.41
197.238	2396.94
197.313	2395.66
197.388	2407.51
197.464	2440.32
197.539	2453.74
197.614	2451.36
197.689	2462.22
197.764	2480.51
197.839	2501.88
197.914	2492.74
197.989	2517.6
198.065	2530.64
198.14	2580.53
198.215	2609.87
198.29	2621.11
198.365	2637.16
198.44	2646.35
198.515	2674.75
198.59	2688.33
198.665	2714.29
198.74	2721.68
198.815	2719.63
198.89	2743.35
198.965	2772.37
199.04	2766.99
199.115	2785.56
199.19	2823.49
199.265	2828.92
199.34	2837.16
199.415	2870.02
199.49	2894.31
199.565	2905.66
199.64	2928.63
199.715	2925.48
199.79	2933.06
199.865	2941.4
199.94	2940.21
200.015	2973.49
200.09	2977.02
200.165	2982.02
200.24	2986.65
200.315	3030.31
200.39	3047.23
200.464	3053.77
200.539	3059.16
200.614	3073.98
200.689	3097.01
200.764	3106.32
200.839	3124.57
200.914	3126.72
200.989	3114.55
201.063	3129.05
201.138	3109.99
201.213	3111.61
201.288	3090.72
201.363	3094.73
201.438	3097.02
201.512	3110.41
201.587	3091.43
201.662	3095.39
201.737	3112.42
201.812	3119.66
201.886	3084.49
201.961	3098.13
202.036	3084.07
202.111	3078.16
202.186	3049.05
202.26	3031.87
202.335	3012.13
202.41	3004.45
202.485	2990.68
202.559	2971.09
202.634	2942.34
202.709	2951.39
202.784	2930.52
202.858	2933.19
202.933	2912.64
203.008	2904.3
203.082	2886.52
203.157	2885.95
203.232	2842.31
203.306	2819.47
203.381	2786.82
203.456	2762.8
203.53	2735.81
203.605	2718.14
203.68	2696.07
203.754	2692.55
203.829	2678.54
203.904	2657
203.978	2646.28
204.053	2651.19
204.127	2638.47
204.202	2637.09
204.277	2619.38
204.351	2613.94
204.426	2603.03
204.5	2593.65
204.575	2557.08
204.65	2563.66
204.724	2558.41
204.799	2568.93
204.873	2566.69
204.948	2567.07
205.022	2552.7
205.097	2547.83
205.171	2561.55
205.246	2566.93
205.32	2564.36
205.395	2563.55
205.469	2552.94
205.544	2557.13
205.618	2536.89
205.693	2552.32
205.767	2538.23
205.842	2559.23
205.916	2555
205.991	2549.42
206.065	2555.04
206.14	2574.61
206.214	2571.89
206.289	2565.65
206.363	2576.55
206.438	2577.6
206.512	2586.65
206.586	2607.7
206.661	2613.75
206.735	2595.56
206.81	2600.52
206.884	2617.61
206.958	2608.33
207.033	2629.85
207.107	2643.96
207.181	2683.7
207.256	2681.03
207.33	2710.18
207.405	2731.88
207.479	2755.99
207.553	2769.56
207.628	2762.23
207.702	2782.24
207.776	2786.15
207.851	2799.26
207.925	2827.96
207.999	2836.82
208.073	2850.79
208.148	2872.33
208.222	2877.96
208.296	2927.04
208.371	2962.53
208.445	2998.25
208.519	3049.45
208.593	3090.04
208.668	3114.23
208.742	3142.3
208.816	3179.55
208.89	3226.75
208.965	3263.52
209.039	3313.41
209.113	3376.03
209.187	3445.24
209.261	3487
209.336	3564.17
209.41	3639.54
209.484	3696.87
209.558	3782.77
209.632	3860.5
209.707	3942.7
209.781	4040.44
209.855	4133.45
209.929	4230.69
210.003	4318.41
210.077	4407.05
210.151	4544.38
210.226	4665.59
210.3	4795.83
210.374	4919.09
210.448	5028.1
210.522	5145.54
210.596	5268.11
210.67	5393.34
210.744	5558.44
210.818	5715.5
210.892	5864.79
210.966	5988.09
211.041	6138.68
211.115	6272.65
211.189	6441.13
211.263	6594.45
211.337	6741.14
211.411	6904.55
211.485	7051.11
211.559	7221.65
211.633	7383.99
211.707	7519.94
211.781	7706.01
211.855	7842.64
211.929	8006.41
212.003	8163.8
212.077	8348.75
212.151	8541.47
212.225	8727.22
212.299	8903.27
212.373	9069.85
212.447	9243.76
212.52	9465.42
212.594	9662.43
212.668	9863.04
212.742	10035.33
212.816	10224.09
212.89	10410.4
212.964	10603.36
213.038	10805.04
213.112	11017.49
213.186	11229.69
213.26	11394.44
213.333	11539.16
213.407	11740.17
213.481	11931.01
213.555	12134.72
213.629	12317.93
213.703	12490.73
213.777	12689.61
213.85	12861.6
213.924	13090.8
213.998	13290.8
214.072	13472.43
214.146	13649.44
214.219	13836.91
214.293	14020.42
214.367	14205.96
214.441	14412.37
214.515	14589.03
214.588	14740.15
214.662	14869.82
214.736	15017.9
214.81	15212.69
214.883	15392.05
214.957	15546.73
215.031	15703.92
215.105	15854.55
215.178	16004.35
215.252	16166.11
215.326	16297.01
215.4	16438.81
215.473	16552.84
215.547	16686.59
215.621	16830.3
215.694	16978.16
215.768	17103.52
215.842	17234.66
215.915	17367.81
215.989	17478.61
216.063	17601.84
216.136	17738.08
216.21	17869.02
216.284	18016.87
216.357	18148.19
216.431	18274.6
216.504	18405.44
216.578	18558.64
216.652	18693.19
216.725	18811.69
216.799	18940.69
216.873	19065.27
216.946	19179.67
217.02	19280.92
217.093	19380.43
217.167	19458.59
217.24	19547.46
217.314	19646.83
217.387	19745.67
217.461	19839.01
217.535	19946.91
217.608	20027.82
217.682	20127.73
217.755	20227.87
217.829	20309.8
217.902	20386.37
217.976	20468.06
218.049	20549.27
218.123	20614.71
218.196	20692.31
218.27	20777.08
218.343	20840.99
218.417	20913.24
218.49	21003.8
218.563	21094.94
218.637	21177.31
218.71	21274.62
218.784	21356.27
218.857	21434.93
218.931	21506.02
219.004	21583.33
219.077	21655.3
219.151	21727.93
219.224	21788.43
219.298	21861.74
219.371	21928.41
219.444	21972.13
219.518	22029.1
219.591	22086.95
219.665	22169.38
219.738	22229.83
219.811	22265.94
219.885	22321.71
219.958	22374.31
220.031	22409.35
220.105	22459.39
220.178	22503.22
220.251	22532.24
220.325	22579.15
220.398	22625.96
220.471	22677.07
220.544	22717.71
220.618	22749.63
220.691	22791.33
220.764	22828.31
220.838	22866.06
220.911	22899.86
220.984	22960.9
221.057	23014.85
221.131	23049.67
221.204	23047.93
221.277	23090.99
221.35	23155.55
221.424	23174.98
221.497	23206.13
221.57	23234.68
221.643	23263.37
221.716	23293.51
221.79	23308.26
221.863	23322.39
221.936	23334.59
222.009	23343.51
222.082	23356.19
222.155	23365.69
222.229	23387.44
222.302	23397.37
222.375	23410.49
222.448	23428.19
222.521	23436.29
222.594	23430.36
222.667	23424.96
222.74	23448.87
222.814	23460.98
222.887	23459.77
222.96	23479.45
223.033	23485.04
223.106	23483.11
223.179	23493.77
223.252	23490.11
223.325	23497.92
223.398	23498.59
223.471	23497.15
223.544	23501.15
223.617	23505.97
223.69	23512.58
223.763	23500.57
223.837	23512
223.91	23513.88
223.983	23489.14
224.056	23471.01
224.129	23470.34
224.202	23476.32
224.275	23458.47
224.348	23422.98
224.42	23390
224.493	23359.66
224.566	23349.3
224.639	23351.66
224.712	23325.96
224.785	23319.59
224.858	23304.35
224.931	23292.25
225.004	23274.12
225.077	23257.24
225.15	23217.85
225.223	23194.41
225.296	23218.72
225.369	23183.08
225.442	23153
225.514	23140.31
225.587	23126.19
225.66	23116.69
225.733	23101.6
225.806	23077.29
225.879	23064.76
225.952	23039.35
226.025	23028.79
226.097	23032.02
226.17	23005.84
226.243	22971.85
226.316	22939.06
226.389	22925.99
226.461	22911
226.534	22902.37
226.607	22882.31
226.68	22897.79
226.753	22888.29
226.825	22825.07
226.898	22812.64
226.971	22796.44
227.044	22786.75
227.117	22768.91
227.189	22744.7
227.262	22731.01
227.335	22720.07
227.407	22685.45
227.48	22674.89
227.553	22656.86
227.626	22611.3
227.698	22586.95
227.771	22564.73
227.844	22541.83
227.916	22514.54
227.989	22472.07
228.062	22431.58
228.134	22431.62
228.207	22394.21
228.28	22358.15
228.352	22331.88
228.425	22308.11
228.498	22298.9
228.57	22254.55
228.643	22238.93
228.716	22207.02
228.788	22161.95
228.861	22137.55
228.934	22129.65
229.006	22096.48
229.079	22066.84
229.151	22036.03
229.224	21986.34
229.296	21966.77
229.369	21963.15
229.442	21951.05
229.514	21923.48
229.587	21913.26
229.659	21861.68
229.732	21837.63
229.804	21816.66
229.877	21825.29
229.949	21812.32
230.022	21803.45
230.094	21784.46
230.167	21750.72
230.239	21719.15
230.312	21702.76
230.384	21694.57
230.457	21670.27
230.529	21658.03
230.602	21630.31
230.674	21611.56
230.747	21617.98
230.819	21599.32
230.892	21540.13
230.964	21509.57
231.037	21495.11
231.109	21460.89
231.181	21450.05
231.254	21415.15
231.326	21387.97
231.399	21344.11
231.471	21302.32
231.544	21239.37
231.616	21225.92
231.688	21209.05
231.761	21177.39
231.833	21139.65
231.905	21087.02
231.978	21053.57
232.05	21009.76
232.122	20989.71
232.195	20950.38
232.267	20925.42
232.339	20891.92
232.412	20879.1
232.484	20846.86
232.556	20797.8
232.629	20795
232.701	20758.03
232.773	20728.25
232.846	20696.25
232.918	20668.54
232.99	20640.97
233.062	20623.14
233.135	20586.32
233.207	20544.97
233.279	20520.2
233.351	20500.63
233.424	20464.82
233.496	20430.27
233.568	20426.8
233.64	20381.02
233.713	20358.37
233.785	20326.22
233.857	20301.55
233.929	20248.97
234.001	20225.16
234.074	20209.26
234.146	20155.62
234.218	20125.6
234.29	20088.11
234.362	20052.4
234.434	20005.12
234.507	19959.63
234.579	19909.22
234.651	19870.28
234.723	19839.92
234.795	19813.13
234.867	19775.1
234.939	19759.25
235.012	19728.07
235.084	19698.14
235.156	19673.04
235.228	19630.53
235.3	19581.91
235.372	19556.75
235.444	19543.12
235.516	19495.5
235.588	19462.88
235.66	19430.69
235.732	19393.58
235.804	19422.69
235.876	19393.87
235.948	19381.63
236.02	19348.04
236.092	19312.82
236.164	19279.85
236.236	19244.97
236.308	19207.43
236.38	19178.75
236.452	19129.26
236.524	19089.5
236.596	19069.17
236.668	19044.21
236.74	19002.33
236.812	18974.52
236.884	18935.01
236.956	18909.03
237.028	18870.34
237.1	18828.85
237.172	18819.4
237.244	18803.88
237.316	18728.85
237.388	18688.23
237.46	18638.11
237.532	18626.88
237.604	18584.52
237.675	18563.85
237.747	18535.75
237.819	18485.68
237.891	18454.55
237.963	18415.71
238.035	18379.04
238.107	18299.04
238.178	18275.91
238.25	18255
238.322	18251.86
238.394	18206.9
238.466	18154.57
238.538	18121.75
238.609	18095.2
238.681	18031.63
238.753	17973.27
238.825	17933.9
238.897	17897.9
238.968	17883.45
239.04	17830.53
239.112	17823.98
239.184	17781.62
239.255	17740.94
239.327	17719.21
239.399	17686.39
239.471	17662.34
239.542	17640.85
239.614	17624.61
239.686	17555.6
239.758	17532.66
239.829	17478.78
239.901	17456.9
239.973	17433.82
240.044	17406.73
240.116	17372.03
240.188	17334.83
240.259	17309.86
240.331	17267.98
240.403	17242.97
240.474	17188.03
240.546	17151.93
240.618	17101.91
240.689	17060.7
240.761	17030.82
240.833	17002.87
240.904	16952.84
240.976	16920.98
241.048	16893.18
241.119	16874.48
241.191	16855.3
241.262	16836.64
241.334	16800.98
241.405	16760.21
241.477	16714.71
241.549	16679.09
241.62	16646.18
241.692	16628.92
241.763	16613.6
241.835	16575.18
241.906	16544.14
241.978	16496.96
242.049	16476.72
242.121	16460.96
242.192	16442.54
242.264	16395.65
242.335	16354.63
242.407	16340.85
242.478	16301.42
242.55	16260.26
242.621	16214.76
242.693	16177.12
242.764	16129.89
242.836	16084.97
242.907	16058.89
242.979	16031.27
243.05	15998.88
243.122	15973.77
243.193	15932.51
243.264	15870.29
243.336	15843.78
243.407	15818.67
243.479	15809.75
243.55	15786.61
243.622	15749.69
243.693	15715.71
243.764	15693.64
243.836	15645.82
243.907	15602.2
243.978	15568.31
244.05	15548.74
244.121	15501.31
244.192	15475.19
244.264	15424.05
244.335	15403.66
244.407	15358.25
244.478	15339.6
244.549	15310.92
244.62	15268.31
244.692	15238.18
244.763	15217.89
244.834	15184.05
244.906	15143.46
244.977	15111.31
245.048	15084.46
245.119	15045.28
245.191	15002.57
245.262	14953.79
245.333	14950.03
245.405	14931.76
245.476	14910.5
245.547	14874.49
245.618	14860.56
245.689	14837.47
245.761	14817.66
245.832	14791.29
245.903	14772.11
245.974	14737.64
246.045	14711.51
246.117	14697.87
246.188	14656.17
246.259	14619.35
246.33	14585.12
246.401	14548.82
246.473	14505.87
246.544	14475.17
246.615	14453.23
246.686	14425.22
246.757	14418.77
246.828	14379.33
246.899	14359.76
246.97	14316.86
247.042	14288.51
247.113	14264.99
247.184	14258.24
247.255	14221.75
247.326	14189.5
247.397	14156.96
247.468	14133.44
247.539	14099.11
247.61	14057.51
247.681	14040.45
247.752	14027.62
247.823	14000.82
247.894	13980.72
247.965	13945.38
248.037	13906.58
248.108	13870.71
248.179	13841.26
248.25	13812.09
248.321	13788.04
248.392	13751.4
248.463	13747.88
248.534	13712.69
248.605	13692.98
248.675	13654.12
248.746	13638.94
248.817	13626.4
248.888	13607.17
248.959	13566.96
249.03	13547.73
249.101	13526.9
249.172	13501.11
249.243	13452.71
249.314	13442.93
249.385	13423.31
249.456	13408.51
249.527	13387.1
249.598	13368.45
249.669	13345.17
249.739	13319.18
249.81	13300.24
249.881	13262.54
249.952	13237.71
250.023	13219.64
250.094	13174.08
250.165	13142.75
250.235	13113.87
250.306	13085.24
250.377	13049.51
250.448	13033.8
250.519	12991.23
250.59	12983.91
250.66	12951.8
250.731	12945.63
250.802	12920.52
250.873	12896.8
250.944	12875.97
251.014	12843.05
251.085	12841.51
251.156	12822.66
251.227	12823.53
251.297	12809.79
251.368	12802.46
251.439	12791.28
251.51	12786.89
251.58	12756.76
251.651	12727.07
251.722	12718.15
251.792	12675.58
251.863	12660.59
251.934	12650.61
252.005	12663.97
252.075	12640.73
252.146	12637.98
252.217	12633.02
252.287	12619.14
252.358	12596.67
252.429	12597.78
252.499	12581.3
252.57	12557.82
252.641	12552.03
252.711	12520.32
252.782	12488.79
252.852	12484.02
252.923	12457.51
252.994	12432.73
253.064	12429.79
253.135	12400.09
253.205	12375.32
253.276	12366.93
253.347	12358.25
253.417	12329.04
253.488	12303.4
253.558	12276.07
253.629	12245.41
253.699	12218.13
253.77	12202.94
253.841	12176.58
253.911	12154.35
253.982	12136.66
254.052	12131.8
254.123	12110.64
254.193	12096.17
254.264	12116.03
254.334	12086.44
254.405	12055.93
254.475	12023.1
254.546	12002.23
254.616	12005.99
254.687	11990.71
254.757	11983.62
254.827	11963.33
254.898	11952.39
254.968	11928.48
255.039	11901.68
255.109	11896.91
255.18	11870.31
255.25	11833.38
255.321	11827.84
255.391	11795.31
255.461	11800.8
255.532	11749.28
255.602	11724.45
255.673	11682.33
255.743	11648.01
255.813	11606.27
255.884	11598.9
255.954	11592.68
256.024	11594.7
256.095	11579.13
256.165	11542.07
256.235	11527.56
256.306	11494.12
256.376	11483.22
256.446	11479.42
256.517	11471.51
256.587	11462.64
256.657	11449.68
256.728	11436.57
256.798	11415.56
256.868	11393.29
256.938	11361
257.009	11359.6
257.079	11358.64
257.149	11364.52
257.219	11324.95
257.29	11320.18
257.36	11281.82
257.43	11267.79
257.5	11227.94
257.571	11198.83
257.641	11192.23
257.711	11166.39
257.781	11161
257.852	11147.84
257.922	11105.53
257.992	11085.57
258.062	11069.91
258.132	11058.97
258.202	11035.99
258.273	11029
258.343	11036.76
258.413	11011.55
258.483	10997.58
258.553	10959.36
258.623	10937.44
258.693	10928.14
258.764	10924.33
258.834	10931.07
258.904	10917.2
258.974	10887.13
259.044	10873.69
259.114	10871.66
259.184	10856.92
259.254	10840.73
259.324	10799.48
259.394	10787.82
259.464	10788.68
259.535	10765.84
259.605	10741.8
259.675	10721.27
259.745	10701.27
259.815	10671.11
259.885	10651.98
259.955	10663.79
260.025	10643.41
260.095	10624.52
260.165	10610.74
260.235	10607.46
260.305	10577.3
260.375	10553.93
260.445	10568.82
260.515	10564.63
260.585	10557.25
260.655	10539.96
260.725	10536.82
260.795	10535.57
260.865	10542.22
260.934	10522.08
261.004	10515.91
261.074	10503.1
261.144	10506.76
261.214	10506.28
261.284	10488.02
261.354	10483.15
261.424	10450.24
261.494	10459.39
261.564	10446.24
261.634	10440.75
261.703	10402.11
261.773	10395.07
261.843	10383.36
261.913	10366.21
261.983	10332.68
262.053	10322.28
262.123	10308.11
262.192	10275.98
262.262	10267.64
262.332	10239.46
262.402	10228.14
262.472	10208.39
262.541	10177.94
262.611	10167.3
262.681	10140.03
262.751	10135.4
262.821	10118.21
262.89	10092.09
262.96	10082.41
263.03	10087.76
263.1	10079.33
263.169	10071.62
263.239	10064.01
263.309	10074.13
263.379	10067.38
263.448	10061.65
263.518	10048.26
263.588	10032.26
263.657	10041.9
263.727	10034.24
263.797	10021.23
263.867	10002.25
263.936	9970.71
264.006	9969.07
264.076	9958.13
264.145	9943.73
264.215	9920.32
264.285	9917.91
264.354	9885.79
264.424	9860.65
264.494	9831.31
264.563	9812.72
264.633	9818.01
264.702	9809.2
264.772	9770.52
264.842	9753.56
264.911	9746.05
264.981	9717.68
265.05	9708
265.12	9686.37
265.19	9679.87
265.259	9676.21
265.329	9671.97
265.398	9667.11
265.468	9681.65
265.537	9656.27
265.607	9651.07
265.676	9654.39
265.746	9645.43
265.815	9649.34
265.885	9636.62
265.955	9616.06
266.024	9594.77
266.094	9560.39
266.163	9562.99
266.232	9567.32
266.302	9552.92
266.371	9544.4
266.441	9539.25
266.51	9534.77
266.58	9522.63
266.649	9505.2
266.719	9507.12
266.788	9497.97
266.858	9510.21
266.927	9477.22
266.996	9475.48
267.066	9461.42
267.135	9436.33
267.205	9434.12
267.274	9428.87
267.343	9429.88
267.413	9422.85
267.482	9426.51
267.552	9430.46
267.621	9397.95
267.69	9365.93
267.76	9356.88
267.829	9342.48
267.898	9331.7
267.968	9312.82
268.037	9304.78
268.106	9303.48
268.176	9271.12
268.245	9258.75
268.314	9236.93
268.384	9232.12
268.453	9220.76
268.522	9218.44
268.592	9221.14
268.661	9201.78
268.73	9191.96
268.799	9172.65
268.869	9181.13
268.938	9158.16
269.007	9137.36
269.076	9134.28
269.146	9138.42
269.215	9129.56
269.284	9143.62
269.353	9131.2
269.422	9115.46
269.492	9099.77
269.561	9061.93
269.63	9061.11
269.699	9044.88
269.768	9036.12
269.838	9034.24
269.907	9027.02
269.976	9001.8
270.045	8971.33
270.114	8965.36
270.183	8951.01
270.253	8949.95
270.322	8919.48
270.391	8907.69
270.46	8918.85
270.529	8913.99
270.598	8908.41
270.667	8894.93
270.736	8870.47
270.806	8857.04
270.875	8865.56
270.944	8856.13
271.013	8876.49
271.082	8869.08
271.151	8870.86
271.22	8848.14
271.289	8837.45
271.358	8829.46
271.427	8824.41
271.496	8815.94
271.565	8801.59
271.634	8793.7
271.703	8816.33
271.772	8819.6
271.841	8817.2
271.91	8791.97
271.979	8791.97
272.048	8773.68
272.117	8777.48
272.186	8762.66
272.255	8762.66
272.324	8761.17
272.393	8757.61
272.462	8740.08
272.531	8733.39
272.6	8718.38
272.669	8722.61
272.738	8711.2
272.807	8707.31
272.876	8685.89
272.945	8713.95
273.013	8714.67
273.082	8721.08
273.151	8676.5
273.22	8672.65
273.289	8666.1
273.358	8677.65
273.427	8659.36
273.496	8659.94
273.564	8658.59
273.633	8668.85
273.702	8653.25
273.771	8638.33
273.84	8630.63
273.909	8627.79
273.977	8623.9
274.046	8615.38
274.115	8623.46
274.184	8605.23
274.253	8600.17
274.322	8615.14
274.39	8587.46
274.459	8576.68
274.528	8551.32
274.597	8544.59
274.665	8540.3
274.734	8542.52
274.803	8525.24
274.872	8522.64
274.94	8501.71
275.009	8551.45
275.078	8528.68
275.147	8528.35
275.215	8524.98
275.284	8531.09
275.353	8520.94
275.421	8496.78
275.49	8511.22
275.559	8500.78
275.627	8500.58
275.696	8491.25
275.765	8489.32
275.833	8476.38
275.902	8476.09
275.971	8485.19
276.039	8499.57
276.108	8507.32
276.177	8507.56
276.245	8507.47
276.314	8496.79
276.383	8513.05
276.451	8447.67
276.52	8452.67
276.588	8461
276.657	8468.99
276.725	8455.85
276.794	8454.74
276.863	8471.34
276.931	8451.42
277	8447.95
277.068	8453.87
277.137	8468.6
277.205	8471.72
277.274	8496.55
277.342	8502.57
277.411	8488.13
277.48	8470.19
277.548	8456.23
277.617	8455.75
277.685	8440.74
277.754	8449.25
277.822	8431.11
277.89	8441.61
277.959	8437.9
278.027	8424.14
278.096	8404.07
278.164	8439.11
278.233	8432.66
278.301	8422.03
278.37	8423.42
278.438	8416.97
278.507	8421.93
278.575	8400.95
278.643	8396.43
278.712	8372.99
278.78	8364.09
278.849	8370.06
278.917	8391.04
278.985	8383.87
279.054	8383
279.122	8402.83
279.191	8395.27
279.259	8400.18
279.327	8384.01
279.396	8396.81
279.464	8386.47
279.532	8400.95
279.601	8396.62
279.669	8396.52
279.737	8410.19
279.806	8413.31
279.874	8422.75
279.942	8418.27
280.011	8408.17
280.079	8415.53
280.147	8438.15
280.215	8440.41
280.284	8436.46
280.352	8416.4
280.42	8426.02
280.488	8420.68
280.557	8413.22
280.625	8424.91
280.693	8425.01
280.761	8427.37
280.83	8409.32
280.898	8428.32
280.966	8408.6
281.034	8375.06
281.102	8360.34
281.171	8348.98
281.239	8356.68
281.307	8344.26
281.375	8335.22
281.443	8362.26
281.512	8357.06
281.58	8358.07
281.648	8345.9
281.716	8341.52
281.784	8341.09
281.852	8334.11
281.92	8331.56
281.989	8338.59
282.057	8319.82
282.125	8363.57
282.193	8363.48
282.261	8367.18
282.329	8364.68
282.397	8374.01
282.465	8375.5
282.533	8389.74
282.601	8386.52
282.67	8367.95
282.738	8363.23
282.806	8370.16
282.874	8356.49
282.942	8353.41
283.01	8348.46
283.078	8348.46
283.146	8344.9
283.214	8352.88
283.282	8354.66
283.35	8370.26
283.418	8366.74
283.486	8368.86
283.554	8329.1
283.622	8325.06
283.69	8320.35
283.758	8310.82
283.826	8314.38
283.894	8330.79
283.962	8351.24
284.03	8361.92
284.098	8359.66
284.165	8350.66
284.233	8354.51
284.301	8354.56
284.369	8348.21
284.437	8336.66
284.505	8340.66
284.573	8363.32
284.641	8357.54
284.709	8371.83
284.777	8347.87
284.845	8354.42
284.912	8358.7
284.98	8357.64
285.048	8353.55
285.116	8362.93
285.184	8375.97
285.252	8371.31
285.319	8351.43
285.387	8345.08
285.455	8328.19
285.523	8334.4
285.591	8339.11
285.659	8346.62
285.726	8352.78
285.794	8341.81
285.862	8341.38
285.93	8335.56
285.997	8332.81
286.065	8321.22
286.133	8307.79
286.201	8306.59
286.269	8293.12
286.336	8288.4
286.404	8286.91
286.472	8298.55
286.539	8273.73
286.607	8258.86
286.675	8260.45
286.743	8262.42
286.81	8254.92
286.878	8269.54
286.946	8265.98
287.013	8269.16
287.081	8266.41
287.149	8256.6
287.216	8277.38
287.284	8268.82
287.352	8270.12
287.419	8259.82
287.487	8286.19
287.555	8291.43
287.622	8294.9
287.69	8299.23
287.758	8313.42
287.825	8310.49
287.893	8298.65
287.96	8311.93
288.028	8320.97
288.096	8328.91
288.163	8339.06
288.231	8330.4
288.298	8325.54
288.366	8342.53
288.433	8336.32
288.501	8324.68
288.569	8326.84
288.636	8317.61
288.704	8339.31
288.771	8349.94
288.839	8346.96
288.906	8329.63
288.974	8341.09
289.041	8340.7
289.109	8329.44
289.176	8331.61
289.244	8335.27
289.311	8351.05
289.379	8358.7
289.446	8365.05
289.514	8363.89
289.581	8363.03
289.649	8362.98
289.716	8372.03
289.783	8361.25
289.851	8381.98
289.918	8385.88
289.986	8393.77
290.053	8400.41
290.121	8394.49
290.188	8392.23
290.255	8417.3
290.323	8416
290.39	8403.68
290.458	8405.22
290.525	8423.51
290.592	8419.85
290.66	8418.12
290.727	8408.16
290.794	8419.66
290.862	8420.52
290.929	8421.44
290.996	8420.14
291.064	8432.22
291.131	8443
291.198	8450.55
291.266	8446.17
291.333	8446.56
291.4	8452.09
291.468	8468.16
291.535	8466.14
291.602	8469.46
291.669	8463.64
291.737	8469.75
291.804	8473.36
291.871	8491.84
291.938	8491.89
292.006	8518.84
292.073	8533.9
292.14	8550.94
292.207	8544.78
292.275	8544.44
292.342	8553.15
292.409	8581.83
292.476	8604.12
292.543	8592.95
292.611	8595.89
292.678	8614.8
292.745	8639.87
292.812	8648.73
292.879	8643.24
292.946	8648.92
293.014	8669.23
293.081	8679.05
293.148	8697.15
293.215	8712.26
293.282	8704.32
293.349	8713.7
293.416	8694.59
293.484	8709.9
293.551	8719.62
293.618	8741.86
293.685	8763.57
293.752	8759.62
293.819	8753.84
293.886	8741.28
293.953	8751.24
294.02	8769.29
294.087	8776.03
294.154	8769.15
294.221	8786
294.288	8790.91
294.356	8807.8
294.423	8813.86
294.49	8804.19
294.557	8815.84
294.624	8807.22
294.691	8826.67
294.758	8830.52
294.825	8836.82
294.892	8833.26
294.959	8830.66
295.026	8831.77
295.093	8824.07
295.16	8820.55
295.226	8820.89
295.293	8843.9
295.36	8847.7
295.427	8851.03
295.494	8863.98
295.561	8871.2
295.628	8891.37
295.695	8902.92
295.762	8902.97
295.829	8908.27
295.896	8923.48
295.963	8933.16
296.03	8947.16
296.096	8958.04
296.163	8971.18
296.23	8988.61
296.297	8999.01
296.364	9000.21
296.431	9002.47
296.498	9003.77
296.564	9033.09
296.631	9035.83
296.698	9019.8
296.765	9037.28
296.832	9031.5
296.899	9019.03
296.965	9044.26
297.032	9025.19
297.099	9042.33
297.166	9053.4
297.233	9046.9
297.299	9043.05
297.366	9036.12
297.433	9033.09
297.5	9040.74
297.566	9039.73
297.633	9034.72
297.7	9039.92
297.767	9033.57
297.833	9045.8
297.9	9048.3
297.967	9030.06
298.033	9047.1
298.1	9084.61
298.167	9074.21
298.234	9077.05
298.3	9082.54
298.367	9071.27
298.434	9074.11
298.5	9068.24
298.567	9060.82
298.634	9062.12
298.7	9080.75
298.767	9082
298.834	9095.2
298.9	9092.26
298.967	9086.91
299.033	9103.09
299.1	9111.52
299.167	9129.47
299.233	9130.39
299.3	9145.65
299.366	9168.28
299.433	9184.36
299.5	9148.78
299.566	9161.34
299.633	9183.92
299.699	9199.38
299.766	9203.28
299.832	9212.38
299.899	9217.39
299.965	9234.58
300.032	9230.58
300.099	9237.9
300.165	9248.35
300.232	9251.33
300.298	9248.88
300.365	9260.67
300.431	9260.77
300.498	9252.39
300.564	9259.76
300.631	9264.81
300.697	9273.19
300.763	9272.61
300.83	9267.65
300.896	9283.4
300.963	9288.45
301.029	9292.01
301.096	9292.21
301.162	9295.48
301.229	9289.7
301.295	9277.14
301.361	9280.12
301.428	9283.49
301.494	9264.71
301.561	9272.56
301.627	9276.27
301.693	9280.56
301.76	9286.96
301.826	9278.78
301.892	9293.56
301.959	9304.73
302.025	9298.81
302.092	9302.18
302.158	9308.63
302.224	9307.04
302.291	9299
302.357	9296.54
302.423	9284.6
302.49	9280.17
302.556	9289.56
302.622	9287.88
302.688	9304.2
302.755	9316.05
302.821	9329.96
302.887	9346.43
302.954	9334.63
303.02	9341.9
303.086	9352.35
303.152	9350.86
303.219	9349.51
303.285	9350.18
303.351	9357.31
303.417	9359.86
303.483	9346.24
303.55	9336.51
303.616	9336.27
303.682	9339.06
303.748	9334.39
303.815	9353.7
303.881	9361.26
303.947	9348.69
304.013	9354.23
304.079	9344.6
304.145	9325
304.212	9319.61
304.278	9308.34
304.344	9311.66
304.41	9298.52
304.476	9287.15
304.542	9288.7
304.608	9297.89
304.674	9283.54
304.741	9272.32
304.807	9273.96
304.873	9281.66
304.939	9304.73
305.005	9285.76
305.071	9288.45
305.137	9283.3
305.203	9252
305.269	9242.9
305.335	9258.26
305.401	9253.69
305.467	9253.54
305.533	9258.36
305.599	9265.29
305.666	9274.49
305.732	9272.85
305.798	9285.52
305.864	9306.7
305.93	9303.24
305.996	9302.08
306.062	9303.62
306.128	9303.05
306.194	9293.27
306.259	9293.75
306.325	9276.8
306.391	9293.61
306.457	9296.4
306.523	9307.57
306.589	9337.13
306.655	9339.59
306.721	9326.73
306.787	9313.4
306.853	9332.27
306.919	9319.13
306.985	9314.22
307.051	9305.16
307.117	9301.89
307.183	9293.18
307.248	9267.75
307.314	9274.2
307.38	9270.83
307.446	9280.46
307.512	9269.1
307.578	9275.02
307.644	9269.44
307.709	9272.95
307.775	9267.46
307.841	9264.43
307.907	9266.79
307.973	9241.8
308.039	9237.99
308.104	9241.6
308.17	9250.17
308.236	9231.39
308.302	9234.62
308.368	9223.45
308.433	9225.28
308.499	9218.15
308.565	9205.68
308.631	9206.5
308.696	9179.49
308.762	9168.27
308.828	9165.24
308.894	9150.89
308.959	9132.84
309.025	9119.7
309.091	9115.51
309.156	9104.48
309.222	9108.48
309.288	9091.43
309.354	9073.86
309.419	9070.01
309.485	9056.39
309.551	9056.24
309.616	9033.66
309.682	9029.62
309.748	9026.11
309.813	9018.6
309.879	9010.17
309.945	9000.78
310.01	8996.88
310.076	9000.98
310.141	8996.55
310.207	8977.91
310.273	8977.58
310.338	8975.03
310.404	8955.68
310.469	8938.88
310.535	8928.28
310.601	8903.35
310.666	8905.37
310.732	8916.34
310.797	8905.61
310.863	8889.58
310.928	8882.79
310.994	8896.03
311.059	8888.66
311.125	8884.19
311.191	8896.75
311.256	8885.06
311.322	8886.5
311.387	8861.37
311.453	9296.61
311.518	9271.63
311.584	9265.56
311.649	9271.44
311.715	9265.71
311.78	9276.34
311.846	9260.75
311.911	9267.73
311.976	9266.77
312.042	9252.57
312.107	9236.25
312.173	9228.6
312.238	9223.59
312.304	9217.77
312.369	9206.36
312.434	9195.29
312.5	9186.05
312.565	9149.75
312.631	9153.6
312.696	9149.32
312.761	9160.29
312.827	8711.73
312.892	8754.28
312.958	8751.34
313.023	8745.61
313.088	8740.17
313.154	8724.2
313.219	8718.95
313.284	8707.21
313.35	8707.3
313.415	8700.13
313.48	8695.42
313.546	8696.96
313.611	8706.49
313.676	8698.25
313.741	8686.99
313.807	8696.76
313.872	8699.55
313.937	8714.09
314.003	8726.07
314.068	8727.23
314.133	8730.74
314.198	8721.6
314.264	8692.28
314.329	8683.96
314.394	8679.33
314.459	8677.79
314.525	8699.5
314.59	8699.5
314.655	8687.23
314.72	8692.23
314.785	8696.08
314.851	8693.44
314.916	8673.18
314.981	8658.74
315.046	8647.09
315.111	8642.38
315.176	8631.07
315.242	8633.86
315.307	8629.72
315.372	8608.11
315.437	8592.9
315.502	8580.87
315.567	8593.57
315.632	8579.04
315.698	8584.38
315.763	8579.23
315.828	8568.31
315.893	8558.78
315.958	8561.14
316.023	8557.62
316.088	8531.97
316.153	8508.11
316.218	8499.78
316.283	8486.5
316.348	8467.35
316.413	8467.74
316.479	8446.81
316.544	8418.91
316.609	8392.05
316.674	8357.75
316.739	8320.8
316.804	8296.12
316.869	8259.85
316.934	8224.73
316.999	8200.29
317.064	8150.02
317.129	8112.49
317.194	8082.23
317.259	8040.28
317.324	7983.91
317.389	7938.56
317.454	7909.27
317.518	7875.41
317.583	7853.86
317.648	7832.94
317.713	7803.9
317.778	7739.6
317.843	7717.34
317.908	7680.12
317.973	7643.81
318.038	7612.03
318.103	7580.84
318.168	7546.46
318.233	7518.87
318.297	7471.13
318.362	7436.71
318.427	7400.47
318.492	7373.98
318.557	7329.43
318.622	7298.95
318.687	7279.92
318.751	7244.51
318.816	7210.05
318.881	7182.7
318.946	7125.56
319.011	7082.46
319.075	7040.85
319.14	7017.84
319.205	6971.28
319.27	6936.12
319.335	6888.36
319.399	6848.88
319.464	6825.1
319.529	6778.85
319.594	6739.51
319.658	6711.75
319.723	6671.6
319.788	6640.87
319.853	6589.96
319.917	6558.9
319.982	6506.79
320.047	6470.69
320.112	6447.21
320.176	6396.8
320.241	6361.18
320.306	6332.19
320.37	6293.64
320.435	6262.59
320.5	6237
320.564	6200.67
320.629	6171.45
320.694	6144.86
320.758	6109.36
320.823	6068.76
320.888	6041.61
320.952	5997.18
321.017	5952.09
321.082	5917.12
321.146	5887.91
321.211	5853.27
321.275	5813.91
321.34	5773.1
321.405	5729.75
321.469	5683.38
321.534	5646.9
321.598	5598.57
321.663	5571.29
321.727	5540.51
321.792	5496.84
321.857	5448.51
321.921	5410.69
321.986	5361.05
322.05	5305.8
322.115	5267.94
322.179	5222.52
322.244	5166.33
322.308	5138.3
322.373	5097.69
322.437	5054.77
322.502	5027.02
322.566	4982.05
322.631	4948.38
322.695	4911.71
322.76	4870.73
322.824	4838.27
322.889	4799.21
322.953	4754.56
323.018	4688.93
323.082	4625.81
323.146	4576.81
323.211	4522.94
323.275	4479.68
323.34	4436.73
323.404	4400.67
323.468	4356.37
323.533	4320.06
323.597	4279.48
323.662	4226.82
323.726	4193.58
323.79	4152.27
323.855	4089.71
323.919	4045.44
323.983	4006.86
324.048	3941.61
324.112	4070.79
324.177	3945.66
324.241	3740.24
324.305	3541.84
324.37	3347.46
324.434	3159.53
324.498	3116.96
324.562	3072.19
324.627	3015.69
324.691	2961.47
324.755	2900.02
324.82	2826.51
324.884	2742.99
324.948	2673.17
325.012	2579.85
325.077	2457.15
