Data from 20250704_urea_0.5M_MAYP1162681_11-04-53-779.txt Node
Date: Fri Jul 04 11:04:53 BST 2025
User: adleo
Spectrometer: MAYP116268
Trigger mode: 0
Integration Time (sec): 1.000000E0
Scans to average: 1
Electric dark correction enabled: true
Nonlinearity correction enabled: true
Boxcar width: 10
XAxis mode: Wavelengths
Number of Pixels in Spectrum: 2068
>>>>>Begin Spectral Data<<<<<
179.565	1241.98
179.642	1297.55
179.718	1344.8
179.795	1383.3
179.871	1414.94
179.948	1436.7
180.024	1460.48
180.101	1485
180.177	1499.79
180.254	1523.49
180.33	1546.87
180.407	1600.67
180.483	1700.3
180.56	1794.42
180.636	1882.63
180.712	1871.17
180.789	1880.87
180.865	1891.47
180.942	1895.98
181.018	1907.49
181.095	1919.28
181.171	1924.41
181.248	1928.79
181.324	1941.63
181.4	1951.43
181.477	1964.6
181.553	1973.91
181.63	1993.08
181.706	2007.92
181.782	2015
181.859	2012.39
181.935	2017.33
182.011	2014.91
182.088	2030.22
182.164	2047.68
182.24	2057.57
182.317	2067.42
182.393	2067.46
182.469	2082.59
182.546	2098.42
182.622	2104.51
182.698	2103.04
182.775	2114.83
182.851	2128.82
182.927	2122.92
183.003	2116.64
183.08	2111.08
183.156	2122.45
183.232	2117.59
183.308	2103.56
183.385	2112.22
183.461	2135.63
183.537	2135.82
183.613	2150.66
183.69	2141.9
183.766	2131.53
183.842	2142.61
183.918	2147.42
183.995	2160.36
184.071	2164.21
184.147	2160.02
184.223	2146.47
184.299	2159.94
184.375	2148
184.452	2155.09
184.528	2206.87
184.604	2219.95
184.68	2231.08
184.756	2237.55
184.832	2243.59
184.908	2251.25
184.985	2252.06
185.061	2231.6
185.137	2239.4
185.213	2226.7
185.289	2226.94
185.365	2219.71
185.441	2217.04
185.517	2231.51
185.593	2228.75
185.669	2226.47
185.745	2234.65
185.822	2252.01
185.898	2239.92
185.974	2249.72
186.05	2236.21
186.126	2199.71
186.202	2190.67
186.278	2186.96
186.354	2180.15
186.43	2186.48
186.506	2186.58
186.582	2182.77
186.658	2189.24
186.734	2169.22
186.81	2173.59
186.886	2177.73
186.962	2189.81
187.038	2186.39
187.114	2177.39
187.19	2182.05
187.266	2172.73
187.341	2173.11
187.417	2168.88
187.493	2170.59
187.569	2175.92
187.645	2172.49
187.721	2158.6
187.797	2167.07
187.873	2171.82
187.949	2163.69
188.025	2157.07
188.101	2159.74
188.176	2168.68
188.252	2165.92
188.328	2174.2
188.404	2173.39
188.48	2167.01
188.556	2162.16
188.632	2161.59
188.707	2163.92
188.783	2161.07
188.859	2155.46
188.935	2144.94
189.011	2150.65
189.086	2143.32
189.162	2133.95
189.238	2131.15
189.314	2132.53
189.39	2126.15
189.465	2116.45
189.541	2133.48
189.617	2119.83
189.693	2112.93
189.768	2115.31
189.844	2139.25
189.92	2132.83
189.996	2141.25
190.071	2154.95
190.147	2152.81
190.223	2162.66
190.298	2151.91
190.374	2141.96
190.45	2152.71
190.526	2162.32
190.601	2156.57
190.677	2159.09
190.753	2185.65
190.828	2188.17
190.904	2200.97
190.98	2218.29
191.055	2231.71
191.131	2223
191.207	2242.08
191.282	2251.54
191.358	2241.17
191.433	2224.37
191.509	2237.4
191.585	2234.5
191.66	2236.64
191.736	2246.25
191.811	2236.26
191.887	2254.25
191.963	2274.47
192.038	2281.18
192.114	2282.13
192.189	2288.41
192.265	2285.61
192.34	2264.8
192.416	2265.99
192.491	2262.56
192.567	2265.33
192.642	2269.85
192.718	2268.75
192.793	2256.76
192.869	2251.1
192.944	2254.1
193.02	2263.28
193.095	2267.38
193.171	2273.09
193.246	2269.99
193.322	2263.95
193.397	2265.19
193.473	2251
193.548	2235.91
193.624	2241.39
193.699	2238.87
193.775	2251.05
193.85	2252.86
193.925	2262
194.001	2262.71
194.076	2256.43
194.152	2242.82
194.227	2231.25
194.302	2223.4
194.378	2228.64
194.453	2227.92
194.529	2241.86
194.604	2227.07
194.679	2217.6
194.755	2200.38
194.83	2213.19
194.905	2212.8
194.981	2221.7
195.056	2215.28
195.131	2219.23
195.207	2215.56
195.282	2207.95
195.357	2189.01
195.433	2203.43
195.508	2191.05
195.583	2195.52
195.659	2209.37
195.734	2216.99
195.809	2219.37
195.884	2230.36
195.96	2229.12
196.035	2245.77
196.11	2240.82
196.185	2253.34
196.261	2260.62
196.336	2289.88
196.411	2274.08
196.486	2280.55
196.561	2274.36
196.637	2282.64
196.712	2298.87
196.787	2302.78
196.862	2316.05
196.937	2327.33
197.013	2334.66
197.088	2345.99
197.163	2370.79
197.238	2389.85
197.313	2387.33
197.388	2401.27
197.464	2431.9
197.539	2443.7
197.614	2435.32
197.689	2448.46
197.764	2461.94
197.839	2482.36
197.914	2479.22
197.989	2502.84
198.065	2517.69
198.14	2569.54
198.215	2595.25
198.29	2609.93
198.365	2624.4
198.44	2636.5
198.515	2662.46
198.59	2678.28
198.665	2702.38
198.74	2711.2
198.815	2710.96
198.89	2736.63
198.965	2764.75
199.04	2758.27
199.115	2775.42
199.19	2820.34
199.265	2822.34
199.34	2834.49
199.415	2869.64
199.49	2889.36
199.565	2900.18
199.64	2920.1
199.715	2916.9
199.79	2924.05
199.865	2929.34
199.94	2932.54
200.015	2966.1
200.09	2973.68
200.165	2978.78
200.24	2985.93
200.315	3026.93
200.39	3041.28
200.464	3048.48
200.539	3051.24
200.614	3068.6
200.689	3091.53
200.764	3100.69
200.839	3119.99
200.914	3126.72
200.989	3116.84
201.063	3133.29
201.138	3116.9
201.213	3120.67
201.288	3101.83
201.363	3108.79
201.438	3109.6
201.512	3120.38
201.587	3100.54
201.662	3104.54
201.737	3118.42
201.812	3126.38
201.886	3089.11
201.961	3099.89
202.036	3086.41
202.111	3084.64
202.186	3055.86
202.26	3038.78
202.335	3012.17
202.41	3006.26
202.485	2990.91
202.559	2969.7
202.634	2940.9
202.709	2948.57
202.784	2928.55
202.858	2927.17
202.933	2908.1
203.008	2901.19
203.082	2880.18
203.157	2877.98
203.232	2837.86
203.306	2815.98
203.381	2784.9
203.456	2763.6
203.53	2740.28
203.605	2719.9
203.68	2692.35
203.754	2683.26
203.829	2667.91
203.904	2649.15
203.978	2637.28
204.053	2642.43
204.127	2629.14
204.202	2627.95
204.277	2609.99
204.351	2601.8
204.426	2593.98
204.5	2586.08
204.575	2550.94
204.65	2565.61
204.724	2557.27
204.799	2562.41
204.873	2556.46
204.948	2557.74
205.022	2546.13
205.097	2535.41
205.171	2550.55
205.246	2562.41
205.32	2564.03
205.395	2566.22
205.469	2558.6
205.544	2563.37
205.618	2539.17
205.693	2552.41
205.767	2540.8
205.842	2561.71
205.916	2559.28
205.991	2550.04
206.065	2557.14
206.14	2575.36
206.214	2565.45
206.289	2563.21
206.363	2577.45
206.438	2581.98
206.512	2590.51
206.586	2611.55
206.661	2619.8
206.735	2599.99
206.81	2598.75
206.884	2618.8
206.958	2606.52
207.033	2624.85
207.107	2636.53
207.181	2679.98
207.256	2678.12
207.33	2703.66
207.405	2722.97
207.479	2747.41
207.553	2763.75
207.628	2755.23
207.702	2772.19
207.776	2778.33
207.851	2792.91
207.925	2819.9
207.999	2834.01
208.073	2846.5
208.148	2867.38
208.222	2877.53
208.296	2930.76
208.371	2973.17
208.445	3009.52
208.519	3063.92
208.593	3105.74
208.668	3130.45
208.742	3162.73
208.816	3199.02
208.89	3244.45
208.965	3282.03
209.039	3330.34
209.113	3393.97
209.187	3460.8
209.261	3511.44
209.336	3587.36
209.41	3659.81
209.484	3717.92
209.558	3801.25
209.632	3878.16
209.707	3957.11
209.781	4051.66
209.855	4142.52
209.929	4238
210.003	4320.37
210.077	4406.66
210.151	4544.38
210.226	4674.27
210.3	4795.13
210.374	4917.04
210.448	5031.07
210.522	5148.51
210.596	5276.69
210.67	5399.14
210.744	5569.77
210.818	5722.2
210.892	5871.13
210.966	5997.45
211.041	6146.41
211.115	6282.27
211.189	6450.02
211.263	6614.16
211.337	6765.46
211.411	6931.24
211.485	7079.24
211.559	7253.3
211.633	7418.33
211.707	7552.88
211.781	7727.61
211.855	7863.94
211.929	8033.96
212.003	8181.83
212.077	8373.37
212.151	8558.73
212.225	8748.38
212.299	8914.37
212.373	9094.06
212.447	9275.1
212.52	9497.82
212.594	9697.38
212.668	9898.39
212.742	10076.17
212.816	10263.16
212.89	10454.25
212.964	10644.47
213.038	10843.46
213.112	11052.2
213.186	11267.68
213.26	11444.43
213.333	11588.14
213.407	11791.7
213.481	11985
213.555	12200.42
213.629	12377.31
213.703	12550.84
213.777	12747.93
213.85	12925.85
213.924	13148.16
213.998	13345.94
214.072	13525.89
214.146	13704.92
214.219	13893.11
214.293	14077.35
214.367	14262.79
214.441	14454.3
214.515	14624.46
214.588	14772.93
214.662	14908.53
214.736	15053.43
214.81	15241.51
214.883	15436.93
214.957	15592.52
215.031	15757.71
215.105	15897.59
215.178	16048.6
215.252	16207.7
215.326	16336.3
215.4	16470.67
215.473	16580.41
215.547	16714.88
215.621	16854.88
215.694	17002.65
215.768	17117.64
215.842	17246.61
215.915	17375.24
215.989	17500.2
216.063	17625.89
216.136	17772.34
216.21	17913.4
216.284	18062.12
216.357	18189.01
216.431	18302.65
216.504	18441.68
216.578	18584.13
216.652	18732.12
216.725	18852.89
216.799	18980.64
216.873	19102.13
216.946	19222.94
217.02	19334.17
217.093	19434.93
217.167	19520.28
217.24	19609
217.314	19712.8
217.387	19806.82
217.461	19901.18
217.535	20005.03
217.608	20084.55
217.682	20175.29
217.755	20269.94
217.829	20343.14
217.902	20424.45
217.976	20510.18
218.049	20590.71
218.123	20655.49
218.196	20727.68
218.27	20810.96
218.343	20878.53
218.417	20961.91
218.49	21036.18
218.563	21110.74
218.637	21183.14
218.71	21270.18
218.784	21346.43
218.857	21427.74
218.931	21510.21
219.004	21580.92
219.077	21650.14
219.151	21732.8
219.224	21799.9
219.298	21865.02
219.371	21942.29
219.444	21989.34
219.518	22049.54
219.591	22099.77
219.665	22181.53
219.738	22235.81
219.811	22271.67
219.885	22328.03
219.958	22379.9
220.031	22424.68
220.105	22479.35
220.178	22529.2
220.251	22571.48
220.325	22619.55
220.398	22665.5
220.471	22708.16
220.544	22747.41
220.618	22777.69
220.691	22810.13
220.764	22831.44
220.838	22871.27
220.911	22897.06
220.984	22953.28
221.057	22991.03
221.131	23027.2
221.204	23026.52
221.277	23076.76
221.35	23134.67
221.424	23153.62
221.497	23180.43
221.57	23204.88
221.643	23245.19
221.716	23275.47
221.79	23285.55
221.863	23309.95
221.936	23327.46
222.009	23333.29
222.082	23354.75
222.155	23363.09
222.229	23405.04
222.302	23440.97
222.375	23447.82
222.448	23469.81
222.521	23471.2
222.594	23476.75
222.667	23474.68
222.74	23498.79
222.814	23492.66
222.887	23485.82
222.96	23497.58
223.033	23515.33
223.106	23532.93
223.179	23531.72
223.252	23527.82
223.325	23534.76
223.398	23529.22
223.471	23523.33
223.544	23521.6
223.617	23522.37
223.69	23527.09
223.763	23497.68
223.837	23484.75
223.91	23490.11
223.983	23464.35
224.056	23441.31
224.129	23429.68
224.202	23438.36
224.275	23418.98
224.348	23396.51
224.42	23369.31
224.493	23351.08
224.566	23325.09
224.639	23312.79
224.712	23291.72
224.785	23285.45
224.858	23270.79
224.931	23248.66
225.004	23231.4
225.077	23221.13
225.15	23170.35
225.223	23147.93
225.296	23164.52
225.369	23133.9
225.442	23104.63
225.514	23093.11
225.587	23096.53
225.66	23089.54
225.733	23066.15
225.806	23059.31
225.879	23047.69
225.952	23039.15
226.025	23036.45
226.097	23030.52
226.17	23006.8
226.243	22963.89
226.316	22933.95
226.389	22920.73
226.461	22902.85
226.534	22884.24
226.607	22868.71
226.68	22879.08
226.753	22857.29
226.825	22814.61
226.898	22811.72
226.971	22792.72
227.044	22779.37
227.117	22750.44
227.189	22739.59
227.262	22732.17
227.335	22713.46
227.407	22681.5
227.48	22660.48
227.553	22624.61
227.626	22596.88
227.698	22567.96
227.771	22559.13
227.844	22533.63
227.916	22508.37
227.989	22474.53
228.062	22455.63
228.134	22456.55
228.207	22429.5
228.28	22408.34
228.352	22380.23
228.425	22356.7
228.498	22337.18
228.57	22296.74
228.643	22282.08
228.716	22241.34
228.788	22197.91
228.861	22155.25
228.934	22153.65
229.006	22129.65
229.079	22106.51
229.151	22076.96
229.224	22044.47
229.296	22018.68
229.369	22018.54
229.442	21999.3
229.514	21971.06
229.587	21951.34
229.659	21901.02
229.732	21884.24
229.804	21863.71
229.877	21857.97
229.949	21830.4
230.022	21822.11
230.094	21800.08
230.167	21776.51
230.239	21750
230.312	21730.91
230.384	21730.04
230.457	21694.9
230.529	21668.3
230.602	21640.53
230.674	21611.42
230.747	21596
230.819	21585.83
230.892	21523.5
230.964	21503.45
231.037	21485.62
231.109	21453.13
231.181	21432.79
231.254	21387.24
231.326	21357.22
231.399	21323.72
231.471	21291.42
231.544	21243.27
231.616	21225.15
231.688	21194.35
231.761	21153.29
231.833	21118.83
231.905	21064.46
231.978	21045.91
232.05	21023.74
232.122	21001.37
232.195	20972.02
232.267	20964.41
232.339	20921.51
232.412	20909.13
232.484	20874.66
232.556	20837.89
232.629	20822.86
232.701	20800.2
232.773	20772.93
232.846	20741.36
232.918	20712.88
232.99	20678.8
233.062	20649.69
233.135	20613.64
233.207	20572.44
233.279	20556.15
233.351	20529.6
233.424	20487.86
233.496	20439.38
233.568	20420.05
233.64	20379.38
233.713	20342.22
233.785	20303.96
233.857	20276.63
233.929	20230.03
234.001	20212.54
234.074	20194.37
234.146	20143.96
234.218	20104.06
234.29	20071.82
234.362	20029.5
234.434	19972.93
234.507	19934.91
234.579	19890.23
234.651	19857.08
234.723	19833.17
234.795	19810.57
234.867	19776.45
234.939	19768.94
235.012	19745.9
235.084	19710.63
235.156	19684.8
235.228	19650.58
235.3	19601.81
235.372	19572.51
235.444	19560.71
235.516	19496.61
235.588	19462.78
235.66	19435.27
235.732	19396.18
235.804	19418.69
235.876	19389.58
235.948	19376.09
236.02	19337.44
236.092	19300.38
236.164	19266.84
236.236	19229.69
236.308	19187.14
236.38	19153.74
236.452	19105.41
236.524	19073.7
236.596	19054.9
236.668	19024.45
236.74	18993.32
236.812	18968.5
236.884	18938.19
236.956	18896.41
237.028	18857.18
237.1	18812.94
237.172	18804.7
237.244	18789.33
237.316	18716.8
237.388	18682.93
237.46	18639.6
237.532	18629.34
237.604	18596.14
237.675	18576.81
237.747	18548.14
237.819	18506.79
237.891	18472.53
237.963	18438.07
238.035	18393.93
238.107	18323.62
238.178	18302.27
238.25	18267.91
238.322	18254.85
238.394	18210.61
238.466	18169.17
238.538	18150.42
238.609	18121.7
238.681	18050.52
238.753	17996.65
238.825	17960.5
238.897	17930.91
238.968	17911.78
239.04	17862.1
239.112	17851.3
239.184	17803.16
239.255	17766.2
239.327	17725.52
239.399	17692.03
239.471	17664.46
239.542	17633.47
239.614	17610.44
239.686	17543.4
239.758	17511.02
239.829	17460.66
239.901	17433.72
239.973	17406.1
240.044	17371.84
240.116	17344.03
240.188	17313.91
240.259	17289.91
240.331	17252.51
240.403	17220.32
240.474	17170.63
240.546	17127.55
240.618	17071.3
240.689	17038.05
240.761	17009.23
240.833	17005.76
240.904	16968.12
240.976	16923.68
241.048	16884.93
241.119	16865.46
241.191	16845.66
241.262	16829.7
241.334	16794.09
241.405	16760.5
241.477	16718.28
241.549	16674.18
241.62	16637.79
241.692	16616.73
241.763	16584.29
241.835	16551.18
241.906	16522.6
241.978	16475.32
242.049	16460.62
242.121	16439.46
242.192	16418.69
242.264	16371.07
242.335	16314.49
242.407	16298.19
242.478	16274.58
242.55	16253.27
242.621	16208.31
242.693	16174.71
242.764	16132.54
242.836	16101.74
242.907	16068
242.979	16041.3
243.05	16026.65
243.122	15996.14
243.193	15954.2
243.264	15899.64
243.336	15861.9
243.407	15835.49
243.479	15829.27
243.55	15792.35
243.622	15765.7
243.693	15729.4
243.764	15709.64
243.836	15664.91
243.907	15620.08
243.978	15573.76
244.05	15541.61
244.121	15489.89
244.192	15465.36
244.264	15409.92
244.335	15374.25
244.407	15326.92
244.478	15297.71
244.549	15252.35
244.62	15209.6
244.692	15175.86
244.763	15160.19
244.834	15119.75
244.906	15079.11
244.977	15053.23
245.048	15045.18
245.119	15007.34
245.191	14970.8
245.262	14922.16
245.333	14902.01
245.405	14875.45
245.476	14857.91
245.547	14831.4
245.618	14818.09
245.689	14790.95
245.761	14779.63
245.832	14749.06
245.903	14727.9
245.974	14706.31
246.045	14683.02
246.117	14674.4
246.188	14639.54
246.259	14599
246.33	14578.8
246.401	14550.12
246.473	14495.65
246.544	14445.42
246.615	14427.3
246.686	14404.88
246.757	14393.36
246.828	14365.84
246.899	14352.82
246.97	14305.19
247.042	14268.12
247.113	14246.58
247.184	14232.4
247.255	14200.49
247.326	14178.27
247.397	14149.44
247.468	14118.01
247.539	14086.05
247.61	14045.61
247.681	14027.72
247.752	14018.95
247.823	13978.69
247.894	13957.29
247.965	13918.2
248.037	13896.55
248.108	13854.85
248.179	13818.31
248.25	13785.15
248.321	13761.52
248.392	13718.96
248.463	13723.3
248.534	13689.65
248.605	13672.39
248.675	13641.54
248.746	13615.75
248.817	13590.39
248.888	13575.06
248.959	13534.23
249.03	13516.2
249.101	13481.16
249.172	13450.45
249.243	13399.98
249.314	13397.47
249.385	13372.02
249.456	13362.23
249.527	13339.19
249.598	13323.57
249.669	13297.68
249.739	13276.76
249.81	13256.8
249.881	13221.08
249.952	13189.94
250.023	13170.37
250.094	13122.89
250.165	13088.47
250.235	13065.28
250.306	13043.44
250.377	13013.55
250.448	13002.22
250.519	12960.14
250.59	12966.94
250.66	12936.52
250.731	12933.97
250.802	12899.02
250.873	12879.59
250.944	12865.22
251.014	12837.26
251.085	12835.67
251.156	12814.99
251.227	12806.41
251.297	12801.64
251.368	12783.18
251.439	12778.07
251.51	12770.98
251.58	12745.72
251.651	12718.53
251.722	12704.84
251.792	12666.09
251.863	12629.93
251.934	12618.27
252.005	12625.89
252.075	12599.47
252.146	12589.2
252.217	12571.85
252.287	12568.04
252.358	12542.49
252.429	12536.9
252.499	12503.98
252.57	12481.03
252.641	12476.64
252.711	12451.48
252.782	12411.81
252.852	12418.61
252.923	12389.35
252.994	12367.07
253.064	12359.56
253.135	12329.24
253.205	12307.5
253.276	12313.14
253.347	12321.43
253.417	12290.19
253.488	12265.9
253.558	12239.82
253.629	12225.5
253.699	12210.85
253.77	12194.65
253.841	12171.95
253.911	12150.79
253.982	12143.17
254.052	12128.32
254.123	12107.55
254.193	12090.92
254.264	12110.97
254.334	12074.96
254.405	12047.25
254.475	12019.53
254.546	12005.99
254.616	12005.17
254.687	11989.07
254.757	11965.69
254.827	11940.39
254.898	11924.14
254.968	11911.18
255.039	11884.28
255.109	11873.2
255.18	11847.8
255.25	11805.96
255.321	11807.26
255.391	11772.27
255.461	11776.85
255.532	11735.88
255.602	11709.22
255.673	11670.81
255.743	11647.57
255.813	11611.62
255.884	11605.02
255.954	11595.86
256.024	11592.73
256.095	11575.14
256.165	11542.46
256.235	11532.58
256.306	11509.73
256.376	11507.27
256.446	11487.22
256.517	11475.95
256.587	11471.61
256.657	11453.87
256.728	11448.09
256.798	11417.97
256.868	11401.53
256.938	11368.13
257.009	11358.4
257.079	11349.34
257.149	11363.99
257.219	11318.73
257.29	11311.26
257.36	11269.29
257.43	11264.47
257.5	11219.79
257.571	11199.02
257.641	11185.96
257.711	11152.95
257.781	11140.23
257.852	11124.8
257.922	11090.01
257.992	11067.22
258.062	11041.24
258.132	11034.83
258.202	11010.73
258.273	10993.92
258.343	10992.71
258.413	10969.87
258.483	10952.09
258.553	10920.86
258.623	10892.77
258.693	10880.09
258.764	10876.77
258.834	10882.16
258.904	10864.96
258.974	10841.98
259.044	10824.82
259.114	10820.73
259.184	10812.15
259.254	10795.91
259.324	10757.21
259.394	10751.34
259.464	10759
259.535	10745.55
259.605	10719.77
259.675	10692.84
259.745	10680.6
259.815	10652.27
259.885	10629.72
259.955	10643.12
260.025	10626.11
260.095	10606.06
260.165	10593.2
260.235	10598.31
260.305	10577.49
260.375	10544.49
260.445	10554.31
260.515	10551.66
260.585	10548
260.655	10537.07
260.725	10529.16
260.795	10522.18
260.865	10523.67
260.934	10499.48
261.004	10485.41
261.074	10479.53
261.144	10485.17
261.214	10484.79
261.284	10469.8
261.354	10462.58
261.424	10435.11
261.494	10442.77
261.564	10432.51
261.634	10434.58
261.703	10395.12
261.773	10378.98
261.843	10376.62
261.913	10360.34
261.983	10330.08
262.053	10319.38
262.123	10292.5
262.192	10260.37
262.262	10257.96
262.332	10230.89
262.402	10219.95
262.472	10205.69
262.541	10168.5
262.611	10164.41
262.681	10138.05
262.751	10138.54
262.821	10124.08
262.89	10094.55
262.96	10081.93
263.03	10083.91
263.1	10064.15
263.169	10053.31
263.239	10047.97
263.309	10050.14
263.379	10046.28
263.448	10033.81
263.518	10019.74
263.588	10007.65
263.657	10019.64
263.727	10014.63
263.797	9999.6
263.867	9985.3
263.936	9964.87
264.006	9966.8
264.076	9951.1
264.145	9942.67
264.215	9918.34
264.285	9920.12
264.354	9894.74
264.424	9871.53
264.494	9839.73
264.563	9822.88
264.633	9829.72
264.702	9818.88
264.772	9779.62
264.842	9757.75
264.911	9750.43
264.981	9727.31
265.05	9717.58
265.12	9689.65
265.19	9676.6
265.259	9672.98
265.329	9667.4
265.398	9654.3
265.468	9666.82
265.537	9646.4
265.607	9629.83
265.676	9629.64
265.746	9609.03
265.815	9611.58
265.885	9600.84
265.955	9580.86
266.024	9562.56
266.094	9523.5
266.163	9530.77
266.232	9538.48
266.302	9522.2
266.371	9512.62
266.441	9500.43
266.51	9499.9
266.58	9491.04
266.649	9468.84
266.719	9465.9
266.788	9452.13
266.858	9454.49
266.927	9419.09
266.996	9416.3
267.066	9413.07
267.135	9387.89
267.205	9396.17
267.274	9382.83
267.343	9385
267.413	9375.52
267.482	9388.86
267.552	9399.02
267.621	9370.84
267.69	9339.59
267.76	9329.58
267.829	9326.5
267.898	9315.76
267.968	9289.09
268.037	9285.23
268.106	9284.94
268.176	9260.77
268.245	9252.73
268.314	9233.28
268.384	9233.76
268.453	9223.02
268.522	9220.47
268.592	9222.59
268.661	9200.39
268.73	9195.48
268.799	9175.5
268.869	9187.05
268.938	9150.27
269.007	9126.96
269.076	9117
269.146	9122.34
269.215	9118.15
269.284	9121.19
269.353	9107.42
269.422	9103.9
269.492	9085.32
269.561	9052.39
269.63	9049.17
269.699	9029.62
269.768	9025.05
269.838	9014.46
269.907	9012.15
269.976	8980.28
270.045	8945.38
270.114	8940.76
270.183	8924.73
270.253	8914.57
270.322	8882.75
270.391	8872.64
270.46	8880.06
270.529	8879.72
270.598	8872.83
270.667	8863.06
270.736	8839.14
270.806	8827.44
270.875	8826
270.944	8816.08
271.013	8838.61
271.082	8828.16
271.151	8828.79
271.22	8803.38
271.289	8794.9
271.358	8781.62
271.427	8783.54
271.496	8781.72
271.565	8765.78
271.634	8765.11
271.703	8787.01
271.772	8791.34
271.841	8785.09
271.91	8764.39
271.979	8756.01
272.048	8739.07
272.117	8738.59
272.186	8725.5
272.255	8730.41
272.324	8724.87
272.393	8725.4
272.462	8703.21
272.531	8697.63
272.6	8683.57
272.669	8689.97
272.738	8678.62
272.807	8677.46
272.876	8655.61
272.945	8683.62
273.013	8690.03
273.082	8695.99
273.151	8658.59
273.22	8656.09
273.289	8653.83
273.358	8659.27
273.427	8648.68
273.496	8648.25
273.564	8644.39
273.633	8644.78
273.702	8628.56
273.771	8627.07
273.84	8626.2
273.909	8627.89
273.977	8624.42
274.046	8620.33
274.115	8623.27
274.184	8614.94
274.253	8602.48
274.322	8615.18
274.39	8581.59
274.459	8564.12
274.528	8532.31
274.597	8530.48
274.665	8528.56
274.734	8529.61
274.803	8519.56
274.872	8507
274.94	8491.6
275.009	8547.55
275.078	8535.9
275.147	8532.49
275.215	8528.59
275.284	8527.05
275.353	8513.43
275.421	8488.12
275.49	8502.94
275.559	8497.41
275.627	8487.98
275.696	8479.08
275.765	8474.84
275.833	8468.59
275.902	8473.45
275.971	8483.17
276.039	8491.83
276.108	8490.63
276.177	8493.47
276.245	8485.53
276.314	8481.29
276.383	8487.02
276.451	8421.25
276.52	8426.64
276.588	8438.09
276.657	8436.55
276.725	8425.44
276.794	8421.44
276.863	8436.84
276.931	8408.54
277	8416
277.068	8425.05
277.137	8445.88
277.205	8440.78
277.274	8456.32
277.342	8461.52
277.411	8441.89
277.48	8435.35
277.548	8424.43
277.617	8420.62
277.685	8413.02
277.754	8426.4
277.822	8423.46
277.89	8440.21
277.959	8430.3
278.027	8412.79
278.096	8407.06
278.164	8438.78
278.233	8437
278.301	8429.35
278.37	8435.84
278.438	8420.78
278.507	8419.09
278.575	8389.69
278.643	8394.36
278.712	8375.21
278.78	8361.4
278.849	8368.57
278.917	8374.82
278.985	8370.93
279.054	8376.08
279.122	8385.6
279.191	8374.78
279.259	8371.55
279.327	8344.65
279.396	8363.18
279.464	8361.54
279.532	8362.12
279.601	8352.92
279.669	8345.18
279.737	8353.65
279.806	8354.27
279.874	8361.39
279.942	8365.58
280.011	8365.44
280.079	8361.2
280.147	8380.83
280.215	8385.88
280.284	8389.88
280.352	8375.25
280.42	8387.76
280.488	8377.56
280.557	8377.22
280.625	8384.97
280.693	8386.07
280.761	8394.73
280.83	8374.57
280.898	8386.94
280.966	8374.67
281.034	8342.96
281.102	8332.81
281.171	8331.08
281.239	8344.41
281.307	8334.83
281.375	8318.86
281.443	8347.63
281.512	8350.43
281.58	8358.27
281.648	8346.43
281.716	8342.25
281.784	8340.04
281.852	8332.29
281.92	8325.74
281.989	8334.26
282.057	8311.55
282.125	8353.52
282.193	8348.95
282.261	8351.16
282.329	8348.13
282.397	8350.11
282.465	8358
282.533	8377
282.601	8370.55
282.67	8350
282.738	8345.43
282.806	8358.23
282.874	8341.29
282.942	8342.11
283.01	8336.96
283.078	8341.24
283.146	8333.69
283.214	8347.45
283.282	8355.97
283.35	8381.28
283.418	8370.26
283.486	8381.32
283.554	8336.95
283.622	8335.89
283.69	8341.47
283.758	8332.19
283.826	8332.28
283.894	8344.07
283.962	8362.93
284.03	8377.85
284.098	8375.16
284.165	8371.12
284.233	8366.64
284.301	8357.89
284.369	8349.9
284.437	8340.13
284.505	8329.5
284.573	8349.03
284.641	8333.73
284.709	8332.43
284.777	8306.15
284.845	8311.11
284.912	8317.75
284.98	8322.61
285.048	8318.86
285.116	8321.94
285.184	8335.26
285.252	8344.65
285.319	8325.64
285.387	8311.78
285.455	8292.92
285.523	8301.1
285.591	8299.56
285.659	8307.69
285.726	8324.87
285.794	8305.24
285.862	8307.84
285.93	8308.13
285.997	8302.64
286.065	8302.79
286.133	8289.65
286.201	8284.7
286.269	8277.1
286.336	8266.65
286.404	8263.14
286.472	8271.56
286.539	8252.08
286.607	8240.77
286.675	8237.07
286.743	8238.13
286.81	8229.99
286.878	8239.09
286.946	8232.5
287.013	8232.45
287.081	8225.9
287.149	8212.43
287.216	8239.71
287.284	8232.06
287.352	8239.18
287.419	8239.66
287.487	8254.91
287.555	8261.65
287.622	8268.43
287.69	8274.16
287.758	8287.39
287.825	8283.92
287.893	8273.1
287.96	8278.05
288.028	8284.93
288.096	8285.08
288.163	8294.51
288.231	8290.66
288.298	8288.78
288.366	8303.89
288.433	8301.68
288.501	8299.75
288.569	8302.16
288.636	8292.05
288.704	8307.45
288.771	8317.51
288.839	8310
288.906	8299.66
288.974	8309.23
289.041	8302.45
289.109	8288.3
289.176	8294.56
289.244	8298.07
289.311	8316.26
289.379	8323.72
289.446	8329.25
289.514	8333.15
289.581	8336.66
289.649	8340.61
289.716	8348.16
289.783	8338.34
289.851	8359.95
289.918	8357.3
289.986	8363.94
290.053	8372.94
290.121	8365.48
290.188	8361.49
290.255	8390.98
290.323	8387.66
290.39	8382.13
290.458	8384.05
290.525	8402.24
290.592	8397.38
290.66	8396.37
290.727	8385.3
290.794	8404.02
290.862	8402.48
290.929	8406.57
290.996	8400.65
291.064	8409.51
291.131	8421.44
291.198	8436.74
291.266	8432.12
291.333	8433.95
291.4	8432.6
291.468	8448.49
291.535	8444.4
291.602	8447.33
291.669	8439.63
291.737	8440.64
291.804	8444.2
291.871	8460.18
291.938	8466.62
292.006	8492.13
292.073	8507.15
292.14	8521.97
292.207	8508.83
292.275	8510.56
292.342	8521.05
292.409	8547.86
292.476	8575.01
292.543	8560.91
292.611	8563.07
292.678	8579.58
292.745	8608.6
292.812	8626.26
292.879	8620.29
292.946	8625.78
293.014	8645.94
293.081	8656.63
293.148	8681.27
293.215	8693.83
293.282	8695.56
293.349	8704.32
293.416	8683.04
293.484	8690.94
293.551	8699.31
293.618	8715.82
293.685	8743.5
293.752	8732.23
293.819	8728.38
293.886	8715.72
293.953	8725.54
294.02	8735.5
294.087	8747.15
294.154	8738.06
294.221	8748.84
294.288	8753.89
294.356	8774.3
294.423	8779.02
294.49	8768.38
294.557	8769.1
294.624	8766.12
294.691	8786.28
294.758	8790.9
294.825	8800.24
294.892	8801.11
294.959	8796.25
295.026	8802.55
295.093	8789.17
295.16	8790.71
295.226	8793.65
295.293	8817.23
295.36	8823.68
295.427	8836.15
295.494	8840.29
295.561	8853.82
295.628	8879.29
295.695	8887.62
295.762	8888.63
295.829	8894.89
295.896	8915.34
295.963	8929.26
296.03	8931.13
296.096	8931.66
296.163	8932.91
296.23	8950.82
296.297	8958.67
296.364	8961.41
296.431	8970.89
296.498	8973.69
296.564	8998.62
296.631	9007.38
296.698	8991.16
296.765	9008.97
296.832	8991.4
296.899	8981.62
296.965	8996.36
297.032	8969.39
297.099	8993.85
297.166	9007.72
297.233	9003.43
297.299	8992.17
297.366	8997.03
297.433	9002.08
297.5	9020.76
297.566	9028.27
297.633	9026.3
297.7	9038
297.767	9033.14
297.833	9039.73
297.9	9034.01
297.967	9013.93
298.033	9022.74
298.1	9052.21
298.167	9050.48
298.234	9059.77
298.3	9068.19
298.367	9062.08
298.434	9074.5
298.5	9058.75
298.567	9045.61
298.634	9040.75
298.7	9056.59
298.767	9056.2
298.834	9068.29
298.9	9051.29
298.967	9044.21
299.033	9057.31
299.1	9066.6
299.167	9087.78
299.233	9081.91
299.3	9100.06
299.366	9126.34
299.433	9140.88
299.5	9113.34
299.566	9114.83
299.633	9136.36
299.699	9149.36
299.766	9145.21
299.832	9144.25
299.899	9159.66
299.965	9175.98
300.032	9169.53
300.099	9180.89
300.165	9185.8
300.232	9188.26
300.298	9195.67
300.365	9209.4
300.431	9205.06
300.498	9193.55
300.564	9194.66
300.631	9206.27
300.697	9220.71
300.763	9215.41
300.83	9208.62
300.896	9228.22
300.963	9236.31
301.029	9235.88
301.096	9240.5
301.162	9255.71
301.229	9254.85
301.295	9242.81
301.361	9250.56
301.428	9267.22
301.494	9249.69
301.561	9247.96
301.627	9245.6
301.693	9244.54
301.76	9250.22
301.826	9246.03
301.892	9263.61
301.959	9272.76
302.025	9271.65
302.092	9266.11
302.158	9275.64
302.224	9283.83
302.291	9272.18
302.357	9271.41
302.423	9269.82
302.49	9259.71
302.556	9266.21
302.622	9273.24
302.688	9283.88
302.755	9290.43
302.821	9294.09
302.887	9305.02
302.954	9312.62
303.02	9327.12
303.086	9337.37
303.152	9329.28
303.219	9319.9
303.285	9320.47
303.351	9329.96
303.417	9333.43
303.483	9327.31
303.55	9314.99
303.616	9311.28
303.682	9306.51
303.748	9293.27
303.815	9296.26
303.881	9302.95
303.947	9290.48
304.013	9284.32
304.079	9275.55
304.145	9258.51
304.212	9261.15
304.278	9254.56
304.344	9244.3
304.41	9226.25
304.476	9218.45
304.542	9216.14
304.608	9228.22
304.674	9207.9
304.741	9198.37
304.807	9191.24
304.873	9196.15
304.939	9216.42
305.005	9194.46
305.071	9195.62
305.137	9207.27
305.203	9186.81
305.269	9187
305.335	9198.22
305.401	9197.69
305.467	9194.03
305.533	9197.02
305.599	9205.92
305.666	9216.13
305.732	9215.41
305.798	9231.54
305.864	9256.39
305.93	9259.04
305.996	9264
306.062	9270.64
306.128	9269.96
306.194	9260.91
306.259	9260.38
306.325	9247.58
306.391	9259.61
306.457	9271.94
306.523	9270.4
306.589	9299.1
306.655	9290.91
306.721	9271.89
306.787	9257.45
306.853	9269.44
306.919	9254.61
306.985	9244.55
307.051	9235.73
307.117	9233.42
307.183	9225.33
307.248	9189.94
307.314	9201.64
307.38	9200.01
307.446	9209.68
307.512	9199.14
307.578	9209.73
307.644	9202.8
307.709	9209.88
307.775	9209.01
307.841	9201.11
307.907	9203.28
307.973	9181.37
308.039	9184.31
308.104	9191.96
308.17	9198.03
308.236	9186.47
308.302	9192.87
308.368	9177.85
308.433	9177.47
308.499	9173.47
308.565	9154.26
308.631	9159.99
308.696	9134.76
308.762	9122.73
308.828	9113
308.894	9095.09
308.959	9076.41
309.025	9065.73
309.091	9060.77
309.156	9049.31
309.222	9053.16
309.288	9037.37
309.354	9012.92
309.419	9008.05
309.485	8988.89
309.551	8991.3
309.616	8973.3
309.682	8965.69
309.748	8960.15
309.813	8952.55
309.879	8938.68
309.945	8934.5
310.01	8931.17
310.076	8935.46
310.141	8925.11
310.207	8908.26
310.273	8909.51
310.338	8909.08
310.404	8892.18
310.469	8878.08
310.535	8871.1
310.601	8842.7
310.666	8847.32
310.732	8862.67
310.797	8850.35
310.863	8845.2
310.928	8837.83
310.994	8844.76
311.059	8850.25
311.125	8846.26
311.191	8850.3
311.256	8843.85
311.322	8849.82
311.387	8822.87
311.453	9259.11
311.518	9235.39
311.584	9235.63
311.649	9238.13
311.715	9230.14
311.78	9237.98
311.846	9226.77
311.911	9230.52
311.976	9237.36
312.042	9225.76
312.107	9212.62
312.173	9201.93
312.238	9196.59
312.304	9191.58
312.369	9184.07
312.434	9163.86
312.5	9158.42
312.565	9130.31
312.631	9136.71
312.696	9128.19
312.761	9131.66
312.827	8680.83
312.892	8720.05
312.958	8718.22
313.023	8721.59
313.088	8719.86
313.154	8702.3
313.219	8693.15
313.284	8683.91
313.35	8675.01
313.415	8661.92
313.48	8653.88
313.546	8657.87
313.611	8665.86
313.676	8653.59
313.741	8641.75
313.807	8648.49
313.872	8651.38
313.937	8658.64
314.003	8669.91
314.068	8671.98
314.133	8684.3
314.198	8676.55
314.264	8658.26
314.329	8646.99
314.394	8640.59
314.459	8634.96
314.525	8657.39
314.59	8657.24
314.655	8641.75
314.72	8652.34
314.785	8654.26
314.851	8647.23
314.916	8629.67
314.981	8610.37
315.046	8602.96
315.111	8594.68
315.176	8582.75
315.242	8583.18
315.307	8586.31
315.372	8561.19
315.437	8550.65
315.502	8543.14
315.567	8557
315.632	8539.67
315.698	8545.5
315.763	8543.48
315.828	8537.32
315.893	8533.95
315.958	8531.01
316.023	8527.84
316.088	8506.23
316.153	8483.95
316.218	8476.06
316.283	8455.57
316.348	8443.15
316.413	8442.67
316.479	8428.14
316.544	8403.61
316.609	8376.66
316.674	8337.65
316.739	8305.46
316.804	8270.01
316.869	8236.38
316.934	8192.98
316.999	8171.19
317.064	8118.42
317.129	8074.92
317.194	8041.16
317.259	7990.11
317.324	7935.53
317.389	7892.44
317.454	7856.46
317.518	7825.68
317.583	7805.24
317.648	7789.37
317.713	7757.73
317.778	7702.09
317.843	7676.07
317.908	7636.22
317.973	7602.65
318.038	7578.33
318.103	7546.94
318.168	7520.11
318.233	7484.97
318.297	7438.05
318.362	7392.62
318.427	7355.86
318.492	7332.45
318.557	7286.55
318.622	7261.22
318.687	7243.2
318.751	7203.04
318.816	7173.43
318.881	7144.17
318.946	7087.03
319.011	7041.81
319.075	7004.91
319.14	6971.62
319.205	6925.59
319.27	6895.24
319.335	6843.89
319.399	6802.14
319.464	6771.5
319.529	6727.17
319.594	6689.51
319.658	6664.49
319.723	6626.13
319.788	6604.04
319.853	6553.13
319.917	6526.77
319.982	6478.8
320.047	6441.2
320.112	6419.31
320.176	6369.15
320.241	6334.96
320.306	6311.25
320.37	6272.66
320.435	6242.42
320.5	6218.04
320.564	6185.79
320.629	6145.1
320.694	6128.16
320.758	6090.21
320.823	6050.2
320.888	6020.84
320.952	5975.41
321.017	5937.61
321.082	5905.04
321.146	5870.98
321.211	5836.2
321.275	5797.45
321.34	5754.06
321.405	5711.72
321.469	5666.41
321.534	5626.91
321.598	5577.57
321.663	5548.7
321.727	5521.86
321.792	5477.56
321.857	5430.2
321.921	5395.06
321.986	5356.44
322.05	5292.05
322.115	5258.12
322.179	5216.3
322.244	5159.11
322.308	5131.75
322.373	5087.92
322.437	5050.03
322.502	5022.81
322.566	4978.6
322.631	4941.16
322.695	4905.11
322.76	4866.9
322.824	4834.49
322.889	4790.6
322.953	4746.43
323.018	4677.17
323.082	4611.42
323.146	4559.22
323.211	4511.42
323.275	4464.81
323.34	4419.85
323.404	4387.04
323.468	4341.98
323.533	4298.31
323.597	4259.12
323.662	4210.19
323.726	4175.62
323.79	4126.32
323.855	4061.94
323.919	4014.47
323.983	3972.02
324.048	3906.82
324.112	4036.49
324.177	3913.23
324.241	3714.07
324.305	3516.53
324.37	3324.59
324.434	3138.09
324.498	3096.05
324.562	3046.46
324.627	2987.12
324.691	2933.44
324.755	2873.17
324.82	2799.31
324.884	2724.79
324.948	2655.09
325.012	2557.73
325.077	2431.89
