Data from 20250704_urea_0.5M_MAYP1162681_11-05-18-766.txt Node
Date: Fri Jul 04 11:05:18 BST 2025
User: adleo
Spectrometer: MAYP116268
Trigger mode: 0
Integration Time (sec): 1.000000E0
Scans to average: 1
Electric dark correction enabled: true
Nonlinearity correction enabled: true
Boxcar width: 10
XAxis mode: Wavelengths
Number of Pixels in Spectrum: 2068
>>>>>Begin Spectral Data<<<<<
179.565	1237.21
179.642	1295.72
179.718	1341.23
179.795	1382.8
179.871	1417.5
179.948	1438.39
180.024	1459.1
180.101	1482.34
180.177	1497.61
180.254	1521.29
180.33	1543.48
180.407	1598.36
180.483	1696.42
180.56	1789.88
180.636	1877.24
180.712	1864.26
180.789	1873.91
180.865	1885.22
180.942	1894.15
181.018	1906.7
181.095	1918.93
181.171	1924.54
181.248	1925.82
181.324	1942.7
181.4	1948.79
181.477	1959.78
181.553	1971.94
181.63	1991.06
181.706	2007.23
181.782	2013.98
181.859	2013.46
181.935	2017.45
182.011	2014.36
182.088	2029.53
182.164	2050.09
182.24	2060.64
182.317	2072.01
182.393	2070.86
182.469	2085.27
182.546	2097.93
182.622	2104.44
182.698	2097.07
182.775	2106.44
182.851	2121.42
182.927	2111.62
183.003	2107.39
183.08	2101.16
183.156	2110.01
183.232	2109.06
183.308	2098.07
183.385	2107.53
183.461	2127.51
183.537	2128.7
183.613	2143.02
183.69	2134.13
183.766	2119.47
183.842	2129.6
183.918	2136.26
183.995	2149.49
184.071	2153.1
184.147	2145.82
184.223	2132.98
184.299	2146.3
184.375	2137.31
184.452	2144.31
184.528	2191.65
184.604	2203.3
184.68	2215.67
184.756	2223.47
184.832	2225.57
184.908	2229.42
184.985	2227.85
185.061	2208.96
185.137	2223.38
185.213	2211.25
185.289	2213.53
185.365	2206.87
185.441	2207.44
185.517	2218.34
185.593	2215.2
185.669	2210.73
185.745	2226.34
185.822	2243.36
185.898	2237.99
185.974	2247.26
186.05	2236.31
186.126	2205.11
186.202	2197.4
186.278	2191.36
186.354	2180.7
186.43	2188.79
186.506	2187.75
186.582	2187.22
186.658	2193.83
186.734	2167.77
186.81	2171.86
186.886	2174.66
186.962	2187.7
187.038	2182.75
187.114	2176.18
187.19	2183.41
187.266	2174.71
187.341	2171.85
187.417	2166.81
187.493	2166.28
187.569	2171.52
187.645	2168.14
187.721	2157.53
187.797	2164.95
187.873	2170.8
187.949	2166.19
188.025	2161.33
188.101	2164.95
188.176	2171.32
188.252	2168.42
188.328	2177.41
188.404	2178.55
188.48	2174.51
188.556	2169.37
188.632	2170.41
188.707	2170.8
188.783	2168.61
188.859	2164.33
188.935	2153.62
189.011	2159.19
189.086	2153.34
189.162	2141.97
189.238	2137.88
189.314	2135.73
189.39	2132.36
189.465	2124.94
189.541	2142.16
189.617	2127.22
189.693	2121.52
189.768	2124.37
189.844	2148.26
189.92	2141.8
189.996	2150.22
190.071	2161.3
190.147	2160.16
190.223	2167.92
190.298	2162.54
190.374	2147.84
190.45	2160.4
190.526	2169.86
190.601	2164.87
190.677	2165.49
190.753	2193.52
190.828	2197.23
190.904	2210.7
190.98	2224.31
191.055	2236.54
191.131	2226.64
191.207	2245.76
191.282	2256.23
191.358	2246.71
191.433	2230.67
191.509	2244.84
191.585	2240.56
191.66	2241.42
191.736	2249.32
191.811	2237.75
191.887	2255.22
191.963	2279.73
192.038	2283.54
192.114	2283.01
192.189	2284.73
192.265	2282.35
192.34	2260.88
192.416	2260.4
192.491	2254.88
192.567	2253.83
192.642	2257.97
192.718	2259.59
192.793	2247.22
192.869	2244.03
192.944	2247.65
193.02	2255.93
193.095	2259.64
193.171	2265.78
193.246	2264.97
193.322	2259.31
193.397	2261.35
193.473	2242.93
193.548	2224.85
193.624	2230.37
193.699	2228.75
193.775	2246.79
193.85	2247.98
193.925	2256.88
194.001	2256.64
194.076	2250.36
194.152	2240.94
194.227	2227.9
194.302	2216.72
194.378	2222
194.453	2218.29
194.529	2227.85
194.604	2212.2
194.679	2204.2
194.755	2185.56
194.83	2198.03
194.905	2198.46
194.981	2209.88
195.056	2204.08
195.131	2210.07
195.207	2212.45
195.282	2205.6
195.357	2186.56
195.433	2202.83
195.508	2192.08
195.583	2198.07
195.659	2211.49
195.734	2221.53
195.809	2222.06
195.884	2233.14
195.96	2233.38
196.035	2247.84
196.11	2248.22
196.185	2260.97
196.261	2266.3
196.336	2298.62
196.411	2284.72
196.486	2290.28
196.561	2282.67
196.637	2291.14
196.712	2307.23
196.787	2307.8
196.862	2321.79
196.937	2334.02
197.013	2339.97
197.088	2348.11
197.163	2371.58
197.238	2390.35
197.313	2387.73
197.388	2405.44
197.464	2435.3
197.539	2447.05
197.614	2442.2
197.689	2453.2
197.764	2470.77
197.839	2493.67
197.914	2485.67
197.989	2506.95
198.065	2523.57
198.14	2575.03
198.215	2603.03
198.29	2613.23
198.365	2626.23
198.44	2637.18
198.515	2663.96
198.59	2677.63
198.665	2705.59
198.74	2713.64
198.815	2714.88
198.89	2741.61
198.965	2771.78
199.04	2767.35
199.115	2786.69
199.19	2829
199.265	2834.9
199.34	2845.91
199.415	2877.1
199.49	2900.44
199.565	2914.41
199.64	2932.8
199.715	2929.94
199.79	2937.33
199.865	2945.62
199.94	2944.34
200.015	2977.28
200.09	2984.43
200.165	2993.39
200.24	3000.64
200.315	3042.82
200.39	3056.98
200.464	3062.51
200.539	3063.71
200.614	3077.63
200.689	3099.66
200.764	3107.87
200.839	3122.64
200.914	3127.03
200.989	3117.39
201.063	3133.03
201.138	3112.5
201.213	3119.03
201.288	3101.19
201.363	3106.2
201.438	3106.68
201.512	3124.65
201.587	3106.24
201.662	3107.43
201.737	3118.68
201.812	3125.93
201.886	3091.28
201.961	3101.83
202.036	3089.2
202.111	3084.76
202.186	3059.31
202.26	3041.86
202.335	3018.87
202.41	3012.82
202.485	2993.75
202.559	2972.59
202.634	2941.36
202.709	2951.94
202.784	2930.67
202.858	2928.67
202.933	2909.7
203.008	2902.17
203.082	2881.29
203.157	2880.82
203.232	2839.94
203.306	2816.96
203.381	2784.64
203.456	2760.62
203.53	2739.02
203.605	2718.82
203.68	2693.66
203.754	2685.95
203.829	2670.98
203.904	2651.5
203.978	2640.25
204.053	2645.59
204.127	2632.4
204.202	2631.97
204.277	2614.68
204.351	2603.44
204.426	2594.96
204.5	2587
204.575	2555.67
204.65	2563.34
204.724	2554.1
204.799	2559.76
204.873	2558.81
204.948	2556.62
205.022	2543.76
205.097	2536.8
205.171	2552.66
205.246	2563.09
205.32	2561.43
205.395	2561.95
205.469	2551.2
205.544	2558.53
205.618	2542.1
205.693	2553.77
205.767	2542.72
205.842	2564.64
205.916	2562.16
205.991	2553.64
206.065	2560.26
206.14	2574.15
206.214	2572.34
206.289	2569.05
206.363	2581.96
206.438	2584.44
206.512	2593.54
206.586	2616.2
206.661	2621.44
206.735	2597.64
206.81	2597.35
206.884	2617.21
206.958	2605.59
207.033	2626.21
207.107	2631.5
207.181	2668.29
207.256	2665.9
207.33	2691.58
207.405	2711.75
207.479	2737.62
207.553	2750.01
207.628	2739.39
207.702	2758.87
207.776	2762.83
207.851	2775.79
207.925	2805.16
207.999	2815.98
208.073	2827.75
208.148	2845.34
208.222	2850.92
208.296	2903.18
208.371	2942.54
208.445	2973.96
208.519	3026.12
208.593	3065.27
208.668	3090.08
208.742	3119
208.816	3156.15
208.89	3203.49
208.965	3237.69
209.039	3284.37
209.113	3347.99
209.187	3418.39
209.261	3463.11
209.336	3532.81
209.41	3604.83
209.484	3662.84
209.558	3746.3
209.632	3826.6
209.707	3909.85
209.781	4005.77
209.855	4094.41
209.929	4187.25
210.003	4274.48
210.077	4359.62
210.151	4494.11
210.226	4623.93
210.3	4752.54
210.374	4876.83
210.448	4987.66
210.522	5109.13
210.596	5232.35
210.67	5353.64
210.744	5518.65
210.818	5678.44
210.892	5829.08
210.966	5954.77
211.041	6105.8
211.115	6243.37
211.189	6409.83
211.263	6565.32
211.337	6719.73
211.411	6885.48
211.485	7034.19
211.559	7207.67
211.633	7369.8
211.707	7498.17
211.781	7669.61
211.855	7799.88
211.929	7961.96
212.003	8114.2
212.077	8294.91
212.151	8484.48
212.225	8672.29
212.299	8843.86
212.373	9009.72
212.447	9184.39
212.52	9398.34
212.594	9584.36
212.668	9775.39
212.742	9952.97
212.816	10144.34
212.89	10324.58
212.964	10512.14
213.038	10710.83
213.112	10918.56
213.186	11130.08
213.26	11309.56
213.333	11458.67
213.407	11659.71
213.481	11852.14
213.555	12064.23
213.629	12240.59
213.703	12421.2
213.777	12623.07
213.85	12795.88
213.924	13027.29
213.998	13214.32
214.072	13402.8
214.146	13580.58
214.219	13770.17
214.293	13944.76
214.367	14128.71
214.441	14326.4
214.515	14504.7
214.588	14662.23
214.662	14804.43
214.736	14961.77
214.81	15139.06
214.883	15325.94
214.957	15489.45
215.031	15652.9
215.105	15795.96
215.178	15955.36
215.252	16103.57
215.326	16230.62
215.4	16369.19
215.473	16469.68
215.547	16612.44
215.621	16748.73
215.694	16901.46
215.768	17027.49
215.842	17155.55
215.915	17276.9
215.989	17390.83
216.063	17513.38
216.136	17650.11
216.21	17773.87
216.284	17918.54
216.357	18058.87
216.431	18180.41
216.504	18312.31
216.578	18455.97
216.652	18581.02
216.725	18699.62
216.799	18835.9
216.873	18961.68
216.946	19090.16
217.02	19203.89
217.093	19320.65
217.167	19402.33
217.24	19492.16
217.314	19594.9
217.387	19700.82
217.461	19809.5
217.535	19921.49
217.608	20012.67
217.682	20098.98
217.755	20205.19
217.829	20287.85
217.902	20374.93
217.976	20459.6
218.049	20544.91
218.123	20623.46
218.196	20713.25
218.27	20792.24
218.343	20854.65
218.417	20940.11
218.49	21001.7
218.563	21093.9
218.637	21167.64
218.71	21264.66
218.784	21345.93
218.857	21428.25
218.931	21503.58
219.004	21571.83
219.077	21642.26
219.151	21714.99
219.224	21791.78
219.298	21856.8
219.371	21927.81
219.444	21970.13
219.518	22032.26
219.591	22081.48
219.665	22164.59
219.738	22225.23
219.811	22271.07
219.885	22330.08
219.958	22379.93
220.031	22440.38
220.105	22485.79
220.178	22528.94
220.251	22562.45
220.325	22610.13
220.398	22650.67
220.471	22701.49
220.544	22750.57
220.618	22783.88
220.691	22825.49
220.764	22847.38
220.838	22885.85
220.911	22908.81
220.984	22963.24
221.057	23000.89
221.131	23038.36
221.204	23021.77
221.277	23064.88
221.35	23123.61
221.424	23145.93
221.497	23166.67
221.57	23188.07
221.643	23223.13
221.716	23249.12
221.79	23272.89
221.863	23290.25
221.936	23312.58
222.009	23316.34
222.082	23324.2
222.155	23336.49
222.229	23361.57
222.302	23379.85
222.375	23392.33
222.448	23407.81
222.521	23425.66
222.594	23432.6
222.667	23432.7
222.74	23463.85
222.814	23465.63
222.887	23448.51
222.96	23459.12
223.033	23471.9
223.106	23474.75
223.179	23472.96
223.252	23482.61
223.325	23481.4
223.398	23486.27
223.471	23479.71
223.544	23488.34
223.617	23484.53
223.69	23492.88
223.763	23477.83
223.837	23485.4
223.91	23489.69
223.983	23475.52
224.056	23455.26
224.129	23459.22
224.202	23464.81
224.275	23444.08
224.348	23424.74
224.42	23417.6
224.493	23385.58
224.566	23365.96
224.639	23365.09
224.712	23351.83
224.785	23334.51
224.858	23326.08
224.931	23309.25
225.004	23290.25
225.077	23282.77
225.15	23243.48
225.223	23216.33
225.296	23224.43
225.369	23188.94
225.442	23155.53
225.514	23132.82
225.587	23124.62
225.66	23107.21
225.733	23093.57
225.806	23076.3
225.879	23059.19
225.952	23030.55
226.025	23038.7
226.097	23035.9
226.17	23012.95
226.243	22971.58
226.316	22941.01
226.389	22917.87
226.461	22898.53
226.534	22879.2
226.607	22855.67
226.68	22862.76
226.753	22843.37
226.825	22790.09
226.898	22781.95
226.971	22762.71
227.044	22759.05
227.117	22737.49
227.189	22716.52
227.262	22691.59
227.335	22676.7
227.407	22651.82
227.48	22626.66
227.553	22603.66
227.626	22583.07
227.698	22556.75
227.771	22531.82
227.844	22503.48
227.916	22485.88
227.989	22448.08
228.062	22420.12
228.134	22411.78
228.207	22382.33
228.28	22363.62
228.352	22346.22
228.425	22327.95
228.498	22325.78
228.57	22280.47
228.643	22259.49
228.716	22232.02
228.788	22203.09
228.861	22168.72
228.934	22144.81
229.006	22120.23
229.079	22096.08
229.151	22053.12
229.224	22015.57
229.296	22008.87
229.369	22006.37
229.442	21997.25
229.514	21971.66
229.587	21959.8
229.659	21918.01
229.732	21900.36
229.804	21880.7
229.877	21879.3
229.949	21861.22
230.022	21841.27
230.094	21819.77
230.167	21795.18
230.239	21753.64
230.312	21722.02
230.384	21730.16
230.457	21708.76
230.529	21693.92
230.602	21662.58
230.674	21635.79
230.747	21630.19
230.819	21607.88
230.892	21551.34
230.964	21525.79
231.037	21501.69
231.109	21475.28
231.181	21459.18
231.254	21426.94
231.326	21395.22
231.399	21360.42
231.471	21320.95
231.544	21271.4
231.616	21258.19
231.688	21237.9
231.761	21212.98
231.833	21182.86
231.905	21132.88
231.978	21108.78
232.05	21070.46
232.122	21045.83
232.195	21024
232.267	20997.93
232.339	20963.51
232.412	20952.14
232.484	20914.98
232.556	20880.04
232.629	20876.23
232.701	20844.62
232.773	20816.86
232.846	20777.24
232.918	20744.18
232.99	20719.12
233.062	20695.41
233.135	20666.15
233.207	20616.61
233.279	20602.25
233.351	20584.13
233.424	20540.41
233.496	20506.73
233.568	20506.82
233.64	20454.73
233.713	20423.55
233.785	20394.25
233.857	20371.45
233.929	20329.38
234.001	20311.26
234.074	20289.52
234.146	20226.44
234.218	20196.08
234.29	20157.67
234.362	20115.65
234.434	20064.08
234.507	20021.14
234.579	19973.24
234.651	19933.39
234.723	19909.44
234.795	19876.57
234.867	19844.76
234.939	19830.11
235.012	19792.48
235.084	19761.35
235.156	19743.56
235.228	19699.47
235.3	19662.84
235.372	19625.98
235.444	19605.55
235.516	19544.59
235.588	19522.71
235.66	19490.42
235.732	19440.3
235.804	19463.1
235.876	19451.87
235.948	19440.45
236.02	19397.7
236.092	19364.16
236.164	19322.77
236.236	19292.7
236.308	19249.33
236.38	19210.68
236.452	19160.75
236.524	19129.77
236.596	19104.76
236.668	19076.85
236.74	19037.92
236.812	18998.06
236.884	18977.58
236.956	18941.06
237.028	18908.53
237.1	18857.16
237.172	18842.03
237.244	18820.63
237.316	18742.75
237.388	18699.87
237.46	18656.35
237.532	18644.25
237.604	18605.99
237.675	18595.53
237.747	18558.57
237.819	18506.09
237.891	18474.34
237.963	18442.92
238.035	18400.22
238.107	18322.01
238.178	18299.07
238.25	18267.07
238.322	18251.94
238.394	18194.35
238.466	18160.23
238.538	18130.93
238.609	18094.74
238.681	18044.81
238.753	18013.2
238.825	17982.65
238.897	17944.91
238.968	17928.82
239.04	17891.28
239.112	17875.42
239.184	17816.48
239.255	17780.44
239.327	17763.71
239.399	17731.76
239.471	17706.37
239.542	17685.74
239.614	17670.75
239.686	17610.13
239.758	17592.87
239.829	17547.81
239.901	17534.08
239.973	17497.55
240.044	17467.04
240.116	17440.92
240.188	17405.07
240.259	17360.25
240.331	17319.48
240.403	17291.38
240.474	17233.74
240.546	17183.81
240.618	17135.76
240.689	17104.58
240.761	17062.56
240.833	17043.57
240.904	17002.31
240.976	16957.68
241.048	16918.6
241.119	16894.21
241.191	16873.25
241.262	16856.43
241.334	16823.7
241.405	16774.79
241.477	16735.02
241.549	16698.93
241.62	16669.43
241.692	16643.84
241.763	16628.18
241.835	16596.08
241.906	16568.6
241.978	16527.25
242.049	16519.68
242.121	16501.66
242.192	16491.73
242.264	16455.82
242.335	16404.69
242.407	16387.77
242.478	16355.38
242.55	16331.18
242.621	16291.52
242.693	16252
242.764	16205.68
242.836	16168.09
242.907	16153.34
242.979	16127.6
243.05	16103.07
243.122	16076.46
243.193	16031.88
243.264	15974.28
243.336	15936.83
243.407	15906.12
243.479	15895.42
243.55	15858.6
243.622	15828.96
243.693	15788.95
243.764	15768.03
243.836	15725.09
243.907	15675.92
243.978	15644.54
244.05	15616.35
244.121	15571.33
244.192	15545.2
244.264	15490.25
244.335	15461.91
244.407	15399.97
244.478	15375.87
244.549	15343.53
244.62	15298.31
244.692	15275.32
244.763	15259.41
244.834	15223.55
244.906	15185.81
244.977	15153.18
245.048	15140.4
245.119	15098.27
245.191	15056.68
245.262	15004.42
245.333	14991.21
245.405	14978.49
245.476	14952.94
245.547	14925.85
245.618	14903.58
245.689	14879.96
245.761	14864.15
245.832	14829.64
245.903	14816.19
245.974	14786.69
246.045	14755.84
246.117	14746.44
246.188	14698.04
246.259	14651.47
246.33	14623.32
246.401	14588.61
246.473	14556.27
246.544	14514.28
246.615	14498.57
246.686	14471.09
246.757	14467.28
246.828	14422.89
246.899	14396.95
246.97	14354
247.042	14306.76
247.113	14288.59
247.184	14280.05
247.255	14241.01
247.326	14215.94
247.397	14188.75
247.468	14161.9
247.539	14125.84
247.61	14080.92
247.681	14074.46
247.752	14064.38
247.823	14023.94
247.894	14002.19
247.965	13964.11
248.037	13935.24
248.108	13890.12
248.179	13860.47
248.25	13824.65
248.321	13815.88
248.392	13776.01
248.463	13771.43
248.534	13751.38
248.605	13732.96
248.675	13703.41
248.746	13685.87
248.817	13668.9
248.888	13643.2
248.959	13598.13
249.03	13579.28
249.101	13555.51
249.172	13514.06
249.243	13467.73
249.314	13467.54
249.385	13447.58
249.456	13426.03
249.527	13396.34
249.598	13378.55
249.669	13349.82
249.739	13335.26
249.81	13310.82
249.881	13271.96
249.952	13250.51
250.023	13222.36
250.094	13172.03
250.165	13131.06
250.235	13103.72
250.306	13071.52
250.377	13042.12
250.448	13024.47
250.519	12984.36
250.59	12977.66
250.66	12963.2
250.731	12959.3
250.802	12925.31
250.873	12904.63
250.944	12880.19
251.014	12849.05
251.085	12850.59
251.156	12836.32
251.227	12823.6
251.297	12815.21
251.368	12811.06
251.439	12799.69
251.51	12796.65
251.58	12774.91
251.651	12749.75
251.722	12742.56
251.792	12713.4
251.863	12691.85
251.934	12692.19
252.005	12696.09
252.075	12675.08
252.146	12665.1
252.217	12653.48
252.287	12647.12
252.358	12629.86
252.429	12628.22
252.499	12602.67
252.57	12579.54
252.641	12568.74
252.711	12536.63
252.782	12496.72
252.852	12490.5
252.923	12463.22
252.994	12439.02
253.064	12433.57
253.135	12402.63
253.205	12373.27
253.276	12374.62
253.347	12368.88
253.417	12339.96
253.488	12313.69
253.558	12286.12
253.629	12259.08
253.699	12246.16
253.77	12236.61
253.841	12214.1
253.911	12198.24
253.982	12186.1
254.052	12175.73
254.123	12160.4
254.193	12149.41
254.264	12173.18
254.334	12143.73
254.405	12110.8
254.475	12076.48
254.546	12051.61
254.616	12054.75
254.687	12044.77
254.757	12023.51
254.827	12008.13
254.898	11987.6
254.968	11965.91
255.039	11931.55
255.109	11921.52
255.18	11887.54
255.25	11846.18
255.321	11829.7
255.391	11793.89
255.461	11794.75
255.532	11750.89
255.602	11728.33
255.673	11684.81
255.743	11659.65
255.813	11618.63
255.884	11620.32
255.954	11619.74
256.024	11615.6
256.095	11591.64
256.165	11558.29
256.235	11544.46
256.306	11513.52
256.376	11507.49
256.446	11500.07
256.517	11494.04
256.587	11483.3
256.657	11471.58
256.728	11462.28
256.798	11446.33
256.868	11430.28
256.938	11402.23
257.009	11396.3
257.079	11384.93
257.149	11401.27
257.219	11358.8
257.29	11349.21
257.36	11304.49
257.43	11290.51
257.5	11253.02
257.571	11228.97
257.641	11222.61
257.711	11188.49
257.781	11178.32
257.852	11161.31
257.922	11125.26
257.992	11109.89
258.062	11087.72
258.132	11076.35
258.202	11052.01
258.273	11028.78
258.343	11033.31
258.413	11010.37
258.483	10989.99
258.553	10956.59
258.623	10931
258.693	10923.34
258.764	10928.74
258.834	10920.16
258.904	10900.5
258.974	10882.09
259.044	10864.7
259.114	10853.52
259.184	10847.49
259.254	10827.98
259.324	10795.07
259.394	10783.36
259.464	10783.65
259.535	10766.3
259.605	10745.63
259.675	10719.66
259.745	10714.93
259.815	10682.94
259.885	10661.54
259.955	10676.92
260.025	10652.54
260.095	10632.25
260.165	10616.64
260.235	10614.13
260.305	10605.46
260.375	10582.04
260.445	10588.93
260.515	10598.04
260.585	10589.61
260.655	10571.88
260.725	10570.67
260.795	10557.81
260.865	10573.85
260.934	10551.59
261.004	10543.16
261.074	10532.51
261.144	10542
261.214	10535.31
261.284	10518.35
261.354	10516.61
261.424	10488.9
261.494	10501.72
261.564	10489.24
261.634	10479.22
261.703	10436.43
261.773	10425.31
261.843	10420.97
261.913	10401.26
261.983	10359.64
262.053	10354.92
262.123	10337.53
262.192	10308.67
262.262	10310.26
262.332	10277.06
262.402	10270.7
262.472	10259.48
262.541	10219.73
262.611	10212.99
262.681	10187.36
262.751	10183.55
262.821	10168.19
262.89	10136.15
262.96	10123.67
263.03	10128.58
263.1	10116.3
263.169	10113.7
263.239	10103.68
263.309	10105.75
263.379	10097.75
263.448	10085.9
263.518	10071.64
263.588	10061.48
263.657	10068.27
263.727	10059.41
263.797	10045.58
263.867	10032.91
263.936	10009.55
264.006	10015.62
264.076	9991.05
264.145	9971.11
264.215	9946.88
264.285	9935.52
264.354	9908.11
264.424	9888.56
264.494	9858.69
264.563	9841.44
264.633	9844.67
264.702	9833.21
264.772	9799.83
264.842	9778.87
264.911	9775.5
264.981	9749.97
265.05	9737.98
265.12	9711.73
265.19	9702.39
265.259	9688.71
265.329	9678.88
265.398	9657.69
265.468	9668.72
265.537	9653.55
265.607	9653.12
265.676	9654.56
265.746	9646.91
265.815	9650.81
265.885	9641.95
265.955	9622.34
266.024	9602.02
266.094	9563.54
266.163	9565.52
266.232	9568.94
266.302	9564.55
266.371	9551.98
266.441	9540.04
266.51	9536.72
266.58	9522.9
266.649	9505.99
266.719	9511.44
266.788	9504.69
266.858	9520.39
266.927	9477.58
266.996	9473.01
267.066	9466.55
267.135	9439.3
267.205	9441.75
267.274	9431.11
267.343	9430.73
267.413	9416.81
267.482	9429.81
267.552	9437.76
267.621	9412.43
267.69	9377.37
267.76	9364.42
267.829	9358.59
267.898	9350.41
267.968	9325.66
268.037	9324.07
268.106	9315.6
268.176	9293.3
268.245	9270.04
268.314	9254.44
268.384	9259.88
268.453	9250.11
268.522	9245.19
268.592	9249.96
268.661	9224.15
268.73	9218.42
268.799	9192.08
268.869	9203.4
268.938	9164.54
269.007	9142.4
269.076	9132.86
269.146	9138.01
269.215	9133.92
269.284	9144.23
269.353	9131.76
269.422	9124.25
269.492	9107.01
269.561	9073.99
269.63	9066.19
269.699	9062.67
269.768	9054.73
269.838	9049
269.907	9051.5
269.976	9021.85
270.045	8988.68
270.114	8990.03
270.183	8977.27
270.253	8978.96
270.322	8948.2
270.391	8946.27
270.46	8952.67
270.529	8952
270.598	8951.76
270.667	8935.01
270.736	8913.58
270.806	8904.58
270.875	8902.41
270.944	8891.73
271.013	8920.47
271.082	8910.36
271.151	8896.83
271.22	8862.51
271.289	8849.28
271.358	8827.42
271.427	8830.89
271.496	8830.02
271.565	8814.52
271.634	8805.86
271.703	8829.11
271.772	8833.06
271.841	8824.44
271.91	8799.7
271.979	8787.81
272.048	8763.02
272.117	8764.37
272.186	8749.93
272.255	8756.19
272.324	8753.83
272.393	8746.75
272.462	8725.14
272.531	8719.65
272.6	8709.98
272.669	8721.43
272.738	8718.21
272.807	8719.51
272.876	8697.99
272.945	8719.99
273.013	8721.39
273.082	8726.15
273.151	8681.38
273.22	8681.09
273.289	8673.2
273.358	8683.69
273.427	8675.46
273.496	8676.66
273.564	8671.32
273.633	8671.03
273.702	8647.98
273.771	8637.92
273.84	8637.25
273.909	8633.11
273.977	8632.19
274.046	8621.51
274.115	8624.88
274.184	8605.2
274.253	8596.97
274.322	8610.44
274.39	8585.22
274.459	8568.81
274.528	8540.42
274.597	8533.39
274.665	8524.3
274.734	8530.84
274.803	8524.01
274.872	8515.25
274.94	8500.86
275.009	8557
275.078	8541.94
275.147	8536.99
275.215	8534.82
275.284	8540.5
275.353	8531.45
275.421	8506.38
275.49	8530.35
275.559	8520.19
275.627	8515.57
275.696	8510.67
275.765	8503.21
275.833	8495.12
275.902	8496.95
275.971	8506.72
276.039	8522.46
276.108	8530.3
276.177	8523.95
276.245	8515.57
276.314	8512.06
276.383	8518.7
276.451	8455.58
276.52	8461.36
276.588	8477.19
276.657	8484.98
276.725	8479.98
276.794	8480.65
276.863	8493.69
276.931	8460.97
277	8466.36
277.068	8477.71
277.137	8488.73
277.205	8486.04
277.274	8502.69
277.342	8515.3
277.411	8501.63
277.48	8487.68
277.548	8478.77
277.617	8481.71
277.685	8476.9
277.754	8484.5
277.822	8479.59
277.89	8496.05
277.959	8489.36
278.027	8468.53
278.096	8460.64
278.164	8484.75
278.233	8475.7
278.301	8467
278.37	8478.25
278.438	8462.13
278.507	8458.96
278.575	8433.65
278.643	8435.19
278.712	8412.48
278.78	8395.25
278.849	8401.5
278.917	8411.46
278.985	8410.36
279.054	8417.05
279.122	8422.39
279.191	8415.55
279.259	8409.83
279.327	8385.14
279.396	8396.35
279.464	8391.78
279.532	8399.19
279.601	8394.91
279.669	8394.04
279.737	8407.81
279.806	8411.37
279.874	8423.4
279.942	8421.42
280.011	8419.07
280.079	8425.32
280.147	8442.69
280.215	8451.5
280.284	8451.4
280.352	8439.32
280.42	8443.65
280.488	8431.77
280.557	8431.09
280.625	8438.6
280.693	8434.94
280.761	8437.88
280.83	8423.3
280.898	8438.17
280.966	8414.4
281.034	8379.55
281.102	8366.85
281.171	8363.97
281.239	8374.27
281.307	8368.3
281.375	8360.41
281.443	8391.4
281.512	8387.35
281.58	8393.8
281.648	8374.65
281.716	8370.08
281.784	8369.65
281.852	8357.52
281.92	8355.31
281.989	8363.06
282.057	8341.6
282.125	8386.79
282.193	8389.34
282.261	8393.04
282.329	8389.58
282.397	8391.36
282.465	8394.1
282.533	8407.57
282.601	8394.49
282.67	8365.04
282.738	8357.58
282.806	8370.23
282.874	8351.37
282.942	8351.51
283.01	8345.93
283.078	8356.8
283.146	8351.03
283.214	8358.59
283.282	8366.28
283.35	8380.38
283.418	8376.25
283.486	8386.78
283.554	8345.34
283.622	8341.45
283.69	8342.7
283.758	8337.21
283.826	8345.44
283.894	8360.4
283.962	8384.27
284.03	8396.25
284.098	8397.12
284.165	8390.1
284.233	8386.05
284.301	8381.48
284.369	8370.99
284.437	8362.81
284.505	8353.34
284.573	8379.27
284.641	8364.16
284.709	8370.18
284.777	8346.12
284.845	8347.8
284.912	8349.34
284.98	8358.68
285.048	8350.35
285.116	8353.43
285.184	8370.08
285.252	8368.44
285.319	8350.74
285.387	8335.14
285.455	8317.92
285.523	8330.91
285.591	8337.21
285.659	8341.3
285.726	8349.39
285.794	8336.78
285.862	8334.86
285.93	8338.42
285.997	8328.6
286.065	8326.1
286.133	8314.07
286.201	8318.64
286.269	8304.49
286.336	8303.29
286.404	8298.77
286.472	8316.28
286.539	8296.12
286.607	8275.87
286.675	8280
286.743	8282.94
286.81	8281.88
286.878	8300.55
286.946	8293.81
287.013	8291.45
287.081	8289.72
287.149	8279.62
287.216	8303.48
287.284	8300.98
287.352	8302.28
287.419	8297.32
287.487	8315.56
287.555	8320.56
287.622	8316.62
287.69	8326.91
287.758	8334.9
287.825	8326.48
287.893	8310.46
287.96	8319.26
288.028	8333.5
288.096	8331.63
288.163	8336.2
288.231	8324.65
288.298	8318.54
288.366	8331.87
288.433	8324.75
288.501	8315.61
288.569	8322.25
288.636	8307.91
288.704	8321.04
288.771	8327.54
288.839	8323.88
288.906	8313.59
288.974	8324.7
289.041	8323.26
289.109	8312.05
289.176	8315.22
289.244	8320.37
289.311	8337.31
289.379	8345.54
289.446	8347.75
289.514	8349.29
289.581	8348.91
289.649	8351.98
289.716	8355.21
289.783	8345.73
289.851	8369.02
289.918	8370.89
289.986	8378.64
290.053	8392.02
290.121	8392.69
290.188	8395.14
290.255	8425.75
290.323	8425.65
290.39	8417.9
290.458	8426.76
290.525	8440.9
290.592	8439.75
290.66	8442.06
290.727	8436.86
290.794	8452.16
290.862	8456.35
290.929	8459.09
290.996	8464.48
291.064	8473.38
291.131	8482
291.198	8492.54
291.266	8488.3
291.333	8491.43
291.4	8497.97
291.468	8509.04
291.535	8504.52
291.602	8508.75
291.669	8495.42
291.737	8495.81
291.804	8498.26
291.871	8518.23
291.938	8527.67
292.006	8555.58
292.073	8564.97
292.14	8574.69
292.207	8566.22
292.275	8559.48
292.342	8572.18
292.409	8595.29
292.476	8617.67
292.543	8613.29
292.611	8615.45
292.678	8635.23
292.745	8662.71
292.812	8669.64
292.879	8666.76
292.946	8670.94
293.014	8681.19
293.081	8693.47
293.148	8719.31
293.215	8731.34
293.282	8721.38
293.349	8730.62
293.416	8711.61
293.484	8728.55
293.551	8736.44
293.618	8747.13
293.685	8776.68
293.752	8765.47
293.819	8756.75
293.886	8737.79
293.953	8743.95
294.02	8761.71
294.087	8768.84
294.154	8757.86
294.221	8766.96
294.288	8770.95
294.356	8787.37
294.423	8795.26
294.49	8784.58
294.557	8789.2
294.624	8782.27
294.691	8801.13
294.758	8797.52
294.825	8808.4
294.892	8802.05
294.959	8806.48
295.026	8816.87
295.093	8808.45
295.16	8815.43
295.226	8823.95
295.293	8860.82
295.36	8871.41
295.427	8871.65
295.494	8882.29
295.561	8892.21
295.628	8923.26
295.695	8935.88
295.762	8939.68
295.829	8944.54
295.896	8964.47
295.963	8970.73
296.03	8980.35
296.096	8988.97
296.163	8997.01
296.23	9008.47
296.297	9022.43
296.364	9017.71
296.431	9024.98
296.498	9022.28
296.564	9042.93
296.631	9044.28
296.698	9021.27
296.765	9037.16
296.832	9034.85
296.899	9018.14
296.965	9035.66
297.032	9007.69
297.099	9030.27
297.166	9038.98
297.233	9035.42
297.299	9026.32
297.366	9028.1
297.433	9034.6
297.5	9040.52
297.566	9049.67
297.633	9047.94
297.7	9045.63
297.767	9044.28
297.833	9054.1
297.9	9053.77
297.967	9038.79
298.033	9056.22
298.1	9089.78
298.167	9084.34
298.234	9086.75
298.3	9101.62
298.367	9092.43
298.434	9107.64
298.5	9090.07
298.567	9092.76
298.634	9095.8
298.7	9110.96
298.767	9116.31
298.834	9126.85
298.9	9118.47
298.967	9106.53
299.033	9120.11
299.1	9143.13
299.167	9159.88
299.233	9152.27
299.3	9169.94
299.366	9190.4
299.433	9206.48
299.5	9181.88
299.566	9180
299.633	9194.54
299.699	9209.03
299.766	9208.07
299.832	9207.78
299.899	9218.42
299.965	9219.05
300.032	9214.48
300.099	9221.89
300.165	9224.97
300.232	9220.16
300.298	9226.85
300.365	9242.02
300.431	9241.1
300.498	9230.31
300.564	9239.13
300.631	9251.98
300.697	9264.5
300.763	9263.15
300.83	9257.66
300.896	9271.19
300.963	9284.82
301.029	9289.59
301.096	9287.95
301.162	9302.63
301.229	9299.12
301.295	9292.57
301.361	9300.75
301.428	9303.4
301.494	9290.07
301.561	9294.78
301.627	9306.2
301.693	9308.56
301.76	9311.44
301.826	9304.94
301.892	9320.45
301.959	9329.45
302.025	9325.75
302.092	9318.96
302.158	9321.85
302.224	9319.92
302.291	9315.25
302.357	9313.32
302.423	9310.67
302.49	9302.39
302.556	9319.63
302.622	9317.71
302.688	9326.04
302.755	9334.32
302.821	9349.34
302.887	9363.69
302.954	9359.98
303.02	9364.22
303.086	9369.47
303.152	9365.52
303.219	9360.61
303.285	9360.32
303.351	9362.58
303.417	9358.78
303.483	9351.8
303.55	9350.88
303.616	9348.09
303.682	9340.96
303.748	9329.41
303.815	9343.81
303.881	9353.77
303.947	9336.97
304.013	9343.9
304.079	9336.44
304.145	9315.88
304.212	9312.12
304.278	9304.66
304.344	9299.89
304.41	9282.41
304.476	9273.17
304.542	9275.24
304.608	9283.66
304.674	9270.95
304.741	9261.95
304.807	9268.59
304.873	9274.71
304.939	9291.37
305.005	9277.79
305.071	9275.19
305.137	9277.89
305.203	9254.67
305.269	9245.29
305.335	9258.14
305.401	9254.24
305.467	9255.06
305.533	9267.15
305.599	9275.43
305.666	9283.85
305.732	9289.34
305.798	9308.94
305.864	9332.87
305.93	9331.81
305.996	9333.84
306.062	9331.14
306.128	9329.55
306.194	9316.31
306.259	9312.6
306.325	9301.67
306.391	9312.7
306.457	9327.91
306.523	9334.65
306.589	9359.36
306.655	9352.9
306.721	9330.56
306.787	9319.01
306.853	9328.73
306.919	9316.12
306.985	9309.71
307.051	9301.34
307.117	9290.12
307.183	9281.11
307.248	9252.65
307.314	9256.31
307.38	9256.46
307.446	9265.32
307.512	9254
307.578	9255.69
307.644	9256.89
307.709	9254.44
307.775	9250.34
307.841	9246.01
307.907	9244.76
307.973	9222.03
308.039	9224.29
308.104	9234.16
308.17	9235.61
308.236	9224
308.302	9228.09
308.368	9218.22
308.433	9218.42
308.499	9219.57
308.565	9207.58
308.631	9215.24
308.696	9195.88
308.762	9182.16
308.828	9175.61
308.894	9159.29
308.959	9145.62
309.025	9125.3
309.091	9120.54
309.156	9110.04
309.222	9104.36
309.288	9096.66
309.354	9074.13
309.419	9072.68
309.485	9054.53
309.551	9061.61
309.616	9046.35
309.682	9043.12
309.748	9027.96
309.813	9022.47
309.879	9011.11
309.945	9001.24
310.01	8993.39
310.076	8998.93
310.141	8993.63
310.207	8980.2
310.273	8985.35
310.338	8987.52
310.404	8980.3
310.469	8965.18
310.535	8957.86
310.601	8937.65
310.666	8942.41
310.732	8955.94
310.797	8939.91
310.863	8932.16
310.928	8916.17
310.994	8921.9
311.059	8916.8
311.125	8923.64
311.191	8928.35
311.256	8912.81
311.322	8914.88
311.387	8886.77
311.453	9313.81
311.518	9284.12
311.584	9283.3
311.649	9281.37
311.715	9274.25
311.78	9277.52
311.846	9270.25
311.911	9274.2
311.976	9282.87
312.042	9265.58
312.107	9249.55
312.173	9246.04
312.238	9237.28
312.304	9237.47
312.369	9226.55
312.434	9214.37
312.5	9205.41
312.565	9177.83
312.631	9182.55
312.696	9176.2
312.761	9186.78
312.827	8748.09
312.892	8793.91
312.958	8789
313.023	8791.17
313.088	8784.09
313.154	8768.12
313.219	8758.4
313.284	8747.28
313.35	8739.67
313.415	8728.46
313.48	8723.64
313.546	8723.93
313.611	8738.37
313.676	8724.99
313.741	8714.31
313.807	8718.49
313.872	8715.89
313.937	8727.06
314.003	8740.49
314.068	8743.86
314.133	8745.59
314.198	8735.05
314.264	8711.37
314.329	8699.09
314.394	8692.02
314.459	8687.68
314.525	8710.06
314.59	8707.85
314.655	8698.51
314.72	8705.73
314.785	8708
314.851	8705.01
314.916	8687.78
314.981	8663.86
315.046	8655.39
315.111	8646.83
315.176	8637.59
315.242	8647.89
315.307	8642.64
315.372	8617.47
315.437	8604.43
315.502	8597.69
315.567	8609.29
315.632	8594.99
315.698	8595.86
315.763	8587.73
315.828	8581.52
315.893	8572.76
315.958	8574.01
316.023	8563.38
316.088	8542.2
316.153	8520.69
316.218	8509.09
316.283	8495.82
316.348	8485.14
316.413	8488.31
316.479	8473.11
316.544	8439.09
316.609	8406.99
316.674	8370.72
316.739	8345.75
316.804	8315.78
316.869	8281.47
316.934	8243.32
316.999	8213.63
317.064	8168.13
317.129	8127.48
317.194	8092.84
317.259	8042.95
317.324	7995.72
317.389	7959.65
317.454	7924.25
317.518	7891.3
317.583	7868.41
317.648	7849.84
317.713	7816.9
317.778	7754.43
317.843	7731.15
317.908	7698.17
317.973	7656.43
318.038	7629.55
318.103	7592.2
318.168	7562.53
318.233	7534.27
318.297	7485.52
318.362	7448.41
318.427	7408.42
318.492	7387.12
318.557	7343.2
318.622	7321.42
318.687	7301.19
318.751	7258.37
318.816	7225.4
318.881	7199.21
318.946	7144.81
319.011	7101.51
319.075	7059.66
319.14	7031.65
319.205	6983.65
319.27	6948.25
319.335	6909.48
319.399	6872.2
319.464	6850.87
319.529	6799.72
319.594	6762.92
319.658	6736.65
319.723	6697.17
319.788	6674.89
319.853	6622.06
319.917	6596.62
319.982	6545.66
320.047	6508.16
320.112	6482.04
320.176	6431.73
320.241	6393.46
320.306	6367.68
320.37	6323.28
320.435	6296.26
320.5	6266.31
320.564	6234.73
320.629	6197.92
320.694	6166.4
320.758	6127.19
320.823	6080.4
320.888	6057.09
320.952	6009.93
321.017	5970.92
321.082	5933.6
321.146	5893.59
321.211	5863.66
321.275	5819.02
321.34	5777.25
321.405	5730.49
321.469	5689.25
321.534	5649.41
321.598	5599.84
321.663	5567.9
321.727	5542.3
321.792	5497.33
321.857	5454.86
321.921	5414.88
321.986	5371.47
322.05	5320
322.115	5284.35
322.179	5243.38
322.244	5184.56
322.308	5153.85
322.373	5102.45
322.437	5062.6
322.502	5040.46
322.566	4994.91
322.631	4961.25
322.695	4920.65
322.76	4879.71
322.824	4845.24
322.889	4805.46
322.953	4764.45
323.018	4703.6
323.082	4636.41
323.146	4585.6
323.211	4535.78
323.275	4490.28
323.34	4448.18
323.404	4412.31
323.468	4365.61
323.533	4319.56
323.597	4279.79
323.662	4228.85
323.726	4202.07
323.79	4158.42
323.855	4095.52
323.919	4047.24
323.983	4005.41
324.048	3944.03
324.112	4074.56
324.177	3948.15
324.241	3744.11
324.305	3543.08
324.37	3345.83
324.434	3158.38
324.498	3115.57
324.562	3065.55
324.627	3008.03
324.691	2953.72
324.755	2887.79
324.82	2811.46
324.884	2738.42
324.948	2667.18
325.012	2573.37
325.077	2444.99
