Data from 20250704_urea_1M_MAYP1162681_11-32-27-655.txt Node
Date: Fri Jul 04 11:32:27 BST 2025
User: adleo
Spectrometer: MAYP116268
Trigger mode: 0
Integration Time (sec): 1.000000E0
Scans to average: 1
Electric dark correction enabled: true
Nonlinearity correction enabled: true
Boxcar width: 10
XAxis mode: Wavelengths
Number of Pixels in Spectrum: 2068
>>>>>Begin Spectral Data<<<<<
179.565	1251.89
179.642	1315.02
179.718	1357.23
179.795	1395.05
179.871	1429.22
179.948	1449.7
180.024	1472.77
180.101	1494.38
180.177	1507.62
180.254	1532.91
180.33	1553.99
180.407	1611.25
180.483	1709.4
180.56	1805.1
180.636	1893.98
180.712	1880.61
180.789	1891.69
180.865	1901.57
180.942	1907.13
181.018	1918.88
181.095	1931.86
181.171	1938.8
181.248	1934.43
181.324	1951.69
181.4	1960.49
181.477	1970.76
181.553	1984.69
181.63	2007.28
181.706	2024.16
181.782	2034.76
181.859	2032.34
181.935	2041.85
182.011	2038.33
182.088	2057.12
182.164	2074.63
182.24	2087.75
182.317	2095.27
182.393	2090.84
182.469	2108.16
182.546	2125.09
182.622	2129.13
182.698	2125.75
182.775	2137.79
182.851	2153.58
182.927	2145.3
183.003	2141.55
183.08	2136.89
183.156	2142.83
183.232	2136.88
183.308	2121.81
183.385	2128.56
183.461	2146.3
183.537	2146.11
183.613	2158.72
183.69	2149.2
183.766	2137.93
183.842	2147.39
183.918	2153.48
183.995	2170.75
184.071	2175.51
184.147	2166.23
184.223	2157.39
184.299	2169.57
184.375	2158.44
184.452	2166.91
184.528	2219.4
184.604	2230.77
184.68	2244.56
184.756	2254.84
184.832	2259.36
184.908	2268.02
184.985	2270.01
185.061	2255.55
185.137	2264.69
185.213	2254.94
185.289	2256.27
185.365	2251.94
185.441	2247.37
185.517	2260.74
185.593	2255.08
185.669	2251.94
185.745	2262.69
185.822	2279.29
185.898	2269.87
185.974	2280.1
186.05	2272.34
186.126	2236.75
186.202	2231.51
186.278	2226.14
186.354	2217.57
186.43	2226.14
186.506	2224.76
186.582	2223.85
186.658	2229.09
186.734	2207.16
186.81	2208.63
186.886	2212.06
186.962	2220.95
187.038	2218.43
187.114	2210
187.19	2219.9
187.266	2207.73
187.341	2208.25
187.417	2200.16
187.493	2204.25
187.569	2206.44
187.645	2199.64
187.721	2188.93
187.797	2194.45
187.873	2199.54
187.949	2192.07
188.025	2184.22
188.101	2189.64
188.176	2196.49
188.252	2193.5
188.328	2202.05
188.404	2205.29
188.48	2199.15
188.556	2194.63
188.632	2191.97
188.707	2194.11
188.783	2188.87
188.859	2184.69
188.935	2174.65
189.011	2180.88
189.086	2172.13
189.162	2163.52
189.238	2162.28
189.314	2157.81
189.39	2152.1
189.465	2144.63
189.541	2160.38
189.617	2144.68
189.693	2138.21
189.768	2140.45
189.844	2164.96
189.92	2157.31
189.996	2164.35
190.071	2176.34
190.147	2173.39
190.223	2182.71
190.298	2175.72
190.374	2163.44
190.45	2179.33
190.526	2190.27
190.601	2186.23
190.677	2188.28
190.753	2215.79
190.828	2216.5
190.904	2232.16
190.98	2246.48
191.055	2256.05
191.131	2249
191.207	2271.13
191.282	2282.59
191.358	2271.41
191.433	2256.27
191.509	2268.49
191.585	2264.78
191.66	2267.21
191.736	2275.3
191.811	2268.3
191.887	2281.54
191.963	2306.57
192.038	2309.28
192.114	2306.47
192.189	2309.8
192.265	2306.9
192.34	2283.67
192.416	2283.81
192.491	2279.53
192.567	2280.05
192.642	2283.81
192.718	2279.96
192.793	2264.35
192.869	2259.07
192.944	2263.92
193.02	2272.35
193.095	2279.53
193.171	2284.29
193.246	2281.43
193.322	2279.53
193.397	2280.15
193.473	2266.54
193.548	2244.83
193.624	2250.5
193.699	2251.54
193.775	2270.3
193.85	2269.63
193.925	2278.87
194.001	2279.01
194.076	2271.78
194.152	2263.35
194.227	2253.31
194.302	2245.89
194.378	2248.41
194.453	2242.23
194.529	2251.46
194.604	2236.33
194.679	2227.95
194.755	2213.11
194.83	2225.63
194.905	2223.11
194.981	2229.25
195.056	2223.49
195.131	2229.87
195.207	2230.96
195.282	2221.54
195.357	2199.97
195.433	2218.01
195.508	2208.49
195.583	2216.77
195.659	2232.81
195.734	2241.81
195.809	2242.09
195.884	2250.75
195.96	2255.46
196.035	2273.78
196.11	2270.16
196.185	2282.39
196.261	2283.96
196.336	2311.37
196.411	2297.85
196.486	2303.28
196.561	2300.9
196.637	2307.7
196.712	2324.31
196.787	2327.55
196.862	2344.07
196.937	2357.11
197.013	2361.01
197.088	2370.2
197.163	2394.53
197.238	2413.68
197.313	2412.92
197.388	2427.54
197.464	2460.44
197.539	2469.91
197.614	2463.54
197.689	2478.49
197.764	2495.49
197.839	2519.91
197.914	2514.39
197.989	2536.39
198.065	2551.96
198.14	2598.65
198.215	2628.08
198.29	2640.28
198.365	2648.85
198.44	2655.71
198.515	2682.54
198.59	2700.5
198.665	2727.03
198.74	2732.7
198.815	2730.37
198.89	2752.57
198.965	2782.35
199.04	2780.64
199.115	2795.88
199.19	2840.05
199.265	2842
199.34	2849.2
199.415	2881.24
199.49	2903.01
199.565	2914.55
199.64	2938.76
199.715	2939.53
199.79	2946.87
199.865	2954.83
199.94	2959.02
200.015	2991.87
200.09	2996.87
200.165	3004.41
200.24	3012.7
200.315	3055.75
200.39	3070.34
200.464	3074.01
200.539	3078.45
200.614	3091.75
200.689	3120.22
200.764	3127.42
200.839	3143.44
200.914	3151.69
200.989	3142.43
201.063	3154.73
201.138	3135.48
201.213	3134.53
201.288	3111.88
201.363	3116.65
201.438	3116.41
201.512	3130.61
201.587	3115.3
201.662	3119.55
201.737	3130.76
201.812	3138.39
201.886	3102.54
201.961	3112.56
202.036	3101.41
202.111	3095.45
202.186	3065.9
202.26	3045.06
202.335	3022.16
202.41	3015.25
202.485	2996.04
202.559	2975.73
202.634	2949.85
202.709	2959.28
202.784	2941.83
202.858	2945.22
202.933	2927.15
203.008	2924.58
203.082	2904.75
203.157	2903.03
203.232	2859.29
203.306	2837.03
203.381	2807.09
203.456	2782.88
203.53	2760.79
203.605	2742.79
203.68	2719.77
203.754	2712.25
203.829	2698.57
203.904	2678.23
203.978	2670.41
204.053	2674.94
204.127	2663.41
204.202	2663.03
204.277	2646.46
204.351	2640.41
204.426	2631.35
204.5	2623.4
204.575	2583.82
204.65	2593.78
204.724	2586.78
204.799	2593.63
204.873	2589.58
204.948	2583.44
205.022	2569.11
205.097	2559.43
205.171	2575.58
205.246	2583.44
205.32	2583.01
205.395	2578.96
205.469	2569.82
205.544	2575.83
205.618	2558.44
205.693	2568.68
205.767	2556.82
205.842	2578.17
205.916	2572.21
205.991	2563.59
206.065	2568.21
206.14	2586.44
206.214	2578.29
206.289	2571
206.363	2585.91
206.438	2589.58
206.512	2597.72
206.586	2622.96
206.661	2633.59
206.735	2610.93
206.81	2612.64
206.884	2627.26
206.958	2618.59
207.033	2634.35
207.107	2639.17
207.181	2672.71
207.256	2667.8
207.33	2687.52
207.405	2697.96
207.479	2715.45
207.553	2722.83
207.628	2708.07
207.702	2716.93
207.776	2717.6
207.851	2721.55
207.925	2735.47
207.999	2732.04
208.073	2733.51
208.148	2732.51
208.222	2717.6
208.296	2751.51
208.371	2767.05
208.445	2781.3
208.519	2809.26
208.593	2823.75
208.668	2822.27
208.742	2825.18
208.816	2828.42
208.89	2844.54
208.965	2849.69
209.039	2860.65
209.113	2884.87
209.187	2907.06
209.261	2906.68
209.336	2929.66
209.41	2952.49
209.484	2956.69
209.558	2982.91
209.632	3000.07
209.707	3019.34
209.781	3052.99
209.855	3076.85
209.929	3106.3
210.003	3123.32
210.077	3133.29
210.151	3191.44
210.226	3241.74
210.3	3288.01
210.374	3327.5
210.448	3351.84
210.522	3378.81
210.596	3410.51
210.67	3439.53
210.744	3513.54
210.818	3574.09
210.892	3625.72
210.966	3652.31
211.041	3705.08
211.115	3739.27
211.189	3803.8
211.263	3866.34
211.337	3911.86
211.411	3971.52
211.485	4008.52
211.559	4073.08
211.633	4132.37
211.707	4161.02
211.781	4228.12
211.855	4253.28
211.929	4310.5
212.003	4356.88
212.077	4440.91
212.151	4529.46
212.225	4617.14
212.299	4693.45
212.373	4772.87
212.447	4852.43
212.52	4975.76
212.594	5072.25
212.668	5184.87
212.742	5272.18
212.816	5372.37
212.89	5484.33
212.964	5600.65
213.038	5724.05
213.112	5853.1
213.186	5994.3
213.26	6100.44
213.333	6177.17
213.407	6311.12
213.481	6449.99
213.555	6603.6
213.629	6732.71
213.703	6863.04
213.777	7016.96
213.85	7141.81
213.924	7327.6
213.998	7482.63
214.072	7635.66
214.146	7780.15
214.219	7939.15
214.293	8101.46
214.367	8265.51
214.441	8434.43
214.515	8585.4
214.588	8729.87
214.662	8870.99
214.736	9017.17
214.81	9194.23
214.883	9380.73
214.957	9544.13
215.031	9708.12
215.105	9862.97
215.178	10022.78
215.252	10188.48
215.326	10328.67
215.4	10482
215.473	10606.65
215.547	10758.57
215.621	10915.67
215.694	11099.41
215.768	11246.54
215.842	11406.82
215.915	11562.88
215.989	11711.57
216.063	11870.52
216.136	12040.18
216.21	12203.38
216.284	12385.05
216.357	12549.37
216.431	12711.37
216.504	12883.6
216.578	13069.14
216.652	13236.16
216.725	13392.83
216.799	13558.89
216.873	13725.63
216.946	13895.26
217.02	14042.53
217.093	14196.83
217.167	14321.98
217.24	14452.85
217.314	14592.64
217.387	14728.48
217.461	14866.92
217.535	15012.74
217.608	15144.53
217.682	15285.28
217.755	15436.48
217.829	15555.88
217.902	15686.26
217.976	15816.59
218.049	15937.77
218.123	16049.93
218.196	16183.92
218.27	16304.56
218.343	16408.62
218.417	16530.75
218.49	16642.42
218.563	16777.27
218.637	16899.54
218.71	17040.7
218.784	17158.68
218.857	17289
218.931	17404.52
219.004	17517
219.077	17639.7
219.151	17749.63
219.224	17848.09
219.298	17947.22
219.371	18065.96
219.444	18155.45
219.518	18255.4
219.591	18349.57
219.665	18467.87
219.738	18560.01
219.811	18647.24
219.885	18749.11
219.958	18837.78
220.031	18921.44
220.105	19008.23
220.178	19091.89
220.251	19163.16
220.325	19252.51
220.398	19332.41
220.471	19415.68
220.544	19497.94
220.618	19563.43
220.691	19642.56
220.764	19712.53
220.838	19788.05
220.911	19847.18
220.984	19938.11
221.057	20010.4
221.131	20081.67
221.204	20112.13
221.277	20188.03
221.35	20276.76
221.424	20335.41
221.497	20402.88
221.57	20459.55
221.643	20512.71
221.716	20571.89
221.79	20620.56
221.863	20666.01
221.936	20708.23
222.009	20748.61
222.082	20785.19
222.155	20822.21
222.229	20875.61
222.302	20926.84
222.375	20955.32
222.448	21001.16
222.521	21036.58
222.594	21065.88
222.667	21101.11
222.74	21154.9
222.814	21185.89
222.887	21207.24
222.96	21241.61
223.033	21274.05
223.106	21309.13
223.179	21355.36
223.252	21387.03
223.325	21407.56
223.398	21433.63
223.471	21459.56
223.544	21486.51
223.617	21509.93
223.69	21537.5
223.763	21539.38
223.837	21562.71
223.91	21586.86
223.983	21580.93
224.056	21585.51
224.129	21607
224.202	21622.38
224.275	21623.44
224.348	21616.02
224.42	21619.83
224.493	21612.31
224.566	21610.47
224.639	21615.63
224.712	21599.34
224.785	21592.69
224.858	21601.89
224.931	21604.16
225.004	21599.58
225.077	21596.54
225.15	21580.25
225.223	21572.35
225.296	21599.92
225.369	21576.35
225.442	21568.54
225.514	21569.31
225.587	21569.7
225.66	21567.87
225.733	21574.23
225.806	21570.32
225.879	21574.81
225.952	21561.7
226.025	21575.63
226.097	21592.35
226.17	21602.81
226.243	21575.24
226.316	21568.3
226.389	21566.95
226.461	21550.71
226.534	21545.36
226.607	21540.25
226.68	21559.92
226.753	21563.34
226.825	21527.33
226.898	21543.67
226.971	21534.32
227.044	21530.61
227.117	21521.88
227.189	21511.14
227.262	21511.23
227.335	21508.39
227.407	21493.88
227.48	21486.12
227.553	21473.25
227.626	21454.16
227.698	21437.39
227.771	21433.77
227.844	21408.86
227.916	21398.4
227.989	21382.68
228.062	21363.02
228.134	21373
228.207	21353.72
228.28	21331.45
228.352	21327.45
228.425	21307.69
228.498	21302.96
228.57	21280.99
228.643	21279.25
228.716	21267.3
228.788	21241.8
228.861	21224.69
228.934	21221.89
229.006	21218.14
229.079	21200.4
229.151	21165.7
229.224	21125.45
229.296	21122.08
229.369	21139.96
229.442	21130.66
229.514	21104.1
229.587	21106.9
229.659	21064.68
229.732	21053.11
229.804	21038.31
229.877	21035.28
229.949	21026.99
230.022	21031.9
230.094	21028.14
230.167	21015.18
230.239	20986.36
230.312	20969.97
230.384	20972.72
230.457	20944.91
230.529	20922.55
230.602	20901.97
230.674	20886.11
230.747	20889.49
230.819	20883.03
230.892	20829.05
230.964	20803.75
231.037	20804.33
231.109	20787.51
231.181	20783.7
231.254	20753.63
231.326	20742.64
231.399	20725.33
231.471	20695.79
231.544	20646.29
231.616	20630.39
231.688	20610.05
231.761	20583.6
231.833	20548.46
231.905	20505.18
231.978	20489.47
232.05	20459.35
232.122	20445.52
232.195	20421.52
232.267	20407.21
232.339	20381.23
232.412	20384.03
232.484	20368.12
232.556	20328.22
232.629	20330.2
232.701	20313.96
232.773	20293.04
232.846	20252.56
232.918	20231.31
232.99	20211.93
233.062	20196.37
233.135	20186.34
233.207	20150.78
233.279	20140.08
233.351	20125.67
233.424	20093
233.496	20057.87
233.568	20052.66
233.64	20009.67
233.713	19990.69
233.785	19965.29
233.857	19941.15
233.929	19887.56
234.001	19875.22
234.074	19876.38
234.146	19814.45
234.218	19781.83
234.29	19752.96
234.362	19724.48
234.434	19662.17
234.507	19620.87
234.579	19573.84
234.651	19523.24
234.723	19510.03
234.795	19483.96
234.867	19456.69
234.939	19451.87
235.012	19431.48
235.084	19411.2
235.156	19392.21
235.228	19357.75
235.3	19317.56
235.372	19282.48
235.444	19277.18
235.516	19225.13
235.588	19195.02
235.66	19172.17
235.732	19134.97
235.804	19167.16
235.876	19151.74
235.948	19148.18
236.02	19120.66
236.092	19102.93
236.164	19079.17
236.236	19030.98
236.308	18998.16
236.38	18964.96
236.452	18920
236.524	18894.84
236.596	18879.52
236.668	18861.59
236.74	18831.14
236.812	18806.61
236.884	18786.08
236.956	18756.44
237.028	18719.33
237.1	18665.55
237.172	18656.45
237.244	18641.65
237.316	18570.62
237.388	18532.36
237.46	18494
237.532	18477.08
237.604	18441.42
237.675	18422.1
237.747	18407.16
237.819	18368.51
237.891	18341.33
237.963	18307.55
238.035	18269.48
238.107	18196.95
238.178	18169.29
238.25	18127.08
238.322	18120.38
238.394	18067.51
238.466	18034.02
238.538	18011.61
238.609	17998.74
238.681	17942.84
238.753	17908.87
238.825	17874.6
238.897	17850.17
238.968	17844.77
239.04	17806.56
239.112	17800.29
239.184	17757.98
239.255	17722.75
239.327	17701.35
239.399	17673.84
239.471	17650.9
239.542	17630.42
239.614	17622.32
239.686	17574.51
239.758	17563.57
239.829	17525.69
239.901	17513.31
239.973	17482.22
240.044	17454.71
240.116	17422.13
240.188	17389.6
240.259	17355.24
240.331	17316.78
240.403	17302.32
240.474	17254.13
240.546	17218.37
240.618	17170.13
240.689	17137.21
240.761	17106.03
240.833	17092.53
240.904	17048.48
240.976	17004.92
241.048	16973.35
241.119	16952.19
241.191	16925.44
241.262	16914.5
241.334	16873.68
241.405	16841.34
241.477	16802.84
241.549	16769.87
241.62	16735.51
241.692	16719.65
241.763	16692.95
241.835	16661.14
241.906	16621.62
241.978	16566.96
242.049	16550.29
242.121	16521.85
242.192	16502.57
242.264	16457.17
242.335	16403
242.407	16392.64
242.478	16369.79
242.55	16334.08
242.621	16283.13
242.693	16250.45
242.764	16203.32
242.836	16166.59
242.907	16140.32
242.979	16117.62
243.05	16097.86
243.122	16080.08
243.193	16040.65
243.264	15994.43
243.336	15968.98
243.407	15945.6
243.479	15939.48
243.55	15916.44
243.622	15901.64
243.693	15868.48
243.764	15856
243.836	15820.33
243.907	15780.81
243.978	15743.84
244.05	15720.27
244.121	15673.37
244.192	15648.45
244.264	15607.77
244.335	15582.17
244.407	15535.08
244.478	15505.39
244.549	15462.01
244.62	15407.68
244.692	15370.33
244.763	15348.49
244.834	15315.38
244.906	15276
244.977	15246.64
245.048	15225.96
245.119	15183.64
245.191	15143.73
245.262	15090.03
245.333	15078.61
245.405	15054.41
245.476	15033.49
245.547	15013.82
245.618	15003.12
245.689	14979.12
245.761	14950.68
245.832	14912.5
245.903	14893.22
245.974	14867.04
246.045	14842.89
246.117	14839.23
246.188	14806.59
246.259	14765.04
246.33	14733.03
246.401	14697.94
246.473	14654.46
246.544	14617.25
246.615	14596.14
246.686	14565.91
246.757	14558.44
246.828	14515.83
246.899	14506.33
246.97	14464.39
247.042	14415.99
247.113	14399.17
247.184	14393
247.255	14363.98
247.326	14351.25
247.397	14331.34
247.468	14305.36
247.539	14283.91
247.61	14248.43
247.681	14231.75
247.752	14226.4
247.823	14190.68
247.894	14163.73
247.965	14132.16
248.037	14097.45
248.108	14055.03
248.179	14034.11
248.25	13999.88
248.321	13983.97
248.392	13936.35
248.463	13939.96
248.534	13920.82
248.605	13899.8
248.675	13869.53
248.746	13853.53
248.817	13828.85
248.888	13804.5
248.959	13767.67
249.03	13740.15
249.101	13711.03
249.172	13681.04
249.243	13630.96
249.314	13626.52
249.385	13606.08
249.456	13590.95
249.527	13566.51
249.598	13553.1
249.669	13528.13
249.739	13511.45
249.81	13491.98
249.881	13460.55
249.952	13423.33
250.023	13397.01
250.094	13354.25
250.165	13316.94
250.235	13293.17
250.306	13270.03
250.377	13237.64
250.448	13220
250.519	13184.03
250.59	13177.62
250.66	13151.5
250.731	13157.09
250.802	13126.86
250.873	13111.39
250.944	13085.89
251.014	13058.89
251.085	13048.82
251.156	13034.84
251.227	13028.18
251.297	13019.75
251.368	13005.86
251.439	12997.04
251.51	12992.7
251.58	12957.66
251.651	12929.27
251.722	12915.77
251.792	12877.06
251.863	12849.92
251.934	12843.94
252.005	12851.32
252.075	12827.45
252.146	12824.56
252.217	12810.97
252.287	12802.68
252.358	12779.49
252.429	12774.43
252.499	12747.24
252.57	12736.2
252.641	12722.66
252.711	12703.18
252.782	12664.91
252.852	12672.62
252.923	12652.42
252.994	12628.08
253.064	12628.7
253.135	12601.42
253.205	12577.75
253.276	12584.02
253.347	12581.99
253.417	12538.71
253.488	12509.74
253.558	12486.6
253.629	12456.57
253.699	12437.38
253.77	12421.23
253.841	12396.7
253.911	12391.78
253.982	12374.28
254.052	12362.47
254.123	12344.93
254.193	12319.76
254.264	12342.03
254.334	12301.88
254.405	12269.01
254.475	12242.83
254.546	12214.59
254.616	12214.59
254.687	12199.88
254.757	12174.53
254.827	12156.93
254.898	12152.55
254.968	12125.94
255.039	12103.62
255.109	12101.65
255.18	12071.04
255.25	12032.24
255.321	12029.63
255.391	11998.4
255.461	12001.97
255.532	11952.56
255.602	11923.98
255.673	11880.79
255.743	11849.99
255.813	11803.14
255.884	11801.31
255.954	11794.46
256.024	11801.69
256.095	11786.65
256.165	11754.75
256.235	11749.2
256.306	11718.02
256.376	11712.04
256.446	11711.22
256.517	11695.7
256.587	11682.83
256.657	11663.51
256.728	11648.42
256.798	11626.59
256.868	11603.69
256.938	11577.86
257.009	11574.73
257.079	11574.15
257.149	11587.55
257.219	11543.73
257.29	11537.28
257.36	11503.06
257.43	11489.18
257.5	11446.72
257.571	11414.23
257.641	11411.48
257.711	11380.83
257.781	11373.99
257.852	11361.6
257.922	11319.67
257.992	11303.57
258.062	11286.46
258.132	11280.49
258.202	11264.25
258.273	11248.97
258.343	11248.1
258.413	11222.85
258.483	11205.21
258.553	11173.98
258.623	11150.46
258.693	11134.46
258.764	11136.63
258.834	11129.55
258.904	11114.22
258.974	11087.09
259.044	11072.4
259.114	11054.37
259.184	11040.88
259.254	11024.35
259.324	10980.01
259.394	10973.85
259.464	10971.92
259.535	10949.89
259.605	10927.05
259.675	10902.38
259.745	10889.42
259.815	10853.9
259.885	10838.77
259.955	10850.53
260.025	10823.36
260.095	10808.37
260.165	10808.13
260.235	10813
260.305	10786.54
260.375	10755.7
260.445	10770.54
260.515	10774.98
260.585	10774.88
260.655	10752.62
260.725	10748.91
260.795	10744.67
260.865	10748.76
260.934	10720.48
261.004	10713.63
261.074	10700.82
261.144	10704.14
261.214	10699.18
261.284	10679.43
261.354	10663.38
261.424	10626.23
261.494	10629.79
261.564	10614.66
261.634	10600.64
261.703	10561.47
261.773	10563.54
261.843	10563.49
261.913	10544.51
261.983	10507.41
262.053	10497.67
262.123	10486.06
262.192	10457.39
262.262	10460.67
262.332	10432.34
262.402	10424.39
262.472	10405.89
262.541	10373.56
262.611	10363.78
262.681	10335.11
262.751	10339.79
262.821	10332.37
262.89	10316.76
262.96	10311.36
263.03	10317.14
263.1	10310.64
263.169	10296.33
263.239	10287.71
263.309	10287.08
263.379	10279.28
263.448	10263.67
263.518	10244.98
263.588	10230.76
263.657	10236.21
263.727	10228.16
263.797	10212.55
263.867	10200.75
263.936	10174.45
264.006	10173.39
264.076	10159.08
264.145	10144.53
264.215	10115.73
264.285	10109.32
264.354	10078.73
264.424	10051.61
264.494	10020.35
264.563	9994.81
264.633	10004.21
264.702	9992.74
264.772	9960.42
264.842	9937.01
264.911	9935.9
264.981	9906.56
265.05	9893.61
265.12	9874.87
265.19	9857.14
265.259	9854.25
265.329	9849.77
265.398	9842.3
265.468	9859.79
265.537	9841.58
265.607	9838.6
265.676	9843.9
265.746	9829.93
265.815	9826.07
265.885	9817.12
265.955	9797.61
266.024	9781.96
266.094	9747.09
266.163	9741.4
266.232	9747.04
266.302	9736.63
266.371	9725.7
266.441	9714.91
266.51	9712.26
266.58	9692.04
266.649	9678.6
266.719	9680.96
266.788	9666.7
266.858	9672.14
266.927	9634.43
266.996	9622.39
267.066	9612.52
267.135	9582.9
267.205	9583.09
267.274	9577.32
267.343	9578.42
267.413	9561.04
267.482	9572.5
267.552	9573.18
267.621	9547.17
267.69	9516.97
267.76	9506.04
267.829	9500.6
267.898	9491.26
267.968	9467.33
268.037	9465.4
268.106	9466.08
268.176	9434.87
268.245	9424.08
268.314	9403.47
268.384	9403.13
268.453	9398.85
268.522	9389.17
268.592	9392.54
268.661	9374.91
268.73	9369.57
268.799	9347.18
268.869	9360.13
268.938	9322.95
269.007	9308.03
269.076	9301.62
269.146	9297.67
269.215	9289.83
269.284	9293
269.353	9284.53
269.422	9279.67
269.492	9265.22
269.561	9218.57
269.63	9220.06
269.699	9203.35
269.768	9200.56
269.838	9190.21
269.907	9192.33
269.976	9167.48
270.045	9140.38
270.114	9135.08
270.183	9118.04
270.253	9114.62
270.322	9086.26
270.391	9083.57
270.46	9088.38
270.529	9089.44
270.598	9084.72
270.667	9076.4
270.736	9052.95
270.806	9047.6
270.875	9049.53
270.944	9035.04
271.013	9064.5
271.082	9051.17
271.151	9045.53
271.22	9008.37
271.289	8999.27
271.358	8978.23
271.427	8984.54
271.496	8976.65
271.565	8959.61
271.634	8953.68
271.703	8956.09
271.772	8955.27
271.841	8940.5
271.91	8917.29
271.979	8908
272.048	8888.74
272.117	8889.08
272.186	8877.82
272.255	8876.18
272.324	8874.11
272.393	8880.51
272.462	8857.07
272.531	8851.77
272.6	8846.81
272.669	8859.85
272.738	8849.07
272.807	8850.61
272.876	8821.69
272.945	8848.55
273.013	8855
273.082	8861.59
273.151	8847.87
273.22	8853.12
273.289	8850.62
273.358	8862.07
273.427	8846.48
273.496	8847.39
273.564	8843.44
273.633	8850.23
273.702	8830.02
273.771	8812.54
273.84	8792.76
273.909	8800.03
273.977	8798.73
274.046	8780.54
274.115	8788.38
274.184	8765.53
274.253	8751.52
274.322	8761.34
274.39	8728.41
274.459	8711.52
274.528	8685.24
274.597	8675.33
274.665	8661.61
274.734	8667.09
274.803	8648.75
274.872	8645.43
274.94	8628.16
275.009	8659.6
275.078	8641.69
275.147	8641.4
275.215	8639.86
275.284	8653.34
275.353	8639.77
275.421	8613.15
275.49	8632.31
275.559	8619.17
275.627	8620.13
275.696	8617.34
275.765	8615.94
275.833	8611.85
275.902	8615.03
275.971	8623.93
276.039	8635.24
276.108	8640.54
276.177	8641.21
276.245	8633.41
276.314	8627.06
276.383	8633.7
276.451	8592.25
276.52	8593.79
276.588	8605.1
276.657	8615.64
276.725	8602.84
276.794	8600.53
276.863	8614.34
276.931	8593.98
277	8604.04
277.068	8615.88
277.137	8633.01
277.205	8636.09
277.274	8654.76
277.342	8656.74
277.411	8634.12
277.48	8620.55
277.548	8611.31
277.617	8605.01
277.685	8597.45
277.754	8604.09
277.822	8601.35
277.89	8622.82
277.959	8620.22
278.027	8601.5
278.096	8589.22
278.164	8619.16
278.233	8605.4
278.301	8595.15
278.37	8601.21
278.438	8582.4
278.507	8583.98
278.575	8557.42
278.643	8552.65
278.712	8531.87
278.78	8523.68
278.849	8535.71
278.917	8547.02
278.985	8547.31
279.054	8555.49
279.122	8570.65
279.191	8565.55
279.259	8561.75
279.327	8533.54
279.396	8546.54
279.464	8540.23
279.532	8546.78
279.601	8538.79
279.669	8539.99
279.737	8550.77
279.806	8550.05
279.874	8559.05
279.942	8554.91
280.011	8554.57
280.079	8560.49
280.147	8578.92
280.215	8584.36
280.284	8578.3
280.352	8560.97
280.42	8563.47
280.488	8550.53
280.557	8540.66
280.625	8542.78
280.693	8545.28
280.761	8547.5
280.83	8534.65
280.898	8553.7
280.966	8528.92
281.034	8494.22
281.102	8478.06
281.171	8477.04
281.239	8485.61
281.307	8480.13
281.375	8471.18
281.443	8495.62
281.512	8490.19
281.58	8502.7
281.648	8487.54
281.716	8490.72
281.784	8490.33
281.852	8477.87
281.92	8484.13
281.989	8501.98
282.057	8485.28
282.125	8525.81
282.193	8526.05
282.261	8521.77
282.329	8514.79
282.397	8523.41
282.465	8526.58
282.533	8545.25
282.601	8528.12
282.67	8509.49
282.738	8501.75
282.806	8509.93
282.874	8490.77
282.942	8497.99
283.01	8486.39
283.078	8490.96
283.146	8489.47
283.214	8498.18
283.282	8509.63
283.35	8514.59
283.418	8504.24
283.486	8507.47
283.554	8466.94
283.622	8463.13
283.69	8466.69
283.758	8460.39
283.826	8463.71
283.894	8478.63
283.962	8494.75
284.03	8514.19
284.098	8513.08
284.165	8508.51
284.233	8508.32
284.301	8508.56
284.369	8495.95
284.437	8480.31
284.505	8477.76
284.573	8493.31
284.641	8482.38
284.709	8487.39
284.777	8474.44
284.845	8478.82
284.912	8485.22
284.98	8492.44
285.048	8486.62
285.116	8484.45
285.184	8499.61
285.252	8497.69
285.319	8482.91
285.387	8479.25
285.455	8465.88
285.523	8473.62
285.591	8469.53
285.659	8476.27
285.726	8491.86
285.794	8477.86
285.862	8479.69
285.93	8474.21
285.997	8465.98
286.065	8462.56
286.133	8458.13
286.201	8455.44
286.269	8444.42
286.336	8437.49
286.404	8422.86
286.472	8435.47
286.539	8420.99
286.607	8408.38
286.675	8410.83
286.743	8414.15
286.81	8404.38
286.878	8413.62
286.946	8405.83
287.013	8408.04
287.081	8404
287.149	8382.68
287.216	8403.47
287.284	8401.97
287.352	8411.07
287.419	8408.13
287.487	8430.61
287.555	8432.05
287.622	8426.71
287.69	8427.77
287.758	8440.95
287.825	8442.06
287.893	8428.92
287.96	8431.13
288.028	8436.24
288.096	8437.29
288.163	8439.12
288.231	8428.01
288.298	8427.57
288.366	8441.82
288.433	8437.15
288.501	8429.02
288.569	8430.17
288.636	8424.59
288.704	8436.53
288.771	8439.51
288.839	8427.91
288.906	8415.64
288.974	8421.61
289.041	8422.14
289.109	8418.1
289.176	8430.47
289.244	8436.91
289.311	8456.21
289.379	8467.76
289.446	8469.11
289.514	8469.54
289.581	8472.57
289.649	8477.38
289.716	8480.32
289.783	8467.85
289.851	8489.41
289.918	8491.19
289.986	8503.08
290.053	8505.48
290.121	8499.18
290.188	8503.7
290.255	8537.53
290.323	8530.6
290.39	8523.77
290.458	8524.2
290.525	8537.53
290.592	8527.95
290.66	8532
290.727	8518.86
290.794	8531.95
290.862	8532.62
290.929	8537.1
290.996	8531.13
291.064	8538.64
291.131	8554.18
291.198	8573.77
291.266	8570.84
291.333	8576.8
291.4	8579.93
291.468	8596.29
291.535	8597.02
291.602	8600.34
291.669	8593.41
291.737	8603.8
291.804	8605.58
291.871	8625.84
291.938	8627.72
292.006	8660.45
292.073	8671.04
292.14	8687.5
292.207	8677.44
292.275	8679.41
292.342	8688.32
292.409	8718.01
292.476	8744.1
292.543	8731.88
292.611	8728.36
292.678	8751.75
292.745	8773.08
292.812	8785.3
292.879	8781.02
292.946	8785.88
293.014	8797.38
293.081	8809.51
293.148	8825.25
293.215	8843.35
293.282	8838.54
293.349	8854.71
293.416	8831.94
293.484	8843.93
293.551	8852.45
293.618	8876.22
293.685	8901.54
293.752	8899.81
293.819	8897.02
293.886	8883.4
293.953	8890.23
294.02	8902.75
294.087	8905.92
294.154	8897.69
294.221	8913.82
294.288	8920.75
294.356	8941.16
294.423	8947.66
294.49	8933.8
294.557	8936.88
294.624	8927.3
294.691	8952.57
294.758	8949.49
294.825	8954.3
294.892	8948.14
294.959	8947.18
295.026	8955.17
295.093	8946.31
295.16	8945.97
295.226	8954.11
295.293	8975.1
295.36	8982.18
295.427	8989.45
295.494	8998.31
295.561	9006.92
295.628	9024.07
295.695	9036.29
295.762	9035.76
295.829	9047.46
295.896	9068.31
295.963	9082.22
296.03	9095.51
296.096	9095.7
296.163	9109.52
296.23	9127.57
296.297	9144.04
296.364	9142.59
296.431	9149.62
296.498	9145.58
296.564	9169.65
296.631	9170.8
296.698	9157.23
296.765	9175.19
296.832	9170.08
296.899	9155.98
296.965	9178.41
297.032	9160.11
297.099	9177.4
297.166	9189.48
297.233	9180.77
297.299	9173.45
297.366	9179.09
297.433	9175.72
297.5	9185.3
297.566	9186.02
297.633	9185.01
297.7	9181.73
297.767	9185.15
297.833	9185.25
297.9	9192.33
297.967	9174.9
298.033	9187.22
298.1	9217.99
298.167	9214.33
298.234	9223.63
298.3	9240.52
298.367	9230.75
298.434	9237.54
298.5	9228.68
298.567	9225.89
298.634	9229.98
298.7	9253.52
298.767	9247.07
298.834	9265.17
298.9	9258.58
298.967	9249.48
299.033	9264.84
299.1	9280.78
299.167	9292.91
299.233	9291.22
299.3	9309.91
299.366	9329.89
299.433	9343.18
299.5	9316.5
299.566	9313.32
299.633	9324.54
299.699	9331.67
299.766	9334.32
299.832	9339.09
299.899	9345.88
299.965	9348.57
300.032	9344.72
300.099	9344.09
300.165	9351.46
300.232	9352.09
300.298	9354.45
300.365	9369.9
300.431	9359.69
300.498	9355.12
300.564	9363.21
300.631	9375.05
300.697	9385.12
300.763	9386.8
300.83	9379.73
300.896	9399.95
300.963	9410.25
301.029	9414.78
301.096	9418.15
301.162	9427.83
301.229	9424.12
301.295	9411.89
301.361	9421.28
301.428	9428.21
301.494	9411.31
301.561	9416.56
301.627	9415.07
301.693	9426.53
301.76	9433.18
301.826	9433.22
301.892	9448.44
301.959	9459.76
302.025	9450.32
302.092	9443.53
302.158	9448.87
302.224	9456.44
302.291	9446.52
302.357	9444.73
302.423	9441.07
302.49	9432.94
302.556	9446.04
302.622	9449.6
302.688	9457.93
302.755	9475.41
302.821	9486.05
302.887	9501.08
302.954	9498.24
303.02	9509.31
303.086	9510.52
303.152	9501.7
303.219	9494.96
303.285	9490.53
303.351	9490.77
303.417	9496.98
303.483	9484.03
303.55	9474.3
303.616	9467.75
303.682	9466.02
303.748	9460.58
303.815	9477
303.881	9488.32
303.947	9472.76
304.013	9468.82
304.079	9462.51
304.145	9436.55
304.212	9430.14
304.278	9424.85
304.344	9420.18
304.41	9406.74
304.476	9394.08
304.542	9390.9
304.608	9399.71
304.674	9383.29
304.741	9379.97
304.807	9385.12
304.873	9393.16
304.939	9408.19
305.005	9392.1
305.071	9389.6
305.137	9388.01
305.203	9360.27
305.269	9352.76
305.335	9362.34
305.401	9359.74
305.467	9363.01
305.533	9375.82
305.599	9380.69
305.666	9386.03
305.732	9387.04
305.798	9403.27
305.864	9429.18
305.93	9434.09
305.996	9432.79
306.062	9435.92
306.128	9432.26
306.194	9414.21
306.259	9418.15
306.325	9409.77
306.391	9425.33
306.457	9434.24
306.523	9436.16
306.589	9460.77
306.655	9453.36
306.721	9441.75
306.787	9433.23
306.853	9444.5
306.919	9424.17
306.985	9416.13
307.051	9408.96
307.117	9404.34
307.183	9389.84
307.248	9364.51
307.314	9366.82
307.38	9366.77
307.446	9378.62
307.512	9364.46
307.578	9369.66
307.644	9357.91
307.709	9359.16
307.775	9355.94
307.841	9355.84
307.907	9359.98
307.973	9332.92
308.039	9335.57
308.104	9339.76
308.17	9341.54
308.236	9326.42
308.302	9333.59
308.368	9324.88
308.433	9328.82
308.499	9322.95
308.565	9310.38
308.631	9314.91
308.696	9293.15
308.762	9279.28
308.828	9275.96
308.894	9258.67
308.959	9242.69
309.025	9232.96
309.091	9228.2
309.156	9220.06
309.222	9213.66
309.288	9200.7
309.354	9186.12
309.419	9186.4
309.485	9170.8
309.551	9171.57
309.616	9163.63
309.682	9158.19
309.748	9150.53
309.813	9139.85
309.879	9130.65
309.945	9119.34
310.01	9106.48
310.076	9113.03
310.141	9115.15
310.207	9096.42
310.273	9099.83
310.338	9099.59
310.404	9083.81
310.469	9072.73
310.535	9059.15
310.601	9046.01
310.666	9051.93
310.732	9058.24
310.797	9040.71
310.863	9031.18
310.928	9025.11
310.994	9019.48
311.059	9012.79
311.125	9013.08
311.191	9024.49
311.256	9016.07
311.322	9024.2
311.387	9007.69
311.453	9396.33
311.518	9366.2
311.584	9360.56
311.649	9366.63
311.715	9357.29
311.78	9364.75
311.846	9354.55
311.911	9359.65
311.976	9354.5
312.042	9341.31
312.107	9327.68
312.173	9317.96
312.238	9307.66
312.304	9302.75
312.369	9294.71
312.434	9280.94
312.5	9275.46
312.565	9242.91
312.631	9240.89
312.696	9230.93
312.761	9232.56
312.827	8832.42
312.892	8870.93
312.958	8863.27
313.023	8865.3
313.088	8866.45
313.154	8852.3
313.219	8847.05
313.284	8838.15
313.35	8834.2
313.415	8813.84
313.48	8811.77
313.546	8820.58
313.611	8829.49
313.676	8815.96
313.741	8810.47
313.807	8821.69
313.872	8824.24
313.937	8827.32
314.003	8844.41
314.068	8849.08
314.133	8854.57
314.198	8844.89
314.264	8822.74
314.329	8818.85
314.394	8810.85
314.459	8805.9
314.525	8826.02
314.59	8818.85
314.655	8807.77
314.72	8813.31
314.785	8821.44
314.851	8812.64
314.916	8790.01
314.981	8773.41
315.046	8771.15
315.111	8764.75
315.176	8753.15
315.242	8751.22
315.307	8749.54
315.372	8723.4
315.437	8706.7
315.502	8698.13
315.567	8705.4
315.632	8690
315.698	8691.1
315.763	8684.7
315.828	8672.24
315.893	8669.49
315.958	8668.96
316.023	8662.03
316.088	8644.47
316.153	8623.1
316.218	8618.14
316.283	8602.17
316.348	8591.73
316.413	8588.12
316.479	8572.43
316.544	8537.11
316.609	8513.1
316.674	8479.56
316.739	8448
316.804	8420.15
316.869	8388.05
316.934	8351.91
316.999	8326.32
317.064	8276.09
317.129	8229.9
317.194	8200.8
317.259	8144.94
317.324	8089.14
317.389	8044.74
317.454	8013.52
317.518	7985.29
317.583	7961.57
317.648	7942.86
317.713	7905.64
317.778	7847.77
317.843	7817.09
317.908	7782.37
317.973	7737.12
318.038	7711.06
318.103	7676.15
318.168	7655.43
318.233	7621.19
318.297	7572.3
318.362	7536.53
318.427	7499.71
318.492	7478.12
318.557	7429.39
318.622	7403.96
318.687	7386.61
318.751	7344.89
318.816	7306.1
318.881	7270.68
318.946	7218.19
319.011	7175.7
319.075	7139.04
319.14	7104.64
319.205	7063.02
319.27	7026.66
319.335	6985.73
319.399	6945.7
319.464	6926.25
319.529	6868.45
319.594	6831.89
319.658	6803.7
319.723	6761
319.788	6738.38
319.853	6685.5
319.917	6657.74
319.982	6610.15
320.047	6572.4
320.112	6550.56
320.176	6503.74
320.241	6475.22
320.306	6445.07
320.37	6402.77
320.435	6370.13
320.5	6346.37
320.564	6309.21
320.629	6272.6
320.694	6242.27
320.758	6202.97
320.823	6153.92
320.888	6129.02
320.952	6080.41
321.017	6040.83
321.082	6004.9
321.146	5969.58
321.211	5938.64
321.275	5899.55
321.34	5856.68
321.405	5813.99
321.469	5766.18
321.534	5722.83
321.598	5666.87
321.663	5635.27
321.727	5605.25
321.792	5558.74
321.857	5513.48
321.921	5474.7
321.986	5435.98
322.05	5379.72
322.115	5344.73
322.179	5301.42
322.244	5242.25
322.308	5212.93
322.373	5172.06
322.437	5128.42
322.502	5097.6
322.566	5053.48
322.631	5017.32
322.695	4977.39
322.76	4932.19
322.824	4900.39
322.889	4859.61
322.953	4817.44
323.018	4757.59
323.082	4694.37
323.146	4644.07
323.211	4593.96
323.275	4551.8
323.34	4507.64
323.404	4473.16
323.468	4423.83
323.533	4385.03
323.597	4342.15
323.662	4291.5
323.726	4252.71
323.79	4208.62
323.855	4148.97
323.919	4096.33
323.983	4054.02
324.048	3987.05
324.112	4151.14
324.177	4022.85
324.241	3817.15
324.305	3615.59
324.37	3413.13
324.434	3221.37
324.498	3179.59
324.562	3128.75
324.627	3068.08
324.691	3012.97
324.755	2951.35
324.82	2880.71
324.884	2801.91
324.948	2735.84
325.012	2641.87
325.077	2522.52
