Data from 20250704_urea_0.5M_MAYP1162681_11-05-20-775.txt Node
Date: Fri Jul 04 11:05:20 BST 2025
User: adleo
Spectrometer: MAYP116268
Trigger mode: 0
Integration Time (sec): 1.000000E0
Scans to average: 1
Electric dark correction enabled: true
Nonlinearity correction enabled: true
Boxcar width: 10
XAxis mode: Wavelengths
Number of Pixels in Spectrum: 2068
>>>>>Begin Spectral Data<<<<<
179.565	1234.87
179.642	1291.15
179.718	1336
179.795	1375.3
179.871	1406.56
179.948	1426.93
180.024	1449.07
180.101	1471.03
180.177	1486.1
180.254	1513.34
180.33	1535.42
180.407	1592.59
180.483	1691.79
180.56	1783.96
180.636	1869.19
180.712	1857.39
180.789	1867.23
180.865	1878.87
180.942	1890.33
181.018	1899.93
181.095	1914.44
181.171	1917.76
181.248	1920.05
181.324	1938.55
181.4	1945.35
181.477	1957.14
181.553	1969.97
181.63	1989.94
181.706	2007.3
181.782	2016.33
181.859	2012.67
181.935	2017.76
182.011	2013.39
182.088	2027.7
182.164	2049.4
182.24	2064.42
182.317	2072.22
182.393	2071.46
182.469	2085.35
182.546	2100.04
182.622	2107.03
182.698	2104.66
182.775	2116.21
182.851	2128.82
182.927	2118.54
183.003	2116.59
183.08	2114.69
183.156	2124.73
183.232	2121.87
183.308	2110.98
183.385	2121.3
183.461	2138.95
183.537	2140.52
183.613	2155.55
183.69	2147.37
183.766	2135.23
183.842	2143.23
183.918	2148.03
183.995	2162.3
184.071	2166.2
184.147	2160.07
184.223	2145.47
184.299	2157.79
184.375	2147.95
184.452	2159.13
184.528	2209.14
184.604	2220.55
184.68	2228.4
184.756	2233.5
184.832	2240.82
184.908	2245.29
184.985	2240.92
185.061	2224.36
185.137	2234.55
185.213	2222.13
185.289	2225.31
185.365	2218.7
185.441	2216.51
185.517	2227.08
185.593	2223.42
185.669	2221.94
185.745	2233.84
185.822	2252.43
185.898	2243.67
185.974	2252.66
186.05	2241.95
186.126	2207.03
186.202	2198.13
186.278	2195.23
186.354	2187.52
186.43	2190.95
186.506	2190.14
186.582	2190.52
186.658	2199.7
186.734	2181.34
186.81	2184.86
186.886	2187.9
186.962	2202.6
187.038	2199.56
187.114	2192.75
187.19	2197.27
187.266	2185.62
187.341	2186.62
187.417	2181.53
187.493	2179.29
187.569	2181.62
187.645	2176.15
187.721	2166.11
187.797	2174.44
187.873	2181.34
187.949	2174.68
188.025	2168.63
188.101	2168.87
188.176	2175.48
188.252	2168.82
188.328	2175.81
188.404	2177.29
188.48	2170.49
188.556	2162.21
188.632	2158.93
188.707	2161.78
188.783	2162.78
188.859	2158.45
188.935	2144.75
189.011	2152.27
189.086	2146.46
189.162	2140.66
189.238	2137.66
189.314	2134.71
189.39	2130.19
189.465	2120.96
189.541	2137.43
189.617	2123.35
189.693	2120.97
189.768	2123.49
189.844	2150.09
189.92	2141.92
189.996	2146.34
190.071	2159.38
190.147	2158.23
190.223	2167.23
190.298	2160.75
190.374	2146.43
190.45	2160.99
190.526	2172.79
190.601	2164.23
190.677	2168.36
190.753	2192.26
190.828	2195.16
190.904	2212.29
190.98	2232.14
191.055	2243.23
191.131	2237.37
191.207	2256.73
191.282	2265.63
191.358	2255.35
191.433	2237.93
191.509	2251.06
191.585	2251.34
191.66	2251.82
191.736	2257.24
191.811	2252.01
191.887	2269.19
191.963	2290.94
192.038	2295.5
192.114	2293.36
192.189	2302.31
192.265	2296.79
192.34	2277.7
192.416	2277.27
192.491	2270.18
192.567	2268.13
192.642	2269.8
192.718	2268.42
192.793	2256.66
192.869	2253.33
192.944	2257.57
193.02	2267.99
193.095	2272.04
193.171	2275.41
193.246	2275.8
193.322	2274.75
193.397	2275.37
193.473	2258.28
193.548	2242.53
193.624	2245.91
193.699	2245.72
193.775	2257.47
193.85	2260.47
193.925	2267.18
194.001	2265.8
194.076	2258
194.152	2248.38
194.227	2242.29
194.302	2233.58
194.378	2237.91
194.453	2235.49
194.529	2247
194.604	2232.25
194.679	2225.54
194.755	2207.51
194.83	2218.08
194.905	2215.09
194.981	2222.75
195.056	2217.42
195.131	2224.84
195.207	2223.7
195.282	2212.33
195.357	2193.86
195.433	2209.56
195.508	2200.38
195.583	2209.18
195.659	2221.55
195.734	2225.36
195.809	2223.27
195.884	2232.4
195.96	2232.83
196.035	2246.96
196.11	2243.01
196.185	2253.48
196.261	2258.19
196.336	2287.83
196.411	2274.36
196.486	2279.98
196.561	2272.65
196.637	2281.45
196.712	2295.35
196.787	2297.21
196.862	2315.62
196.937	2327.38
197.013	2331.85
197.088	2342.85
197.163	2364.37
197.238	2383.94
197.313	2385.32
197.388	2399.51
197.464	2427.56
197.539	2436.41
197.614	2429.6
197.689	2446.74
197.764	2463.7
197.839	2483.79
197.914	2478.07
197.989	2501.6
198.065	2518.36
198.14	2567.95
198.215	2596.81
198.29	2608.49
198.365	2624.44
198.44	2632.68
198.515	2659.31
198.59	2675.41
198.665	2700.42
198.74	2707.52
198.815	2709.86
198.89	2730.53
198.965	2764.08
199.04	2759.75
199.115	2780.08
199.19	2823.15
199.265	2824.39
199.34	2833.78
199.415	2865.96
199.49	2888.73
199.565	2897.41
199.64	2918.66
199.715	2918.71
199.79	2924
199.865	2930.25
199.94	2926.48
200.015	2960.48
200.09	2965.24
200.165	2972.68
200.24	2979.16
200.315	3021.54
200.39	3035.7
200.464	3045.76
200.539	3043.42
200.614	3062.49
200.689	3086.28
200.764	3094.49
200.839	3112.51
200.914	3118.04
200.989	3107.06
201.063	3121.8
201.138	3102.74
201.213	3105.08
201.288	3084.91
201.363	3089.68
201.438	3090.96
201.512	3110.41
201.587	3090.95
201.662	3096.15
201.737	3108.26
201.812	3117.52
201.886	3083.25
201.961	3096.13
202.036	3079.97
202.111	3077.59
202.186	3047.81
202.26	3027.2
202.335	3004.45
202.41	2997.26
202.485	2979.62
202.559	2960.55
202.634	2936.33
202.709	2947.86
202.784	2927.98
202.858	2930.41
202.933	2911.68
203.008	2905.3
203.082	2884.61
203.157	2886.33
203.232	2844.83
203.306	2821.56
203.381	2788.72
203.456	2765.22
203.53	2740.42
203.605	2722.23
203.68	2699.11
203.754	2693.21
203.829	2678.39
203.904	2659.34
203.978	2647
204.053	2651.57
204.127	2637.66
204.202	2632.95
204.277	2617.32
204.351	2610.61
204.426	2603.65
204.5	2595.32
204.575	2561.84
204.65	2568.13
204.724	2557.55
204.799	2563.59
204.873	2560.5
204.948	2560.16
205.022	2547.55
205.097	2540.73
205.171	2555.64
205.246	2564.26
205.32	2564.02
205.395	2566.02
205.469	2558.22
205.544	2565.03
205.618	2545.84
205.693	2560.89
205.767	2546.79
205.842	2565.37
205.916	2556.8
205.991	2544.61
206.065	2551.66
206.14	2569.41
206.214	2568.17
206.289	2563.74
206.363	2576.46
206.438	2579.46
206.512	2586.32
206.586	2607.6
206.661	2614.13
206.735	2594.18
206.81	2598.09
206.884	2612.47
206.958	2601.62
207.033	2620.18
207.107	2629.29
207.181	2670.27
207.256	2666.27
207.33	2693.23
207.405	2713.97
207.479	2744.41
207.553	2758.04
207.628	2749.75
207.702	2769.76
207.776	2772.57
207.851	2786.2
207.925	2814.71
207.999	2828.15
208.073	2839.5
208.148	2857.42
208.222	2860.95
208.296	2912.46
208.371	2946.9
208.445	2982.71
208.519	3034.25
208.593	3072.92
208.668	3096.49
208.742	3125.32
208.816	3160.27
208.89	3211.2
208.965	3244.39
209.039	3289.5
209.113	3350.58
209.187	3416.74
209.261	3461.17
209.336	3539.1
209.41	3610.93
209.484	3668.69
209.558	3748.62
209.632	3827.49
209.707	3908.67
209.781	4007.7
209.855	4095.92
209.929	4189.61
210.003	4277.99
210.077	4360.31
210.151	4496.81
210.226	4625.97
210.3	4751.27
210.374	4875.32
210.448	4980.35
210.522	5099.26
210.596	5218.89
210.67	5341.27
210.744	5512.47
210.818	5666.56
210.892	5806.42
210.966	5932.1
211.041	6079.52
211.115	6219.25
211.189	6388.44
211.263	6552.62
211.337	6706.71
211.411	6872.51
211.485	7020.4
211.559	7187.96
211.633	7355.76
211.707	7486.34
211.781	7659.87
211.855	7792.73
211.929	7958.46
212.003	8116.95
212.077	8302.99
212.151	8494.53
212.225	8683.92
212.299	8849.44
212.373	9021.84
212.447	9199.06
212.52	9415.31
212.594	9603.06
212.668	9799.05
212.742	9969.36
212.816	10150.9
212.89	10332.98
212.964	10517.65
213.038	10717.89
213.112	10921.07
213.186	11126.38
213.26	11297.04
213.333	11444.51
213.407	11637.6
213.481	11833.69
213.555	12034.03
213.629	12214.2
213.703	12389.12
213.777	12582.7
213.85	12756.61
213.924	12986.78
213.998	13182.48
214.072	13374.91
214.146	13548.5
214.219	13737.36
214.293	13922.47
214.367	14117.07
214.441	14320.1
214.515	14499.85
214.588	14653.67
214.662	14808.79
214.736	14963.19
214.81	15159.04
214.883	15344.23
214.957	15513.09
215.031	15680.87
215.105	15833.96
215.178	15996.15
215.252	16161.09
215.326	16301.88
215.4	16447.29
215.473	16552.99
215.547	16688.56
215.621	16821.63
215.694	16988.24
215.768	17111.81
215.842	17250.13
215.915	17368.01
215.989	17475.86
216.063	17601.07
216.136	17746.75
216.21	17876.06
216.284	18028.15
216.357	18151.52
216.431	18275.47
216.504	18408.86
216.578	18548.13
216.652	18673.62
216.725	18787.88
216.799	18918.14
216.873	19027.68
216.946	19141.02
217.02	19251.81
217.093	19357.78
217.167	19439.37
217.24	19532.86
217.314	19625.72
217.387	19714.82
217.461	19807.83
217.535	19923.64
217.608	20009.61
217.682	20103.49
217.755	20208.74
217.829	20295.78
217.902	20387.25
217.976	20469.46
218.049	20542.57
218.123	20603.1
218.196	20690.33
218.27	20762.67
218.343	20821.13
218.417	20912.61
218.49	20997.96
218.563	21084.33
218.637	21166.75
218.71	21261.02
218.784	21334.62
218.857	21421.43
218.931	21500.43
219.004	21567.95
219.077	21638.18
219.151	21709.18
219.224	21760.85
219.298	21819.76
219.371	21877.12
219.444	21927.97
219.518	21991.99
219.591	22058.84
219.665	22147.64
219.738	22210.12
219.811	22257.21
219.885	22318.82
219.958	22374.5
220.031	22421.7
220.105	22461.9
220.178	22512.43
220.251	22551.96
220.325	22601.33
220.398	22646.21
220.471	22689.6
220.544	22742.06
220.618	22762.84
220.691	22809.36
220.764	22856.71
220.838	22893.35
220.911	22931.34
220.984	22976.62
221.057	23011.04
221.131	23054.78
221.204	23044.22
221.277	23082.6
221.35	23135.49
221.424	23148.27
221.497	23166.78
221.57	23186.36
221.643	23219.39
221.716	23245.53
221.79	23264.04
221.863	23280.1
221.936	23299.24
222.009	23310.62
222.082	23333.19
222.155	23355.61
222.229	23388.21
222.302	23400.65
222.375	23404.8
222.448	23413.34
222.521	23433.25
222.594	23439.52
222.667	23425.54
222.74	23455.87
222.814	23466.24
222.887	23476.89
222.96	23495.94
223.033	23515.33
223.106	23512.39
223.179	23522.42
223.252	23520.97
223.325	23522.85
223.398	23523.72
223.471	23521.89
223.544	23521.36
223.617	23518.61
223.69	23516.58
223.763	23486.25
223.837	23486.15
223.91	23499.03
223.983	23491.65
224.056	23470.09
224.129	23469.42
224.202	23473.08
224.275	23461.94
224.348	23440.24
224.42	23413.96
224.493	23394.33
224.566	23374.51
224.639	23378.76
224.712	23364.92
224.785	23348.71
224.858	23337.82
224.931	23324.84
225.004	23299.58
225.077	23291.86
225.15	23254.88
225.223	23232.17
225.296	23252.95
225.369	23225.81
225.442	23197.84
225.514	23179.66
225.587	23168.57
225.66	23148.75
225.733	23135.59
225.806	23112.2
225.879	23091.85
225.952	23057.19
226.025	23057.67
226.097	23053.81
226.17	23031.49
226.243	22989.78
226.316	22970.98
226.389	22949.76
226.461	22935.83
226.534	22920.83
226.607	22899.28
226.68	22896.58
226.753	22877.34
226.825	22820.35
226.898	22808.59
226.971	22778.41
227.044	22757.53
227.117	22722.91
227.189	22703.63
227.262	22687.77
227.335	22677.83
227.407	22643.46
227.48	22633.43
227.553	22603.73
227.626	22567.67
227.698	22551.18
227.771	22539.85
227.844	22505.38
227.916	22489.18
227.989	22441.4
228.062	22411.76
228.134	22408.67
228.207	22389.15
228.28	22359.36
228.352	22345.81
228.425	22325.46
228.498	22313.75
228.57	22282.03
228.643	22279.81
228.716	22254.36
228.788	22222.93
228.861	22189.86
228.934	22188.27
229.006	22160.74
229.079	22127.72
229.151	22100.29
229.224	22045.34
229.296	22012.75
229.369	22016.32
229.442	21999.4
229.514	21975.44
229.587	21969.08
229.659	21908.3
229.732	21880.63
229.804	21868.96
229.877	21860.29
229.949	21842.93
230.022	21843.37
230.094	21812.95
230.167	21782.82
230.239	21755.06
230.312	21726.28
230.384	21721.46
230.457	21698.23
230.529	21678.61
230.602	21654.8
230.674	21638.85
230.747	21642.12
230.819	21630.56
230.892	21562.98
230.964	21542.16
231.037	21515.41
231.109	21487.74
231.181	21492.51
231.254	21454
231.326	21420.26
231.399	21389.27
231.471	21343.43
231.544	21277.16
231.616	21271.08
231.688	21242.65
231.761	21212.48
231.833	21173.24
231.905	21116.71
231.978	21077.24
232.05	21042.63
232.122	21008.07
232.195	20954.53
232.267	20927.3
232.339	20896.02
232.412	20887.58
232.484	20844.59
232.556	20818.37
232.629	20812.4
232.701	20781.6
232.773	20761.02
232.846	20725.65
232.918	20694.08
232.99	20671.57
233.062	20657.31
233.135	20617.5
233.207	20583.91
233.279	20558.75
233.351	20542.8
233.424	20514.7
233.496	20480.44
233.568	20476.87
233.64	20450.41
233.713	20436.15
233.785	20406.61
233.857	20381.59
233.929	20345.88
234.001	20333.88
234.074	20315.86
234.146	20249.55
234.218	20216.73
234.29	20176.34
234.362	20144.97
234.434	20096.54
234.507	20059.34
234.579	20009.99
234.651	19974.33
234.723	19946.71
234.795	19919.77
234.867	19884.02
234.939	19866.91
235.012	19836.36
235.084	19790.14
235.156	19759.92
235.228	19710.24
235.3	19665.95
235.372	19620.94
235.444	19599.6
235.516	19536.08
235.588	19509.14
235.66	19488.32
235.732	19441.05
235.804	19470.83
235.876	19452.57
235.948	19438.93
236.02	19400.14
236.092	19362.6
236.164	19337.2
236.236	19295.56
236.308	19252.39
236.38	19229.35
236.452	19183.47
236.524	19150.66
236.596	19137.98
236.668	19120.25
236.74	19089.7
236.812	19057.12
236.884	19034.81
236.956	18992.31
237.028	18946.38
237.1	18890.58
237.172	18870.1
237.244	18861.04
237.316	18792.56
237.388	18744.56
237.46	18690.97
237.532	18667.84
237.604	18635.56
237.675	18609.68
237.747	18588.91
237.819	18546.79
237.891	18500.14
237.963	18452.72
238.035	18413.21
238.107	18344.34
238.178	18308.01
238.25	18271.29
238.322	18270.42
238.394	18221.17
238.466	18180.16
238.538	18160.4
238.609	18131.77
238.681	18065.13
238.753	18011.54
238.825	17961.27
238.897	17925.71
238.968	17917.71
239.04	17883.25
239.112	17883.59
239.184	17842.24
239.255	17801.09
239.327	17766.68
239.399	17740.65
239.471	17720.65
239.542	17686
239.614	17666
239.686	17600.7
239.758	17576.37
239.829	17521.04
239.901	17506.1
239.973	17480.13
240.044	17450.34
240.116	17418.1
240.188	17392.56
240.259	17362.3
240.331	17330.68
240.403	17315.74
240.474	17256.85
240.546	17208.56
240.618	17144.65
240.689	17102.39
240.761	17071.69
240.833	17070.82
240.904	17030.68
240.976	17002.96
241.048	16974
241.119	16937.23
241.191	16914.82
241.262	16892.94
241.334	16852.4
241.405	16810.57
241.477	16764.01
241.549	16728.59
241.62	16697.99
241.692	16677.79
241.763	16660.68
241.835	16631.14
241.906	16596.34
241.978	16551.18
242.049	16527.13
242.121	16515.42
242.192	16494.4
242.264	16438.54
242.335	16372.66
242.407	16350.54
242.478	16312.89
242.55	16285.9
242.621	16253.23
242.693	16213.85
242.764	16183
242.836	16153.17
242.907	16126.85
242.979	16106.66
243.05	16079.81
243.122	16056.67
243.193	16018.36
243.264	15959.89
243.336	15926.01
243.407	15896.65
243.479	15891.06
243.55	15874.1
243.622	15833.71
243.693	15802.57
243.764	15797.46
243.836	15761.16
243.907	15713.49
243.978	15675.56
244.05	15650.16
244.121	15598.54
244.192	15586.92
244.264	15542.19
244.335	15515.15
244.407	15461.69
244.478	15434.99
244.549	15399.03
244.62	15345.62
244.692	15311.88
244.763	15292.36
244.834	15255.73
244.906	15220.97
244.977	15192.53
245.048	15170.8
245.119	15131.65
245.191	15086.34
245.262	15029.75
245.333	15015.29
245.405	14991.05
245.476	14962.85
245.547	14932.96
245.618	14927.03
245.689	14888.08
245.761	14861.14
245.832	14828.07
245.903	14812.89
245.974	14786.76
246.045	14756.29
246.117	14747.33
246.188	14705.2
246.259	14656.61
246.33	14617.71
246.401	14582.47
246.473	14537.45
246.544	14496.91
246.615	14489.24
246.686	14464.42
246.757	14451.35
246.828	14411.24
246.899	14407.73
246.97	14358.7
247.042	14318.26
247.113	14287.21
247.184	14285.19
247.255	14253.95
247.326	14222.71
247.397	14192.25
247.468	14169.25
247.539	14139.17
247.61	14097.86
247.681	14083.83
247.752	14071.59
247.823	14037.22
247.894	14016.2
247.965	13984.04
248.037	13951.84
248.108	13901.61
248.179	13871.05
248.25	13838.75
248.321	13824
248.392	13779.07
248.463	13785.68
248.534	13756.7
248.605	13737.18
248.675	13705.99
248.746	13681.31
248.817	13657.69
248.888	13639.66
248.959	13592.51
249.03	13579.06
249.101	13552.41
249.172	13528.25
249.243	13482.7
249.314	13474.26
249.385	13443.51
249.456	13425.14
249.527	13402.72
249.598	13392.6
249.669	13364.16
249.739	13348.49
249.81	13330.22
249.881	13295.8
249.952	13261.96
250.023	13244.41
250.094	13205.08
250.165	13167.96
250.235	13145.2
250.306	13138.36
250.377	13105
250.448	13083.89
250.519	13038.23
250.59	13035.34
250.66	13006.18
250.731	13001.5
250.802	12978.85
250.873	12959.66
250.944	12938.3
251.014	12907.6
251.085	12898.29
251.156	12890.58
251.227	12870.77
251.297	12856.02
251.368	12839.1
251.439	12840.49
251.51	12822.71
251.58	12790.94
251.651	12765.78
251.722	12753.05
251.792	12701.81
251.863	12671.82
251.934	12669.7
252.005	12680.89
252.075	12656.01
252.146	12643.82
252.217	12634.71
252.287	12617.11
252.358	12591.9
252.429	12590.84
252.499	12565.39
252.57	12544.23
252.641	12524.03
252.711	12510.43
252.782	12477.56
252.852	12476.4
252.923	12440.1
252.994	12425.55
253.064	12424.34
253.135	12395.27
253.205	12367.7
253.276	12369.87
253.347	12368.95
253.417	12337.24
253.488	12302.63
253.558	12271.15
253.629	12246.47
253.699	12227.43
253.77	12219.28
253.841	12198.17
253.911	12175.18
253.982	12156.28
254.052	12147.8
254.123	12134.88
254.193	12120.37
254.264	12139.22
254.334	12107.84
254.405	12084.51
254.475	12056.17
254.546	12030.04
254.616	12024.6
254.687	12012.06
254.757	11990.04
254.827	11969.12
254.898	11950.46
254.968	11930.8
255.039	11910.55
255.109	11897.93
255.18	11873.1
255.25	11831.6
255.321	11816.95
255.391	11783.88
255.461	11791.26
255.532	11741.52
255.602	11717.27
255.673	11673.51
255.743	11642.75
255.813	11603.23
255.884	11595.04
255.954	11583.18
256.024	11586.7
256.095	11563.9
256.165	11533.4
256.235	11526.02
256.306	11501.59
256.376	11501.39
256.446	11497.25
256.517	11485.92
256.587	11479.51
256.657	11469.63
256.728	11460.86
256.798	11452.62
256.868	11428.04
256.938	11400.71
257.009	11398.69
257.079	11387.6
257.149	11398.11
257.219	11355.89
257.29	11341.87
257.36	11305.05
257.43	11293.29
257.5	11252.42
257.571	11235.98
257.641	11227.12
257.711	11197.62
257.781	11185.72
257.852	11176.71
257.922	11145
257.992	11129.14
258.062	11107.65
258.132	11090.15
258.202	11061.77
258.273	11049.67
258.343	11059.55
258.413	11034.83
258.483	11016.52
258.553	10989.1
258.623	10967.89
258.693	10953.63
258.764	10956.42
258.834	10953
258.904	10938.98
258.974	10916.28
259.044	10892.24
259.114	10875.37
259.184	10858.12
259.254	10839.38
259.324	10799.04
259.394	10791.19
259.464	10798.71
259.535	10778.95
259.605	10759.67
259.675	10742.71
259.745	10721.03
259.815	10684.65
259.885	10659.45
259.955	10669.71
260.025	10643.84
260.095	10623.12
260.165	10616.66
260.235	10618.78
260.305	10598.11
260.375	10571.28
260.445	10581.54
260.515	10589.05
260.585	10590.4
260.655	10578.5
260.725	10577.3
260.795	10564.39
260.865	10559.42
260.934	10525.4
261.004	10522.66
261.074	10510.08
261.144	10508.3
261.214	10505.55
261.284	10498.95
261.354	10495.44
261.424	10465.9
261.494	10471.63
261.564	10453.85
261.634	10442.96
261.703	10403.55
261.773	10391.7
261.843	10385.15
261.913	10363.85
261.983	10330.8
262.053	10320.39
262.123	10305.17
262.192	10272.65
262.262	10270.87
262.332	10239.94
262.402	10231.51
262.472	10215.47
262.541	10175.05
262.611	10176.06
262.681	10147.3
262.751	10139.11
262.821	10126.25
262.89	10097.44
262.96	10088.63
263.03	10091.47
263.1	10079.47
263.169	10074.99
263.239	10074.51
263.309	10079.57
263.379	10072.2
263.448	10064.35
263.518	10051.34
263.588	10035.68
263.657	10042.19
263.727	10041.22
263.797	10038.81
263.867	10026.05
263.936	10001.68
264.006	10012.42
264.076	9994.54
264.145	9982.45
264.215	9958.56
264.285	9953.99
264.354	9924.8
264.424	9895.9
264.494	9865.41
264.563	9851.49
264.633	9858.23
264.702	9848.79
264.772	9812.38
264.842	9795.95
264.911	9787.28
264.981	9763.92
265.05	9754.82
265.12	9738.01
265.19	9721.39
265.259	9717.53
265.329	9708.53
265.398	9698.8
265.468	9703.23
265.537	9684.01
265.607	9675.44
265.676	9676.12
265.746	9663.11
265.815	9665.37
265.885	9663.74
265.955	9647.65
266.024	9634.02
266.094	9592.08
266.163	9594.05
266.232	9602.96
266.302	9591.93
266.371	9587.12
266.441	9570.36
266.51	9564.34
266.58	9546.18
266.649	9525.04
266.719	9516.66
266.788	9506.45
266.858	9511.07
266.927	9476.21
266.996	9467.49
267.066	9461.91
267.135	9439.22
267.205	9442.35
267.274	9433.69
267.343	9436.29
267.413	9425.45
267.482	9424.35
267.552	9429.93
267.621	9393.29
267.69	9361.12
267.76	9356.11
267.829	9340.65
267.898	9334.59
267.968	9309.16
268.037	9308.1
268.106	9308.97
268.176	9287.25
268.245	9279.98
268.314	9261.49
268.384	9269.29
268.453	9261.64
268.522	9254.17
268.592	9254.27
268.661	9229.66
268.73	9229.42
268.799	9201.93
268.869	9215.12
268.938	9189.02
269.007	9174.68
269.076	9170.15
269.146	9171.98
269.215	9160.57
269.284	9170.2
269.353	9151.47
269.422	9144.64
269.492	9127.31
269.561	9086.43
269.63	9081.57
269.699	9059.76
269.768	9054.85
269.838	9042.96
269.907	9039.78
269.976	9019.9
270.045	8989.38
270.114	8985.72
270.183	8968.29
270.253	8968.34
270.322	8937.63
270.391	8927.95
270.46	8929.3
270.529	8928.43
270.598	8929.73
270.667	8916.3
270.736	8893.19
270.806	8890.45
270.875	8893.38
270.944	8889.2
271.013	8911.72
271.082	8906.19
271.151	8905.61
271.22	8879.76
271.289	8866.57
271.358	8859.74
271.427	8852.32
271.496	8848.04
271.565	8833.5
271.634	8827.01
271.703	8849.11
271.772	8846.27
271.841	8838.18
271.91	8817.29
271.979	8806.17
272.048	8776.86
272.117	8777.96
272.186	8759.82
272.255	8763.48
272.324	8760.25
272.393	8749.18
272.462	8734.55
272.531	8724.82
272.6	8717.89
272.669	8722.61
272.738	8715.53
272.807	8703.36
272.876	8690.65
272.945	8717.46
273.013	8718.57
273.082	8718.09
273.151	8676.3
273.22	8674.95
273.289	8664.22
273.358	8673.13
273.427	8659.65
273.496	8660.95
273.564	8657.68
273.633	8663.94
273.702	8641.89
273.771	8634.05
273.84	8626.44
273.909	8624.47
273.977	8618.6
274.046	8605.65
274.115	8611.57
274.184	8599.83
274.253	8594.88
274.322	8600.65
274.39	8571.1
274.459	8561.81
274.528	8537.36
274.597	8528.51
274.665	8527.88
274.734	8535.44
274.803	8525.52
274.872	8524.85
274.94	8515.23
275.009	8568.14
275.078	8552.94
275.147	8555.63
275.215	8551.16
275.284	8562.03
275.353	8549.52
275.421	8530.66
275.49	8549.72
275.559	8531.19
275.627	8524.35
275.696	8512.04
275.765	8509.25
275.833	8497.31
275.902	8495.39
275.971	8510.64
276.039	8527
276.108	8528.45
276.177	8528.59
276.245	8519.5
276.314	8518.1
276.383	8523.97
276.451	8463.98
276.52	8467.2
276.588	8478.95
276.657	8485.2
276.725	8473.7
276.794	8473.94
276.863	8482.94
276.931	8454.16
277	8466.53
277.068	8477.93
277.137	8504.4
277.205	8505.6
277.274	8527.5
277.342	8539.91
277.411	8522.5
277.48	8509.84
277.548	8504.26
277.617	8502.24
277.685	8494.01
277.754	8490.16
277.822	8479
277.89	8491.94
277.959	8483.71
278.027	8461.53
278.096	8447.72
278.164	8475.78
278.233	8470.29
278.301	8458.02
278.37	8466.88
278.438	8449.36
278.507	8448.59
278.575	8418.56
278.643	8413.61
278.712	8388.83
278.78	8372.66
278.849	8380.21
278.917	8392.87
278.985	8383.97
279.054	8389.98
279.122	8404.51
279.191	8406.73
279.259	8407.64
279.327	8384.64
279.396	8401.96
279.464	8402.97
279.532	8411.82
279.601	8407.39
279.669	8410.86
279.737	8426.59
279.806	8431.36
279.874	8447.96
279.942	8444.93
280.011	8443
280.079	8450.46
280.147	8476.01
280.215	8479.62
280.284	8475.67
280.352	8462.78
280.42	8475.14
280.488	8459.31
280.557	8454.12
280.625	8458.78
280.693	8458.4
280.761	8462.73
280.83	8447.14
280.898	8460.08
280.966	8437.71
281.034	8409.84
281.102	8392.19
281.171	8383.19
281.239	8389.25
281.307	8377.56
281.375	8368.61
281.443	8394.21
281.512	8390.79
281.58	8391.42
281.648	8374.72
281.716	8377.8
281.784	8376.02
281.852	8361.78
281.92	8365.44
281.989	8367.7
282.057	8349.89
282.125	8387.05
282.193	8380.79
282.261	8379.45
282.329	8372.85
282.397	8379.45
282.465	8379.93
282.533	8395.03
282.601	8386.61
282.67	8360.77
282.738	8347.5
282.806	8353.85
282.874	8336.28
282.942	8342.83
283.01	8342.83
283.078	8347.93
283.146	8341.34
283.214	8350.14
283.282	8352.02
283.35	8362.7
283.418	8356.83
283.486	8364.29
283.554	8321.31
283.622	8320.4
283.69	8317.56
283.758	8307.98
283.826	8315.01
283.894	8323.77
283.962	8342.87
284.03	8358.51
284.098	8365.44
284.165	8365.29
284.233	8370.2
284.301	8367.7
284.369	8353.79
284.437	8342.96
284.505	8337.38
284.573	8351.48
284.641	8344.02
284.709	8358.75
284.777	8346.23
284.845	8359.08
284.912	8358.46
284.98	8368.51
285.048	8365.58
285.116	8371.59
285.184	8385.02
285.252	8382.32
285.319	8367.6
285.387	8356.91
285.455	8343.87
285.523	8349.26
285.591	8346.62
285.659	8346.18
285.726	8358.65
285.794	8344.07
285.862	8339.45
285.93	8343.68
285.997	8338.92
286.065	8328.48
286.133	8314.43
286.201	8307.84
286.269	8289.17
286.336	8287.92
286.404	8281.61
286.472	8290.42
286.539	8271.61
286.607	8260.93
286.675	8258.91
286.743	8271.56
286.81	8266.99
286.878	8276.71
286.946	8268.29
287.013	8272.86
287.081	8273.29
287.149	8259.19
287.216	8281.18
287.284	8279.64
287.352	8278.78
287.419	8277.14
287.487	8297.01
287.555	8309.57
287.622	8313.42
287.69	8323.72
287.758	8333.53
287.825	8328.62
287.893	8319.43
287.96	8335.79
288.028	8341.8
288.096	8352.58
288.163	8350.66
288.231	8335.65
288.298	8337.23
288.366	8354.51
288.433	8346.52
288.501	8333.97
288.569	8339.55
288.636	8333
288.704	8343.06
288.771	8351.58
288.839	8344.17
288.906	8337.77
288.974	8341.81
289.041	8334.3
289.109	8326.13
289.176	8331.23
289.244	8337.14
289.311	8355.86
289.379	8359.23
289.446	8364.28
289.514	8359.95
289.581	8358.89
289.649	8370.15
289.716	8368.95
289.783	8359.13
289.851	8381.45
289.918	8385.98
289.986	8391.94
290.053	8399.93
290.121	8395.7
290.188	8398.73
290.255	8426.69
290.323	8416.92
290.39	8405.18
290.458	8416.77
290.525	8426.34
290.592	8419.17
290.66	8423.31
290.727	8413.01
290.794	8427.6
290.862	8431.2
290.929	8434.48
290.996	8435.2
291.064	8441.07
291.131	8458.78
291.198	8469.7
291.266	8470.28
291.333	8472.83
291.4	8477.45
291.468	8488.81
291.535	8489.1
291.602	8492.56
291.669	8489.96
291.737	8496.65
291.804	8500.11
291.871	8511.66
291.938	8522.44
292.006	8554.88
292.073	8565.13
292.14	8569.8
292.207	8566.67
292.275	8565.08
292.342	8577.31
292.409	8602.77
292.476	8624.19
292.543	8611.14
292.611	8613.41
292.678	8631.84
292.745	8659.75
292.812	8671.64
292.879	8672.51
292.946	8680.74
293.014	8696.62
293.081	8705.86
293.148	8718.71
293.215	8734.01
293.282	8730.79
293.349	8738.2
293.416	8719.81
293.484	8735.84
293.551	8754.23
293.618	8771.41
293.685	8793.98
293.752	8784.55
293.819	8779.69
293.886	8765.25
293.953	8774.73
294.02	8787.39
294.087	8794.71
294.154	8781.95
294.221	8797.55
294.288	8799.52
294.356	8812.04
294.423	8810.88
294.49	8798.08
294.557	8817.96
294.624	8810.88
294.691	8842.27
294.758	8849.15
294.825	8855.7
294.892	8849.25
294.959	8846.5
295.026	8850.74
295.093	8845.92
295.16	8843.09
295.226	8845.2
295.293	8873.27
295.36	8883.52
295.427	8895.65
295.494	8904.94
295.561	8917.03
295.628	8935.47
295.695	8947.21
295.762	8948.32
295.829	8961.9
295.896	8974.22
295.963	8981.68
296.03	8991.11
296.096	8984.57
296.163	8987.31
296.23	9002.28
296.297	9012.63
296.364	9005.6
296.431	9004.35
296.498	8998.77
296.564	9027.7
296.631	9031.84
296.698	9020.28
296.765	9036.36
296.832	9021.92
296.899	9008.58
296.965	9028.71
297.032	9011.71
297.099	9028.85
297.166	9038.67
297.233	9034.39
297.299	9027.41
297.366	9021.82
297.433	9023.12
297.5	9039.2
297.566	9042.91
297.633	9045.37
297.7	9051.87
297.767	9061.16
297.833	9075.02
297.9	9083.4
297.967	9066.79
298.033	9080.32
298.1	9105.69
298.167	9095.82
298.234	9104.15
298.3	9114.65
298.367	9107.23
298.434	9110.02
298.5	9097.55
298.567	9086.14
298.634	9083.54
298.7	9107.9
298.767	9111.42
298.834	9129.14
298.9	9120.56
298.967	9112.67
299.033	9121.24
299.1	9134.67
299.167	9149.31
299.233	9140.4
299.3	9154.6
299.366	9172.75
299.433	9192.11
299.5	9171.84
299.566	9178.53
299.633	9197.36
299.699	9205.49
299.766	9207.32
299.832	9215.7
299.899	9224.95
299.965	9243.67
300.032	9245.99
300.099	9251.91
300.165	9259.52
300.232	9253.35
300.298	9252.39
300.365	9268.13
300.431	9268.33
300.498	9260.24
300.564	9265.68
300.631	9280.8
300.697	9295.63
300.763	9297.07
300.83	9288.21
300.896	9299.29
300.963	9301.6
301.029	9304.05
301.096	9307.66
301.162	9313.49
301.229	9306.32
301.295	9294.47
301.361	9302.18
301.428	9308.43
301.494	9296.93
301.561	9296.69
301.627	9300.3
301.693	9300.54
301.76	9301.89
301.826	9293.51
301.892	9305.26
301.959	9312.62
302.025	9312.91
302.092	9302.13
302.158	9306.12
302.224	9305.01
302.291	9296.78
302.357	9299.28
302.423	9289.7
302.49	9280.17
302.556	9291.1
302.622	9291.63
302.688	9305.45
302.755	9315.47
302.821	9320.52
302.887	9324.81
302.954	9327.07
303.02	9338.38
303.086	9350.47
303.152	9350.9
303.219	9350.04
303.285	9353.12
303.351	9357.36
303.417	9352.88
303.483	9347.1
303.55	9342.14
303.616	9343.92
303.682	9344.45
303.748	9335.26
303.815	9350.91
303.881	9368.87
303.947	9359.48
304.013	9360.49
304.079	9354.76
304.145	9334.78
304.212	9333.19
304.278	9326.88
304.344	9319.95
304.41	9304.44
304.476	9287.11
304.542	9285.95
304.608	9290.28
304.674	9269.24
304.741	9265.49
304.807	9269.19
304.873	9273.82
304.939	9292.55
305.005	9267.22
305.071	9271.65
305.137	9277.09
305.203	9254.32
305.269	9247.48
305.335	9260.38
305.401	9260.72
305.467	9253.88
305.533	9265.73
305.599	9273.58
305.666	9289.95
305.732	9289.56
305.798	9307.43
305.864	9336.32
305.93	9337.23
305.996	9340.03
306.062	9346
306.128	9336.66
306.194	9322.79
306.259	9321.2
306.325	9313.78
306.391	9334.58
306.457	9335.45
306.523	9337.37
306.589	9360.63
306.655	9351.05
306.721	9329.24
306.787	9313.69
306.853	9335.79
306.919	9311.62
306.985	9308.25
307.051	9291.54
307.117	9290.1
307.183	9275.99
307.248	9251.19
307.314	9260.96
307.38	9264.14
307.446	9276.08
307.512	9270.35
307.578	9276.76
307.644	9270.11
307.709	9266.02
307.775	9259.33
307.841	9257.16
307.907	9255.09
307.973	9235.44
308.039	9236.79
308.104	9242.81
308.17	9250.8
308.236	9233.46
308.302	9243.04
308.368	9231.59
308.433	9235
308.499	9229.95
308.565	9221.62
308.631	9221.86
308.696	9193.26
308.762	9174.58
308.828	9168.9
308.894	9156.19
308.959	9137.22
309.025	9129.56
309.091	9125.37
309.156	9116.13
309.222	9116.52
309.288	9102.79
309.354	9083.54
309.419	9082
309.485	9060.86
309.551	9059.18
309.616	9050.22
309.682	9044.49
309.748	9035.01
309.813	9028.08
309.879	9021.24
309.945	9010.94
310.01	9005.69
310.076	9005.93
310.141	9002.56
310.207	8984.6
310.273	8979.31
310.338	8981.57
310.404	8964.15
310.469	8955.72
310.535	8945.18
310.601	8924.53
310.666	8932.04
310.732	8943.35
310.797	8924.38
310.863	8917.11
310.928	8910.28
310.994	8906.62
311.059	8907.58
311.125	8903.83
311.191	8916.34
311.256	8901.28
311.322	8905.76
311.387	8885.25
311.453	9311.18
311.518	9282.54
311.584	9282.64
311.649	9288.18
311.715	9272.15
311.78	9275.13
311.846	9267.09
311.911	9277.2
311.976	9281.87
312.042	9267.24
312.107	9250.77
312.173	9242.69
312.238	9248.51
312.304	9246.15
312.369	9234.12
312.434	9222.13
312.5	9216.12
312.565	9179.77
312.631	9189.83
312.696	9181.12
312.761	9183.19
312.827	8752.5
312.892	8792.54
312.958	8790.18
313.023	8791.15
313.088	8796.73
313.154	8783.25
313.219	8772.42
313.284	8758.56
313.35	8750.43
313.415	8742.63
313.48	8735.07
313.546	8746.05
313.611	8748.02
313.676	8738.97
313.741	8732.67
313.807	8738.59
313.872	8739.16
313.937	8744.12
314.003	8748.84
314.068	8750.28
314.133	8755.1
314.198	8738.3
314.264	8716.83
314.329	8700.46
314.394	8694.59
314.459	8690.31
314.525	8710.47
314.59	8702.68
314.655	8690.84
314.72	8697.87
314.785	8694.74
314.851	8694.06
314.916	8672.5
314.981	8657.58
315.046	8653.64
315.111	8639.25
315.176	8620
315.242	8625.1
315.307	8626.16
315.372	8603.63
315.437	8590.97
315.502	8588.57
315.567	8608.54
315.632	8599.88
315.698	8608.64
315.763	8606.52
315.828	8594.92
315.893	8589.34
315.958	8587.56
316.023	8579.72
316.088	8561.67
316.153	8547.28
316.218	8536.21
316.283	8520.34
316.348	8505.47
316.413	8495.31
316.479	8482.66
316.544	8455.43
316.609	8425.74
316.674	8397.55
316.739	8368.63
316.804	8339.48
316.869	8299.59
316.934	8257.49
316.999	8224.87
317.064	8170.61
317.129	8126.29
317.194	8094.26
317.259	8047.4
317.324	8001.95
317.389	7965.2
317.454	7925.14
317.518	7888.97
317.583	7866.6
317.648	7850.11
317.713	7813.12
317.778	7760.03
317.843	7736.47
317.908	7704.35
317.973	7667.08
318.038	7636.16
318.103	7599.63
318.168	7571.26
318.233	7542.08
318.297	7492.03
318.362	7457.47
318.427	7421.95
318.492	7395.85
318.557	7347.93
318.622	7323.99
318.687	7301.21
318.751	7256.62
318.816	7224.85
318.881	7198.62
318.946	7145.37
319.011	7095.87
319.075	7061.9
319.14	7025.77
319.205	6982.67
319.27	6943.62
319.335	6900.86
319.399	6861.99
319.464	6834.23
319.529	6784.52
319.594	6748.78
319.658	6724.33
319.723	6679.29
319.788	6652.4
319.853	6603.55
319.917	6579.31
319.982	6528.83
320.047	6488.79
320.112	6468.72
320.176	6419.75
320.241	6385.23
320.306	6358.2
320.37	6324.31
320.435	6292.48
320.5	6267.04
320.564	6230.71
320.629	6198.09
320.694	6168.48
320.758	6125.72
320.823	6085.51
320.888	6059.17
320.952	6013.88
321.017	5972.29
321.082	5942.31
321.146	5913.09
321.211	5878.98
321.275	5841.67
321.34	5798.99
321.405	5758.23
321.469	5715.41
321.534	5677.39
321.598	5623.6
321.663	5592.66
321.727	5557.09
321.792	5509.34
321.857	5469.16
321.921	5429
321.986	5385.53
322.05	5326.55
322.115	5292.29
322.179	5247.88
322.244	5193.51
322.308	5161.88
322.373	5116.71
322.437	5071.83
322.502	5042.83
322.566	5000.4
322.631	4966.2
322.695	4930.86
322.76	4887.87
322.824	4851.57
322.889	4810.46
322.953	4769.06
323.018	4703.52
323.082	4641.46
323.146	4589.84
323.211	4537.43
323.275	4498
323.34	4457.34
323.404	4425.64
323.468	4384.25
323.533	4344.7
323.597	4301.15
323.662	4248.73
323.726	4214.44
323.79	4172.56
323.855	4108.84
323.919	4060.46
323.983	4014.75
324.048	3949.02
324.112	4103.57
324.177	3978.22
324.241	3773.32
324.305	3573.25
324.37	3377.91
324.434	3190.12
324.498	3151.41
324.562	3102.92
324.627	3043.02
324.691	2987.47
324.755	2926.3
324.82	2849.13
324.884	2773.35
324.948	2705.81
325.012	2615.07
325.077	2497.25
