Data from 20250704_urea_1.5M_MAYP1162681_11-45-16-599.txt Node
Date: Fri Jul 04 11:45:16 BST 2025
User: adleo
Spectrometer: MAYP116268
Trigger mode: 0
Integration Time (sec): 1.000000E0
Scans to average: 1
Electric dark correction enabled: true
Nonlinearity correction enabled: true
Boxcar width: 10
XAxis mode: Wavelengths
Number of Pixels in Spectrum: 2068
>>>>>Begin Spectral Data<<<<<
179.565	1252.39
179.642	1309.86
179.718	1359.88
179.795	1400.4
179.871	1432.25
179.948	1451.33
180.024	1473.5
180.101	1497.37
180.177	1513.53
180.254	1538.35
180.33	1562.9
180.407	1619.88
180.483	1720.22
180.56	1817.05
180.636	1904.13
180.712	1887.86
180.789	1899.03
180.865	1910.49
180.942	1918.95
181.018	1931.41
181.095	1947.24
181.171	1954.28
181.248	1955.14
181.324	1966.41
181.4	1975.73
181.477	1991.9
181.553	2007.73
181.63	2028.32
181.706	2044.16
181.782	2050.62
181.859	2048.58
181.935	2054.34
182.011	2051.1
182.088	2066.85
182.164	2087.12
182.24	2101.95
182.317	2113.75
182.393	2109.99
182.469	2127.78
182.546	2144.57
182.622	2150.28
182.698	2142.43
182.775	2155.23
182.851	2169.78
182.927	2166.31
183.003	2160.6
183.08	2151.28
183.156	2157.84
183.232	2154.89
183.308	2142.95
183.385	2154.56
183.461	2172.3
183.537	2173.35
183.613	2186.77
183.69	2180.25
183.766	2168.11
183.842	2175.91
183.918	2180.57
183.995	2197.46
184.071	2202.13
184.147	2191.95
184.223	2178.96
184.299	2193.28
184.375	2182.06
184.452	2191.39
184.528	2242.74
184.604	2252.35
184.68	2267.43
184.756	2274.95
184.832	2278.47
184.908	2284.84
184.985	2282.99
185.061	2267
185.137	2276.9
185.213	2265.44
185.289	2266.29
185.365	2259.06
185.441	2257.54
185.517	2271.06
185.593	2265.82
185.669	2260.49
185.745	2273.81
185.822	2289.75
185.898	2282.75
185.974	2293.79
186.05	2282.98
186.126	2245.05
186.202	2237.15
186.278	2232.73
186.354	2224.11
186.43	2236.78
186.506	2234.97
186.582	2234.68
186.658	2242.63
186.734	2222.12
186.81	2224.59
186.886	2224.59
186.962	2236.82
187.038	2234.3
187.114	2229.59
187.19	2235.3
187.266	2225.59
187.341	2229.69
187.417	2222.74
187.493	2220.03
187.569	2222.55
187.645	2217.08
187.721	2206.99
187.797	2217.03
187.873	2217.88
187.949	2214.41
188.025	2202.61
188.101	2206.03
188.176	2210.26
188.252	2205.94
188.328	2214.83
188.404	2214.54
188.48	2212.78
188.556	2203.98
188.632	2201.46
188.707	2199.03
188.783	2199.32
188.859	2193.8
188.935	2178.24
189.011	2188.9
189.086	2184.62
189.162	2175.01
189.238	2171.72
189.314	2167.96
189.39	2164.78
189.465	2159.12
189.541	2171.49
189.617	2157.22
189.693	2152.46
189.768	2157.03
189.844	2183.25
189.92	2174.08
189.996	2184.54
190.071	2195.58
190.147	2194.58
190.223	2203.62
190.298	2196.87
190.374	2181.69
190.45	2195.01
190.526	2206.38
190.601	2200.57
190.677	2201.72
190.753	2230.85
190.828	2235.89
190.904	2253.98
190.98	2266.26
191.055	2279.2
191.131	2274.78
191.207	2296.85
191.282	2307.08
191.358	2295.57
191.433	2277.57
191.509	2290.08
191.585	2284.56
191.66	2285.56
191.736	2294.51
191.811	2285.42
191.887	2298.65
191.963	2321.59
192.038	2324.39
192.114	2323.3
192.189	2324.58
192.265	2323.16
192.34	2301.02
192.416	2298.54
192.491	2296.49
192.567	2298.54
192.642	2301.21
192.718	2300.16
192.793	2286.22
192.869	2279.41
192.944	2283.03
193.02	2292.5
193.095	2294.97
193.171	2301.83
193.246	2299.21
193.322	2295.69
193.397	2299.92
193.473	2289.21
193.548	2270.13
193.624	2277.6
193.699	2276.7
193.775	2294.93
193.85	2295.02
193.925	2303.97
194.001	2306.02
194.076	2292.65
194.152	2284.17
194.227	2273.46
194.302	2265.18
194.378	2270.99
194.453	2269.32
194.529	2279.84
194.604	2263.09
194.679	2259.24
194.755	2242.01
194.83	2257.15
194.905	2255.92
194.981	2261.82
195.056	2255.3
195.131	2264.44
195.207	2261.58
195.282	2252.73
195.357	2232.74
195.433	2249.2
195.508	2237.4
195.583	2241.92
195.659	2258.24
195.734	2263.38
195.809	2264.05
195.884	2272.47
195.96	2272.42
196.035	2289.22
196.11	2289.03
196.185	2304.64
196.261	2305.54
196.336	2335.76
196.411	2320.24
196.486	2324.81
196.561	2318.19
196.637	2326.19
196.712	2342.47
196.787	2349.76
196.862	2365.6
196.937	2377.03
197.013	2383.69
197.088	2393.07
197.163	2419.12
197.238	2437.46
197.313	2439.13
197.388	2452.41
197.464	2484.8
197.539	2496.7
197.614	2490.84
197.689	2503.08
197.764	2516.84
197.839	2539.03
197.914	2535.08
197.989	2557.65
198.065	2574.13
198.14	2628.83
198.215	2655.69
198.29	2665.22
198.365	2677.51
198.44	2686.71
198.515	2711
198.59	2728.58
198.665	2755.07
198.74	2764.32
198.815	2763.41
198.89	2787.52
198.965	2822.27
199.04	2816.74
199.115	2834.47
199.19	2878.02
199.265	2880.02
199.34	2889.93
199.415	2924.27
199.49	2946.61
199.565	2955.86
199.64	2979.84
199.715	2976.78
199.79	2984.08
199.865	2991.66
199.94	2988.94
200.015	3022.51
200.09	3028.71
200.165	3035.43
200.24	3042.53
200.315	3082.72
200.39	3097.12
200.464	3101.41
200.539	3098.88
200.614	3114.85
200.689	3137.61
200.764	3144.71
200.839	3163.97
200.914	3169.07
200.989	3159.86
201.063	3173.22
201.138	3157.49
201.213	3157.4
201.288	3137.56
201.363	3145.04
201.438	3145.57
201.512	3162.3
201.587	3145.94
201.662	3151.52
201.737	3160.73
201.812	3167.74
201.886	3132.84
201.961	3143.91
202.036	3133.86
202.111	3131.33
202.186	3101.64
202.26	3083.41
202.335	3059.9
202.41	3050.84
202.485	3033.49
202.559	3013.61
202.634	2987.34
202.709	2995.68
202.784	2976.89
202.858	2974.17
202.933	2952.06
203.008	2948.67
203.082	2927.84
203.157	2927.32
203.232	2887.29
203.306	2867.55
203.381	2836.04
203.456	2813.06
203.53	2790.55
203.605	2770.31
203.68	2746.47
203.754	2737.05
203.829	2720.03
203.904	2700.88
203.978	2692.21
204.053	2699.97
204.127	2685.73
204.202	2682.82
204.277	2665.77
204.351	2658.53
204.426	2653.53
204.5	2645.52
204.575	2607.76
204.65	2614.95
204.724	2605.56
204.799	2609.94
204.873	2605.7
204.948	2604.8
205.022	2593.7
205.097	2584.46
205.171	2598.6
205.246	2608.27
205.32	2608.23
205.395	2608.46
205.469	2595.95
205.544	2597.33
205.618	2579.42
205.693	2591.42
205.767	2577.18
205.842	2599.38
205.916	2591.95
205.991	2581.47
206.065	2586
206.14	2601.89
206.214	2601.08
206.289	2592.6
206.363	2607.46
206.438	2609.94
206.512	2616.42
206.586	2635.57
206.661	2641.57
206.735	2616.34
206.81	2616.53
206.884	2636.15
206.958	2620.29
207.033	2640.77
207.107	2651.92
207.181	2683.99
207.256	2676.65
207.33	2697.47
207.405	2708.24
207.479	2729.49
207.553	2734.49
207.628	2721.21
207.702	2733.02
207.776	2727.21
207.851	2730.73
207.925	2744.17
207.999	2741.12
208.073	2739.31
208.148	2743.36
208.222	2736.22
208.296	2771.51
208.371	2787.86
208.445	2798.54
208.519	2833.46
208.593	2847.28
208.668	2843.18
208.742	2843.89
208.816	2846.89
208.89	2861.77
208.965	2860.39
209.039	2869.59
209.113	2890.32
209.187	2912.18
209.261	2907.37
209.336	2928.68
209.41	2950.46
209.484	2949.03
209.558	2970.01
209.632	2988.55
209.707	2998.8
209.781	3018.25
209.855	3036.37
209.929	3055.94
210.003	3060.8
210.077	3059.85
210.151	3106.29
210.226	3144.17
210.3	3176.63
210.374	3202.52
210.448	3209.72
210.522	3223.18
210.596	3236.82
210.67	3248.27
210.744	3298.18
210.818	3336.14
210.892	3359.9
210.966	3361.29
211.041	3388.01
211.115	3392.73
211.189	3425.57
211.263	3448.42
211.337	3467.51
211.411	3490.05
211.485	3495.3
211.559	3520.26
211.633	3535.85
211.707	3518.66
211.781	3541.02
211.855	3519.68
211.929	3531.23
212.003	3529.36
212.077	3561.08
212.151	3595.95
212.225	3631.1
212.299	3646.06
212.373	3665.45
212.447	3688
212.52	3747.76
212.594	3785.7
212.668	3835.39
212.742	3854.21
212.816	3891.68
212.89	3929.67
212.964	3973.33
213.038	4022.67
213.112	4087.14
213.186	4156.4
213.26	4192.29
213.333	4201.66
213.407	4266.86
213.481	4332.49
213.555	4410.74
213.629	4467.07
213.703	4516.79
213.777	4586.97
213.85	4643.98
213.924	4751.54
213.998	4833.13
214.072	4906.53
214.146	4978.77
214.219	5061.5
214.293	5146.9
214.367	5242.22
214.441	5345.21
214.515	5431.45
214.588	5504.94
214.662	5568.81
214.736	5646.48
214.81	5753.88
214.883	5871.91
214.957	5967.58
215.031	6062.59
215.105	6153.23
215.178	6250.23
215.252	6359.76
215.326	6452.89
215.4	6552.31
215.473	6625.66
215.547	6731.77
215.621	6841.38
215.694	6965.11
215.768	7063.9
215.842	7174.27
215.915	7278.82
215.989	7370.97
216.063	7481.55
216.136	7604.29
216.21	7727.84
216.284	7869.66
216.357	7999.51
216.431	8119.23
216.504	8256.76
216.578	8413.71
216.652	8548.94
216.725	8678.05
216.799	8817.55
216.873	8947.79
216.946	9085.45
217.02	9211.18
217.093	9330.93
217.167	9433.2
217.24	9547.63
217.314	9673.21
217.387	9794.46
217.461	9920.27
217.535	10070.5
217.608	10183.84
217.682	10318.06
217.755	10456.9
217.829	10570.89
217.902	10698.38
217.976	10822.98
218.049	10937.32
218.123	11047.4
218.196	11177.84
218.27	11295.81
218.343	11398.23
218.417	11520.21
218.49	11634.82
218.563	11769.86
218.637	11900.05
218.71	12053.71
218.784	12175.7
218.857	12315.97
218.931	12446.49
219.004	12563.05
219.077	12681.01
219.151	12810.96
219.224	12921.88
219.298	13041.28
219.371	13172.74
219.444	13278.89
219.518	13401.62
219.591	13520.2
219.665	13656.77
219.738	13768.51
219.811	13877.36
219.885	13993.73
219.958	14109.13
220.031	14218.42
220.105	14331.55
220.178	14434.33
220.251	14514.97
220.325	14611.38
220.398	14708.13
220.471	14807.48
220.544	14913.81
220.618	14997.06
220.691	15095.73
220.764	15187.17
220.838	15274.56
220.911	15346.29
220.984	15450.16
221.057	15541.65
221.131	15627.45
221.204	15672.13
221.277	15777.16
221.35	15891.87
221.424	15972.7
221.497	16051.6
221.57	16138.12
221.643	16211.43
221.716	16293.94
221.79	16373.42
221.863	16455.31
221.936	16526.35
222.009	16600.67
222.082	16679.42
222.155	16748.58
222.229	16829.46
222.302	16916.11
222.375	16981.75
222.448	17067.2
222.521	17135.64
222.594	17190.87
222.667	17244.36
222.74	17324.51
222.814	17373.86
222.887	17419.45
222.96	17495.02
223.033	17564.36
223.106	17616.22
223.179	17675.4
223.252	17736.8
223.325	17790.24
223.398	17837.61
223.471	17881.9
223.544	17925.47
223.617	17976.21
223.69	18031.39
223.763	18069.51
223.837	18101.32
223.91	18148.98
223.983	18165.85
224.056	18192.11
224.129	18240.83
224.202	18296.88
224.275	18333.74
224.348	18361.84
224.42	18381.55
224.493	18394.17
224.566	18417.01
224.639	18455.08
224.712	18485.88
224.785	18501.93
224.858	18523.18
224.931	18552.09
225.004	18567.32
225.077	18605.92
225.15	18597.87
225.223	18619.22
225.296	18664.81
225.369	18670.06
225.442	18687.75
225.514	18720.9
225.587	18742.78
225.66	18757.77
225.733	18775.55
225.806	18786.58
225.879	18803.59
225.952	18813.86
226.025	18844.8
226.097	18867.73
226.17	18884.02
226.243	18872.6
226.316	18891.3
226.389	18919.49
226.461	18935.54
226.534	18969.75
226.607	18965.27
226.68	19003.39
226.753	19008.35
226.825	18991.82
226.898	19027.44
226.971	19033.27
227.044	19044.64
227.117	19056.78
227.189	19078.03
227.262	19092.88
227.335	19101.65
227.407	19110.61
227.48	19122.85
227.553	19124.25
227.626	19129.21
227.698	19127.09
227.771	19152.73
227.844	19144.63
227.916	19143.28
227.989	19131.14
228.062	19123.86
228.134	19152.15
228.207	19144.92
228.28	19142.99
228.352	19140.92
228.425	19134.27
228.498	19146.37
228.57	19139.52
228.643	19152.92
228.716	19146.61
228.788	19136.25
228.861	19142.32
228.934	19150.99
229.006	19143.48
229.079	19145.45
229.151	19131.24
229.224	19119.33
229.296	19104.97
229.369	19127
229.442	19138.9
229.514	19139.91
229.587	19143.62
229.659	19128.97
229.732	19133.31
229.804	19141.65
229.877	19168.78
229.949	19183.23
230.022	19204.24
230.094	19192.73
230.167	19183.47
230.239	19165.45
230.312	19162.7
230.384	19179.96
230.457	19173.5
230.529	19185.88
230.602	19185.84
230.674	19192.34
230.747	19193.16
230.819	19210.36
230.892	19168.78
230.964	19155.67
231.037	19155.04
231.109	19148.1
231.181	19141.45
231.254	19123.91
231.326	19112.64
231.399	19086.32
231.471	19057.51
231.544	19020.69
231.616	19025.56
231.688	19019.87
231.761	19007.15
231.833	18994.23
231.905	18951.78
231.978	18937.03
232.05	18911.73
232.122	18896.65
232.195	18875.54
232.267	18880.7
232.339	18851.88
232.412	18864.7
232.484	18839.06
232.556	18821.42
232.629	18833.38
232.701	18831.74
232.773	18823.16
232.846	18805.76
232.918	18797.19
232.99	18790.87
233.062	18782.15
233.135	18771.89
233.207	18744.22
233.279	18745.19
233.351	18740.95
233.424	18729.82
233.496	18711.26
233.568	18727.45
233.64	18691.89
233.713	18679.46
233.785	18655.31
233.857	18644.86
233.929	18614.45
234.001	18638.3
234.074	18634.88
234.146	18596.23
234.218	18580.43
234.29	18557.34
234.362	18540.04
234.434	18510.74
234.507	18489.49
234.579	18457.25
234.651	18431.18
234.723	18430.12
234.795	18413.54
234.867	18392.15
234.939	18390.27
235.012	18373.06
235.084	18351.72
235.156	18349.16
235.228	18329.36
235.3	18313.89
235.372	18291.09
235.444	18283.09
235.516	18222.52
235.588	18197.6
235.66	18179.73
235.732	18147
235.804	18193.84
235.876	18188.93
235.948	18188.69
236.02	18162.86
236.092	18140.98
236.164	18120.59
236.236	18086.86
236.308	18065.37
236.38	18042.72
236.452	18010.33
236.524	17997.8
236.596	17993.27
236.668	17974.33
236.74	17946.67
236.812	17924.36
236.884	17924.65
236.956	17899.01
237.028	17877.08
237.1	17857.9
237.172	17848.8
237.244	17840.89
237.316	17770.82
237.388	17733.96
237.46	17697.48
237.532	17686.1
237.604	17660.46
237.675	17661.52
237.747	17653.23
237.819	17620.46
237.891	17595.93
237.963	17561.96
238.035	17529.28
238.107	17462.25
238.178	17458.59
238.25	17437.86
238.322	17444.42
238.394	17398.68
238.466	17380.37
238.538	17365.28
238.609	17342.97
238.681	17292.8
238.753	17264.61
238.825	17247.02
238.897	17219.69
238.968	17202.49
239.04	17173.38
239.112	17183.74
239.184	17139.45
239.255	17103.74
239.327	17079.59
239.399	17070.44
239.471	17064.17
239.542	17045.9
239.614	17045.81
239.686	16986.92
239.758	16974.48
239.829	16934.67
239.901	16923.11
239.973	16892.31
240.044	16871.3
240.116	16844.16
240.188	16830.28
240.259	16803.39
240.331	16777.32
240.403	16766.23
240.474	16734.28
240.546	16700.25
240.618	16644.87
240.689	16620.63
240.761	16598.94
240.833	16591.86
240.904	16557.83
240.976	16523.56
241.048	16497.83
241.119	16476.57
241.191	16469.1
241.262	16463.32
241.334	16429
241.405	16397.92
241.477	16366.97
241.549	16341.86
241.62	16321.33
241.692	16284.36
241.763	16264.51
241.835	16232.36
241.906	16202.04
241.978	16164.06
242.049	16155.43
242.121	16147.58
242.192	16134.27
242.264	16091.47
242.335	16044.58
242.407	16024.28
242.478	15991.03
242.55	15975.84
242.621	15942.01
242.693	15907.59
242.764	15873.47
242.836	15842.43
242.907	15822.33
242.979	15812.59
243.05	15781.07
243.122	15763.82
243.193	15744.63
243.264	15698.41
243.336	15668.52
243.407	15655.7
243.479	15650.88
243.55	15627.02
243.622	15599.65
243.693	15573.14
243.764	15572.56
243.836	15537.56
243.907	15502.86
243.978	15478.18
244.05	15452.34
244.121	15408.77
244.192	15390.69
244.264	15345.24
244.335	15318.97
244.407	15279.44
244.478	15252.21
244.549	15228.73
244.62	15185.11
244.692	15162.26
244.763	15148.43
244.834	15117.53
244.906	15081.67
244.977	15057.81
245.048	15041.23
245.119	15006.04
245.191	14966.03
245.262	14907.37
245.333	14897.19
245.405	14874.25
245.476	14861.81
245.547	14835.35
245.618	14821.23
245.689	14788.21
245.761	14767.38
245.832	14745.16
245.903	14719.95
245.974	14689.24
246.045	14661.81
246.117	14652.75
246.188	14614.48
246.259	14570.32
246.33	14551.71
246.401	14516.96
246.473	14472.8
246.544	14440.65
246.615	14422.14
246.686	14398.86
246.757	14389.12
246.828	14357.54
246.899	14347.52
246.97	14294.64
247.042	14256.22
247.113	14232.45
247.184	14231.25
247.255	14194.56
247.326	14165.4
247.397	14145.97
247.468	14123.22
247.539	14101.57
247.61	14066.09
247.681	14054.86
247.752	14047.34
247.823	13998.75
247.894	13975.13
247.965	13939.84
248.037	13908.07
248.108	13862.95
248.179	13831.23
248.25	13809.3
248.321	13792.81
248.392	13753.19
248.463	13758.87
248.534	13736.31
248.605	13722.09
248.675	13695.14
248.746	13673.93
248.817	13652.87
248.888	13625.97
248.959	13582.68
249.03	13566.29
249.101	13541.8
249.172	13509.02
249.243	13472.53
249.314	13471.76
249.385	13458.21
249.456	13440.76
249.527	13416.94
249.598	13405.76
249.669	13387.97
249.739	13364.5
249.81	13337.55
249.881	13294.36
249.952	13266.78
250.023	13238.77
250.094	13192.16
250.165	13157.55
250.235	13144
250.306	13120.67
250.377	13087.41
250.448	13074.34
250.519	13029.22
250.59	13022.13
250.66	12999.04
250.731	12985.93
250.802	12962.84
250.873	12947.46
250.944	12933
251.014	12902.25
251.085	12902.39
251.156	12883.59
251.227	12879.25
251.297	12875.97
251.368	12878.19
251.439	12871.25
251.51	12865.71
251.58	12846.47
251.651	12817.89
251.722	12805.83
251.792	12772.96
251.863	12752.57
251.934	12746.11
252.005	12757.68
252.075	12730.92
252.146	12711.11
252.217	12699.01
252.287	12692.26
252.358	12661.12
252.429	12661.6
252.499	12634.37
252.57	12619.38
252.641	12609.3
252.711	12593.3
252.782	12553.63
252.852	12549.53
252.923	12518.29
252.994	12496.31
253.064	12485.75
253.135	12457.7
253.205	12424.39
253.276	12429.16
253.347	12429.64
253.417	12395.32
253.488	12361.29
253.558	12331.98
253.629	12318.1
253.699	12309.33
253.77	12293.28
253.841	12274.57
253.911	12264.02
253.982	12252.93
254.052	12235.09
254.123	12216.3
254.193	12191.13
254.264	12209.6
254.334	12180.58
254.405	12159.22
254.475	12134.3
254.546	12111.79
254.616	12112.61
254.687	12106.1
254.757	12088.7
254.827	12066.29
254.898	12061.18
254.968	12047.39
255.039	12029.32
255.109	12019.25
255.18	11982.85
255.25	11940.92
255.321	11926.8
255.391	11884.57
255.461	11889.87
255.532	11844.71
255.602	11821.24
255.673	11786.53
255.743	11757.23
255.813	11712.26
255.884	11699.82
255.954	11688.45
256.024	11691.92
256.095	11672.35
256.165	11637.55
256.235	11623.09
256.306	11595.86
256.376	11591.09
256.446	11583.95
256.517	11572.43
256.587	11567.08
256.657	11553.35
256.728	11540.1
256.798	11520.58
256.868	11500.96
256.938	11474.02
257.009	11475.32
257.079	11463.27
257.149	11474.26
257.219	11432.33
257.29	11422.3
257.36	11386.4
257.43	11376.33
257.5	11327.89
257.571	11309
257.641	11309.43
257.711	11277.58
257.781	11271.7
257.852	11256.95
257.922	11220.03
257.992	11203.26
258.062	11182.68
258.132	11174.54
258.202	11149.72
258.273	11137.04
258.343	11137.91
258.413	11114.73
258.483	11090.49
258.553	11062.68
258.623	11033.04
258.693	11027.65
258.764	11019.89
258.834	11019.07
258.904	11006.01
258.974	10988.9
259.044	10966.06
259.114	10946.16
259.184	10936.43
259.254	10916.19
259.324	10875.9
259.394	10865.25
259.464	10866.26
259.535	10842.12
259.605	10819.23
259.675	10805.21
259.745	10796.54
259.815	10767.28
259.885	10740.3
259.955	10752.35
260.025	10726.09
260.095	10711.2
260.165	10701.76
260.235	10709.42
260.305	10684.84
260.375	10652.56
260.445	10660.65
260.515	10662.97
260.585	10652.56
260.655	10638.87
260.725	10630.11
260.795	10629.53
260.865	10634.54
260.934	10602.01
261.004	10595.99
261.074	10582.69
261.144	10576.96
261.214	10568.67
261.284	10548.63
261.354	10546.27
261.424	10519.04
261.494	10529.83
261.564	10506.75
261.634	10500.73
261.703	10458.48
261.773	10454.24
261.843	10447.59
261.913	10429.23
261.983	10394.54
262.053	10386.21
262.123	10368.81
262.192	10343.72
262.262	10334.32
262.332	10302.91
262.402	10308.21
262.472	10290.28
262.541	10254.64
262.611	10254.97
262.681	10231.13
262.751	10228.24
262.821	10208.87
262.89	10182.95
262.96	10173.99
263.03	10188.44
263.1	10171.63
263.169	10163.92
263.239	10156.89
263.309	10160.79
263.379	10155.64
263.448	10144.99
263.518	10137.52
263.588	10119.6
263.657	10127.41
263.727	10119.94
263.797	10103.08
263.867	10076.78
263.936	10057.32
264.006	10064.2
264.076	10041.32
264.145	10021.24
264.215	10002.11
264.285	9995.75
264.354	9960.93
264.424	9937.33
264.494	9905.97
264.563	9884.82
264.633	9887.57
264.702	9873.4
264.772	9842.19
264.842	9821.28
264.911	9816.37
264.981	9787.13
265.05	9774.51
265.12	9749.85
265.19	9743.69
265.259	9740.27
265.329	9733.81
265.398	9719.7
265.468	9731.31
265.537	9716.96
265.607	9715.7
265.676	9715.46
265.746	9711.37
265.815	9722.64
265.885	9702.75
265.955	9680.16
266.024	9664.37
266.094	9632.1
266.163	9636
266.232	9636.34
266.302	9623.58
266.371	9618.81
266.441	9614.33
266.51	9611.01
266.58	9597.09
266.649	9567.95
266.719	9570.5
266.788	9566.55
266.858	9575.8
266.927	9540.79
266.996	9537.66
267.066	9533.61
267.135	9504.04
267.205	9496.63
267.274	9478.71
267.343	9482.57
267.413	9474.81
267.482	9476.64
267.552	9485.02
267.621	9456.66
267.69	9430.56
267.76	9421.17
267.829	9410.23
267.898	9394.39
267.968	9370.8
268.037	9367.38
268.106	9367.19
268.176	9339.16
268.245	9325.1
268.314	9308.29
268.384	9304.25
268.453	9291.1
268.522	9284.07
268.592	9290.62
268.661	9266.69
268.73	9264.52
268.799	9243.48
268.869	9246.47
268.938	9225.18
269.007	9205.01
269.076	9195.81
269.146	9194.23
269.215	9188.88
269.284	9193.55
269.353	9178.29
269.422	9175.59
269.492	9159.37
269.561	9119.61
269.63	9120.38
269.699	9102.99
269.768	9090.76
269.838	9082.48
269.907	9081.52
269.976	9056.58
270.045	9022.98
270.114	9024.81
270.183	9017.3
270.253	9015.95
270.322	8985.58
270.391	8978.26
270.46	8985.34
270.529	8986.3
270.598	8990.15
270.667	8977.35
270.736	8955.29
270.806	8951.59
270.875	8949.32
270.944	8942.15
271.013	8971.23
271.082	8960.93
271.151	8958.71
271.22	8930.02
271.289	8920.78
271.358	8907.16
271.427	8901.29
271.496	8899.6
271.565	8885.98
271.634	8875.39
271.703	8902.64
271.772	8910.44
271.841	8904.32
271.91	8877.99
271.979	8868.85
272.048	8844.78
272.117	8846.94
272.186	8832.16
272.255	8834.76
272.324	8834.23
272.393	8825.72
272.462	8803.38
272.531	8798.13
272.6	8788.46
272.669	8797.07
272.738	8785.57
272.807	8783.16
272.876	8757.27
272.945	8782.44
273.013	8785.62
273.082	8789.52
273.151	8743.02
273.22	8743.64
273.289	8732.67
273.358	8743.16
273.427	8731.99
273.496	8729.59
273.564	8726.56
273.633	8729.4
273.702	8709.42
273.771	8698.54
273.84	8697.87
273.909	8699.17
273.977	8694.36
274.046	8684.63
274.115	8689.88
274.184	8675.2
274.253	8667.89
274.322	8687.91
274.39	8658.21
274.459	8648.97
274.528	8621.87
274.597	8617.54
274.665	8612.78
274.734	8619.13
274.803	8602.67
274.872	8596.6
274.94	8583.56
275.009	8640.38
275.078	8623.11
275.147	8620.89
275.215	8613.92
275.284	8620.85
275.353	8611.46
275.421	8586.15
275.49	8600.88
275.559	8588.6
275.627	8587.79
275.696	8577.49
275.765	8573.4
275.833	8564.06
275.902	8560.26
275.971	8569.36
276.039	8583.26
276.108	8582.88
276.177	8575.76
276.245	8569.93
276.314	8565.17
276.383	8573.83
276.451	8506.47
276.52	8513.98
276.588	8525.33
276.657	8532.79
276.725	8526.06
276.794	8528.17
276.863	8542.75
276.931	8517.49
277	8529.71
277.068	8539.04
277.137	8553.77
277.205	8551.12
277.274	8574.13
277.342	8582.02
277.411	8560.42
277.48	8545.55
277.548	8537.75
277.617	8542.32
277.685	8541.26
277.754	8545.5
277.822	8534.91
277.89	8547.86
277.959	8537.22
278.027	8522.07
278.096	8514.89
278.164	8540.94
278.233	8529.53
278.301	8518.08
278.37	8525.01
278.438	8507.39
278.507	8510.67
278.575	8486.99
278.643	8483.57
278.712	8458.94
278.78	8448.49
278.849	8457.49
278.917	8467.21
278.985	8462.93
279.054	8462.3
279.122	8475.15
279.191	8470.63
279.259	8471.35
279.327	8445.22
279.396	8463.84
279.464	8457.06
279.532	8464.8
279.601	8456.04
279.669	8453.73
279.737	8471.3
279.806	8475.24
279.874	8489.78
279.942	8488.33
280.011	8483.95
280.079	8492.18
280.147	8514.8
280.215	8518.79
280.284	8516.29
280.352	8509.22
280.42	8513.98
280.488	8509.17
280.557	8499.02
280.625	8501.33
280.693	8497.72
280.761	8507.77
280.83	8488.52
280.898	8504.64
280.966	8479.77
281.034	8450.12
281.102	8433.62
281.171	8430.25
281.239	8439.06
281.307	8431.6
281.375	8416.3
281.443	8446.23
281.512	8442.91
281.58	8449.6
281.648	8429.97
281.716	8434.01
281.784	8429.49
281.852	8423.57
281.92	8421.07
281.989	8432.18
282.057	8419.96
282.125	8468.77
282.193	8464.82
282.261	8467.56
282.329	8459.82
282.397	8468.14
282.465	8467.85
282.533	8488.97
282.601	8472.13
282.67	8449.85
282.738	8442.97
282.806	8457.35
282.874	8443.2
282.942	8445.32
283.01	8433.05
283.078	8446.81
283.146	8441.61
283.214	8455.18
283.282	8460.91
283.35	8479.68
283.418	8478.14
283.486	8484.68
283.554	8436.89
283.622	8438.28
283.69	8438.95
283.758	8435.25
283.826	8433.33
283.894	8449.49
283.962	8472.02
284.03	8493.19
284.098	8500.89
284.165	8487.76
284.233	8485.97
284.301	8481.4
284.369	8472.84
284.437	8465.91
284.505	8454.17
284.573	8480.59
284.641	8465.14
284.709	8475.29
284.777	8453.69
284.845	8452.19
284.912	8449.5
284.98	8457.29
285.048	8453.16
285.116	8458.59
285.184	8471.63
285.252	8479.38
285.319	8460.52
285.387	8446.18
285.455	8426.06
285.523	8427.75
285.591	8435.11
285.659	8434.91
285.726	8438.28
285.794	8422.93
285.862	8423.37
285.93	8427.22
285.997	8418.07
286.065	8417.54
286.133	8401.9
286.201	8399.11
286.269	8389.44
286.336	8384.44
286.404	8373.13
286.472	8383.52
286.539	8358.89
286.607	8349.36
286.675	8349.17
286.743	8362.45
286.81	8355.09
286.878	8367.79
286.946	8361.29
287.013	8358.26
287.081	8364.42
287.149	8359.51
287.216	8381.31
287.284	8373.85
287.352	8375.87
287.419	8365.09
287.487	8380.35
287.555	8385.83
287.622	8386.65
287.69	8393.58
287.758	8406.14
287.825	8409.7
287.893	8395.22
287.96	8405.75
288.028	8409.89
288.096	8414.22
288.163	8414.56
288.231	8404.16
288.298	8402.67
288.366	8414.46
288.433	8415.47
288.501	8408.98
288.569	8411.14
288.636	8408.83
288.704	8423.84
288.771	8433.76
288.839	8428.22
288.906	8419.08
288.974	8431.02
289.041	8429.38
289.109	8423.65
289.176	8436.46
289.244	8437.51
289.311	8455.56
289.379	8466.91
289.446	8476.83
289.514	8471.58
289.581	8468.17
289.649	8476.78
289.716	8477.21
289.783	8470.96
289.851	8492.8
289.918	8489.77
289.986	8500.65
290.053	8503.77
290.121	8500.5
290.188	8505.46
290.255	8538.09
290.323	8530.63
290.39	8522.98
290.458	8526.34
290.525	8535.25
290.592	8530.77
290.66	8536.54
290.727	8527.26
290.794	8540.25
290.862	8534.38
290.929	8541.93
290.996	8547.8
291.064	8551.89
291.131	8570.09
291.198	8580.29
291.266	8574.8
291.333	8577.59
291.4	8583.56
291.468	8603.73
291.535	8604.69
291.602	8602.09
291.669	8597.28
291.737	8607.53
291.804	8608.06
291.871	8626.49
291.938	8634.91
292.006	8660.52
292.073	8673.47
292.14	8685.84
292.207	8674.53
292.275	8674.53
292.342	8686.17
292.409	8714.82
292.476	8743.84
292.543	8738.79
292.611	8740.57
292.678	8760.11
292.745	8786
292.812	8798.52
292.879	8789.13
292.946	8795.87
293.014	8815.36
293.081	8820.71
293.148	8836.2
293.215	8851.17
293.282	8847.03
293.349	8860.03
293.416	8841.83
293.484	8855.89
293.551	8869.75
293.618	8893.91
293.685	8923.61
293.752	8912.64
293.819	8903.73
293.886	8886.69
293.953	8887.61
294.02	8901.71
294.087	8907.25
294.154	8897.86
294.221	8910.62
294.288	8913.75
294.356	8930.5
294.423	8931.85
294.49	8924.77
294.557	8939.21
294.624	8926.94
294.691	8948.36
294.758	8944.08
294.825	8952.98
294.892	8947.45
294.959	8947.93
295.026	8957.22
295.093	8949.42
295.16	8953.51
295.226	8951.49
295.293	8981.19
295.36	8989.71
295.427	8995.63
295.494	9003.53
295.561	9013.4
295.628	9029.77
295.695	9044.31
295.762	9045.27
295.829	9052.25
295.896	9068.57
295.963	9075.75
296.03	9093.41
296.096	9096.21
296.163	9111.23
296.23	9125.24
296.297	9136.69
296.364	9132.36
296.431	9136.7
296.498	9133.95
296.564	9160.72
296.631	9166.59
296.698	9150.85
296.765	9169.33
296.832	9166.98
296.899	9157.15
296.965	9177.47
297.032	9152.96
297.099	9174.92
297.166	9186.23
297.233	9191.87
297.299	9184.79
297.366	9188.59
297.433	9191.92
297.5	9199.38
297.566	9198.75
297.633	9195.67
297.7	9197.55
297.767	9203.42
297.833	9209.68
297.9	9209.59
297.967	9194.61
298.033	9210.7
298.1	9242.33
298.167	9234.05
298.234	9238.62
298.3	9250.66
298.367	9246.62
298.434	9260.39
298.5	9250.47
298.567	9244.98
298.634	9239.01
298.7	9262.36
298.767	9258.12
298.834	9272.86
298.9	9276.95
298.967	9270.74
299.033	9283.83
299.1	9299.58
299.167	9312.2
299.233	9307.04
299.3	9327.75
299.366	9347.97
299.433	9369.16
299.5	9336.56
299.566	9342.34
299.633	9361.17
299.699	9369.64
299.766	9368.34
299.832	9375.27
299.899	9386.83
299.965	9398.24
300.032	9392.47
300.099	9399.83
300.165	9409.75
300.232	9404.36
300.298	9405.66
300.365	9426.7
300.431	9425.89
300.498	9415.2
300.564	9421.26
300.631	9428.73
300.697	9440.48
300.763	9437.4
300.83	9420.83
300.896	9445.19
300.963	9452.61
301.029	9451.93
301.096	9459.64
301.162	9469.61
301.229	9464.98
301.295	9449.48
301.361	9454.24
301.428	9466.57
301.494	9452.56
301.561	9459.35
301.627	9467.73
301.693	9466.04
301.76	9466.86
301.826	9464.07
301.892	9484.53
301.959	9497.2
302.025	9502.5
302.092	9496.57
302.158	9500.71
302.224	9509.48
302.291	9499.08
302.357	9500.71
302.423	9492.62
302.49	9482.46
302.556	9497.54
302.622	9495.61
302.688	9510.4
302.755	9520.32
302.821	9521.13
302.887	9531.73
302.954	9521.66
303.02	9523.4
303.086	9529.18
303.152	9522.63
303.219	9520.94
303.285	9523.11
303.351	9527.06
303.417	9523.3
303.483	9515.45
303.55	9513.09
303.616	9509.43
303.682	9506.01
303.748	9499.95
303.815	9523.26
303.881	9533.85
303.947	9515.65
304.013	9515.98
304.079	9507.46
304.145	9487.57
304.212	9490.75
304.278	9478.18
304.344	9478.76
304.41	9464.22
304.476	9454.68
304.542	9450.35
304.608	9454.92
304.674	9434.17
304.741	9426.7
304.807	9433.68
304.873	9440.62
304.939	9455.93
305.005	9441.87
305.071	9441.97
305.137	9437.01
305.203	9402.33
305.269	9394.63
305.335	9403.35
305.401	9405.95
305.467	9398.96
305.533	9408.26
305.599	9417.74
305.666	9430.26
305.732	9429.83
305.798	9449.09
305.864	9474.28
305.93	9478.47
305.996	9474.52
306.062	9477.6
306.128	9471.68
306.194	9454.78
306.259	9454.44
306.325	9443.07
306.391	9450.2
306.457	9460.12
306.523	9471.29
306.589	9502.79
306.655	9496.72
306.721	9485.06
306.787	9469.42
306.853	9487.76
306.919	9475
306.985	9469.75
307.051	9465.76
307.117	9457.19
307.183	9449.96
307.248	9422.8
307.314	9429.16
307.38	9432.82
307.446	9439.85
307.512	9427.71
307.578	9436.28
307.644	9436.04
307.709	9442.26
307.775	9438.02
307.841	9434.26
307.907	9431.76
307.973	9408.21
308.039	9410.52
308.104	9412.2
308.17	9415.04
308.236	9401.27
308.302	9408.78
308.368	9393.9
308.433	9388.56
308.499	9388.13
308.565	9379.8
308.631	9383.98
308.696	9362.85
308.762	9352.97
308.828	9346.28
308.894	9331.26
308.959	9311.47
309.025	9294.18
309.091	9285.42
309.156	9282.43
309.222	9280.99
309.288	9267.75
309.354	9249.02
309.419	9249.45
309.485	9237.46
309.551	9242.04
309.616	9225.18
309.682	9216.42
309.748	9206.46
309.813	9201.45
309.879	9192.11
309.945	9174.78
310.01	9166.35
310.076	9170.49
310.141	9164.13
310.207	9152.19
310.273	9164.04
310.338	9165.82
310.404	9151.23
310.469	9138.9
310.535	9128.22
310.601	9111.8
310.666	9119.41
310.732	9127.97
310.797	9112.42
310.863	9099.23
310.928	9088.78
310.994	9098.65
311.059	9099.57
311.125	9101.69
311.191	9114.11
311.256	9103.52
311.322	9113.39
311.387	9094.37
311.453	9538.58
311.518	9511.58
311.584	9511
311.649	9508.01
311.715	9499.59
311.78	9502.86
311.846	9496.03
311.911	9501.42
311.976	9498.92
312.042	9478.6
312.107	9465.74
312.173	9455.54
312.238	9455.06
312.304	9459.29
312.369	9450.44
312.434	9433.59
312.5	9427.95
312.565	9393.19
312.631	9399.84
312.696	9384.43
312.761	9388.71
312.827	8935.7
312.892	8979.51
312.958	8976.67
313.023	8974.64
313.088	8976.14
313.154	8960.44
313.219	8952.17
313.284	8946.24
313.35	8941
313.415	8934.11
313.48	8928.72
313.546	8934.79
313.611	8944.99
313.676	8932.19
313.741	8919.38
313.807	8929.68
313.872	8931.32
313.937	8938.45
314.003	8948.84
314.068	8955.68
314.133	8962.66
314.198	8947.59
314.264	8925.2
314.329	8909.7
314.394	8902.24
314.459	8898.97
314.525	8921.88
314.59	8913.07
314.655	8893.24
314.72	8901.38
314.785	8905.42
314.851	8896.76
314.916	8878.32
314.981	8859.5
315.046	8849.1
315.111	8839.19
315.176	8828.21
315.242	8830.57
315.307	8824.31
315.372	8802.36
315.437	8790.09
315.502	8780.56
315.567	8790.81
315.632	8771.17
315.698	8780.07
315.763	8772.47
315.828	8761.64
315.893	8760.53
315.958	8760.58
316.023	8756.1
316.088	8731.51
316.153	8709.9
316.218	8710.24
316.283	8697.05
316.348	8683.14
316.413	8686.71
316.479	8668.71
316.544	8633.39
316.609	8605.09
316.674	8572.32
316.739	8534.65
316.804	8508.18
316.869	8473.2
316.934	8432.68
316.999	8409.34
317.064	8356.85
317.129	8314.75
317.194	8276.02
317.259	8222.99
317.324	8171.76
317.389	8125.01
317.454	8091.38
317.518	8056.17
317.583	8030.96
317.648	8006.96
317.713	7973.77
317.778	7912.19
317.843	7886.17
317.908	7850.35
317.973	7808.51
318.038	7784.12
318.103	7753.26
318.168	7725.46
318.233	7698.05
318.297	7658.86
318.362	7621.02
318.427	7581.65
318.492	7558.09
318.557	7516.46
318.622	7489.15
318.687	7467.96
318.751	7432.44
318.816	7404.37
318.881	7375.86
318.946	7320.39
319.011	7278.33
319.075	7235.85
319.14	7202.55
319.205	7163.33
319.27	7128.31
319.335	7083.43
319.399	7040.04
319.464	7011.69
319.529	6952.94
319.594	6915.51
319.658	6883.85
319.723	6840.42
319.788	6813.53
319.853	6762.8
319.917	6733.03
319.982	6676.84
320.047	6642.98
320.112	6616.66
320.176	6568.21
320.241	6534.25
320.306	6501.89
320.37	6454.94
320.435	6425.41
320.5	6398.67
320.564	6356.38
320.629	6323.31
320.694	6296.91
320.758	6261.15
320.823	6224.48
320.888	6202.79
320.952	6149.19
321.017	6106.2
321.082	6069.54
321.146	6043.43
321.211	6006.5
321.275	5969.65
321.34	5930.09
321.405	5885.72
321.469	5843.66
321.534	5801.94
321.598	5751.96
321.663	5721.21
321.727	5695.85
321.792	5647.27
321.857	5599.51
321.921	5561.74
321.986	5516.2
322.05	5456.63
322.115	5421.59
322.179	5373.76
322.244	5314.34
322.308	5283.01
322.373	5235.72
322.437	5193.51
322.502	5159.52
322.566	5120.1
322.631	5080.72
322.695	5043.51
322.76	4998.45
322.824	4960.52
322.889	4917.81
322.953	4870.51
323.018	4805.92
323.082	4737.14
323.146	4687.75
323.211	4637.55
323.275	4590.65
323.34	4545.58
323.404	4514.63
323.468	4461.17
323.533	4416.3
323.597	4370.55
323.662	4322.67
323.726	4292
323.79	4245.9
323.855	4180.27
323.919	4129.92
323.983	4089.94
324.048	4022.34
324.112	4183.27
324.177	4055.42
324.241	3844.98
324.305	3640.12
324.37	3440.48
324.434	3250.35
324.498	3206.52
324.562	3156.66
324.627	3100.41
324.691	3045.93
324.755	2979.69
324.82	2909.23
324.884	2834.66
324.948	2769.68
325.012	2673.64
325.077	2548.19
