Data from 20250704_urea_0.5M_MAYP1162681_11-05-00-767.txt Node
Date: Fri Jul 04 11:05:00 BST 2025
User: adleo
Spectrometer: MAYP116268
Trigger mode: 0
Integration Time (sec): 1.000000E0
Scans to average: 1
Electric dark correction enabled: true
Nonlinearity correction enabled: true
Boxcar width: 10
XAxis mode: Wavelengths
Number of Pixels in Spectrum: 2068
>>>>>Begin Spectral Data<<<<<
179.565	1236.48
179.642	1293.72
179.718	1342.63
179.795	1382.83
179.871	1415.88
179.948	1435.93
180.024	1459.15
180.101	1481.78
180.177	1494.73
180.254	1520.21
180.33	1541.41
180.407	1598.96
180.483	1696.16
180.56	1790.62
180.636	1877.98
180.712	1864.95
180.789	1873.41
180.865	1885.58
180.942	1894.46
181.018	1905.07
181.095	1919.1
181.171	1925.61
181.248	1926.56
181.324	1937.97
181.4	1944.96
181.477	1958.99
181.553	1971.07
181.63	1989.52
181.706	2004.69
181.782	2015.53
181.859	2012.24
181.935	2017.9
182.011	2009.3
182.088	2026.09
182.164	2042.88
182.24	2056.91
182.317	2067.13
182.393	2067.56
182.469	2082.35
182.546	2098.04
182.622	2102.71
182.698	2095.09
182.775	2104.7
182.851	2119.73
182.927	2111.36
183.003	2108.08
183.08	2100.19
183.156	2109.46
183.232	2103.75
183.308	2095.52
183.385	2102.18
183.461	2119.92
183.537	2119.07
183.613	2136.52
183.69	2126.25
183.766	2116.35
183.842	2123.96
183.918	2132.05
183.995	2145.04
184.071	2149.32
184.147	2141.9
184.223	2132.67
184.299	2145.85
184.375	2137.62
184.452	2144.38
184.528	2201.2
184.604	2209.52
184.68	2220.85
184.756	2228.27
184.832	2235.5
184.908	2238.12
184.985	2236.55
185.061	2221.56
185.137	2236.45
185.213	2225.18
185.289	2228.94
185.365	2222.75
185.441	2219.37
185.517	2228.99
185.593	2222.37
185.669	2220.09
185.745	2230.7
185.822	2246.63
185.898	2237.93
185.974	2245.01
186.05	2236.69
186.126	2199.8
186.202	2193.24
186.278	2188.05
186.354	2178.87
186.43	2187.1
186.506	2185.48
186.582	2189.43
186.658	2195.38
186.734	2172.12
186.81	2175.73
186.886	2179.82
186.962	2190.1
187.038	2187.34
187.114	2180.1
187.19	2189.57
187.266	2177.87
187.341	2178.54
187.417	2172.4
187.493	2171.3
187.569	2174.02
187.645	2165.88
187.721	2150.99
187.797	2159.6
187.873	2166.97
187.949	2161.64
188.025	2154.41
188.101	2158.55
188.176	2161.83
188.252	2156.41
188.328	2165.97
188.404	2164.3
188.48	2157.88
188.556	2152.55
188.632	2151.84
188.707	2156.03
188.783	2151.98
188.859	2146.89
188.935	2136.57
189.011	2141.9
189.086	2136.66
189.162	2128.53
189.238	2129.43
189.314	2127.29
189.39	2122.54
189.465	2114.16
189.541	2131.62
189.617	2114.03
189.693	2108.13
189.768	2109.6
189.844	2136.44
189.92	2125.6
189.996	2137.69
190.071	2151.34
190.147	2150.82
190.223	2159.62
190.298	2151.67
190.374	2141.87
190.45	2154.24
190.526	2163.85
190.601	2160.04
190.677	2161.52
190.753	2189.7
190.828	2192.69
190.904	2207.82
190.98	2221.01
191.055	2230.9
191.131	2221.48
191.207	2244.31
191.282	2254.87
191.358	2246.31
191.433	2228.46
191.509	2244.58
191.585	2237.49
191.66	2237.73
191.736	2247.01
191.811	2240.06
191.887	2256.01
191.963	2277.13
192.038	2283.65
192.114	2282.22
192.189	2287.98
192.265	2286.36
192.34	2262.61
192.416	2262.13
192.491	2258.23
192.567	2262.18
192.642	2264.28
192.718	2262.42
192.793	2251.38
192.869	2246.43
192.944	2249.1
193.02	2259.04
193.095	2261.09
193.171	2268.75
193.246	2267.94
193.322	2262.76
193.397	2260.71
193.473	2246.91
193.548	2231.2
193.624	2235.29
193.699	2236.05
193.775	2250.24
193.85	2252.71
193.925	2261.33
194.001	2259.57
194.076	2251.62
194.152	2243
194.227	2233.73
194.302	2227.59
194.378	2231.68
194.453	2230.54
194.529	2244.91
194.604	2232.21
194.679	2223.5
194.755	2202.85
194.83	2215.76
194.905	2214.76
194.981	2226.7
195.056	2216.66
195.131	2220.38
195.207	2219.38
195.282	2208.01
195.357	2186.82
195.433	2201.86
195.508	2190.87
195.583	2196.29
195.659	2210.09
195.734	2215.04
195.809	2217.99
195.884	2227.41
195.96	2226.65
196.035	2240.88
196.11	2238.78
196.185	2250.58
196.261	2256.34
196.336	2290.56
196.411	2275.61
196.486	2280.46
196.561	2271.85
196.637	2283.64
196.712	2303.16
196.787	2304.4
196.862	2319.72
196.937	2331
197.013	2335.71
197.088	2348.42
197.163	2372.51
197.238	2391.18
197.313	2388.9
197.388	2403.7
197.464	2432.65
197.539	2442.74
197.614	2434.04
197.689	2445.27
197.764	2461.08
197.839	2484.27
197.914	2474.08
197.989	2496.13
198.065	2511.17
198.14	2563.39
198.215	2585.77
198.29	2595.68
198.365	2610.4
198.44	2621.02
198.515	2648.55
198.59	2665.18
198.665	2691.57
198.74	2699.91
198.815	2701.53
198.89	2728.39
198.965	2755.37
199.04	2750.84
199.115	2770.94
199.19	2816.77
199.265	2817.29
199.34	2827.97
199.415	2857.19
199.49	2882.83
199.565	2892.21
199.64	2915.09
199.715	2913.18
199.79	2925.53
199.865	2931.2
199.94	2929.82
200.015	2962.19
200.09	2967.96
200.165	2975.06
200.24	2982.59
200.315	3024.82
200.39	3037.27
200.464	3041.75
200.539	3046.28
200.614	3062.68
200.689	3083.42
200.764	3092.82
200.839	3111.36
200.914	3113.89
200.989	3105.82
201.063	3120.61
201.138	3104.27
201.213	3105.74
201.288	3083.91
201.363	3089.96
201.438	3092.87
201.512	3113.03
201.587	3094.91
201.662	3097.29
201.737	3108.07
201.812	3113.89
201.886	3081.2
201.961	3095.56
202.036	3083.64
202.111	3079.54
202.186	3048.42
202.26	3030.16
202.335	3006.36
202.41	2999.97
202.485	2983.15
202.559	2964.79
202.634	2938.29
202.709	2946.34
202.784	2928.65
202.858	2929.56
202.933	2907.34
203.008	2899.14
203.082	2874.08
203.157	2875.08
203.232	2837.01
203.306	2817.7
203.381	2784.53
203.456	2761.99
203.53	2735.23
203.605	2714.85
203.68	2690.3
203.754	2687.54
203.829	2672.86
203.904	2653.19
203.978	2643.23
204.053	2649.28
204.127	2634.56
204.202	2633.9
204.277	2616.42
204.351	2607.75
204.426	2600.41
204.5	2591.7
204.575	2556.56
204.65	2567.13
204.724	2558.84
204.799	2561.84
204.873	2557.17
204.948	2559.5
205.022	2544.5
205.097	2539.26
205.171	2556.55
205.246	2565.88
205.32	2564.08
205.395	2565.22
205.469	2553.56
205.544	2554.65
205.618	2539.36
205.693	2552.41
205.767	2536.75
205.842	2561.8
205.916	2555.23
205.991	2547.42
206.065	2555.42
206.14	2570.41
206.214	2565.55
206.289	2555.74
206.363	2573.07
206.438	2575.98
206.512	2584.46
206.586	2607.03
206.661	2616.04
206.735	2593.38
206.81	2596.86
206.884	2613.09
206.958	2603.57
207.033	2625.47
207.107	2638.53
207.181	2675.23
207.256	2671.56
207.33	2697.33
207.405	2711.97
207.479	2741.13
207.553	2753.46
207.628	2744.8
207.702	2767.47
207.776	2774.29
207.851	2789.72
207.925	2813.99
207.999	2824.19
208.073	2835.63
208.148	2853.32
208.222	2856.18
208.296	2909.93
208.371	2947.14
208.445	2982.76
208.519	3035.3
208.593	3072.73
208.668	3096.87
208.742	3123.85
208.816	3161.94
208.89	3213.59
208.965	3250.02
209.039	3299.77
209.113	3362.05
209.187	3434.23
209.261	3481.86
209.336	3553.24
209.41	3632.43
209.484	3696.41
209.558	3778.24
209.632	3856.11
209.707	3937.78
209.781	4041.17
209.855	4132.51
209.929	4226.59
210.003	4316.42
210.077	4405.92
210.151	4546.79
210.226	4678.1
210.3	4808.2
210.374	4933.7
210.448	5046.56
210.522	5170.8
210.596	5290.31
210.67	5419.8
210.744	5582.48
210.818	5737.83
210.892	5885.36
210.966	6010.58
211.041	6159.86
211.115	6295.78
211.189	6466.13
211.263	6624.89
211.337	6773.51
211.411	6936.74
211.485	7092.38
211.559	7264.48
211.633	7425.67
211.707	7555.02
211.781	7725.99
211.855	7862.96
211.929	8031.3
212.003	8177.25
212.077	8364.71
212.151	8553.67
212.225	8740.68
212.299	8908.74
212.373	9078.84
212.447	9257.6
212.52	9466.79
212.594	9660.72
212.668	9863.21
212.742	10037.66
212.816	10228.07
212.89	10419.12
212.964	10608.41
213.038	10798.93
213.112	11004.87
213.186	11215.43
213.26	11391.41
213.333	11537.24
213.407	11730.82
213.481	11922.87
213.555	12132.26
213.629	12308.29
213.703	12494.25
213.777	12688.79
213.85	12869.02
213.924	13102.8
213.998	13302.12
214.072	13492.77
214.146	13667.27
214.219	13857.05
214.293	14033.96
214.367	14216.76
214.441	14412.75
214.515	14588.7
214.588	14746.23
214.662	14888.33
214.736	15041.42
214.81	15223.34
214.883	15409.5
214.957	15570.21
215.031	15721.95
215.105	15867.23
215.178	16020.65
215.252	16178.98
215.326	16316
215.4	16457.66
215.473	16559.88
215.547	16695.98
215.621	16840.71
215.694	16996.28
215.768	17119.76
215.842	17254.17
215.915	17385.84
215.989	17496.68
216.063	17616.68
216.136	17756.68
216.21	17886.85
216.284	18033.79
216.357	18171.76
216.431	18297.06
216.504	18428.23
216.578	18587.65
216.652	18723.35
216.725	18838.29
216.799	18957.03
216.873	19070.23
216.946	19186.9
217.02	19290.6
217.093	19389.34
217.167	19471.46
217.24	19559.6
217.314	19659.02
217.387	19751.54
217.461	19836.41
217.535	19956.21
217.608	20046.81
217.682	20139.87
217.755	20246.23
217.829	20320.5
217.902	20398.57
217.976	20478.71
218.049	20560.01
218.123	20614.23
218.196	20692.16
218.27	20771.64
218.343	20832.89
218.417	20909.76
218.49	20992.57
218.563	21085.25
218.637	21160.24
218.71	21241.21
218.784	21313.61
218.857	21396.27
218.931	21470.78
219.004	21552.62
219.077	21610.95
219.151	21674.28
219.224	21740.85
219.298	21807.03
219.371	21883.77
219.444	21935.45
219.518	22007.03
219.591	22059.09
219.665	22150.39
219.738	22211.13
219.811	22257.36
219.885	22325.43
219.958	22384.97
220.031	22426.81
220.105	22482.01
220.178	22524.05
220.251	22566.62
220.325	22619.31
220.398	22656.92
220.471	22699.48
220.544	22742.25
220.618	22772.05
220.691	22811.39
220.764	22838.29
220.838	22867.46
220.911	22891.66
220.984	22941.08
221.057	22971.31
221.131	23004.77
221.204	23002.02
221.277	23057.57
221.35	23115.44
221.424	23138.73
221.497	23163.03
221.57	23182.31
221.643	23205.17
221.716	23247.56
221.79	23273.64
221.863	23290.91
221.936	23312.36
222.009	23343.13
222.082	23359.86
222.155	23364.49
222.229	23395.78
222.302	23423.61
222.375	23426.45
222.448	23443.43
222.521	23451.24
222.594	23464.16
222.667	23462.28
222.74	23470.09
222.814	23459.15
222.887	23459.34
222.96	23467.59
223.033	23472.46
223.106	23477.47
223.179	23479.88
223.252	23473.03
223.325	23466.86
223.398	23462.18
223.471	23461.7
223.544	23450.13
223.617	23450.56
223.69	23455.24
223.763	23446.32
223.837	23433.73
223.91	23443.52
223.983	23424.96
224.056	23405.33
224.129	23402.1
224.202	23410.39
224.275	23412.42
224.348	23391.54
224.42	23366.9
224.493	23336.61
224.566	23319.88
224.639	23308.69
224.712	23290.8
224.785	23280.77
224.858	23260.42
224.931	23238.53
225.004	23208.64
225.077	23196.87
225.15	23153.86
225.223	23135.78
225.296	23141.18
225.369	23101.11
225.442	23071.03
225.514	23054.29
225.587	23042.72
225.66	23022.18
225.733	23012.59
225.806	22994.5
225.879	22974.3
225.952	22940.5
226.025	22934.09
226.097	22936.26
226.17	22918.28
226.243	22881.15
226.316	22857.91
226.389	22843.78
226.461	22842.87
226.534	22829.27
226.607	22805.41
226.68	22801.21
226.753	22785.78
226.825	22734.14
226.898	22744.85
226.971	22727.3
227.044	22705.84
227.117	22682.99
227.189	22658.84
227.262	22643.75
227.335	22619.45
227.407	22589.08
227.48	22577.02
227.553	22560.2
227.626	22520.85
227.698	22498.1
227.771	22483.2
227.844	22444.49
227.916	22421.93
227.989	22368.23
228.062	22342.72
228.134	22343.54
228.207	22325.37
228.28	22298.66
228.352	22272.73
228.425	22252.29
228.498	22234.5
228.57	22204.08
228.643	22198.54
228.716	22174
228.788	22143.77
228.861	22119.91
228.934	22117.79
229.006	22094.46
229.079	22059.41
229.151	22032.42
229.224	21991.73
229.296	21969.51
229.369	21978.62
229.442	21970.14
229.514	21939
229.587	21926.13
229.659	21872.92
229.732	21848.67
229.804	21831.7
229.877	21840.86
229.949	21813.82
230.022	21800.08
230.094	21773.67
230.167	21755.35
230.239	21725.7
230.312	21696.11
230.384	21684.2
230.457	21655.76
230.529	21634.22
230.602	21616.34
230.674	21587.7
230.747	21585.78
230.819	21569.92
230.892	21512.99
230.964	21490.63
231.037	21485.18
231.109	21455.49
231.181	21445.8
231.254	21404.55
231.326	21368.16
231.399	21318.85
231.471	21276
231.544	21223.66
231.616	21207.8
231.688	21169.24
231.761	21132.37
231.833	21091.55
231.905	21038.44
231.978	21014.58
232.05	20982.48
232.122	20949.56
232.195	20924.45
232.267	20901.37
232.339	20863.53
232.412	20847.1
232.484	20801.26
232.556	20749.79
232.629	20740.59
232.701	20714.61
232.773	20690.85
232.846	20663.57
232.918	20643.86
232.99	20620.82
233.062	20613.45
233.135	20588.01
233.207	20536.92
233.279	20511.67
233.351	20489.74
233.424	20453.79
233.496	20399.09
233.568	20389.02
233.64	20347.48
233.713	20312.68
233.785	20278.75
233.857	20249.26
233.929	20203.38
234.001	20184.97
234.074	20178.75
234.146	20121.94
234.218	20093.7
234.29	20054.76
234.362	20006.18
234.434	19950.62
234.507	19907.53
234.579	19856.69
234.651	19817.37
234.723	19808.21
234.795	19778.14
234.867	19743.59
234.939	19736.36
235.012	19711.93
235.084	19676.31
235.156	19651.69
235.228	19616.27
235.3	19573.72
235.372	19546.68
235.444	19533.57
235.516	19490.64
235.588	19459.99
235.66	19434.98
235.732	19384.28
235.804	19414.93
235.876	19404.23
235.948	19398.35
236.02	19356.28
236.092	19318.6
236.164	19280.87
236.236	19226.32
236.308	19185.74
236.38	19152.97
236.452	19107.58
236.524	19071.05
236.596	19052.83
236.668	19013.51
236.74	18974.76
236.812	18950.28
236.884	18916.89
236.956	18874.19
237.028	18824.8
237.1	18776.08
237.172	18747.89
237.244	18734.44
237.316	18659.84
237.388	18606.55
237.46	18556.52
237.532	18549.54
237.604	18506.21
237.675	18490.74
237.747	18475.81
237.819	18443.52
237.891	18413.3
237.963	18371.52
238.035	18328.1
238.107	18248.39
238.178	18234.37
238.25	18205.36
238.322	18188.45
238.394	18142.91
238.466	18105.22
238.538	18081.32
238.609	18056.93
238.681	18009.95
238.753	17963.39
238.825	17927.06
238.897	17900.79
238.968	17890.82
239.04	17849.18
239.112	17844.75
239.184	17794.68
239.255	17749.47
239.327	17721.38
239.399	17688.37
239.471	17666.05
239.542	17648.46
239.614	17634.73
239.686	17582.3
239.758	17558.54
239.829	17506.63
239.901	17478.92
239.973	17447.02
240.044	17415.07
240.116	17375.5
240.188	17337.09
240.259	17308.08
240.331	17266.73
240.403	17243.74
240.474	17187.93
240.546	17139.74
240.618	17084.27
240.689	17046.68
240.761	17012.46
240.833	16993.37
240.904	16940.5
240.976	16902.09
241.048	16873.42
241.119	16854.72
241.191	16817.51
241.262	16795.58
241.334	16760.98
241.405	16729.55
241.477	16693.46
241.549	16662.95
241.62	16635.62
241.692	16610.46
241.763	16590.03
241.835	16555.66
241.906	16522.07
241.978	16468.14
242.049	16449.2
242.121	16425.87
242.192	16412.08
242.264	16366.78
242.335	16313.28
242.407	16308.31
242.478	16269.42
242.55	16234.43
242.621	16183.72
242.693	16153.79
242.764	16112.49
242.836	16079.23
242.907	16054.99
242.979	16022.98
243.05	15995.03
243.122	15968.52
243.193	15933.62
243.264	15867.93
243.336	15832.79
243.407	15805.61
243.479	15803
243.55	15777.94
243.622	15747.86
243.693	15713.83
243.764	15708.39
243.836	15666.21
243.907	15618.3
243.978	15588.37
244.05	15570.48
244.121	15531.01
244.192	15501.65
244.264	15459.04
244.335	15431.62
244.407	15386.93
244.478	15358.06
244.549	15317.19
244.62	15274.43
244.692	15243.48
244.763	15219.77
244.834	15185.5
244.906	15141.78
244.977	15109.87
245.048	15085.62
245.119	15044.26
245.191	15000.98
245.262	14945.21
245.333	14939.81
245.405	14918.02
245.476	14888.95
245.547	14854.34
245.618	14833.47
245.689	14816.36
245.761	14788.98
245.832	14756.25
245.903	14732.58
245.974	14709.1
246.045	14684.81
246.117	14667.21
246.188	14623.83
246.259	14591.15
246.33	14562.66
246.401	14535.95
246.473	14494.93
246.544	14453.38
246.615	14442.48
246.686	14410.57
246.757	14396.64
246.828	14349.69
246.899	14341.35
246.97	14299.02
247.042	14258
247.113	14236.5
247.184	14225.51
247.255	14194.13
247.326	14165.64
247.397	14132.76
247.468	14100.17
247.539	14068.89
247.61	14025.5
247.681	14016.63
247.752	14000.44
247.823	13960.04
247.894	13944.03
247.965	13906.63
248.037	13883.1
248.108	13840.92
248.179	13817.35
248.25	13783.27
248.321	13774.78
248.392	13729.37
248.463	13723.15
248.534	13700.74
248.605	13677.4
248.675	13638.02
248.746	13613.43
248.817	13596.08
248.888	13577.67
248.959	13539.15
249.03	13520.73
249.101	13494.99
249.172	13456.91
249.243	13409.67
249.314	13412.8
249.385	13375.78
249.456	13356.35
249.527	13324.77
249.598	13298.55
249.669	13272.81
249.739	13257.96
249.81	13227.64
249.881	13184.11
249.952	13162.9
250.023	13140.29
250.094	13096.47
250.165	13070.34
250.235	13046.82
250.306	13018.52
250.377	12983.67
250.448	12963.32
250.519	12919.6
250.59	12921.72
250.66	12893.81
250.731	12891.21
250.802	12861.13
250.873	12840.25
250.944	12826.9
251.014	12797.06
251.085	12808.15
251.156	12792.24
251.227	12789.06
251.297	12780.38
251.368	12777.3
251.439	12761.58
251.51	12746.35
251.58	12717.47
251.651	12688.17
251.722	12683.3
251.792	12652.4
251.863	12629.45
251.934	12627.86
252.005	12631.52
252.075	12600.67
252.146	12588.91
252.217	12579.56
252.287	12565.97
252.358	12550.73
252.429	12547.99
252.499	12529.91
252.57	12507.4
252.641	12493.66
252.711	12464.88
252.782	12430.75
252.852	12431.62
252.923	12409.98
252.994	12394.41
253.064	12391.66
253.135	12359.94
253.205	12326.68
253.276	12323.88
253.347	12320.51
253.417	12295.11
253.488	12267.25
253.558	12249.65
253.629	12237.17
253.699	12219.09
253.77	12213.16
253.841	12191.47
253.911	12169.49
253.982	12149.15
254.052	12139.65
254.123	12126.54
254.193	12110.97
254.264	12128.04
254.334	12099.69
254.405	12073.18
254.475	12043.54
254.546	12025.7
254.616	12032.07
254.687	12020.5
254.757	12001.7
254.827	11978.03
254.898	11957.89
254.968	11945.4
255.039	11915.71
255.109	11902.17
255.18	11879.61
255.25	11830.16
255.321	11820.03
255.391	11779.84
255.461	11784.85
255.532	11737.37
255.602	11712.21
255.673	11667.39
255.743	11641.65
255.813	11599.91
255.884	11593.5
255.954	11587.91
256.024	11587.91
256.095	11566.27
256.165	11534.89
256.235	11517.35
256.306	11493.78
256.376	11497.59
256.446	11489.78
256.517	11477.54
256.587	11473.29
256.657	11457.34
256.728	11450.02
256.798	11428.67
256.868	11411.32
256.938	11384.95
257.009	11379.46
257.079	11367.46
257.149	11381.48
257.219	11336.9
257.29	11321.19
257.36	11281.1
257.43	11265.91
257.5	11221.53
257.571	11189.24
257.641	11177.19
257.711	11153.91
257.781	11142.83
257.852	11121.14
257.922	11084.27
257.992	11063.6
258.062	11038.93
258.132	11031.74
258.202	11012.57
258.273	10991.27
258.343	11001.63
258.413	10979.84
258.483	10965.24
258.553	10944.33
258.623	10914.55
258.693	10908.52
258.764	10909.29
258.834	10911.17
258.904	10897.29
258.974	10881.34
259.044	10871.51
259.114	10862.98
259.184	10844.91
259.254	10828.05
259.324	10787.52
259.394	10774.76
259.464	10784.01
259.535	10771.72
259.605	10740.45
259.675	10714.24
259.745	10705.51
259.815	10672.36
259.885	10648.17
259.955	10655.74
260.025	10631.41
260.095	10611.89
260.165	10593.49
260.235	10589.29
260.305	10558.36
260.375	10526.08
260.445	10527.48
260.515	10530.13
260.585	10529.45
260.655	10515.58
260.725	10515.24
260.795	10508.83
260.865	10515.48
260.934	10482.52
261.004	10467.1
261.074	10461.32
261.144	10465.42
261.214	10469.37
261.284	10456.79
261.354	10449.47
261.424	10421.14
261.494	10421.81
261.564	10413.28
261.634	10412.8
261.703	10381.2
261.773	10377.1
261.843	10369.54
261.913	10361.73
261.983	10328.49
262.053	10319
262.123	10302.33
262.192	10273.91
262.262	10275.21
262.332	10243.89
262.402	10242.54
262.472	10232.81
262.541	10196.49
262.611	10194.85
262.681	10163.01
262.751	10156.26
262.821	10145.47
262.89	10123.02
262.96	10110.59
263.03	10117.43
263.1	10106.3
263.169	10086.89
263.239	10080.87
263.309	10089.3
263.379	10075.04
263.448	10065.75
263.518	10051.2
263.588	10039.2
263.657	10039.78
263.727	10032.79
263.797	10024.03
263.867	10006.97
263.936	9974.03
264.006	9971.14
264.076	9948.02
264.145	9937.56
264.215	9911.99
264.285	9907.03
264.354	9870.28
264.424	9851.64
264.494	9817.68
264.563	9796.44
264.633	9811.22
264.702	9803.56
264.772	9768.11
264.842	9753.61
264.911	9739.94
264.981	9711.66
265.05	9697.02
265.12	9677.13
265.19	9666.92
265.259	9659.74
265.329	9655.45
265.398	9646.45
265.468	9665.71
265.537	9647.08
265.607	9638.65
265.676	9637.64
265.746	9629.16
265.815	9632.43
265.885	9619.67
265.955	9599.16
266.024	9583.55
266.094	9550.03
266.163	9556.87
266.232	9557.89
266.302	9540.6
266.371	9539.68
266.441	9530.34
266.51	9536.17
266.58	9518.83
266.649	9490.42
266.719	9489.93
266.788	9476.93
266.858	9489.89
266.927	9448.85
266.996	9447.8
267.066	9442.55
267.135	9416.59
267.205	9414.28
267.274	9409.95
267.343	9410.77
267.413	9404.89
267.482	9402.53
267.552	9408.26
267.621	9368.73
267.69	9340.56
267.76	9333
267.829	9321.39
267.898	9306.66
267.968	9280.66
268.037	9284.51
268.106	9296.02
268.176	9269.34
268.245	9259.42
268.314	9240.21
268.384	9247.48
268.453	9232.12
268.522	9219.22
268.592	9225.86
268.661	9202.8
268.73	9194.8
268.799	9176.84
268.869	9183.49
268.938	9155.76
269.007	9133.42
269.076	9131.25
269.146	9134.09
269.215	9127.25
269.284	9138.38
269.353	9128.7
269.422	9116.67
269.492	9096.98
269.561	9051
269.63	9049.22
269.699	9035.69
269.768	9025.82
269.838	9013.69
269.907	9013.16
269.976	8991.45
270.045	8957.95
270.114	8953.57
270.183	8934.89
270.253	8931.52
270.322	8899.07
270.391	8892.53
270.46	8901.14
270.529	8900.23
270.598	8897.05
270.667	8887.95
270.736	8856.8
270.806	8855.89
270.875	8861.28
270.944	8845.16
271.013	8868.84
271.082	8865.28
271.151	8858.06
271.22	8829.66
271.289	8817.39
271.358	8808.43
271.427	8805.11
271.496	8803.86
271.565	8792.07
271.634	8791.25
271.703	8811.66
271.772	8818.74
271.841	8811.04
271.91	8786.54
271.979	8780.04
272.048	8761.84
272.117	8760.49
272.186	8743.02
272.255	8737.44
272.324	8731.86
272.393	8732.34
272.462	8716.4
272.531	8701.24
272.6	8690.85
272.669	8701.29
272.738	8690.51
272.807	8682.57
272.876	8667.65
272.945	8698.69
273.013	8705
273.082	8703.65
273.151	8660.66
273.22	8656.72
273.289	8653.93
273.358	8663.98
273.427	8647.33
273.496	8644.93
273.564	8639.44
273.633	8648.1
273.702	8632.12
273.771	8624.13
273.84	8622.21
273.909	8614.85
273.977	8614.17
274.046	8608.73
274.115	8612.2
274.184	8598
274.253	8591.17
274.322	8595.21
274.39	8559.26
274.459	8541.12
274.528	8516.05
274.597	8510.61
274.665	8508.63
274.734	8510.22
274.803	8494.05
274.872	8488.9
274.94	8476.01
275.009	8533.69
275.078	8519.59
275.147	8515.84
275.215	8507.51
275.284	8516.27
275.353	8511.41
275.421	8489.33
275.49	8504.92
275.559	8494.19
275.627	8488.61
275.696	8479.22
275.765	8479.9
275.833	8474.8
275.902	8474.46
275.971	8484.71
276.039	8499.43
276.108	8498.86
276.177	8498.09
276.245	8491.35
276.314	8485.43
276.383	8493.18
276.451	8425.97
276.52	8424.67
276.588	8434.87
276.657	8451.38
276.725	8439.2
276.794	8438.38
276.863	8454.31
276.931	8428.66
277	8437.32
277.068	8445.98
277.137	8468.98
277.205	8465.76
277.274	8481.06
277.342	8486.98
277.411	8473.22
277.48	8464.22
277.548	8457.15
277.617	8461.04
277.685	8457.72
277.754	8461.14
277.822	8452.38
277.89	8463.26
277.959	8463.45
278.027	8448.92
278.096	8431.4
278.164	8453.78
278.233	8449.45
278.301	8438.05
278.37	8443.97
278.438	8431.12
278.507	8434
278.575	8402.49
278.643	8396.57
278.712	8376.74
278.78	8364.62
278.849	8374.72
278.917	8383.48
278.985	8377.32
279.054	8377.32
279.122	8390.07
279.191	8387.86
279.259	8383.34
279.327	8360.62
279.396	8372.03
279.464	8364.86
279.532	8369.86
279.601	8363.56
279.669	8355.52
279.737	8366.16
279.806	8373.47
279.874	8381.46
279.942	8381.32
280.011	8382.18
280.079	8391.08
280.147	8408.74
280.215	8412.16
280.284	8403.26
280.352	8385.5
280.42	8398.83
280.488	8388.58
280.557	8377.08
280.625	8382.85
280.693	8381.6
280.761	8394.21
280.83	8375.54
280.898	8389.64
280.966	8370.1
281.034	8341.86
281.102	8327.18
281.171	8316.89
281.239	8320.02
281.307	8306.78
281.375	8300.86
281.443	8320.88
281.512	8323.82
281.58	8332.86
281.648	8322.04
281.716	8326.27
281.784	8326.8
281.852	8318.04
281.92	8317.9
281.989	8331.85
282.057	8313.52
282.125	8365.41
282.193	8353.28
282.261	8358.77
282.329	8353.81
282.397	8361.03
282.465	8365.88
282.533	8384.12
282.601	8379.11
282.67	8356.31
282.738	8349.38
282.806	8357.46
282.874	8345.91
282.942	8338.6
283.01	8330.56
283.078	8333.4
283.146	8325.27
283.214	8331.91
283.282	8329.02
283.35	8344.9
283.418	8335.04
283.486	8345.14
283.554	8297.2
283.622	8301.05
283.69	8300.28
283.758	8299.42
283.826	8301.92
283.894	8315.49
283.962	8338.39
284.03	8354.7
284.098	8354.22
284.165	8352.97
284.233	8354.66
284.301	8349.27
284.369	8342.92
284.437	8333.68
284.505	8332.14
284.573	8351.82
284.641	8343.3
284.709	8355.28
284.777	8333.15
284.845	8339.98
284.912	8341.66
284.98	8343.44
285.048	8338.73
285.116	8343.59
285.184	8361.06
285.252	8365
285.319	8344.36
285.387	8332.04
285.455	8312.31
285.523	8324.1
285.591	8322.8
285.659	8320.93
285.726	8336.95
285.794	8328.58
285.862	8328.48
285.93	8327.33
285.997	8323.38
286.065	8317.7
286.133	8304.18
286.201	8301.3
286.269	8285.71
286.336	8283.35
286.404	8286.19
286.472	8297.25
286.539	8278.69
286.607	8256.7
286.675	8252.46
286.743	8262.37
286.81	8255.25
286.878	8275.27
286.946	8265.31
287.013	8268
287.081	8270.21
287.149	8256.36
287.216	8274.4
287.284	8271.03
287.352	8273.72
287.419	8267.47
287.487	8285.08
287.555	8295.86
287.622	8295.33
287.69	8305.24
287.758	8320.01
287.825	8314.33
287.893	8302.26
287.96	8307.02
288.028	8316.79
288.096	8323.62
288.163	8325.78
288.231	8316.93
288.298	8311.25
288.366	8328.04
288.433	8323.14
288.501	8317.46
288.569	8319.05
288.636	8314.04
288.704	8324.73
288.771	8333.15
288.839	8321.5
288.906	8319.87
288.974	8326.85
289.041	8324.34
289.109	8312.89
289.176	8316.31
289.244	8321.84
289.311	8339.5
289.379	8353.02
289.446	8352.69
289.514	8351.53
289.581	8349.12
289.649	8350.38
289.716	8352.44
289.783	8341.23
289.851	8363.51
289.918	8358.17
289.986	8364.76
290.053	8373.08
290.121	8373.37
290.188	8375.39
290.255	8406.81
290.323	8400.8
290.39	8390.55
290.458	8395.41
290.525	8414.8
290.592	8400.89
290.66	8397.81
290.727	8385.25
290.794	8398.77
290.862	8402.43
290.929	8405.22
290.996	8407.96
291.064	8418.02
291.131	8425.72
291.198	8441.99
291.266	8439.82
291.333	8441.36
291.4	8444.63
291.468	8463.26
291.535	8461.38
291.602	8462.15
291.669	8458.97
291.737	8455.7
291.804	8463.84
291.871	8488.62
291.938	8494.78
292.006	8525.53
292.073	8540.16
292.14	8552.86
292.207	8540.45
292.275	8540.06
292.342	8548.15
292.409	8569.13
292.476	8599.07
292.543	8592.48
292.611	8593.92
292.678	8613.27
292.745	8641.56
292.812	8653.93
292.879	8638.58
292.946	8645.22
293.014	8658.55
293.081	8667.21
293.148	8687.47
293.215	8704.56
293.282	8695.94
293.349	8703.98
293.416	8685.84
293.484	8699.79
293.551	8714.28
293.618	8733.68
293.685	8764.53
293.752	8762.41
293.819	8764.82
293.886	8745.76
293.953	8755.24
294.02	8765.97
294.087	8764.72
294.154	8758.27
294.221	8779.21
294.288	8781.91
294.356	8799.04
294.423	8803.81
294.49	8792.78
294.557	8800.15
294.624	8785.13
294.691	8804.19
294.758	8801.83
294.825	8812.47
294.892	8803.23
294.959	8803.85
295.026	8818.82
295.093	8812.95
295.16	8812.18
295.226	8810.79
295.293	8835.58
295.36	8839.19
295.427	8845.83
295.494	8859.02
295.561	8868.84
295.628	8886.46
295.695	8903.26
295.762	8904.56
295.829	8920.74
295.896	8937.05
295.963	8955.25
296.03	8964.88
296.096	8969.4
296.163	8982.88
296.23	8995.16
296.297	9012.2
296.364	9007.48
296.431	9004.4
296.498	8997.66
296.564	9020.52
296.631	9026.11
296.698	9011.91
296.765	9028.37
296.832	9015.9
296.899	9006.03
296.965	9023.41
297.032	9008.1
297.099	9023.89
297.166	9034
297.233	9023.7
297.299	9016.96
297.366	9008.24
297.433	9010.03
297.5	9021.63
297.566	9020.28
297.633	9017.15
297.7	9014.99
297.767	9009.5
297.833	9016.05
297.9	9023.51
297.967	9006.23
298.033	9017.83
298.1	9053.36
298.167	9043.93
298.234	9052.78
298.3	9065.64
298.367	9060.34
298.434	9066.41
298.5	9060.97
298.567	9050.38
298.634	9051.92
298.7	9072.09
298.767	9077.19
298.834	9092.21
298.9	9084.89
298.967	9080.32
299.033	9094.52
299.1	9116.96
299.167	9136.22
299.233	9133.13
299.3	9146.86
299.366	9169.82
299.433	9183.54
299.5	9153.88
299.566	9168.61
299.633	9184.31
299.699	9194.56
299.766	9189.65
299.832	9186.96
299.899	9195
299.965	9210.4
300.032	9207.23
300.099	9215.65
300.165	9221.53
300.232	9221.62
300.298	9229.13
300.365	9244.83
300.431	9240.69
300.498	9232.41
300.564	9237.65
300.631	9250.7
300.697	9266.5
300.763	9264.38
300.83	9258.21
300.896	9271.41
300.963	9275.84
301.029	9283.69
301.096	9288.36
301.162	9306.12
301.229	9302.9
301.295	9290.47
301.361	9296.11
301.428	9306.8
301.494	9284.41
301.561	9289.71
301.627	9295.82
301.693	9292.26
301.76	9293.99
301.826	9292.35
301.892	9303.04
301.959	9315.37
302.025	9308.63
302.092	9295.77
302.158	9297.51
302.224	9307.23
302.291	9300.01
302.357	9296.4
302.423	9290.77
302.49	9279.11
302.556	9282.58
302.622	9283.3
302.688	9293.99
302.755	9304.15
302.821	9308.05
302.887	9325.87
302.954	9322.4
303.02	9320.42
303.086	9327.36
303.152	9323.75
303.219	9317.25
303.285	9317.44
303.351	9324.09
303.417	9328.27
303.483	9322.69
303.55	9322.59
303.616	9316
303.682	9315.47
303.748	9309.4
303.815	9324.71
303.881	9338.68
303.947	9328.61
304.013	9330.73
304.079	9325.1
304.145	9307.38
304.212	9304.2
304.278	9299.24
304.344	9300.49
304.41	9291.97
304.476	9279.21
304.542	9274.78
304.608	9287.3
304.674	9273.09
304.741	9265.97
304.807	9264.23
304.873	9267.03
304.939	9283.93
305.005	9270.35
305.071	9269.19
305.137	9271.6
305.203	9241.55
305.269	9237.7
305.335	9249.26
305.401	9249.31
305.467	9251.86
305.533	9257.2
305.599	9262.69
305.666	9266.35
305.732	9261.01
305.798	9276.85
305.864	9304.15
305.93	9309.06
305.996	9303.57
306.062	9309.16
306.128	9303.67
306.194	9291.34
306.259	9293.41
306.325	9278.44
306.391	9285.56
306.457	9288.12
306.523	9294.9
306.589	9319.22
306.655	9309.21
306.721	9291.82
306.787	9279.79
306.853	9287.73
306.919	9272.42
306.985	9267.08
307.051	9263.95
307.117	9259.66
307.183	9252.39
307.248	9226.05
307.314	9234.52
307.38	9236.64
307.446	9238.86
307.512	9229.32
307.578	9236.74
307.644	9233.22
307.709	9233.56
307.775	9227.01
307.841	9230.48
307.907	9226
307.973	9209.49
308.039	9209.63
308.104	9211.99
308.17	9209.68
308.236	9195.62
308.302	9199.95
308.368	9188.97
308.433	9180.16
308.499	9176.65
308.565	9161.63
308.631	9171.35
308.696	9146.94
308.762	9141.79
308.828	9139.77
308.894	9122.49
308.959	9103.57
309.025	9092.78
309.091	9088.4
309.156	9083.83
309.222	9085.13
309.288	9077.14
309.354	9053.98
309.419	9049.31
309.485	9035.4
309.551	9040.74
309.616	9028.42
309.682	9024.85
309.748	9019.94
309.813	9018.55
309.879	9006.66
309.945	8999.15
310.01	8989.71
310.076	8989.86
310.141	8977.96
310.207	8958.08
310.273	8962.41
310.338	8966.02
310.404	8950.81
310.469	8941.57
310.535	8929.53
310.601	8904.79
310.666	8905.9
310.732	8921.06
310.797	8907.72
310.863	8897.66
310.928	8891.7
310.994	8894.29
311.059	8892.56
311.125	8886.79
311.191	8895.74
311.256	8887.75
311.322	8890.54
311.387	8868.26
311.453	9314.47
311.518	9287.96
311.584	9292.72
311.649	9295.08
311.715	9284.68
311.78	9282.52
311.846	9268.8
311.911	9275.11
311.976	9275.92
312.042	9263.75
312.107	9244.35
312.173	9237.8
312.238	9231.16
312.304	9223.41
312.369	9211.66
312.434	9198.81
312.5	9192.41
312.565	9163.82
312.631	9166.85
312.696	9161.36
312.761	9162.23
312.827	8706.29
312.892	8745.71
312.958	8738.15
313.023	8738.2
313.088	8735.46
313.154	8725.54
313.219	8719.14
313.284	8707.3
313.35	8700.27
313.415	8688.14
313.48	8683.72
313.546	8690.41
313.611	8704.32
313.676	8694.07
313.741	8689.97
313.807	8696.18
313.872	8701.04
313.937	8706.68
314.003	8715.29
314.068	8716.45
314.133	8717.94
314.198	8709.61
314.264	8690.12
314.329	8680.1
314.394	8671.73
314.459	8672.21
314.525	8691.12
314.59	8688.43
314.655	8677.46
314.72	8685.93
314.785	8688.77
314.851	8687.32
314.916	8667.74
314.981	8648.77
315.046	8643
315.111	8635.54
315.176	8621.97
315.242	8623.46
315.307	8623.75
315.372	8606.37
315.437	8591.21
315.502	8584.23
315.567	8595.35
315.632	8579.23
315.698	8578.6
315.763	8570.66
315.828	8558.73
315.893	8553.1
315.958	8551.85
316.023	8545.73
316.088	8528.36
316.153	8507
316.218	8498.24
316.283	8479.91
316.348	8459.17
316.413	8459.08
316.479	8438.97
316.544	8406.93
316.609	8373.77
316.674	8337.26
316.739	8303.53
316.804	8277.41
316.869	8244.22
316.934	8204.47
316.999	8176.52
317.064	8130.24
317.129	8096.76
317.194	8063.62
317.259	8019.16
317.324	7970.93
317.389	7929.85
317.454	7892.29
317.518	7858.38
317.583	7835.58
317.648	7815.43
317.713	7787.88
317.778	7724.3
317.843	7699.54
317.908	7667.57
317.973	7633.09
318.038	7609.15
318.103	7575.4
318.168	7543.38
318.233	7509.63
318.297	7462.57
318.362	7426.95
318.427	7388.36
318.492	7361.91
318.557	7314.67
318.622	7285.93
318.687	7262.62
318.751	7221.88
318.816	7187.61
318.881	7158.87
318.946	7106.97
319.011	7062.13
319.075	7018.51
319.14	6996.41
319.205	6952.93
319.27	6921.08
319.335	6879.86
319.399	6838.64
319.464	6809.92
319.529	6759.35
319.594	6727.45
319.658	6700.51
319.723	6660.31
319.788	6636.55
319.853	6580.74
319.917	6555.92
319.982	6504.87
320.047	6472.17
320.112	6450.86
320.176	6403.67
320.241	6365.74
320.306	6336.17
320.37	6296.14
320.435	6274.01
320.5	6243.39
320.564	6208.45
320.629	6169.34
320.694	6140.5
320.758	6100.43
320.823	6057.54
320.888	6034.22
320.952	5989.85
321.017	5948.73
321.082	5914.1
321.146	5879.8
321.211	5849.06
321.275	5811.99
321.34	5773.77
321.405	5729.5
321.469	5685.96
321.534	5648.71
321.598	5605.71
321.663	5573
321.727	5544.28
321.792	5494.48
321.857	5450.94
321.921	5412.22
321.986	5368.71
322.05	5313.56
322.115	5278.67
322.179	5236.47
322.244	5177.26
322.308	5146.98
322.373	5102.01
322.437	5062.97
322.502	5039.91
322.566	4995.8
322.631	4958.21
322.695	4916.12
322.76	4871.93
322.824	4838.7
322.889	4799.6
322.953	4753.32
323.018	4688.6
323.082	4623.76
323.146	4577.59
323.211	4524.71
323.275	4483.8
323.34	4443.04
323.404	4407.37
323.468	4365.07
323.533	4322.89
323.597	4284.32
323.662	4233.24
323.726	4201.06
323.79	4151
323.855	4083.79
323.919	4036.7
323.983	3994.11
324.048	3932.68
324.112	4063.2
324.177	3937.36
324.241	3731.51
324.305	3533.21
324.37	3338.87
324.434	3154.04
324.498	3109.6
324.562	3061.22
324.627	2999.2
324.691	2942.94
324.755	2881.1
324.82	2802.1
324.884	2728.67
324.948	2657.59
325.012	2561.13
325.077	2437.37
