Data from 20250704_urea_0.5M_MAYP1162681_11-05-07-768.txt Node
Date: Fri Jul 04 11:05:07 BST 2025
User: adleo
Spectrometer: MAYP116268
Trigger mode: 0
Integration Time (sec): 1.000000E0
Scans to average: 1
Electric dark correction enabled: true
Nonlinearity correction enabled: true
Boxcar width: 10
XAxis mode: Wavelengths
Number of Pixels in Spectrum: 2068
>>>>>Begin Spectral Data<<<<<
179.565	1238
179.642	1293.47
179.718	1341.1
179.795	1379.79
179.871	1415.11
179.948	1431.48
180.024	1454.56
180.101	1477.9
180.177	1495.21
180.254	1520.63
180.33	1546.29
180.407	1603.17
180.483	1702.65
180.56	1796.68
180.636	1884.04
180.712	1871.44
180.789	1883.85
180.865	1898.44
180.942	1906.33
181.018	1914.93
181.095	1928.25
181.171	1934.19
181.248	1937.42
181.324	1950.98
181.4	1961.3
181.477	1971.9
181.553	1988.63
181.63	2007.89
181.706	2022.35
181.782	2030.43
181.859	2027.39
181.935	2031.1
182.011	2024.25
182.088	2040.23
182.164	2062.36
182.24	2074.01
182.317	2086.61
182.393	2085.89
182.469	2098.93
182.546	2111.48
182.622	2114.57
182.698	2109.06
182.775	2121.85
182.851	2137.22
182.927	2132.75
183.003	2125.56
183.08	2118.24
183.156	2125.9
183.232	2123.66
183.308	2111.53
183.385	2118.76
183.461	2138.17
183.537	2140.46
183.613	2156.49
183.69	2145.83
183.766	2131.17
183.842	2139.31
183.918	2142.64
183.995	2153.48
184.071	2156.1
184.147	2150.63
184.223	2141.26
184.299	2153.3
184.375	2141.17
184.452	2146.6
184.528	2196.37
184.604	2207.45
184.68	2220.11
184.756	2228.43
184.832	2231.57
184.908	2237.85
184.985	2237.28
185.061	2219.68
185.137	2226.91
185.213	2215.64
185.289	2217.3
185.365	2210.93
185.441	2211.93
185.517	2223.35
185.593	2220.11
185.669	2218.54
185.745	2226.73
185.822	2243.66
185.898	2235.61
185.974	2247.36
186.05	2237.8
186.126	2201.44
186.202	2197.16
186.278	2194.4
186.354	2185.64
186.43	2191.88
186.506	2193.35
186.582	2192.92
186.658	2201.34
186.734	2181.6
186.81	2182.22
186.886	2181.22
186.962	2193.07
187.038	2189.78
187.114	2182.88
187.19	2189.45
187.266	2179.08
187.341	2181.03
187.417	2174.75
187.493	2174.7
187.569	2175.89
187.645	2170.52
187.721	2157.57
187.797	2162.95
187.873	2166.99
187.949	2160.1
188.025	2154.29
188.101	2157.29
188.176	2161.81
188.252	2155.29
188.328	2160.95
188.404	2160.76
188.48	2161.38
188.556	2151.91
188.632	2151.05
188.707	2153
188.783	2148.05
188.859	2142.59
188.935	2134.64
189.011	2142.06
189.086	2135.54
189.162	2126.93
189.238	2122.75
189.314	2120.75
189.39	2118.8
189.465	2110.52
189.541	2126.27
189.617	2116.04
189.693	2109.86
189.768	2114.52
189.844	2143.51
189.92	2139.7
189.996	2149.69
190.071	2158.78
190.147	2160.97
190.223	2167.92
190.298	2159.78
190.374	2151.26
190.45	2162.2
190.526	2169.81
190.601	2162.68
190.677	2165.96
190.753	2195.95
190.828	2199.71
190.904	2216.41
190.98	2225.59
191.055	2237.25
191.131	2227.88
191.207	2245.43
191.282	2254
191.358	2244.96
191.433	2227.01
191.509	2238.52
191.585	2236.19
191.66	2239.23
191.736	2248.84
191.811	2241.13
191.887	2258.36
191.963	2282.4
192.038	2291.06
192.114	2290.01
192.189	2296.67
192.265	2291.72
192.34	2268.06
192.416	2271.2
192.491	2264.73
192.567	2269.77
192.642	2274.01
192.718	2275.1
192.793	2263.16
192.869	2259.21
192.944	2259.31
193.02	2265.73
193.095	2269.63
193.171	2274.34
193.246	2274.82
193.322	2271.25
193.397	2273.34
193.473	2258.97
193.548	2237.22
193.624	2240.79
193.699	2241.55
193.775	2256.64
193.85	2259.07
193.925	2269.54
194.001	2266.87
194.076	2258.93
194.152	2248.74
194.227	2236.7
194.302	2226.66
194.378	2229.85
194.453	2228.95
194.529	2243.41
194.604	2229.47
194.679	2222.72
194.755	2205.07
194.83	2214.97
194.905	2210.59
194.981	2216.59
195.056	2209.79
195.131	2216.83
195.207	2218.02
195.282	2205.93
195.357	2187.99
195.433	2203.5
195.508	2190.37
195.583	2197.6
195.659	2214.06
195.734	2222.58
195.809	2223.91
195.884	2236.04
195.96	2239.52
196.035	2254.51
196.11	2247.61
196.185	2260.6
196.261	2264.31
196.336	2297.95
196.411	2288.86
196.486	2295.19
196.561	2289.48
196.637	2299.04
196.712	2317.89
196.787	2317.56
196.862	2333.02
196.937	2341.21
197.013	2346.44
197.088	2356.34
197.163	2378.1
197.238	2395.3
197.313	2394.73
197.388	2408.91
197.464	2438.1
197.539	2442.29
197.614	2434.3
197.689	2449.96
197.764	2466.96
197.839	2487.19
197.914	2476.53
197.989	2495.72
198.065	2510.62
198.14	2562.41
198.215	2588.04
198.29	2598.18
198.365	2614.28
198.44	2627.09
198.515	2654.58
198.59	2672.11
198.665	2698.88
198.74	2707.17
198.815	2707.6
198.89	2727.99
198.965	2759.44
199.04	2753.58
199.115	2773.25
199.19	2817.7
199.265	2819.89
199.34	2826.9
199.415	2861.94
199.49	2884.47
199.565	2896.91
199.64	2918.6
199.715	2914.69
199.79	2924.98
199.865	2934.14
199.94	2932.85
200.015	2964.46
200.09	2971.32
200.165	2976.23
200.24	2983.67
200.315	3030.68
200.39	3044.7
200.464	3053.18
200.539	3055.23
200.614	3073.73
200.689	3096.95
200.764	3102.25
200.839	3120.02
200.914	3125.7
200.989	3116.49
201.063	3136.09
201.138	3114.88
201.213	3117.98
201.288	3097.72
201.363	3100.58
201.438	3099.1
201.512	3115.26
201.587	3098
201.662	3103.19
201.737	3115.93
201.812	3124.85
201.886	3086.18
201.961	3095.77
202.036	3083.09
202.111	3074.37
202.186	3046.58
202.26	3027.51
202.335	3006.95
202.41	2999.66
202.485	2984.12
202.559	2961.91
202.634	2932.01
202.709	2942.97
202.784	2924.33
202.858	2929.52
202.933	2910.46
203.008	2905.26
203.082	2881.29
203.157	2881.82
203.232	2838.94
203.306	2819.1
203.381	2784.16
203.456	2762.9
203.53	2743.97
203.605	2724.73
203.68	2706
203.754	2696.72
203.829	2684.18
203.904	2662.99
203.978	2652.84
204.053	2656.6
204.127	2643.31
204.202	2639.69
204.277	2620.64
204.351	2611.35
204.426	2599.96
204.5	2592.63
204.575	2558.3
204.65	2569.3
204.724	2561.29
204.799	2567.77
204.873	2564.72
204.948	2566.34
205.022	2552.38
205.097	2542.52
205.171	2556.71
205.246	2565.95
205.32	2566
205.395	2567.95
205.469	2561.39
205.544	2569.01
205.618	2554.67
205.693	2567.91
205.767	2556.49
205.842	2580.97
205.916	2575.59
205.991	2565.35
206.065	2570.54
206.14	2587.63
206.214	2585.29
206.289	2576.43
206.363	2592.25
206.438	2593.77
206.512	2603.44
206.586	2625.2
206.661	2632.02
206.735	2610.21
206.81	2612.12
206.884	2631.93
206.958	2619.65
207.033	2639.12
207.107	2647.56
207.181	2684.06
207.256	2684.87
207.33	2710.93
207.405	2728.53
207.479	2755.35
207.553	2769.4
207.628	2759.68
207.702	2776.69
207.776	2781.03
207.851	2797.28
207.925	2823.22
207.999	2832.8
208.073	2846.38
208.148	2864.93
208.222	2872.17
208.296	2924.35
208.371	2958.36
208.445	2988.26
208.519	3042.47
208.593	3079.43
208.668	3105.14
208.742	3134.36
208.816	3167.93
208.89	3219.29
208.965	3254.87
209.039	3302.84
209.113	3367.66
209.187	3439.11
209.261	3483.39
209.336	3554.77
209.41	3625.21
209.484	3688.01
209.558	3771.08
209.632	3844.7
209.707	3927.53
209.781	4021.54
209.855	4113.92
209.929	4216.33
210.003	4306.82
210.077	4390
210.151	4531.01
210.226	4656.01
210.3	4782.56
210.374	4907.44
210.448	5012.34
210.522	5132.7
210.596	5258.52
210.67	5381.97
210.744	5547.57
210.818	5706.16
210.892	5850.75
210.966	5983.02
211.041	6132.1
211.115	6271.35
211.189	6443.9
211.263	6602
211.337	6759.35
211.411	6919.44
211.485	7066.59
211.559	7238.72
211.633	7400.56
211.707	7532.17
211.781	7711.85
211.855	7843.18
211.929	8008.64
212.003	8158.94
212.077	8344.52
212.151	8535.07
212.225	8726.11
212.299	8894.03
212.373	9064.85
212.447	9247.27
212.52	9459.93
212.594	9650.39
212.668	9849.47
212.742	10022.29
212.816	10208.41
212.89	10390.39
212.964	10584.02
213.038	10784.89
213.112	10985.77
213.186	11196.67
213.26	11365.07
213.333	11508.16
213.407	11711.9
213.481	11902.89
213.555	12110.93
213.629	12294.72
213.703	12472.92
213.777	12666.55
213.85	12843.98
213.924	13074.96
213.998	13266.04
214.072	13453.61
214.146	13623
214.219	13811.19
214.293	13989.11
214.367	14179.23
214.441	14372.67
214.515	14552.33
214.588	14704.36
214.662	14853.65
214.736	15016.91
214.81	15204.57
214.883	15387.21
214.957	15549.55
215.031	15715.36
215.105	15861.61
215.178	16017.82
215.252	16169.6
215.326	16303.78
215.4	16442.02
215.473	16549.4
215.547	16691.72
215.621	16837.31
215.694	17000.5
215.768	17126.63
215.842	17263.16
215.915	17389.33
215.989	17504.9
216.063	17622.73
216.136	17755.21
216.21	17882.34
216.284	18019.06
216.357	18151.74
216.431	18286.48
216.504	18416.84
216.578	18570.42
216.652	18708.49
216.725	18820.96
216.799	18942.21
216.873	19062.4
216.946	19192.08
217.02	19307.25
217.093	19415.34
217.167	19487.73
217.24	19580.45
217.314	19678.18
217.387	19774.7
217.461	19869.54
217.535	19984.04
217.608	20078.79
217.682	20171.46
217.755	20276.23
217.829	20361.63
217.902	20452.52
217.976	20532.38
218.049	20614.4
218.123	20667.51
218.196	20760.48
218.27	20836.68
218.343	20910.17
218.417	20984.06
218.49	21047.77
218.563	21124.69
218.637	21198.05
218.71	21299.46
218.784	21379.04
218.857	21450.42
218.931	21517.9
219.004	21585.62
219.077	21655.85
219.151	21720.77
219.224	21780.3
219.298	21849.71
219.371	21924.58
219.444	21967.57
219.518	22016.45
219.591	22066
219.665	22157.84
219.738	22208.94
219.811	22257.53
219.885	22317.5
219.958	22374.19
220.031	22419.89
220.105	22484.25
220.178	22531.16
220.251	22554.98
220.325	22591.57
220.398	22644.31
220.471	22690.98
220.544	22735.09
220.618	22762.86
220.691	22806.74
220.764	22852.59
220.838	22888.12
220.911	22910.54
220.984	22960.73
221.057	23009.43
221.131	23050.85
221.204	23044.96
221.277	23087.78
221.35	23132.24
221.424	23149.84
221.497	23174.09
221.57	23204.9
221.643	23223.75
221.716	23254.86
221.79	23288.13
221.863	23315.33
221.936	23324.49
222.009	23346.14
222.082	23364.56
222.155	23375.21
222.229	23404.78
222.302	23419.77
222.375	23427.54
222.448	23443.26
222.521	23455.26
222.594	23455.55
222.667	23448.37
222.74	23470.65
222.814	23468.81
222.887	23466.74
222.96	23481.74
223.033	23493.02
223.106	23499.39
223.179	23501.85
223.252	23497.31
223.325	23487.57
223.398	23476.53
223.471	23478.36
223.544	23478.02
223.617	23486.03
223.69	23493.7
223.763	23476.96
223.837	23475.95
223.91	23482.32
223.983	23460.18
224.056	23444.27
224.129	23445.23
224.202	23454.68
224.275	23438.48
224.348	23413.99
224.42	23391.85
224.493	23356.27
224.566	23338.04
224.639	23325.84
224.712	23308.72
224.785	23283.35
224.858	23263.97
224.931	23250.71
225.004	23232.48
225.077	23215.51
225.15	23169.17
225.223	23145.83
225.296	23145.59
225.369	23107.94
225.442	23076.88
225.514	23067.58
225.587	23057.59
225.66	23044.09
225.733	23027.79
225.806	23007.74
225.879	22987.78
225.952	22966.08
226.025	22958.75
226.097	22953.01
226.17	22944.67
226.243	22901.86
226.316	22890.04
226.389	22886.77
226.461	22879.24
226.534	22868.88
226.607	22848.48
226.68	22851.42
226.753	22832.14
226.825	22788.65
226.898	22784.65
226.971	22758.8
227.044	22740.53
227.117	22716.91
227.189	22700.08
227.262	22691.59
227.335	22678.29
227.407	22662.14
227.48	22648.54
227.553	22641.07
227.626	22618.22
227.698	22582.93
227.771	22574.59
227.844	22533.56
227.916	22512.78
227.989	22468.38
228.062	22439.6
228.134	22439.36
228.207	22406.43
228.28	22380.3
228.352	22361.41
228.425	22339.23
228.498	22329.25
228.57	22295.94
228.643	22282.3
228.716	22247.59
228.788	22208.68
228.861	22177.11
228.934	22162.26
229.006	22134.35
229.079	22104.7
229.151	22064.59
229.224	22020.63
229.296	21997.64
229.369	22016.87
229.442	21998.22
229.514	21965.83
229.587	21946.55
229.659	21897.18
229.732	21875.59
229.804	21857.42
229.877	21848.02
229.949	21836.3
230.022	21827.96
230.094	21794.95
230.167	21770.12
230.239	21738.98
230.312	21712.18
230.384	21710.35
230.457	21686.97
230.529	21671.89
230.602	21638.68
230.674	21622.43
230.747	21613.57
230.819	21598
230.892	21533.17
230.964	21504.49
231.037	21490.56
231.109	21461.45
231.181	21439.13
231.254	21397.49
231.326	21361.53
231.399	21333.38
231.471	21282.44
231.544	21225.85
231.616	21223.49
231.688	21194.62
231.761	21166.33
231.833	21140.3
231.905	21083.86
231.978	21053.06
232.05	21021.2
232.122	20998.36
232.195	20956.81
232.267	20941.05
232.339	20898.26
232.412	20890.35
232.484	20854.5
232.556	20813.96
232.629	20811.75
232.701	20789.82
232.773	20767.65
232.846	20740.13
232.918	20706.97
232.99	20693.67
233.062	20673.43
233.135	20639.89
233.207	20593.52
233.279	20564.27
233.351	20530.49
233.424	20491.45
233.496	20445.04
233.568	20433.28
233.64	20386.63
233.713	20352.56
233.785	20311.31
233.857	20285.77
233.929	20225.91
234.001	20208.95
234.074	20195.45
234.146	20131.89
234.218	20097.05
234.29	20066.88
234.362	20023.22
234.434	19976.33
234.507	19932.38
234.579	19883.56
234.651	19846.16
234.723	19817.25
234.795	19787.9
234.867	19758.7
234.939	19743.9
235.012	19717.97
235.084	19690.7
235.156	19667.86
235.228	19635.86
235.3	19601.26
235.372	19568.34
235.444	19554.95
235.516	19495.19
235.588	19461.07
235.66	19432.78
235.732	19387.29
235.804	19408.16
235.876	19386.72
235.948	19363.58
236.02	19321.18
236.092	19288.02
236.164	19251.64
236.236	19220.7
236.308	19182
236.38	19149.04
236.452	19110.01
236.524	19078.45
236.596	19050.11
236.668	19025.77
236.74	18994.02
236.812	18968.57
236.884	18943.71
236.956	18911.42
237.028	18872
237.1	18822.46
237.172	18805.35
237.244	18792.54
237.316	18718.13
237.388	18681.46
237.46	18643.63
237.532	18629.27
237.604	18585.61
237.675	18563.78
237.747	18530.72
237.819	18491.44
237.891	18454.72
237.963	18409.66
238.035	18368.12
238.107	18295.98
238.178	18271.21
238.25	18232.32
238.322	18220.04
238.394	18163.6
238.466	18128.76
238.538	18110.5
238.609	18090.26
238.681	18031.46
238.753	17984.91
238.825	17955.85
238.897	17918.99
238.968	17895.76
239.04	17842.31
239.112	17847.86
239.184	17809.83
239.255	17776.53
239.327	17749.59
239.399	17710.8
239.471	17690.03
239.542	17666.32
239.614	17651.72
239.686	17586.85
239.758	17568.68
239.829	17521.07
239.901	17511.14
239.973	17474.37
240.044	17438.56
240.116	17400.97
240.188	17371.33
240.259	17335.33
240.331	17292.3
240.403	17266.61
240.474	17220.34
240.546	17183.71
240.618	17121.88
240.689	17082.36
240.761	17048.39
240.833	17024.68
240.904	16993.59
240.976	16952.53
241.048	16917.68
241.119	16884.67
241.191	16867.99
241.262	16845.87
241.334	16806.93
241.405	16762.06
241.477	16719.99
241.549	16686.68
241.62	16652.66
241.692	16624.13
241.763	16619.02
241.835	16584.8
241.906	16556.56
241.978	16508.84
242.049	16494.96
242.121	16477.08
242.192	16453.7
242.264	16413.31
242.335	16366.42
242.407	16336.58
242.478	16306.17
242.55	16274.46
242.621	16238.26
242.693	16199.89
242.764	16158.64
242.836	16117.86
242.907	16090.87
242.979	16063.74
243.05	16037.8
243.122	16013.85
243.193	15976.25
243.264	15907.28
243.336	15868.53
243.407	15844.29
243.479	15833.63
243.55	15804.67
243.622	15774.11
243.693	15739.21
243.764	15710.82
243.836	15666.04
243.907	15640.88
243.978	15605.65
244.05	15586.17
244.121	15532.04
244.192	15515.17
244.264	15467.89
244.335	15443.64
244.407	15396.84
244.478	15376.74
244.549	15342.8
244.62	15296.67
244.692	15267.71
244.763	15241.48
244.834	15212.08
244.906	15169.28
244.977	15146.72
245.048	15130.04
245.119	15086.32
245.191	15052.34
245.262	15012.52
245.333	15003.8
245.405	14965.52
245.476	14941.71
245.547	14905.22
245.618	14895.87
245.689	14860.05
245.761	14838.46
245.832	14807.56
245.903	14793.19
245.974	14761.28
246.045	14726.19
246.117	14718.38
246.188	14679.77
246.259	14645.16
246.33	14616.48
246.401	14582.44
246.473	14529.61
246.544	14488.98
246.615	14475.72
246.686	14438.75
246.757	14418.79
246.828	14374.34
246.899	14359.74
246.97	14310.04
247.042	14277.6
247.113	14243.61
247.184	14235.61
247.255	14204.56
247.326	14177.66
247.397	14144.16
247.468	14119.24
247.539	14090.56
247.61	14043.36
247.681	14033.91
247.752	14024.66
247.823	13985.85
247.894	13964.06
247.965	13931.43
248.037	13900.87
248.108	13852.03
248.179	13820.02
248.25	13793.12
248.321	13782.9
248.392	13738.6
248.463	13744.24
248.534	13711.8
248.605	13705
248.675	13676.08
248.746	13656.36
248.817	13641.18
248.888	13621.9
248.959	13575.52
249.03	13566.84
249.101	13542.11
249.172	13509.62
249.243	13458.67
249.314	13454.62
249.385	13428.63
249.456	13411.96
249.527	13387.85
249.598	13375.27
249.669	13357.72
249.739	13343.12
249.81	13320.36
249.881	13288.93
249.952	13256.73
250.023	13242.41
250.094	13199.56
250.165	13167.11
250.235	13142.53
250.306	13108.88
250.377	13071.81
250.448	13054.46
250.519	13004.42
250.59	13000.71
250.66	12970.05
250.731	12965.95
250.802	12934.37
250.873	12925.17
250.944	12902.51
251.014	12866.16
251.085	12867.51
251.156	12852.09
251.227	12837.82
251.297	12834.83
251.368	12823.5
251.439	12807.55
251.51	12789.28
251.58	12761.99
251.651	12731.48
251.722	12723.19
251.792	12683.9
251.863	12662.93
251.934	12664.42
252.005	12668.33
252.075	12641.77
252.146	12632.99
252.217	12622.34
252.287	12614.63
252.358	12580.5
252.429	12580.74
252.499	12558.23
252.57	12535.86
252.641	12512.82
252.711	12492.24
252.782	12445.96
252.852	12446.06
252.923	12425.57
252.994	12401.32
253.064	12386.96
253.135	12359.82
253.205	12332.73
253.276	12342.13
253.347	12342.23
253.417	12310.94
253.488	12287.37
253.558	12262.3
253.629	12243.22
253.699	12231.6
253.77	12218.58
253.841	12199.01
253.911	12178.62
253.982	12163.68
254.052	12149.99
254.123	12141.46
254.193	12119.33
254.264	12141.7
254.334	12115.96
254.405	12087.33
254.475	12066.41
254.546	12043.18
254.616	12035.18
254.687	12015.12
254.757	11998.49
254.827	11972.27
254.898	11954.15
254.968	11932.46
255.039	11906.43
255.109	11894.04
255.18	11855.97
255.25	11819.91
255.321	11811.82
255.391	11779.47
255.461	11787.23
255.532	11741.73
255.602	11717.3
255.673	11674.83
255.743	11641.14
255.813	11589.81
255.884	11582.87
255.954	11567.64
256.024	11569.76
256.095	11551.98
256.165	11524.07
256.235	11503.92
256.306	11479.54
256.376	11474.91
256.446	11466.43
256.517	11457.22
256.587	11447.39
256.657	11433.03
256.728	11418.18
256.798	11398.04
256.868	11380.4
256.938	11346.08
257.009	11338.52
257.079	11330.76
257.149	11340.97
257.219	11308.01
257.29	11303.09
257.36	11263.72
257.43	11254.66
257.5	11219.86
257.571	11194.27
257.641	11187.28
257.711	11158.61
257.781	11141.69
257.852	11128.01
257.922	11092.78
257.992	11074.51
258.062	11053.89
258.132	11055.09
258.202	11031.14
258.273	11017.79
258.343	11019.05
258.413	10997.51
258.483	10980.69
258.553	10945.36
258.623	10919.58
258.693	10902.23
258.764	10902.23
258.834	10902.28
258.904	10881.08
258.974	10855.59
259.044	10838.72
259.114	10822.97
259.184	10815.59
259.254	10803.02
259.324	10766.59
259.394	10760.23
259.464	10761.48
259.535	10739.6
259.605	10712.62
259.675	10687.61
259.745	10668.24
259.815	10628.58
259.885	10607.67
259.955	10619.48
260.025	10594.86
260.095	10582.43
260.165	10575.06
260.235	10575.15
260.305	10551.74
260.375	10528.18
260.445	10534.58
260.515	10541.67
260.585	10540.8
260.655	10518.44
260.725	10511.51
260.795	10503.75
260.865	10508.66
260.934	10474.79
261.004	10467.81
261.074	10456
261.144	10464.24
261.214	10463.71
261.284	10458.46
261.354	10457.35
261.424	10432.82
261.494	10441.35
261.564	10422.46
261.634	10415.24
261.703	10377.27
261.773	10370.86
261.843	10371.73
261.913	10358.87
261.983	10330.34
262.053	10317.29
262.123	10305.87
262.192	10275.13
262.262	10274.32
262.332	10246.8
262.402	10247.48
262.472	10236.01
262.541	10197
262.611	10187.26
262.681	10159.66
262.751	10156.62
262.821	10140.2
262.89	10109.46
262.96	10101.66
263.03	10109.85
263.1	10096.07
263.169	10089.37
263.239	10084.36
263.309	10088.31
263.379	10081.47
263.448	10058.5
263.518	10049.15
263.588	10033.83
263.657	10042.98
263.727	10035.42
263.797	10013.6
263.867	10000.69
263.936	9967.21
264.006	9972.03
264.076	9960.57
264.145	9945.54
264.215	9920.49
264.285	9916.06
264.354	9880.95
264.424	9858.99
264.494	9830.57
264.563	9812.98
264.633	9820.83
264.702	9809.18
264.772	9777.58
264.842	9757.16
264.911	9759.18
264.981	9733.74
265.05	9724.98
265.12	9707.98
265.19	9691.5
265.259	9692.42
265.329	9680.52
265.398	9674.36
265.468	9693.86
265.537	9672.87
265.607	9673.4
265.676	9671.52
265.746	9665.06
265.815	9670.65
265.885	9655.14
265.955	9631.26
266.024	9613.87
266.094	9573.27
266.163	9573.61
266.232	9571.2
266.302	9557.24
266.371	9545.39
266.441	9535.76
266.51	9528.73
266.58	9514.23
266.649	9497.86
266.719	9494.39
266.788	9488.66
266.858	9502.91
266.927	9460.68
266.996	9447.63
267.066	9439.3
267.135	9417.58
267.205	9411.46
267.274	9408.62
267.343	9415.32
267.413	9409.54
267.482	9417.77
267.552	9423.79
267.621	9398.22
267.69	9372.31
267.76	9365.48
267.829	9356.18
267.898	9341.3
267.968	9323.3
268.037	9319.2
268.106	9322.38
268.176	9301.92
268.245	9288.96
268.314	9265.32
268.384	9266.09
268.453	9264.16
268.522	9254.29
268.592	9247.5
268.661	9224.54
268.73	9210.33
268.799	9191.36
268.869	9196.46
268.938	9164.01
269.007	9144.46
269.076	9129.3
269.146	9128.19
269.215	9124.58
269.284	9131.47
269.353	9120.35
269.422	9110.86
269.492	9097.05
269.561	9046.06
269.63	9040.86
269.699	9024.98
269.768	9019.25
269.838	9015.78
269.907	9014.77
269.976	8992.29
270.045	8968.66
270.114	8967.89
270.183	8959.75
270.253	8950.65
270.322	8922.78
270.391	8915.03
270.46	8923.41
270.529	8926.15
270.598	8927.4
270.667	8912.72
270.736	8892.31
270.806	8886.43
270.875	8893.12
270.944	8877.34
271.013	8913.25
271.082	8908.14
271.151	8903.19
271.22	8875.17
271.289	8858.03
271.358	8840.99
271.427	8835.46
271.496	8834.5
271.565	8813.12
271.634	8803.59
271.703	8833.2
271.772	8838.11
271.841	8827
271.91	8799.03
271.979	8793.54
272.048	8766.78
272.117	8769.38
272.186	8753.35
272.255	8758.36
272.324	8743.63
272.393	8739.25
272.462	8715.85
272.531	8700.98
272.6	8691.21
272.669	8697.75
272.738	8686.01
272.807	8685.43
272.876	8666.14
272.945	8690.06
273.013	8696.94
273.082	8699.2
273.151	8650.87
273.22	8645.67
273.289	8635.76
273.358	8645.72
273.427	8631.76
273.496	8630.75
273.564	8625.12
273.633	8627.96
273.702	8600.53
273.771	8592.78
273.84	8596.15
273.909	8597.88
273.977	8600.19
274.046	8597.16
274.115	8596.92
274.184	8581.38
274.253	8574.45
274.322	8582.19
274.39	8550.48
274.459	8536.38
274.528	8512.56
274.597	8503.03
274.665	8499.09
274.734	8504.76
274.803	8498.6
274.872	8496.68
274.94	8487.58
275.009	8542.04
275.078	8530.2
275.147	8533.28
275.215	8532.13
275.284	8534.58
275.353	8519.57
275.421	8490.74
275.49	8505.23
275.559	8500.95
275.627	8497.77
275.696	8482.62
275.765	8488.05
275.833	8483.05
275.902	8482.71
275.971	8493.35
276.039	8511.78
276.108	8521.55
276.177	8525.49
276.245	8515.53
276.314	8506.48
276.383	8509.66
276.451	8450.53
276.52	8450.29
276.588	8457.56
276.657	8465.31
276.725	8448.56
276.794	8447.89
276.863	8459.24
276.931	8431.57
277	8432.34
277.068	8451.35
277.137	8475.21
277.205	8471.8
277.274	8490.52
277.342	8500.72
277.411	8485.32
277.48	8468.53
277.548	8455.92
277.617	8457.89
277.685	8448.89
277.754	8457.36
277.822	8449.23
277.89	8455.01
277.959	8448.03
278.027	8430.32
278.096	8418.87
278.164	8454.24
278.233	8450.83
278.301	8447.65
278.37	8457.28
278.438	8443.37
278.507	8436.83
278.575	8408.77
278.643	8406.08
278.712	8385.34
278.78	8364.12
278.849	8379.27
278.917	8393.28
278.985	8389.57
279.054	8388.32
279.122	8402.03
279.191	8399.39
279.259	8400.2
279.327	8380.14
279.396	8392.12
279.464	8393.61
279.532	8398.47
279.601	8392.79
279.669	8389.9
279.737	8399.52
279.806	8401.79
279.874	8414.92
279.942	8411.51
280.011	8411.46
280.079	8413.67
280.147	8432.05
280.215	8442.64
280.284	8432.05
280.352	8420.07
280.42	8427.53
280.488	8419.69
280.557	8410.54
280.625	8413.48
280.693	8407.08
280.761	8413.14
280.83	8404.29
280.898	8416.8
280.966	8398.23
281.034	8359.49
281.102	8348.04
281.171	8339.33
281.239	8344.72
281.307	8339.33
281.375	8332.31
281.443	8358.53
281.512	8353
281.58	8359.16
281.648	8345.01
281.716	8342.08
281.784	8338.33
281.852	8329.57
281.92	8329.9
281.989	8343.43
282.057	8329.95
282.125	8375.77
282.193	8368.84
282.261	8368.22
282.329	8362.15
282.397	8360.61
282.465	8365.28
282.533	8380.58
282.601	8374.13
282.67	8355.61
282.738	8346.94
282.806	8362.53
282.874	8341.41
282.942	8349.59
283.01	8344.44
283.078	8351.8
283.146	8355.21
283.214	8361.52
283.282	8366.23
283.35	8379.71
283.418	8371.43
283.486	8373.31
283.554	8332.06
283.622	8333.65
283.69	8335.29
283.758	8328.6
283.826	8340.24
283.894	8353.62
283.962	8374.65
284.03	8390.62
284.098	8386.39
284.165	8378.16
284.233	8372.1
284.301	8372.05
284.369	8361.03
284.437	8347.08
284.505	8345.83
284.573	8360.69
284.641	8355.59
284.709	8359.68
284.777	8341.35
284.845	8350.16
284.912	8356.84
284.98	8364.64
285.048	8356.03
285.116	8353.09
285.184	8374.02
285.252	8369.45
285.319	8354.35
285.387	8341.5
285.455	8322.3
285.523	8333.22
285.591	8332.02
285.659	8332.21
285.726	8340.2
285.794	8327.11
285.862	8329.9
285.93	8328.84
285.997	8314.12
286.065	8309.02
286.133	8299.49
286.201	8296.7
286.269	8285.3
286.336	8273.85
286.404	8267.3
286.472	8277.98
286.539	8258.31
286.607	8237.57
286.675	8240.46
286.743	8247.48
286.81	8241.61
286.878	8255.9
286.946	8241.85
287.013	8246.18
287.081	8250.03
287.149	8238.19
287.216	8261.43
287.284	8254.31
287.352	8252.53
287.419	8257.25
287.487	8270.96
287.555	8276.59
287.622	8275.87
287.69	8280.25
287.758	8295.16
287.825	8291.99
287.893	8281.74
287.96	8298
288.028	8311.37
288.096	8309.06
288.163	8314.02
288.231	8300.11
288.298	8297.56
288.366	8316.33
288.433	8311.9
288.501	8302.09
288.569	8307.96
288.636	8302.9
288.704	8321.57
288.771	8332.83
288.839	8323.93
288.906	8317.29
288.974	8326.92
289.041	8321.34
289.109	8313.69
289.176	8322.78
289.244	8329.85
289.311	8347.32
289.379	8352.76
289.446	8351.07
289.514	8358.34
289.581	8359.2
289.649	8369.93
289.716	8373.54
289.783	8369.69
289.851	8392.21
289.918	8394.81
289.986	8403.95
290.053	8404.38
290.121	8395.67
290.188	8399.95
290.255	8422.62
290.323	8418.53
290.39	8413.09
290.458	8421.46
290.525	8427.43
290.592	8417.42
290.66	8415.97
290.727	8408.32
290.794	8426.85
290.862	8427.33
290.929	8428.2
290.996	8426.18
291.064	8428.05
291.131	8434.26
291.198	8442.34
291.266	8438.98
291.333	8442.73
291.4	8442.58
291.468	8460.44
291.535	8464.82
291.602	8467.61
291.669	8467.85
291.737	8470.83
291.804	8470.64
291.871	8484.4
291.938	8495.66
292.006	8524.78
292.073	8536.19
292.14	8548.31
292.207	8536.81
292.275	8534.12
292.342	8544.99
292.409	8571.66
292.476	8596.87
292.543	8593.27
292.611	8595.29
292.678	8616.42
292.745	8636.1
292.812	8650.34
292.879	8641.49
292.946	8644.81
293.014	8657.37
293.081	8665.75
293.148	8680.61
293.215	8693.46
293.282	8691.78
293.349	8703.14
293.416	8681.24
293.484	8699.53
293.551	8704.92
293.618	8730.38
293.685	8757.19
293.752	8745.06
293.819	8738.56
293.886	8724.51
293.953	8733.22
294.02	8747.51
294.087	8751.17
294.154	8749.58
294.221	8764.36
294.288	8772.06
294.356	8786.65
294.423	8794.83
294.49	8780.3
294.557	8796.42
294.624	8793.53
294.691	8818.03
294.758	8817.36
294.825	8829.87
294.892	8816.01
294.959	8820.68
295.026	8822.36
295.093	8821.79
295.16	8833.05
295.226	8838.05
295.293	8866.07
295.36	8871.65
295.427	8883.98
295.494	8894.81
295.561	8897.84
295.628	8913.25
295.695	8924.37
295.762	8929.62
295.829	8935.15
295.896	8956.81
295.963	8965.91
296.03	8974.82
296.096	8981.75
296.163	8994.7
296.23	9008.66
296.297	9023.39
296.364	9027.19
296.431	9032.44
296.498	9027.58
296.564	9045
296.631	9047.02
296.698	9030.03
296.765	9049.09
296.832	9038.69
296.899	9024.88
296.965	9048.85
297.032	9032.24
297.099	9056.65
297.166	9062.19
297.233	9053.86
297.299	9047.41
297.366	9045.92
297.433	9046.83
297.5	9050.54
297.566	9046.78
297.633	9038.55
297.7	9043.46
297.767	9039.47
297.833	9043.89
297.9	9044.09
297.967	9031.23
298.033	9042.31
298.1	9078.08
298.167	9069.9
298.234	9074.71
298.3	9081.21
298.367	9072.21
298.434	9081.84
298.5	9063.01
298.567	9057.04
298.634	9059.3
298.7	9081.59
298.767	9082.27
298.834	9099.84
298.9	9097.72
298.967	9096.66
299.033	9111.92
299.1	9128.34
299.167	9146.2
299.233	9138.74
299.3	9157.23
299.366	9173.69
299.433	9195.99
299.5	9167.39
299.566	9171.77
299.633	9187.7
299.699	9200.08
299.766	9201.28
299.832	9210.19
299.899	9221.65
299.965	9238.6
300.032	9235.8
300.099	9240.67
300.165	9244.52
300.232	9238.98
300.298	9239.08
300.365	9256.94
300.431	9257.18
300.498	9250.01
300.564	9253.57
300.631	9266.14
300.697	9274.37
300.763	9276.06
300.83	9264.11
300.896	9276.58
300.963	9291.12
301.029	9291.36
301.096	9295.22
301.162	9305.09
301.229	9294.69
301.295	9286.26
301.361	9286.21
301.428	9295.17
301.494	9276.53
301.561	9282.6
301.627	9284.33
301.693	9283.66
301.76	9277.79
301.826	9275.33
301.892	9282.99
301.959	9289.15
302.025	9285.1
302.092	9281.97
302.158	9285.2
302.224	9292.62
302.291	9281.25
302.357	9275.62
302.423	9266.86
302.49	9261.27
302.556	9274.51
302.622	9273.79
302.688	9288.24
302.755	9305.77
302.821	9308.08
302.887	9324.5
302.954	9321.85
303.02	9328.35
303.086	9339.71
303.152	9338.36
303.219	9333.4
303.285	9344.96
303.351	9352.81
303.417	9353.87
303.483	9338.27
303.55	9332.59
303.616	9333.07
303.682	9338.94
303.748	9336.54
303.815	9355.9
303.881	9359.07
303.947	9343.86
304.013	9344.43
304.079	9334.61
304.145	9307.64
304.212	9306.34
304.278	9290.79
304.344	9285.64
304.41	9271.53
304.476	9255.88
304.542	9253.62
304.608	9260.7
304.674	9239.7
304.741	9242.69
304.807	9248.95
304.873	9258.82
304.939	9282.94
305.005	9260.41
305.071	9255.21
305.137	9251.98
305.203	9223.48
305.269	9225.79
305.335	9235.85
305.401	9238.07
305.467	9238.26
305.533	9251.65
305.599	9260.26
305.666	9273.7
305.732	9277.12
305.798	9293.39
305.864	9323.63
305.93	9329.55
305.996	9335.67
306.062	9334.75
306.128	9317.23
306.194	9304.85
306.259	9307.5
306.325	9294.59
306.391	9307.79
306.457	9322.57
306.523	9324.54
306.589	9351.99
306.655	9343.18
306.721	9325.31
306.787	9309.67
306.853	9316.55
306.919	9297.92
306.985	9293.34
307.051	9285.06
307.117	9280.15
307.183	9273.17
307.248	9247.89
307.314	9249.28
307.38	9241.19
307.446	9248.42
307.512	9239.94
307.578	9241.39
307.644	9236.33
307.709	9238.26
307.775	9231.47
307.841	9219.72
307.907	9219.24
307.973	9199.45
308.039	9199.49
308.104	9202.77
308.17	9205.27
308.236	9194
308.302	9194.44
308.368	9179.32
308.433	9180.24
308.499	9172
308.565	9160.16
308.631	9159.92
308.696	9135.8
308.762	9122.61
308.828	9119.19
308.894	9106.48
308.959	9092.13
309.025	9079.23
309.091	9073.36
309.156	9064.35
309.222	9067.19
309.288	9058.91
309.354	9040.33
309.419	9038.5
309.485	9024.83
309.551	9033.69
309.616	9018.71
309.682	9022.66
309.748	9015.49
309.813	9011.64
309.879	9000.81
309.945	8992.53
310.01	8982.71
310.076	8988.34
310.141	8986.27
310.207	8972.79
310.273	8972.21
310.338	8972.84
310.404	8964.07
310.469	8948.43
310.535	8939.33
310.601	8916.66
310.666	8915.79
310.732	8924.5
310.797	8911.12
310.863	8906.02
310.928	8893.16
310.994	8901.3
311.059	8892.63
311.125	8890.71
311.191	8894.99
311.256	8885.9
311.322	8889.51
311.387	8867.94
311.453	9311.03
311.518	9286.97
311.584	9285.23
311.649	9288.22
311.715	9282.49
311.78	9281.09
311.846	9273.44
311.911	9287.79
311.976	9292.46
312.042	9277.63
312.107	9263.62
312.173	9260.4
312.238	9251.69
312.304	9245.96
312.369	9235.27
312.434	9225.07
312.5	9220.54
312.565	9190.17
312.631	9196.14
312.696	9189.64
312.761	9197.34
312.827	8739.57
312.892	8778.8
312.958	8766.57
313.023	8764.02
313.088	8759.4
313.154	8744.29
313.219	8737.31
313.284	8721.96
313.35	8713.92
313.415	8704.49
313.48	8695.25
313.546	8691.97
313.611	8698.61
313.676	8693.27
313.741	8682.54
313.807	8685.43
313.872	8689.04
313.937	8700.59
314.003	8710.21
314.068	8709.35
314.133	8710.16
314.198	8708.53
314.264	8690.23
314.329	8688.55
314.394	8681.67
314.459	8673.53
314.525	8693.99
314.59	8690.62
314.655	8674.78
314.72	8677.62
314.785	8679.12
314.851	8679.4
314.916	8661.31
314.981	8652.98
315.046	8642.3
315.111	8631.28
315.176	8623.87
315.242	8621.41
315.307	8617.76
315.372	8596.1
315.437	8585.8
315.502	8581.71
315.567	8588.69
315.632	8569
315.698	8574.34
315.763	8572.03
315.828	8564.67
315.893	8553.94
315.958	8546
316.023	8538.93
316.088	8527.57
316.153	8513.33
316.218	8508.51
316.283	8495
316.348	8472.43
316.413	8474.26
316.479	8461.22
316.544	8428.6
316.609	8397.37
316.674	8360.71
316.739	8335.02
316.804	8302.26
316.869	8269.3
316.934	8230.23
316.999	8205.8
317.064	8149.32
317.129	8107.75
317.194	8077.83
317.259	8034.83
317.324	7988.61
317.389	7949.99
317.454	7913.24
317.518	7879.62
317.583	7848.83
317.648	7830.85
317.713	7795.98
317.778	7730.63
317.843	7701
317.908	7667.49
317.973	7636.43
318.038	7611.53
318.103	7570.76
318.168	7544.32
318.233	7514.85
318.297	7471.24
318.362	7437.35
318.427	7400.01
318.492	7379.05
318.557	7329.41
318.622	7300.47
318.687	7284.22
318.751	7243.24
318.816	7208.1
318.881	7170.19
318.946	7121.31
319.011	7071.05
319.075	7034.48
319.14	7005.86
319.205	6968.19
319.27	6933.07
319.335	6890.12
319.399	6855.53
319.464	6834.3
319.529	6779.31
319.594	6742.56
319.658	6714.37
319.723	6669.27
319.788	6648.14
319.853	6595.45
319.917	6572.36
319.982	6520.31
320.047	6482.66
320.112	6454.96
320.176	6405.13
320.241	6371.72
320.306	6342.97
320.37	6309.08
320.435	6281.72
320.5	6256.14
320.564	6215.01
320.629	6178.2
320.694	6148.5
320.758	6102.82
320.823	6061.02
320.888	6040.82
320.952	5994
321.017	5950.58
321.082	5912.78
321.146	5874.88
321.211	5842.79
321.275	5807.49
321.34	5767.37
321.405	5721.62
321.469	5678.89
321.534	5641.6
321.598	5598.36
321.663	5566.94
321.727	5534.91
321.792	5486.93
321.857	5442.15
321.921	5409.61
321.986	5368.3
322.05	5310.14
322.115	5280.09
322.179	5232.71
322.244	5176.66
322.308	5143.6
322.373	5099.01
322.437	5056.38
322.502	5032.52
322.566	4989.74
322.631	4949.56
322.695	4917.77
322.76	4873.34
322.824	4841.93
322.889	4801.01
322.953	4758.89
323.018	4696.8
323.082	4636.5
323.146	4587.03
323.211	4539.61
323.275	4490.03
323.34	4446.98
323.404	4417.28
323.468	4369.72
323.533	4329.98
323.597	4286.58
323.662	4232.54
323.726	4200.83
323.79	4159.86
323.855	4095.57
323.919	4048.29
323.983	4006.32
324.048	3937.96
324.112	4071.65
324.177	3950
324.241	3746.06
324.305	3544.65
324.37	3346.11
324.434	3156.02
324.498	3114.23
324.562	3062.91
324.627	3007.12
324.691	2952.56
324.755	2887.6
324.82	2810.9
324.884	2734.5
324.948	2664.17
325.012	2575.85
325.077	2452.5
