Data from 20250704_urea_0.1M_MAYP1162681_11-18-38-695.txt Node
Date: Fri Jul 04 11:18:38 BST 2025
User: adleo
Spectrometer: MAYP116268
Trigger mode: 0
Integration Time (sec): 1.000000E0
Scans to average: 1
Electric dark correction enabled: true
Nonlinearity correction enabled: true
Boxcar width: 10
XAxis mode: Wavelengths
Number of Pixels in Spectrum: 2068
>>>>>Begin Spectral Data<<<<<
179.565	1247.06
179.642	1305.12
179.718	1350.33
179.795	1390.15
179.871	1423.26
179.948	1443.44
180.024	1467.06
180.101	1489.82
180.177	1502.26
180.254	1523.49
180.33	1546.02
180.407	1603.62
180.483	1701.77
180.56	1796.46
180.636	1882.35
180.712	1871.03
180.789	1882.87
180.865	1893.47
180.942	1902.07
181.018	1913.43
181.095	1925.32
181.171	1927.99
181.248	1929.84
181.324	1945.82
181.4	1953
181.477	1964.03
181.553	1977.34
181.63	1998.08
181.706	2015.77
181.782	2026.75
181.859	2027.99
181.935	2035.07
182.011	2031.65
182.088	2047.63
182.164	2066.95
182.24	2080.45
182.317	2090.72
182.393	2089.91
182.469	2104.61
182.546	2117.4
182.622	2122.16
182.698	2115.45
182.775	2128.06
182.851	2142.76
182.927	2133.1
183.003	2129.11
183.08	2124.54
183.156	2131.58
183.232	2124.01
183.308	2111.5
183.385	2118.64
183.461	2136.38
183.537	2137.43
183.613	2149.84
183.69	2144.66
183.766	2134.09
183.842	2142.13
183.918	2145.75
183.995	2157.02
184.071	2160.92
184.147	2158.17
184.223	2145.04
184.299	2161.12
184.375	2150.75
184.452	2158.03
184.528	2209.85
184.604	2219.93
184.68	2231.16
184.756	2240.77
184.832	2247.43
184.908	2250.34
184.985	2249.48
185.061	2233.64
185.137	2241.16
185.213	2230.17
185.289	2226.27
185.365	2219.13
185.441	2218.75
185.517	2231.36
185.593	2228.27
185.669	2225.13
185.745	2234.55
185.822	2249.77
185.898	2240.92
185.974	2248.77
186.05	2239.91
186.126	2205.32
186.202	2197.9
186.278	2193.76
186.354	2184.62
186.43	2192.67
186.506	2193.05
186.582	2195.23
186.658	2201.51
186.734	2181.34
186.81	2184.63
186.886	2189.43
186.962	2204.56
187.038	2203.18
187.114	2198.47
187.19	2206.65
187.266	2199.09
187.341	2197.42
187.417	2191.33
187.493	2189.57
187.569	2192.71
187.645	2186.77
187.721	2176.68
187.797	2184.81
187.873	2188.48
187.949	2183.53
188.025	2175.39
188.101	2179.1
188.176	2183.71
188.252	2179.05
188.328	2185.38
188.404	2183.24
188.48	2179.24
188.556	2170.72
188.632	2166.01
188.707	2165.25
188.783	2161.3
188.859	2156.36
188.935	2148.17
189.011	2159.21
189.086	2153.98
189.162	2145.37
189.238	2140.71
189.314	2137.38
189.39	2131.1
189.465	2125.01
189.541	2138.19
189.617	2125.53
189.693	2121.35
189.768	2124.06
189.844	2153.19
189.92	2146.29
189.996	2157.38
190.071	2168.99
190.147	2165.42
190.223	2175.84
190.298	2169.27
190.374	2159.33
190.45	2173.27
190.526	2179.31
190.601	2169.03
190.677	2171.46
190.753	2199.83
190.828	2205.68
190.904	2223.15
190.98	2238.28
191.055	2249.65
191.131	2243.7
191.207	2262.54
191.282	2270.1
191.358	2260.64
191.433	2243.5
191.509	2260.71
191.585	2257.05
191.66	2255.72
191.736	2264.52
191.811	2255.53
191.887	2272.57
191.963	2294.79
192.038	2294.7
192.114	2296.5
192.189	2303.78
192.265	2304.5
192.34	2283.59
192.416	2279.79
192.491	2273.55
192.567	2278.31
192.642	2280.6
192.718	2278.17
192.793	2266.13
192.869	2261.85
192.944	2265.09
193.02	2273.75
193.095	2274.51
193.171	2278.41
193.246	2278.89
193.322	2274.23
193.397	2276.03
193.473	2260.13
193.548	2240.57
193.624	2248.57
193.699	2246.71
193.775	2261.04
193.85	2257.38
193.925	2267.04
194.001	2268.37
194.076	2258.95
194.152	2246.1
194.227	2236.91
194.302	2227.21
194.378	2232.49
194.453	2232.21
194.529	2242.82
194.604	2228.26
194.679	2223.83
194.755	2204.9
194.83	2218.66
194.905	2216.23
194.981	2227.42
195.056	2221.47
195.131	2229.8
195.207	2228.84
195.282	2217.66
195.357	2199.34
195.433	2214.71
195.508	2200.48
195.583	2207.76
195.659	2222.8
195.734	2234.03
195.809	2236.79
195.884	2246.59
195.96	2245.87
196.035	2260.86
196.11	2256.82
196.185	2264.81
196.261	2267.38
196.336	2300.6
196.411	2285.31
196.486	2295.02
196.561	2285.31
196.637	2295.07
196.712	2308.97
196.787	2311.54
196.862	2328.48
196.937	2340.47
197.013	2345.42
197.088	2358.13
197.163	2380.79
197.238	2399.27
197.313	2398.18
197.388	2409.51
197.464	2439.6
197.539	2450.41
197.614	2444.41
197.689	2459.41
197.764	2478.31
197.839	2500.17
197.914	2491.5
197.989	2514.83
198.065	2525.78
198.14	2580.54
198.215	2605.2
198.29	2618.78
198.365	2632.07
198.44	2642.59
198.515	2670.04
198.59	2687.9
198.665	2715.44
198.74	2720.87
198.815	2718.53
198.89	2744.31
198.965	2774.95
199.04	2771.71
199.115	2790.34
199.19	2832.79
199.265	2833.27
199.34	2844.18
199.415	2880.81
199.49	2902.34
199.565	2913.68
199.64	2936.94
199.715	2929.35
199.79	2940.7
199.865	2946.32
199.94	2944.42
200.015	2976.74
200.09	2985.04
200.165	2990.18
200.24	2994.52
200.315	3040.38
200.39	3057.73
200.464	3065.27
200.539	3066.89
200.614	3085.05
200.689	3107.8
200.764	3114.62
200.839	3136.17
200.914	3140.93
200.989	3126.09
201.063	3141.74
201.138	3125.15
201.213	3128.44
201.288	3111.8
201.363	3112.56
201.438	3117.33
201.512	3137.16
201.587	3119.66
201.662	3121.09
201.737	3136.45
201.812	3142.6
201.886	3106.42
201.961	3119.49
202.036	3104.76
202.111	3105.52
202.186	3081.41
202.26	3064
202.335	3045.25
202.41	3041.3
202.485	3028.19
202.559	3011.26
202.634	2990.86
202.709	3004.58
202.784	2990.66
202.858	2993.95
202.933	2983.89
203.008	2981.07
203.082	2966.68
203.157	2975.45
203.232	2943.71
203.306	2931.45
203.381	2912.57
203.456	2903.22
203.53	2892.06
203.605	2885.34
203.68	2876.76
203.754	2881.85
203.829	2887.86
203.904	2887.53
203.978	2896.68
204.053	2926.01
204.127	2938.26
204.202	2960.96
204.277	2968.68
204.351	2992.05
204.426	3019.15
204.5	3046.57
204.575	3046.72
204.65	3097.49
204.724	3134.1
204.799	3187.18
204.873	3231
204.948	3283.15
205.022	3327.01
205.097	3379.31
205.171	3455.4
205.246	3531.45
205.32	3597.08
205.395	3666.97
205.469	3731.86
205.544	3815.65
205.618	3878.4
205.693	3975.29
205.767	4051.77
205.842	4165.48
205.916	4258.11
205.991	4349.05
206.065	4458.72
206.14	4581.29
206.214	4691.34
206.289	4795.92
206.363	4928.43
206.438	5053.43
206.512	5185.76
206.586	5332.19
206.661	5469.71
206.735	5583.35
206.81	5715.85
206.884	5878.42
206.958	6008.98
207.033	6173.14
207.107	6332.54
207.181	6518.93
207.256	6668.07
207.33	6850.41
207.405	7029.86
207.479	7210.04
207.553	7379.07
207.628	7529.92
207.702	7713.54
207.776	7874.82
207.851	8054.2
207.925	8245.87
207.999	8425.71
208.073	8602.78
208.148	8783.68
208.222	8949.88
208.296	9168.29
208.371	9366.09
208.445	9566.07
208.519	9782.6
208.593	9993.16
208.668	10177.65
208.742	10370.22
208.816	10563.23
208.89	10768.44
208.965	10949.81
209.039	11150.66
209.113	11363.88
209.187	11582.64
209.261	11777.48
209.336	11994.5
209.41	12205.85
209.484	12396.14
209.558	12604.12
209.632	12812.59
209.707	13018.56
209.781	13245.64
209.855	13449.39
209.929	13663.95
210.003	13852.67
210.077	14050.55
210.151	14277.15
210.226	14490.45
210.3	14703.55
210.374	14907.45
210.448	15092.11
210.522	15286.51
210.596	15474.02
210.67	15664.03
210.744	15885.65
210.818	16090.16
210.892	16285.51
210.966	16458.54
211.041	16652.1
211.115	16822.28
211.189	17014.97
211.263	17197.77
211.337	17359.66
211.411	17545.54
211.485	17695.85
211.559	17874.12
211.633	18022.55
211.707	18150.21
211.781	18321.34
211.855	18443.7
211.929	18600.51
212.003	18741.42
212.077	18908.4
212.151	19076.21
212.225	19235.14
212.299	19375.14
212.373	19505.68
212.447	19636.96
212.52	19803.75
212.594	19944.09
212.668	20096.37
212.742	20223.84
212.816	20357.14
212.89	20481.87
212.964	20607.13
213.038	20749.01
213.112	20885.07
213.186	21033.46
213.26	21139.35
213.333	21216.27
213.407	21348.62
213.481	21470.08
213.555	21599.73
213.629	21710.36
213.703	21811.63
213.777	21920.82
213.85	22014.34
213.924	22157.56
213.998	22275.67
214.072	22392.24
214.146	22488.33
214.219	22588.03
214.293	22687.63
214.367	22790.57
214.441	22909.75
214.515	22990.22
214.588	23060.62
214.662	23133.57
214.736	23217.18
214.81	23323.84
214.883	23423.69
214.957	23506.1
215.031	23587.88
215.105	23645.31
215.178	23713.7
215.252	23785.65
215.326	23842.08
215.4	23906.65
215.473	23940.99
215.547	24002.54
215.621	24063.57
215.694	24132.3
215.768	24193.42
215.842	24255.16
215.915	24303.78
215.989	24336.15
216.063	24398.81
216.136	24466.93
216.21	24524.96
216.284	24586.76
216.357	24640.22
216.431	24696.8
216.504	24757.02
216.578	24832.38
216.652	24913.77
216.725	24965.98
216.799	25032.62
216.873	25084.53
216.946	25135.43
217.02	25174.51
217.093	25205.88
217.167	25228.99
217.24	25263.55
217.314	25292.59
217.387	25316.67
217.461	25357.69
217.535	25423.61
217.608	25456.33
217.682	25496
217.755	25544.17
217.829	25577.91
217.902	25623.37
217.976	25662.37
218.049	25684.86
218.123	25707.79
218.196	25740.18
218.27	25764.31
218.343	25768.56
218.417	25813.93
218.49	25849.17
218.563	25919.36
218.637	25973.62
218.71	26013.25
218.784	26053.46
218.857	26107.96
218.931	26158.99
219.004	26198.09
219.077	26229.76
219.151	26255.06
219.224	26287.36
219.298	26317.34
219.371	26359.88
219.444	26373.4
219.518	26400.87
219.591	26429.11
219.665	26482.81
219.738	26516.71
219.811	26534.57
219.885	26577.59
219.958	26610.52
220.031	26629.21
220.105	26639.73
220.178	26657.26
220.251	26691.84
220.325	26724
220.398	26748.87
220.471	26772.68
220.544	26804.41
220.618	26823.68
220.691	26845.89
220.764	26857.67
220.838	26876.51
220.911	26874
220.984	26910.07
221.057	26937.02
221.131	26952.76
221.204	26928.32
221.277	26943.3
221.35	26993.67
221.424	26997.92
221.497	27002.36
221.57	27026.94
221.643	27043.51
221.716	27060.95
221.79	27052.78
221.863	27053.6
221.936	27043.9
222.009	27040.27
222.082	27035.78
222.155	27027.52
222.229	27044.91
222.302	27048.39
222.375	27040.08
222.448	27055.97
222.521	27048.39
222.594	27047.18
222.667	27039.07
222.74	27055.34
222.814	27049.93
222.887	27037.76
222.96	27061.76
223.033	27072.15
223.106	27049.06
223.179	27045.78
223.252	27038.34
223.325	27029.17
223.398	27026.8
223.471	27019.51
223.544	27010.14
223.617	27007.29
223.69	27000.91
223.763	26982.37
223.837	26981.06
223.91	26975.7
223.983	26942.72
224.056	26921.61
224.129	26899.21
224.202	26899.88
224.275	26874.77
224.348	26849.51
224.42	26822.13
224.493	26782.14
224.566	26751.86
224.639	26752.44
224.712	26731.04
224.785	26708.05
224.858	26679.52
224.931	26652.04
225.004	26627.03
225.077	26611.67
225.15	26566.14
225.223	26533.45
225.296	26535.33
225.369	26490.67
225.442	26464.74
225.514	26446.54
225.587	26430.46
225.66	26422.01
225.733	26393.81
225.806	26377.98
225.879	26361.03
225.952	26319.75
226.025	26304.5
226.097	26299.62
226.17	26263.75
226.243	26214.51
226.316	26178.49
226.389	26167.29
226.461	26144.16
226.534	26117.85
226.607	26084.74
226.68	26077.3
226.753	26056.98
226.825	26018.55
226.898	26018.89
226.971	25995.67
227.044	25976.65
227.117	25947.2
227.189	25921.71
227.262	25905.64
227.335	25872.48
227.407	25844.24
227.48	25824.35
227.553	25797.61
227.626	25742.1
227.698	25714.44
227.771	25696.88
227.844	25670.52
227.916	25637.9
227.989	25592.05
228.062	25565.55
228.134	25566.42
228.207	25532.01
228.28	25504.65
228.352	25468.98
228.425	25421.78
228.498	25397.41
228.57	25353.25
228.643	25340.17
228.716	25297.66
228.788	25244.77
228.861	25208.62
228.934	25177.11
229.006	25152.02
229.079	25108.88
229.151	25078.43
229.224	25043.98
229.296	25011.95
229.369	25003.31
229.442	24988.11
229.514	24945.8
229.587	24922.44
229.659	24860.2
229.732	24842.35
229.804	24815.42
229.877	24803.51
229.949	24789.61
230.022	24776.1
230.094	24751.88
230.167	24706.72
230.239	24678.79
230.312	24658.04
230.384	24650.04
230.457	24619.4
230.529	24589.39
230.602	24561.13
230.674	24539.61
230.747	24507.68
230.819	24494.17
230.892	24428.27
230.964	24400.29
231.037	24383.51
231.109	24355.14
231.181	24341.97
231.254	24297.5
231.326	24260.55
231.399	24222.78
231.471	24177.1
231.544	24115.3
231.616	24089.31
231.688	24069.19
231.761	24019.95
231.833	23980.4
231.905	23926.28
231.978	23889.58
232.05	23848.34
232.122	23829.58
232.195	23783.09
232.267	23774.17
232.339	23729.22
232.412	23709.4
232.484	23650.27
232.556	23601.57
232.629	23582.37
232.701	23538.48
232.773	23494.94
232.846	23451.83
232.918	23412.57
232.99	23384.75
233.062	23357.55
233.135	23321.72
233.207	23265.59
233.279	23237.72
233.351	23208.12
233.424	23165.11
233.496	23124.41
233.568	23108.74
233.64	23046.54
233.713	23013.03
233.785	22966.4
233.857	22923.68
233.929	22863.03
234.001	22843.98
234.074	22827.78
234.146	22766.55
234.218	22734.53
234.29	22698.33
234.362	22654.84
234.434	22595.54
234.507	22542.36
234.579	22486.83
234.651	22445.03
234.723	22405.4
234.795	22368.42
234.867	22318.48
234.939	22296.55
235.012	22259.14
235.084	22227.41
235.156	22186.59
235.228	22139.49
235.3	22086.51
235.372	22050.64
235.444	22032.95
235.516	21978.48
235.588	21938.23
235.66	21896.63
235.732	21842.93
235.804	21854.31
235.876	21828.13
235.948	21802.2
236.02	21759.78
236.092	21705.85
236.164	21662.13
236.236	21620.2
236.308	21577.54
236.38	21552.19
236.452	21490.97
236.524	21442.05
236.596	21407.88
236.668	21381.03
236.74	21333.12
236.812	21294.61
236.884	21255.38
236.956	21211.86
237.028	21157.25
237.1	21099.08
237.172	21065.15
237.244	21032.66
237.316	20954
237.388	20902.38
237.46	20850.62
237.532	20819.53
237.604	20777.65
237.675	20750.23
237.747	20718.08
237.819	20665.65
237.891	20621.21
237.963	20572.83
238.035	20527.09
238.107	20441.89
238.178	20407.33
238.25	20373.74
238.322	20352.49
238.394	20284.15
238.466	20232.3
238.538	20194.13
238.609	20155.58
238.681	20096.83
238.753	20048.16
238.825	20003.72
238.897	19956.83
238.968	19937.08
239.04	19888.02
239.112	19875.44
239.184	19815.1
239.255	19763.59
239.327	19723.11
239.399	19676.7
239.471	19647.64
239.542	19607.88
239.614	19585.24
239.686	19517
239.758	19477.77
239.829	19423.17
239.901	19407.03
239.973	19373.1
240.044	19341.49
240.116	19301.68
240.188	19260.34
240.259	19221.21
240.331	19170.51
240.403	19139.38
240.474	19072.78
240.546	19031.19
240.618	18965.7
240.689	18923.44
240.761	18887.59
240.833	18860.46
240.904	18817.71
240.976	18774.44
241.048	18741.53
241.119	18702.78
241.191	18675.36
241.262	18657.58
241.334	18611.46
241.405	18564.96
241.477	18517.54
241.549	18473.78
241.62	18440.68
241.692	18408
241.763	18377.06
241.835	18340.58
241.906	18309.07
241.978	18260.78
242.049	18227.34
242.121	18205.75
242.192	18180.83
242.264	18131.82
242.335	18075.92
242.407	18044.07
242.478	17999.35
242.55	17961.08
242.621	17912.84
242.693	17865.33
242.764	17809.57
242.836	17761.04
242.907	17722.29
242.979	17684.85
243.05	17646.73
243.122	17611.98
243.193	17568.42
243.264	17505.52
243.336	17462.05
243.407	17422.2
243.479	17393.91
243.55	17351.65
243.622	17312.9
243.693	17264.56
243.764	17233.52
243.836	17182.73
243.907	17134.82
243.978	17095.3
244.05	17063.5
244.121	17012.02
244.192	16983.11
244.264	16931.44
244.335	16900.55
244.407	16843.29
244.478	16817.32
244.549	16785.7
244.62	16734.95
244.692	16694.61
244.763	16669.98
244.834	16637.6
244.906	16590.51
244.977	16568.34
245.048	16550.51
245.119	16504.43
245.191	16463.99
245.262	16403.79
245.333	16386.64
245.405	16352.9
245.476	16327.59
245.547	16294.82
245.618	16274.67
245.689	16243.39
245.761	16214.67
245.832	16178.18
245.903	16154.52
245.974	16113.84
246.045	16062.99
246.117	16036.24
246.188	15994.74
246.259	15943.26
246.33	15894.63
246.401	15866.19
246.473	15818.67
246.544	15769.36
246.615	15751.86
246.686	15708.1
246.757	15699.32
246.828	15648.66
246.899	15626.59
246.97	15567.78
247.042	15515.29
247.113	15476.68
247.184	15453.07
247.255	15414.94
247.326	15384.14
247.397	15351.84
247.468	15317.28
247.539	15282.38
247.61	15233.17
247.681	15205.84
247.752	15182.41
247.823	15140.47
247.894	15100.08
247.965	15054.34
248.037	15017.6
248.108	14958.6
248.179	14934.5
248.25	14893.48
248.321	14875.6
248.392	14833.85
248.463	14833.03
248.534	14808.93
248.605	14791.77
248.675	14763
248.746	14730.41
248.817	14697.05
248.888	14672.85
248.959	14624.99
249.03	14605.85
249.101	14579.29
249.172	14545.5
249.243	14498.3
249.314	14491.65
249.385	14463.55
249.456	14438.96
249.527	14411.68
249.598	14390.42
249.669	14362.75
249.739	14335.61
249.81	14314.16
249.881	14273.42
249.952	14243.39
250.023	14200.2
250.094	14151.75
250.165	14109.72
250.235	14081.95
250.306	14059.92
250.377	14020.25
250.448	13998.12
250.519	13954.98
250.59	13948.04
250.66	13923.45
250.731	13917.33
250.802	13883.58
250.873	13864.98
250.944	13840.68
251.014	13802.79
251.085	13800.96
251.156	13774.69
251.227	13767.65
251.297	13751.26
251.368	13730.19
251.439	13703.53
251.51	13696.83
251.58	13666.75
251.651	13629.68
251.722	13615.89
251.792	13571.4
251.863	13549.95
251.934	13535.92
252.005	13537.61
252.075	13504.63
252.146	13488.72
252.217	13469.15
252.287	13454.98
252.358	13420.85
252.429	13409.57
252.499	13380.36
252.57	13356.88
252.641	13341.16
252.711	13305.92
252.782	13258.97
252.852	13258.35
252.923	13234.15
252.994	13210.23
253.064	13194.71
253.135	13169.31
253.205	13141.59
253.276	13139.18
253.347	13125.34
253.417	13098.93
253.488	13070.68
253.558	13043.34
253.629	13020.59
253.699	13000.25
253.77	12988
253.841	12963.13
253.911	12936.52
253.982	12922.69
254.052	12902.05
254.123	12873.23
254.193	12853.08
254.264	12866.38
254.334	12825.45
254.405	12791.57
254.475	12756.95
254.546	12729.24
254.616	12723.93
254.687	12705.52
254.757	12682.86
254.827	12656.01
254.898	12635.09
254.968	12612.19
255.039	12584.19
255.109	12567.22
255.18	12535.36
255.25	12480.31
255.321	12465.8
255.391	12438.18
255.461	12440.25
255.532	12397.78
255.602	12373.15
255.673	12326.63
255.743	12300.07
255.813	12256.21
255.884	12249.8
255.954	12238.28
256.024	12241.22
256.095	12215.77
256.165	12181.25
256.235	12164.82
256.306	12140.14
256.376	12131.17
256.446	12116.28
256.517	12103.07
256.587	12087.07
256.657	12069.18
256.728	12057.61
256.798	12039.78
256.868	12016.79
256.938	11979.29
257.009	11967.48
257.079	11957.98
257.149	11974.8
257.219	11930.6
257.29	11923.28
257.36	11873.68
257.43	11865.68
257.5	11824.03
257.571	11798.54
257.641	11782.68
257.711	11750.67
257.781	11740.89
257.852	11727.88
257.922	11691.05
257.992	11664.45
258.062	11642.61
258.132	11634.03
258.202	11608.44
258.273	11594.03
258.343	11592.34
258.413	11565.4
258.483	11546.41
258.553	11515.37
258.623	11481.1
258.693	11470.31
258.764	11466.16
258.834	11469.39
258.904	11448.76
258.974	11418.01
259.044	11397.19
259.114	11384.23
259.184	11366.83
259.254	11343.84
259.324	11293.48
259.394	11280.56
259.464	11290.78
259.535	11267.7
259.605	11240.85
259.675	11219.41
259.745	11202.49
259.815	11167.12
259.885	11140.61
259.955	11147.7
260.025	11123.5
260.095	11107.31
260.165	11094.83
260.235	11090.73
260.305	11062.49
260.375	11027.84
260.445	11038.78
260.515	11042.49
260.585	11037.48
260.655	11022.4
260.725	11011.89
260.795	11010.16
260.865	11011.6
260.934	10982.3
261.004	10979.99
261.074	10969.82
261.144	10969.87
261.214	10959.17
261.284	10946.26
261.354	10943.37
261.424	10917.97
261.494	10924.91
261.564	10913
261.634	10901.78
261.703	10868.86
261.773	10861.92
261.843	10861.92
261.913	10834.84
261.983	10791.67
262.053	10784.83
262.123	10765.5
262.192	10740.21
262.262	10733.61
262.332	10696.94
262.402	10683.3
262.472	10660.85
262.541	10617.48
262.611	10612.42
262.681	10585.78
262.751	10578.65
262.821	10557.35
262.89	10525.4
262.96	10512.01
263.03	10508.97
263.1	10493.65
263.169	10472.74
263.239	10462.53
263.309	10457.13
263.379	10459.11
263.448	10452.02
263.518	10437.81
263.588	10423.11
263.657	10422.68
263.727	10417.86
263.797	10403.31
263.867	10387.08
263.936	10361.78
264.006	10367.61
264.076	10347.04
264.145	10326.9
264.215	10301.66
264.285	10306.19
264.354	10277.47
264.424	10244.14
264.494	10214.65
264.563	10200.54
264.633	10215.28
264.702	10209.88
264.772	10177.31
264.842	10148.75
264.911	10139.69
264.981	10101.58
265.05	10092.96
265.12	10072.82
265.19	10057.36
265.259	10054.76
265.329	10047.63
265.398	10030.33
265.468	10036.98
265.537	10017.52
265.607	10009.62
265.676	10006.44
265.746	9991.7
265.815	9987.22
265.885	9978.7
265.955	9953.17
266.024	9929.57
266.094	9889.3
266.163	9886.5
266.232	9887.85
266.302	9876.48
266.371	9862.47
266.441	9862.8
266.51	9856.78
266.58	9843.63
266.649	9822.34
266.719	9821.96
266.788	9811.89
266.858	9824.27
266.927	9789.59
266.996	9781.74
267.066	9776.3
267.135	9751.88
267.205	9746.53
267.274	9742.82
267.343	9751.49
267.413	9740.46
267.482	9744.61
267.552	9746.77
267.621	9714.17
267.69	9682.81
267.76	9676.36
267.829	9674.38
267.898	9657.48
267.968	9634.8
268.037	9628.39
268.106	9627.67
268.176	9606.19
268.245	9588.8
268.314	9570.11
268.384	9573.97
268.453	9563.8
268.522	9560.53
268.592	9565.25
268.661	9539.15
268.73	9526.96
268.799	9499.85
268.869	9515.64
268.938	9480.88
269.007	9463.49
269.076	9457.28
269.146	9463.59
269.215	9452.9
269.284	9459.16
269.353	9447.79
269.422	9438.36
269.492	9422.9
269.561	9383.37
269.63	9373.83
269.699	9359.72
269.768	9344.27
269.838	9331.17
269.907	9326.45
269.976	9296.98
270.045	9262.51
270.114	9260.73
270.183	9243.73
270.253	9236.12
270.322	9203.04
270.391	9199.87
270.46	9205.5
270.529	9201.41
270.598	9195.44
270.667	9183.74
270.736	9158.31
270.806	9147.86
270.875	9145.55
270.944	9136.11
271.013	9160.72
271.082	9154.12
271.151	9151.62
271.22	9124.51
271.289	9115.03
271.358	9105.4
271.427	9105.4
271.496	9098.66
271.565	9085.18
271.634	9079.02
271.703	9104.2
271.772	9104.78
271.841	9091.01
271.91	9064.92
271.979	9057.36
272.048	9035.65
272.117	9034.4
272.186	9019.18
272.255	9019.76
272.324	9018.6
272.393	9013.31
272.462	8993.95
272.531	8985.05
272.6	8975.18
272.669	8984.27
272.738	8970.17
272.807	8963.67
272.876	8937.63
272.945	8971.28
273.013	8971.96
273.082	8977.11
273.151	8933.05
273.22	8931.7
273.289	8923.04
273.358	8929.78
273.427	8920.06
273.496	8917.6
273.564	8918.28
273.633	8921.21
273.702	8904.22
273.771	8891.75
273.84	8892.04
273.909	8889.97
273.977	8885.45
274.046	8870.48
274.115	8873.56
274.184	8856.33
274.253	8850.6
274.322	8861.86
274.39	8825.85
274.459	8811.36
274.528	8781.28
274.597	8777.29
274.665	8768.72
274.734	8779.93
274.803	8767.85
274.872	8756.15
274.94	8739.55
275.009	8793.2
275.078	8779
275.147	8774.52
275.215	8770.14
275.284	8766.49
275.353	8758.3
275.421	8731.98
275.49	8745.45
275.559	8733.95
275.627	8729.91
275.696	8714.7
275.765	8715.81
275.833	8708.49
275.902	8708.2
275.971	8723.99
276.039	8737.37
276.108	8746.08
276.177	8743.72
276.245	8735.54
276.314	8736.6
276.383	8746.42
276.451	8679.92
276.52	8679.19
276.588	8692.29
276.657	8704.17
276.725	8694.65
276.794	8684.73
276.863	8695.56
276.931	8673.9
277	8686.37
277.068	8702.58
277.137	8725.11
277.205	8722.85
277.274	8739.93
277.342	8752.88
277.411	8731.8
277.48	8717.17
277.548	8700.03
277.617	8701.62
277.685	8699.84
277.754	8698.83
277.822	8688
277.89	8705.19
277.959	8698.6
278.027	8683.39
278.096	8660.62
278.164	8687.14
278.233	8682.19
278.301	8672.03
278.37	8685.51
278.438	8667.7
278.507	8665.15
278.575	8639.35
278.643	8637.52
278.712	8614.86
278.78	8597.48
278.849	8607.73
278.917	8614.42
278.985	8611.63
279.054	8617.21
279.122	8626.5
279.191	8625.73
279.259	8623.42
279.327	8596.03
279.396	8612.54
279.464	8609.03
279.532	8620.29
279.601	8618.94
279.669	8619.95
279.737	8640.69
279.806	8633.18
279.874	8650.42
279.942	8649.93
280.011	8645.99
280.079	8651.43
280.147	8671.16
280.215	8672.79
280.284	8672.89
280.352	8663.12
280.42	8675.39
280.488	8660.95
280.557	8655.23
280.625	8655.52
280.693	8655.13
280.761	8662.01
280.83	8647.14
280.898	8657.01
280.966	8635.88
281.034	8603.58
281.102	8589.1
281.171	8577.55
281.239	8587.51
281.307	8569.51
281.375	8561.33
281.443	8585.92
281.512	8582.79
281.58	8592.47
281.648	8581.35
281.716	8578.61
281.784	8575.15
281.852	8565.38
281.92	8566.39
281.989	8574.33
282.057	8562.49
282.125	8605.76
282.193	8601.91
282.261	8598.5
282.329	8594.41
282.397	8602.54
282.465	8608.89
282.533	8621.4
282.601	8610.52
282.67	8584.1
282.738	8576.69
282.806	8589.4
282.874	8575.06
282.942	8576.5
283.01	8569.47
283.078	8572.02
283.146	8567.64
283.214	8582.71
283.282	8590.22
283.35	8601.04
283.418	8595.61
283.486	8596.52
283.554	8556.28
283.622	8559.98
283.69	8562.87
283.758	8559.6
283.826	8564.07
283.894	8571.97
283.962	8594.4
284.03	8612.49
284.098	8621.97
284.165	8619.8
284.233	8615.62
284.301	8614.22
284.369	8604.6
284.437	8592.56
284.505	8593.24
284.573	8612.44
284.641	8597.52
284.709	8597.95
284.777	8577.45
284.845	8587.13
284.912	8597.71
284.98	8603.25
285.048	8591.6
285.116	8595.16
285.184	8606.81
285.252	8607.34
285.319	8591.6
285.387	8586.16
285.455	8565.32
285.523	8573.89
285.591	8570.47
285.659	8568.02
285.726	8580.15
285.794	8564.7
285.862	8563.36
285.93	8565.23
285.997	8560.61
286.065	8557.1
286.133	8550.94
286.201	8553.54
286.269	8536.88
286.336	8526.01
286.404	8517.97
286.472	8531.01
286.539	8515.62
286.607	8500.94
286.675	8498.24
286.743	8504.79
286.81	8500.41
286.878	8519.99
286.946	8507.24
287.013	8510.51
287.081	8512.05
287.149	8496.99
287.216	8522.25
287.284	8518.11
287.352	8519.94
287.419	8515.85
287.487	8531.88
287.555	8538.18
287.622	8538.04
287.69	8547.23
287.758	8562.87
287.825	8563.88
287.893	8551.51
287.96	8558.25
288.028	8569.46
288.096	8578.27
288.163	8585.44
288.231	8568.11
288.298	8562.15
288.366	8579.66
288.433	8576.2
288.501	8572.83
288.569	8574.37
288.636	8561.76
288.704	8582.12
288.771	8583.66
288.839	8572.69
288.906	8566.72
288.974	8571.49
289.041	8568.74
289.109	8557.34
289.176	8566.19
289.244	8561.57
289.311	8580.68
289.379	8586.6
289.446	8588.19
289.514	8586.31
289.581	8584.82
289.649	8591.41
289.716	8598.54
289.783	8590.21
289.851	8608.74
289.918	8607.92
289.986	8621.97
290.053	8628.9
290.121	8617.64
290.188	8621.82
290.255	8653.73
290.323	8649.02
290.39	8641.51
290.458	8648.63
290.525	8656.86
290.592	8648.97
290.66	8660.85
290.727	8645.69
290.794	8668.55
290.862	8666.87
290.929	8670.53
290.996	8664.22
291.064	8672.79
291.131	8680.92
291.198	8690.89
291.266	8694.26
291.333	8698.49
291.4	8696.52
291.468	8720.3
291.535	8717.02
291.602	8718.37
291.669	8713.75
291.737	8726.26
291.804	8725.01
291.871	8743.45
291.938	8759.23
292.006	8788.55
292.073	8797.17
292.14	8815.02
292.207	8800.39
292.275	8805.44
292.342	8817.62
292.409	8849.73
292.476	8876.3
292.543	8869.13
292.611	8867.98
292.678	8883.04
292.745	8903.74
292.812	8919.82
292.879	8915.68
292.946	8921.5
293.014	8946.34
293.081	8950.53
293.148	8955.2
293.215	8974.65
293.282	8965.93
293.349	8969.5
293.416	8947.78
293.484	8968.53
293.551	8978.64
293.618	8999.39
293.685	9024.57
293.752	9014.94
293.819	9011.52
293.886	8998.47
293.953	9009.74
294.02	9024.52
294.087	9032.17
294.154	9025.91
294.221	9039.54
294.288	9040.79
294.356	9060.29
294.423	9060.24
294.49	9055.28
294.557	9074.1
294.624	9071.46
294.691	9094.9
294.758	9096.15
294.825	9105.4
294.892	9095.86
294.959	9093.41
295.026	9097.02
295.093	9087.05
295.16	9089.31
295.226	9092.83
295.293	9118.2
295.36	9126.39
295.427	9143.05
295.494	9156.96
295.561	9164.67
295.628	9184.8
295.695	9192.26
295.762	9195.92
295.829	9206.9
295.896	9221.05
295.963	9230.01
296.03	9236.99
296.096	9243.87
296.163	9263.95
296.23	9280.04
296.297	9293.66
296.364	9295.68
296.431	9304.4
296.498	9307.86
296.564	9333.43
296.631	9333.53
296.698	9324.38
296.765	9335.02
296.832	9324.04
296.899	9307.43
296.965	9329.96
297.032	9313.44
297.099	9336.61
297.166	9346.14
297.233	9337.71
297.299	9333.62
297.366	9334.63
297.433	9345.13
297.5	9353.36
297.566	9353.99
297.633	9352.5
297.7	9352.78
297.767	9347.34
297.833	9353.99
297.9	9353.36
297.967	9336.61
298.033	9351.87
298.1	9372.29
298.167	9372.73
298.234	9379.42
298.3	9391.6
298.367	9384.96
298.434	9390.93
298.5	9381.34
298.567	9380.52
298.634	9382.84
298.7	9403.69
298.767	9404.31
298.834	9414.91
298.9	9410.72
298.967	9399.35
299.033	9415
299.1	9434.27
299.167	9460.27
299.233	9453.48
299.3	9471.1
299.366	9491.9
299.433	9510.49
299.5	9488.15
299.566	9492.29
299.633	9507.31
299.699	9519.45
299.766	9522.97
299.832	9530.09
299.899	9537.32
299.965	9549.74
300.032	9550.22
300.099	9554.41
300.165	9560.63
300.232	9557.06
300.298	9561.49
300.365	9574.73
300.431	9576.76
300.498	9568.81
300.564	9572.18
300.631	9587.02
300.697	9597.85
300.763	9600.4
300.83	9591.88
300.896	9612.06
300.963	9621.5
301.029	9636.81
301.096	9644.28
301.162	9652.85
301.229	9649.19
301.295	9642.35
301.361	9644.81
301.428	9642.06
301.494	9633.39
301.561	9635.51
301.627	9640.14
301.693	9638.84
301.76	9643.65
301.826	9631.32
301.892	9641.63
301.959	9648.9
302.025	9644.38
302.092	9641.58
302.158	9647.12
302.224	9655.6
302.291	9644.09
302.357	9643.94
302.423	9629.97
302.49	9622.17
302.556	9638.36
302.622	9637.39
302.688	9645.53
302.755	9658.3
302.821	9678.81
302.887	9687.05
302.954	9688.44
303.02	9696
303.086	9707.27
303.152	9704.19
303.219	9702.26
303.285	9713.78
303.351	9717.44
303.417	9721
303.483	9710.94
303.55	9703.09
303.616	9701.64
303.682	9699.14
303.748	9692.15
303.815	9701.5
303.881	9714.12
303.947	9700.44
304.013	9698.51
304.079	9687.58
304.145	9667.11
304.212	9660.75
304.278	9652.47
304.344	9646.88
304.41	9636.29
304.476	9624.05
304.542	9622.13
304.608	9627.81
304.674	9607.58
304.741	9607.34
304.807	9608.45
304.873	9614.52
304.939	9634.6
305.005	9611.92
305.071	9609.07
305.137	9611.34
305.203	9592.17
305.269	9588.75
305.335	9589.28
305.401	9593.66
305.467	9602.09
305.533	9618.9
305.599	9628.29
305.666	9641.05
305.732	9649.87
305.798	9658.63
305.864	9687.24
305.93	9699.38
305.996	9710.02
306.062	9710.74
306.128	9704.63
306.194	9698.17
306.259	9692.06
306.325	9681.32
306.391	9696.78
306.457	9712.19
306.523	9714.74
306.589	9740.65
306.655	9727.65
306.721	9719.07
306.787	9705.93
306.853	9722.4
306.919	9700.58
306.985	9695.43
307.051	9683.34
307.117	9672.89
307.183	9665.52
307.248	9632
307.314	9634.12
307.38	9632.63
307.446	9641.39
307.512	9630.31
307.578	9636.19
307.644	9635.37
307.709	9638.69
307.775	9636.24
307.841	9635.9
307.907	9634.89
307.973	9610.28
308.039	9610.57
308.104	9621.26
308.17	9623.09
308.236	9605.7
308.302	9610.9
308.368	9596.41
308.433	9599.63
308.499	9589.76
308.565	9580.23
308.631	9588.56
308.696	9560.05
308.762	9540.54
308.828	9532.11
308.894	9524.75
308.959	9493.11
309.025	9492.87
309.091	9485.69
309.156	9479.05
309.222	9470.28
309.288	9461.85
309.354	9444.66
309.419	9452.9
309.485	9435.23
309.551	9444.47
309.616	9426.22
309.682	9425.5
309.748	9421.94
309.813	9413.65
309.879	9406.48
309.945	9394.73
310.01	9386.35
310.076	9393.57
310.141	9390.44
310.207	9383.03
310.273	9384.47
310.338	9397.28
310.404	9374.46
310.469	9361.79
310.535	9348.69
310.601	9330.44
310.666	9331.7
310.732	9343.4
310.797	9320.28
310.863	9306.51
310.928	9296.35
310.994	9302.8
311.059	9294.71
311.125	9289.32
311.191	9305.84
311.256	9300.49
311.322	9306.17
311.387	9287.78
311.453	9676.96
311.518	9650.58
311.584	9643.5
311.649	9648.12
311.715	9634.79
311.78	9640.08
311.846	9629.83
311.911	9633.68
311.976	9641.38
312.042	9622.89
312.107	9606.38
312.173	9599.16
312.238	9596.51
312.304	9587.65
312.369	9584.23
312.434	9574.79
312.5	9573.06
312.565	9537.48
312.631	9538.49
312.696	9531.6
312.761	9535.26
312.827	9130.09
312.892	9173.23
312.958	9173.23
313.023	9163.6
313.088	9163.7
313.154	9151.18
313.219	9144.93
313.284	9136.93
313.35	9126.63
313.415	9119.94
313.48	9113.34
313.546	9118.59
313.611	9124.51
313.676	9113.2
313.741	9098.47
313.807	9106.75
313.872	9107.9
313.937	9112.04
314.003	9124.99
314.068	9126.15
314.133	9130.68
314.198	9131.45
314.264	9110.55
314.329	9099.33
314.394	9102.55
314.459	9100.24
314.525	9117.05
314.59	9112.09
314.655	9100.15
314.72	9112.91
314.785	9118.92
314.851	9116.66
314.916	9103.42
314.981	9087.1
315.046	9085.13
315.111	9072.9
315.176	9061.01
315.242	9062.36
315.307	9063.61
315.372	9041.75
315.437	9031.5
315.502	9022.01
315.567	9031.31
315.632	9013.54
315.698	9018.21
315.763	9011.37
315.828	9006.9
315.893	9002.85
315.958	9003.57
316.023	8994.77
316.088	8970.41
316.153	8943.45
316.218	8934.35
316.283	8911.49
316.348	8896.72
316.413	8891.23
316.479	8882.95
316.544	8846.18
316.609	8814.08
316.674	8776.2
316.739	8744.53
316.804	8716.43
316.869	8679.22
316.934	8635.47
316.999	8605.15
317.064	8546.78
317.129	8495.67
317.194	8454.14
317.259	8406.5
317.324	8352.85
317.389	8305.46
317.454	8264.56
317.518	8233.1
317.583	8210.34
317.648	8186.81
317.713	8147.61
317.778	8087.47
317.843	8052.55
317.908	8013.88
317.973	7973.19
318.038	7941.39
318.103	7903.06
318.168	7863.72
318.233	7833.13
318.297	7781.01
318.362	7746.43
318.427	7710.13
318.492	7689.07
318.557	7642.86
318.622	7613.1
318.687	7586.8
318.751	7545.95
318.816	7517.29
318.881	7483.21
318.946	7427.72
319.011	7381.04
319.075	7343.7
319.14	7307.75
319.205	7266.66
319.27	7231.82
319.335	7189
319.399	7148.25
319.464	7123.21
319.529	7075.46
319.594	7035.67
319.658	7009.48
319.723	6964.99
319.788	6942.03
319.853	6882.02
319.917	6851.76
319.982	6798.39
320.047	6761.36
320.112	6738.78
320.176	6683.21
320.241	6646.38
320.306	6614.3
320.37	6576.79
320.435	6548.22
320.5	6521.24
320.564	6480
320.629	6440.83
320.694	6408.66
320.758	6372.09
320.823	6319.33
320.888	6290.39
320.952	6241.34
321.017	6197.53
321.082	6161.1
321.146	6120.21
321.211	6090.41
321.275	6051.7
321.34	6006.94
321.405	5966.74
321.469	5920.21
321.534	5882.94
321.598	5832.2
321.663	5800.92
321.727	5765.76
321.792	5712.29
321.857	5668.22
321.921	5628.23
321.986	5589.73
322.05	5533.22
322.115	5495.49
322.179	5451.4
322.244	5397.63
322.308	5363.37
322.373	5315.07
322.437	5270.12
322.502	5242.65
322.566	5195.79
322.631	5156.22
322.695	5117.66
322.76	5069
322.824	5033.12
322.889	4985.72
322.953	4945.88
323.018	4875.78
323.082	4810.82
323.146	4762.91
323.211	4708.81
323.275	4662.76
323.34	4617.59
323.404	4580.17
323.468	4534.61
323.533	4491.31
323.597	4444.54
323.662	4392.31
323.726	4361.98
323.79	4313.58
323.855	4247.74
323.919	4199.53
323.983	4152.9
324.048	4083.81
324.112	4213.42
324.177	4080.4
324.241	3870.05
324.305	3659.03
324.37	3457.95
324.434	3262.56
324.498	3216.9
324.562	3164.38
324.627	3103.45
324.691	3041.43
324.755	2975.74
324.82	2892.46
324.884	2815.42
324.948	2740.04
325.012	2643.9
325.077	2508.47
