Data from 20250704_urea_1.5M_MAYP1162681_11-45-26-596.txt Node
Date: Fri Jul 04 11:45:26 BST 2025
User: adleo
Spectrometer: MAYP116268
Trigger mode: 0
Integration Time (sec): 1.000000E0
Scans to average: 1
Electric dark correction enabled: true
Nonlinearity correction enabled: true
Boxcar width: 10
XAxis mode: Wavelengths
Number of Pixels in Spectrum: 2068
>>>>>Begin Spectral Data<<<<<
179.565	1259.01
179.642	1321.18
179.718	1367.79
179.795	1408.38
179.871	1442.5
179.948	1459.56
180.024	1480.43
180.101	1505.69
180.177	1520.04
180.254	1545.39
180.33	1567.51
180.407	1626.25
180.483	1725.83
180.56	1820.19
180.636	1907.26
180.712	1894.33
180.789	1903.26
180.865	1915.91
180.942	1924.27
181.018	1934.5
181.095	1950.57
181.171	1956.28
181.248	1956.32
181.324	1969.64
181.4	1975.44
181.477	1984.1
181.553	2000.88
181.63	2021.09
181.706	2036.83
181.782	2046.2
181.859	2043.16
181.935	2051.34
182.011	2047.63
182.088	2065.37
182.164	2083.83
182.24	2099.43
182.317	2108.03
182.393	2109.7
182.469	2121.21
182.546	2135.38
182.622	2138.86
182.698	2133.81
182.775	2146.75
182.851	2160.59
182.927	2155.93
183.003	2152.22
183.08	2148.75
183.156	2155.03
183.232	2152.08
183.308	2138.1
183.385	2145.66
183.461	2164.21
183.537	2164.45
183.613	2175.2
183.69	2164.4
183.766	2155.6
183.842	2161.64
183.918	2169.2
183.995	2181.52
184.071	2187.47
184.147	2179.91
184.223	2168.92
184.299	2177.82
184.375	2164.98
184.452	2172.21
184.528	2224.33
184.604	2234.74
184.68	2245.3
184.756	2253.92
184.832	2258.06
184.908	2266.76
184.985	2265.29
185.061	2247.64
185.137	2255.2
185.213	2245.97
185.289	2248.16
185.365	2241.45
185.441	2241.12
185.517	2256.5
185.593	2252.93
185.669	2246.93
185.745	2258.49
185.822	2275.95
185.898	2271.38
185.974	2280.7
186.05	2272.47
186.126	2235.54
186.202	2231.63
186.278	2227.35
186.354	2218.45
186.43	2228.97
186.506	2224.12
186.582	2225.36
186.658	2236.92
186.734	2216.46
186.81	2219.36
186.886	2222.6
186.962	2234.06
187.038	2231.26
187.114	2224.64
187.19	2230.49
187.266	2224.64
187.341	2225.88
187.417	2221.83
187.493	2219.12
187.569	2224.88
187.645	2218.08
187.721	2206.94
187.797	2212.03
187.873	2219.64
187.949	2212.6
188.025	2205.6
188.101	2209.7
188.176	2212.6
188.252	2205.75
188.328	2216.3
188.404	2217.54
188.48	2213.93
188.556	2207.6
188.632	2205.98
188.707	2205.27
188.783	2203.5
188.859	2194.28
188.935	2185.19
189.011	2192.76
189.086	2186.57
189.162	2178.58
189.238	2176.1
189.314	2174.06
189.39	2169.54
189.465	2161.07
189.541	2178.68
189.617	2162.4
189.693	2156.13
189.768	2162.84
189.844	2186.4
189.92	2180.55
189.996	2188.06
190.071	2199.77
190.147	2197.82
190.223	2206.91
190.298	2198.82
190.374	2184.78
190.45	2202.29
190.526	2208.71
190.601	2200.29
190.677	2202.09
190.753	2226.52
190.828	2229.94
190.904	2243.41
190.98	2259.92
191.055	2272.3
191.131	2264.92
191.207	2287.9
191.282	2300.03
191.358	2290.75
191.433	2277.57
191.509	2288.98
191.585	2284.84
191.66	2284.32
191.736	2293.69
191.811	2286.46
191.887	2302.79
191.963	2326.82
192.038	2331.2
192.114	2331.29
192.189	2334.96
192.265	2333.53
192.34	2314.72
192.416	2314.67
192.491	2310.63
192.567	2315.49
192.642	2312.96
192.718	2311.25
192.793	2296.97
192.869	2293.59
192.944	2295.35
193.02	2303.78
193.095	2308.4
193.171	2313.11
193.246	2312.35
193.322	2306.4
193.397	2305.25
193.473	2286.17
193.548	2267.6
193.624	2272.51
193.699	2272.17
193.775	2291.98
193.85	2294.26
193.925	2302.83
194.001	2301.45
194.076	2294.17
194.152	2280.22
194.227	2276.65
194.302	2269.52
194.378	2272.28
194.453	2269.9
194.529	2282.03
194.604	2267.75
194.679	2259.19
194.755	2243.39
194.83	2255.25
194.905	2256.53
194.981	2266.96
195.056	2265.67
195.131	2270.52
195.207	2269.95
195.282	2261.34
195.357	2238.78
195.433	2255.29
195.508	2238.87
195.583	2247.25
195.659	2262.91
195.734	2272.43
195.809	2270.67
195.884	2277.28
195.96	2277.52
196.035	2293.55
196.11	2289.37
196.185	2298.03
196.261	2301.12
196.336	2329.91
196.411	2316.2
196.486	2321.86
196.561	2313.68
196.637	2320.05
196.712	2341.15
196.787	2344.81
196.862	2360.9
196.937	2373.51
197.013	2377.41
197.088	2391.02
197.163	2413.6
197.238	2430.89
197.313	2430.8
197.388	2447.36
197.464	2479.79
197.539	2492.6
197.614	2482.55
197.689	2498.32
197.764	2517.75
197.839	2538.55
197.914	2534.74
197.989	2559.89
198.065	2572.51
198.14	2624.45
198.215	2651.07
198.29	2663.27
198.365	2672.42
198.44	2682.27
198.515	2709.81
198.59	2724.49
198.665	2749.4
198.74	2757.84
198.815	2758.84
198.89	2778.61
198.965	2811.74
199.04	2806.16
199.115	2822.31
199.19	2869.82
199.265	2868.39
199.34	2878.4
199.415	2912.54
199.49	2934.17
199.565	2942.42
199.64	2967.68
199.715	2962.96
199.79	2972.02
199.865	2977.83
199.94	2980.98
200.015	3014.07
200.09	3020.27
200.165	3027.99
200.24	3037.24
200.315	3079.57
200.39	3093.5
200.464	3105.8
200.539	3105.23
200.614	3122.87
200.689	3147.1
200.764	3153.06
200.839	3173.17
200.914	3177.7
200.989	3169.4
201.063	3185.04
201.138	3168.56
201.213	3171.18
201.288	3155.11
201.363	3158.97
201.438	3155.92
201.512	3169.51
201.587	3153.05
201.662	3156.01
201.737	3169.93
201.812	3179
201.886	3147.11
201.961	3155.6
202.036	3135.58
202.111	3131.91
202.186	3100.36
202.26	3083.09
202.335	3059.43
202.41	3052.33
202.485	3035.31
202.559	3013.14
202.634	2986.82
202.709	2995.59
202.784	2972.08
202.858	2972.37
202.933	2954.45
203.008	2950.87
203.082	2929.47
203.157	2926.04
203.232	2883.68
203.306	2860.41
203.381	2827.94
203.456	2800.15
203.53	2781.88
203.605	2765.98
203.68	2741.71
203.754	2737.81
203.829	2722.89
203.904	2702.02
203.978	2693.87
204.053	2699.93
204.127	2684.3
204.202	2680.21
204.277	2662.72
204.351	2657.87
204.426	2648.05
204.5	2638.81
204.575	2601.47
204.65	2615.29
204.724	2606.71
204.799	2613.09
204.873	2607.8
204.948	2607.66
205.022	2596.33
205.097	2585.98
205.171	2597.75
205.246	2605.04
205.32	2600.71
205.395	2600.18
205.469	2591.09
205.544	2591.57
205.618	2572.42
205.693	2587.42
205.767	2576.47
205.842	2599.24
205.916	2591.71
205.991	2584.76
206.065	2590.81
206.14	2608.66
206.214	2602.03
206.289	2596.6
206.363	2611.41
206.438	2617.08
206.512	2625.47
206.586	2643.42
206.661	2648.86
206.735	2628.38
206.81	2629.15
206.884	2644.96
206.958	2630.43
207.033	2647.95
207.107	2657.39
207.181	2691.08
207.256	2685.65
207.33	2704.27
207.405	2717.34
207.479	2736.97
207.553	2741.63
207.628	2724.02
207.702	2732.64
207.776	2726.73
207.851	2729.21
207.925	2742.32
207.999	2736.5
208.073	2732.93
208.148	2740.27
208.222	2729.59
208.296	2762.98
208.371	2778.05
208.445	2792.87
208.519	2823.79
208.593	2835.79
208.668	2835.22
208.742	2831.98
208.816	2833.46
208.89	2846.66
208.965	2843.7
209.039	2853.14
209.113	2874.31
209.187	2900.12
209.261	2900.17
209.336	2925
209.41	2947.36
209.484	2948.31
209.558	2974.73
209.632	2988.17
209.707	2996.08
209.781	3022.54
209.855	3036.85
209.929	3056.79
210.003	3060.61
210.077	3058.89
210.151	3110.06
210.226	3143.22
210.3	3179.49
210.374	3207.48
210.448	3212.3
210.522	3223.84
210.596	3240.3
210.67	3251.13
210.744	3302.53
210.818	3339.53
210.892	3361.15
210.966	3362.2
211.041	3386.01
211.115	3385.92
211.189	3416.98
211.263	3446.62
211.337	3456.69
211.411	3484.85
211.485	3493.83
211.559	3520.74
211.633	3539.11
211.707	3523.87
211.781	3548.67
211.855	3527.23
211.929	3537.77
212.003	3540.16
212.077	3572.54
212.151	3606.55
212.225	3639.46
212.299	3653.61
212.373	3670.37
212.447	3694.78
212.52	3757.46
212.594	3796.6
212.668	3847.38
212.742	3871.75
212.816	3902.24
212.89	3939.36
212.964	3981.68
213.038	4027.4
213.112	4091.91
213.186	4162.03
213.26	4191.66
213.333	4194.15
213.407	4257.82
213.481	4318.96
213.555	4394.14
213.629	4445.97
213.703	4499.05
213.777	4573.29
213.85	4628.01
213.924	4739.35
213.998	4821.72
214.072	4890.43
214.146	4957.44
214.219	5035.95
214.293	5120.87
214.367	5212.91
214.441	5316.6
214.515	5400.45
214.588	5475.33
214.662	5537.03
214.736	5614.13
214.81	5728.78
214.883	5856.96
214.957	5953.87
215.031	6050.12
215.105	6136.77
215.178	6237.31
215.252	6346.51
215.326	6433.79
215.4	6525.71
215.473	6594.11
215.547	6686.48
215.621	6796.56
215.694	6922.83
215.768	7023.43
215.842	7129.52
215.915	7239.49
215.989	7337.79
216.063	7449.47
216.136	7573.75
216.21	7698.84
216.284	7836.14
216.357	7962.77
216.431	8077.21
216.504	8215.8
216.578	8374.52
216.652	8519.36
216.725	8651.03
216.799	8784.65
216.873	8916.77
216.946	9064.05
217.02	9192.14
217.093	9329.54
217.167	9436.29
217.24	9546.19
217.314	9675
217.387	9797.59
217.461	9922.58
217.535	10066.11
217.608	10186.78
217.682	10316.42
217.755	10461.04
217.829	10577.11
217.902	10707.01
217.976	10843.51
218.049	10961.61
218.123	11067.44
218.196	11198.9
218.27	11319.05
218.343	11425.07
218.417	11550.19
218.49	11666
218.563	11803.31
218.637	11926.61
218.71	12067.64
218.784	12198.89
218.857	12333.42
218.931	12465.63
219.004	12591.01
219.077	12710.07
219.151	12837.47
219.224	12952.3
219.298	13059.89
219.371	13185.95
219.444	13279.13
219.518	13387.06
219.591	13498.7
219.665	13640.91
219.738	13749.86
219.811	13842.46
219.885	13965.24
219.958	14085.66
220.031	14179.22
220.105	14282.43
220.178	14383.23
220.251	14485.42
220.325	14589.64
220.398	14690.68
220.471	14789.3
220.544	14888.36
220.618	14981.63
220.691	15080.06
220.764	15174.49
220.838	15268.68
220.911	15350.58
220.984	15463.47
221.057	15557.94
221.131	15646.29
221.204	15690.69
221.277	15790.94
221.35	15914.28
221.424	15981.23
221.497	16058.88
221.57	16146.12
221.643	16237.41
221.716	16323.15
221.79	16384.12
221.863	16453.14
221.936	16517.15
222.009	16588
222.082	16667.28
222.155	16732.87
222.229	16809.89
222.302	16877.65
222.375	16936.35
222.448	17008.07
222.521	17074.05
222.594	17130.87
222.667	17179.64
222.74	17258.53
222.814	17316.17
222.887	17368.85
222.96	17447.21
223.033	17506.24
223.106	17563.84
223.179	17611.01
223.252	17677.76
223.325	17741.86
223.398	17803.93
223.471	17858.48
223.544	17908.46
223.617	17948.26
223.69	18006.14
223.763	18039.92
223.837	18094.52
223.91	18151.87
223.983	18188.74
224.056	18218.13
224.129	18264.44
224.202	18321.4
224.275	18355.14
224.348	18373.88
224.42	18391.62
224.493	18403.38
224.566	18439.47
224.639	18487.18
224.712	18512.96
224.785	18528.62
224.858	18550.02
224.931	18560.96
225.004	18578.98
225.077	18610.02
225.15	18616.28
225.223	18637.19
225.296	18695.07
225.369	18697.38
225.442	18712.42
225.514	18728.85
225.587	18750.49
225.66	18774.73
225.733	18796.66
225.806	18810
225.879	18840.36
225.952	18847.83
226.025	18876.84
226.097	18893.23
226.17	18896.26
226.243	18887.97
226.316	18894.29
226.389	18920.84
226.461	18948.65
226.534	18964.93
226.607	18977.8
226.68	19016.21
226.753	19030.81
226.825	19005.36
226.898	19032.64
226.971	19041.75
227.044	19060.93
227.117	19070.9
227.189	19082.42
227.262	19096.49
227.335	19107.43
227.407	19101.17
227.48	19127.43
227.553	19139.04
227.626	19141.89
227.698	19156.63
227.771	19173.64
227.844	19169.45
227.916	19174.46
227.989	19162.32
228.062	19161.5
228.134	19183.43
228.207	19179.91
228.28	19162.85
228.352	19163.38
228.425	19163.19
228.498	19169.84
228.57	19155.19
228.643	19175.33
228.716	19168.82
228.788	19161.16
228.861	19162.95
228.934	19174.03
229.006	19162.22
229.079	19150.51
229.151	19133.98
229.224	19109.65
229.296	19122.51
229.369	19150.32
229.442	19156.29
229.514	19142.61
229.587	19153.16
229.659	19124.73
229.732	19125.36
229.804	19142.8
229.877	19159.76
229.949	19171.76
230.022	19178.85
230.094	19182.7
230.167	19171.28
230.239	19160.58
230.312	19158.03
230.384	19175.28
230.457	19181.21
230.529	19184.63
230.602	19194.27
230.674	19197.93
230.747	19207.76
230.819	19212.68
230.892	19175.04
230.964	19174.51
231.037	19175.47
231.109	19175.23
231.181	19183.91
231.254	19162.03
231.326	19145.11
231.399	19148.83
231.471	19125.65
231.544	19102.08
231.616	19107.09
231.688	19105.94
231.761	19094.42
231.833	19076.97
231.905	19039.05
231.978	19021.27
232.05	18999.77
232.122	18982.86
232.195	18969.42
232.267	18973.22
232.339	18950.14
232.412	18955.01
232.484	18924.74
232.556	18904.84
232.629	18909.8
232.701	18906.43
232.773	18895.35
232.846	18870.1
232.918	18841.18
232.99	18831.26
233.062	18827.21
233.135	18813.81
233.207	18784.94
233.279	18782.92
233.351	18775.4
233.424	18761.86
233.496	18738.68
233.568	18754.3
233.64	18725.09
233.713	18713.43
233.785	18696.18
233.857	18685.43
233.929	18654.78
234.001	18648.71
234.074	18662.78
234.146	18616.76
234.218	18587.41
234.29	18569.97
234.362	18561.92
234.434	18539.32
234.507	18514.6
234.579	18484.1
234.651	18456.82
234.723	18448.1
234.795	18430.22
234.867	18408.39
234.939	18406.56
235.012	18396.58
235.084	18370.46
235.156	18364.63
235.228	18340.92
235.3	18318.8
235.372	18302.23
235.444	18295.19
235.516	18264.78
235.588	18241.6
235.66	18226.04
235.732	18196.74
235.804	18242.42
235.876	18234.08
235.948	18218.71
236.02	18198.81
236.092	18170.95
236.164	18156.11
236.236	18123.77
236.308	18097.22
236.38	18077.7
236.452	18047.49
236.524	18027.49
236.596	18021.56
236.668	17999.3
236.74	17982.24
236.812	17958.62
236.884	17944.6
236.956	17926.82
237.028	17893.95
237.1	17862.63
237.172	17858.14
237.244	17857.9
237.316	17790.49
237.388	17758.2
237.46	17736.37
237.532	17727.45
237.604	17699.79
237.675	17694.34
237.747	17686.87
237.819	17659.74
237.891	17639.35
237.963	17607.07
238.035	17572.51
238.107	17510.44
238.178	17507.26
238.25	17474.39
238.322	17477.77
238.394	17425.81
238.466	17400.03
238.538	17384.7
238.609	17360.66
238.681	17314.78
238.753	17277.62
238.825	17260.75
238.897	17241.76
238.968	17231.5
239.04	17197.04
239.112	17203.79
239.184	17163.35
239.255	17128.03
239.327	17107.26
239.399	17086.39
239.471	17076.27
239.542	17065.28
239.614	17058.72
239.686	17000.8
239.758	16985.81
239.829	16941.9
239.901	16938.14
239.973	16907.3
240.044	16890.72
240.116	16868.45
240.188	16841.41
240.259	16819.87
240.331	16780.83
240.403	16758.81
240.474	16717.7
240.546	16684.68
240.618	16643.33
240.689	16614.99
240.761	16591.23
240.833	16583.43
240.904	16551.33
240.976	16522.7
241.048	16492.96
241.119	16477.3
241.191	16464.24
241.262	16458.5
241.334	16429.1
241.405	16396.28
241.477	16370.73
241.549	16337.53
241.62	16313.76
241.692	16308.56
241.763	16294
241.835	16265.61
241.906	16235.3
241.978	16192.88
242.049	16180.3
242.121	16167.44
242.192	16151.34
242.264	16114.32
242.335	16061.69
242.407	16053.01
242.478	16027.27
242.55	15999.46
242.621	15959.7
242.693	15928.61
242.764	15890
242.836	15860.17
242.907	15842.14
242.979	15812.5
243.05	15793.94
243.122	15781.07
243.193	15744.01
243.264	15693.15
243.336	15668.19
243.407	15651.27
243.479	15645.53
243.55	15622.59
243.622	15593.33
243.693	15563.59
243.764	15562.92
243.836	15532.45
243.907	15488.78
243.978	15449.26
244.05	15434.41
244.121	15392.96
244.192	15381.82
244.264	15344.85
244.335	15323.98
244.407	15275.73
244.478	15256.06
244.549	15222.08
244.62	15172.48
244.692	15141.82
244.763	15126.54
244.834	15095.36
244.906	15058.53
244.977	15032.02
245.048	15020.55
245.119	14984.73
245.191	14941.49
245.262	14886.35
245.333	14878.11
245.405	14859.6
245.476	14846
245.547	14813.95
245.618	14798.62
245.689	14767.82
245.761	14742.8
245.832	14710.02
245.903	14698.64
245.974	14679.31
246.045	14656.66
246.117	14651.11
246.188	14621.23
246.259	14586.42
246.33	14553.93
246.401	14526.7
246.473	14482.01
246.544	14444.7
246.615	14432.55
246.686	14410.04
246.757	14405.99
246.828	14366.56
246.899	14363.43
246.97	14320.81
247.042	14286.59
247.113	14277.09
247.184	14275.21
247.255	14244.6
247.326	14222.42
247.397	14196.59
247.468	14170.41
247.539	14147.32
247.61	14105.52
247.681	14085.04
247.752	14068.12
247.823	14035.53
247.894	14020.25
247.965	13987.8
248.037	13958.35
248.108	13916.89
248.179	13888.93
248.25	13854.47
248.321	13839.67
248.392	13783.8
248.463	13778.3
248.534	13756.27
248.605	13731.01
248.675	13695.48
248.746	13676.49
248.817	13654.99
248.888	13630.55
248.959	13591.45
249.03	13568.46
249.101	13548.02
249.172	13519.82
249.243	13482.75
249.314	13480.19
249.385	13450.79
249.456	13434.73
249.527	13402.29
249.598	13382.86
249.669	13364.4
249.739	13347.72
249.81	13330.56
249.881	13302.16
249.952	13277.87
250.023	13252.99
250.094	13213.75
250.165	13178.56
250.235	13151.66
250.306	13129.83
250.377	13095.26
250.448	13076.9
250.519	13034.91
250.59	13030.14
250.66	13002.76
250.731	12994.85
250.802	12970.75
250.873	12950.84
250.944	12936.52
251.014	12909.62
251.085	12909.52
251.156	12892.03
251.227	12885.08
251.297	12870.09
251.368	12857.17
251.439	12841.89
251.51	12831.58
251.58	12798.22
251.651	12774.89
251.722	12771.37
251.792	12731.02
251.863	12707.98
251.934	12704.03
252.005	12705.71
252.075	12673.61
252.146	12669.08
252.217	12656.98
252.287	12648.35
252.358	12621.06
252.429	12619.42
252.499	12592.14
252.57	12576.86
252.641	12564.95
252.711	12537.33
252.782	12504.94
252.852	12505.85
252.923	12486.86
252.994	12472.06
253.064	12469.94
253.135	12442.42
253.205	12413.54
253.276	12420.63
253.347	12417.83
253.417	12381.63
253.488	12369.68
253.558	12354.64
253.629	12330.92
253.699	12313.18
253.77	12294.77
253.841	12281.8
253.911	12256.16
253.982	12244.3
254.052	12224.01
254.123	12212.68
254.193	12195.04
254.264	12214.08
254.334	12194.36
254.405	12166.93
254.475	12137.05
254.546	12118.15
254.616	12110.2
254.687	12106.25
254.757	12088.7
254.827	12075.59
254.898	12066.53
254.968	12039.87
255.039	12010.81
255.109	11999.72
255.18	11973.98
255.25	11932.29
255.321	11923.13
255.391	11893.68
255.461	11910.26
255.532	11869.34
255.602	11834.25
255.673	11792.99
255.743	11760.75
255.813	11712.02
255.884	11708.16
255.954	11698.28
256.024	11697.27
256.095	11676.74
256.165	11634.08
256.235	11619.77
256.306	11588.82
256.376	11587.38
256.446	11575.38
256.517	11563.04
256.587	11558.31
256.657	11541.35
256.728	11527.95
256.798	11507.18
256.868	11489.25
256.938	11451.41
257.009	11441.2
257.079	11438.74
257.149	11447.27
257.219	11415.36
257.29	11398.35
257.36	11357.77
257.43	11344.57
257.5	11304.9
257.571	11288.85
257.641	11282.06
257.711	11251.07
257.781	11240.37
257.852	11219.55
257.922	11179.65
257.992	11161.62
258.062	11138.49
258.132	11131.74
258.202	11110.68
258.273	11093.43
258.343	11091.36
258.413	11064.76
258.483	11045.82
258.553	11010.69
258.623	10988.66
258.693	10973.58
258.764	10974.25
258.834	10971.51
258.904	10954.16
258.974	10927.37
259.044	10909.78
259.114	10896.67
259.184	10887.42
259.254	10868.48
259.324	10838.22
259.394	10833.45
259.464	10834.41
259.535	10819.09
259.605	10797.06
259.675	10781.16
259.745	10772.39
259.815	10745.94
259.885	10718.52
259.955	10744.06
260.025	10726.09
260.095	10707.97
260.165	10696.94
260.235	10696.89
260.305	10674.68
260.375	10643.94
260.445	10653.04
260.515	10649.19
260.585	10650.97
260.655	10631.65
260.725	10630.88
260.795	10622.3
260.865	10628.42
260.934	10606.74
261.004	10598.88
261.074	10585.39
261.144	10583.9
261.214	10579.9
261.284	10566.27
261.354	10568.38
261.424	10533.98
261.494	10543.27
261.564	10531.52
261.634	10521.98
261.703	10487.63
261.773	10483.96
261.843	10478.47
261.913	10459.92
261.983	10433.23
262.053	10421.86
262.123	10407.55
262.192	10378.4
262.262	10373.2
262.332	10346.17
262.402	10335.57
262.472	10318.9
262.541	10286.38
262.611	10282.68
262.681	10254.88
262.751	10247.5
262.821	10233.25
262.89	10203.13
262.96	10191.28
263.03	10193.5
263.1	10191.86
263.169	10185.02
263.239	10174.42
263.309	10180.4
263.379	10175.29
263.448	10161.8
263.518	10146.43
263.588	10128.46
263.657	10128.85
263.727	10120.52
263.797	10106.98
263.867	10091.76
263.936	10058.52
264.006	10059.1
264.076	10045.22
264.145	10030.29
264.215	10014.88
264.285	10014.78
264.354	9985.93
264.424	9962.42
264.494	9935.98
264.563	9906.2
264.633	9909.29
264.702	9905.53
264.772	9878.41
264.842	9856.97
264.911	9849.56
264.981	9826.82
265.05	9820.61
265.12	9803.89
265.19	9792.28
265.259	9783.61
265.329	9780.87
265.398	9774.85
265.468	9785.98
265.537	9767.63
265.607	9760.98
265.676	9752.41
265.746	9743.06
265.815	9749.03
265.885	9735.31
265.955	9710.7
266.024	9694.23
266.094	9662.97
266.163	9656.56
266.232	9657.86
266.302	9650.83
266.371	9637.54
266.441	9624.68
266.51	9621.45
266.58	9607.63
266.649	9587.6
266.719	9587.02
266.788	9580.23
266.858	9588.37
266.927	9548.68
266.996	9537.7
267.066	9527.4
267.135	9505.58
267.205	9501.06
267.274	9487.96
267.343	9492.97
267.413	9485.31
267.482	9491.43
267.552	9493.45
267.621	9461.09
267.69	9430.85
267.76	9416.69
267.829	9411.73
267.898	9399.31
267.968	9370.46
268.037	9365.65
268.106	9363.58
268.176	9335.65
268.245	9321.49
268.314	9296.74
268.384	9303.29
268.453	9292.16
268.522	9293.08
268.592	9298.13
268.661	9277.81
268.73	9269
268.799	9241.61
268.869	9246.04
268.938	9212.28
269.007	9197.79
269.076	9192.83
269.146	9190.66
269.215	9187.05
269.284	9200.15
269.353	9184.12
269.422	9178.25
269.492	9162.98
269.561	9123.99
269.63	9121.68
269.699	9101.6
269.768	9095.44
269.838	9084.22
269.907	9082.73
269.976	9048.06
270.045	9013.35
270.114	9006.23
270.183	8993.13
270.253	8995.16
270.322	8975.32
270.391	8970.56
270.46	8970.99
270.529	8972.39
270.598	8970.6
270.667	8957.89
270.736	8934.64
270.806	8936.42
270.875	8940.27
270.944	8929.2
271.013	8960.54
271.082	8956.21
271.151	8950.57
271.22	8930.16
271.289	8919.81
271.358	8905.76
271.427	8905.95
271.496	8904.51
271.565	8892.95
271.634	8889.34
271.703	8915.73
271.772	8917.56
271.841	8905.91
271.91	8883.67
271.979	8877.03
272.048	8854.5
272.117	8849.83
272.186	8834.09
272.255	8831.01
272.324	8827.5
272.393	8826.05
272.462	8805.06
272.531	8796.54
272.6	8790.91
272.669	8796.25
272.738	8783.11
272.807	8782.92
272.876	8766.56
272.945	8793.66
273.013	8795.05
273.082	8801.12
273.151	8754.42
273.22	8742.77
273.289	8737
273.358	8752.35
273.427	8739.89
273.496	8744.03
273.564	8742.58
273.633	8743.4
273.702	8725.4
273.771	8714.91
273.84	8705.47
273.909	8703.07
273.977	8705.76
274.046	8694.36
274.115	8698.45
274.184	8689.02
274.253	8680.98
274.322	8687.52
274.39	8657.58
274.459	8638.43
274.528	8609.12
274.597	8605.7
274.665	8601.56
274.734	8612.3
274.803	8592.85
274.872	8586.16
274.94	8567.2
275.009	8629.85
275.078	8617.19
275.147	8616.42
275.215	8613.58
275.284	8628.12
275.353	8615.27
275.421	8587.16
275.49	8600.2
275.559	8591.06
275.627	8586.54
275.696	8579.51
275.765	8581.1
275.833	8564.79
275.902	8564.93
275.971	8575.37
276.039	8587.93
276.108	8594.19
276.177	8589.62
276.245	8584.71
276.314	8577.4
276.383	8589.91
276.451	8522.54
276.52	8523.17
276.588	8531.35
276.657	8541.51
276.725	8525.19
276.794	8528.32
276.863	8541.94
276.931	8516.38
277	8521.87
277.068	8532.94
277.137	8552.52
277.205	8550.7
277.274	8575.67
277.342	8593.96
277.411	8577.41
277.48	8561.28
277.548	8554.35
277.617	8555.51
277.685	8552.96
277.754	8560.95
277.822	8550.65
277.89	8559.99
277.959	8550.99
278.027	8536.02
278.096	8520.86
278.164	8552.53
278.233	8542.91
278.301	8530.88
278.37	8545.36
278.438	8531.94
278.507	8532.47
278.575	8506.05
278.643	8501.04
278.712	8487.9
278.78	8466.2
278.849	8475.19
278.917	8488.04
278.985	8477.94
279.054	8482.22
279.122	8493.19
279.191	8491.8
279.259	8488.72
279.327	8470.48
279.396	8492.76
279.464	8490.26
279.532	8498.15
279.601	8491.75
279.669	8490.88
279.737	8500.26
279.806	8498.82
279.874	8510.13
279.942	8504.64
280.011	8496.22
280.079	8505.95
280.147	8517.4
280.215	8529.28
280.284	8527.89
280.352	8509.89
280.42	8518.36
280.488	8504.12
280.557	8497.19
280.625	8504.41
280.693	8504.89
280.761	8505.61
280.83	8485.16
280.898	8493.14
280.966	8473.99
281.034	8435.49
281.102	8417.98
281.171	8415.67
281.239	8423.18
281.307	8412.74
281.375	8403.45
281.443	8435.07
281.512	8426.11
281.58	8434.39
281.648	8417.7
281.716	8419.67
281.784	8424.29
281.852	8421.21
281.92	8425.44
281.989	8429.34
282.057	8408.41
282.125	8456.11
282.193	8457.36
282.261	8462.51
282.329	8465.3
282.397	8469.34
282.465	8482.14
282.533	8502.44
282.601	8494.21
282.67	8470.58
282.738	8464.91
282.806	8478.14
282.874	8460.52
282.942	8468.32
283.01	8457.49
283.078	8461.1
283.146	8455.33
283.214	8462.11
283.282	8466.01
283.35	8481.26
283.418	8477.9
283.486	8486.65
283.554	8445.74
283.622	8445.11
283.69	8443.09
283.758	8436.26
283.826	8441.31
283.894	8449.35
283.962	8472.93
284.03	8484.29
284.098	8491.21
284.165	8484.19
284.233	8488.67
284.301	8486.21
284.369	8481.78
284.437	8477.45
284.505	8474.81
284.573	8494.82
284.641	8483.95
284.709	8490.01
284.777	8472.59
284.845	8481.16
284.912	8481.11
284.98	8480.73
285.048	8476.97
285.116	8481.78
285.184	8491.6
285.252	8488.28
285.319	8475.48
285.387	8459.16
285.455	8443.38
285.523	8445.5
285.591	8444.3
285.659	8449.16
285.726	8461.28
285.794	8446.8
285.862	8442.52
285.93	8439.92
285.997	8432.27
286.065	8430.44
286.133	8421.25
286.201	8413.26
286.269	8394.25
286.336	8387.85
286.404	8381.12
286.472	8392.28
286.539	8372.65
286.607	8358.7
286.675	8364.09
286.743	8369.28
286.81	8367.7
286.878	8386.65
286.946	8382.52
287.013	8387.52
287.081	8375.63
287.149	8360.04
287.216	8374.14
287.284	8368.7
287.352	8369.38
287.419	8367.35
287.487	8380.15
287.555	8388.62
287.622	8390.5
287.69	8403.88
287.758	8415.95
287.825	8417.49
287.893	8406.71
287.96	8418.84
288.028	8431.93
288.096	8433.51
288.163	8435.97
288.231	8423.55
288.298	8421.48
288.366	8440.25
288.433	8436.5
288.501	8435.68
288.569	8446.27
288.636	8445.55
288.704	8465.08
288.771	8477.64
288.839	8469.66
288.906	8464.6
288.974	8470.38
289.041	8471.44
289.109	8460.51
289.176	8472.64
289.244	8472.21
289.311	8484.91
289.379	8491.7
289.446	8489.72
289.514	8490.59
289.581	8486.5
289.649	8486.55
289.716	8489.97
289.783	8476.54
289.851	8499.25
289.918	8499.3
289.986	8500.69
290.053	8502.72
290.121	8496.84
290.188	8496.6
290.255	8522.11
290.323	8514.27
290.39	8510.08
290.458	8515.52
290.525	8532.45
290.592	8526.92
290.66	8532.93
290.727	8520.47
290.794	8538.95
290.862	8543.86
290.929	8551.13
290.996	8551.03
291.064	8562.15
291.131	8571.1
291.198	8587.56
291.266	8581.4
291.333	8583.23
291.4	8591.46
291.468	8606.42
291.535	8606.38
291.602	8610.95
291.669	8607.92
291.737	8623.22
291.804	8624.9
291.871	8638.71
291.938	8641.31
292.006	8670.29
292.073	8685.45
292.14	8703.21
292.207	8686.85
292.275	8690.17
292.342	8691.95
292.409	8725.21
292.476	8749.85
292.543	8739.02
292.611	8739.99
292.678	8763.28
292.745	8790.04
292.812	8800.63
292.879	8796.45
292.946	8802.56
293.014	8817.58
293.081	8818.54
293.148	8826.43
293.215	8844.29
293.282	8834.62
293.349	8842.7
293.416	8821.66
293.484	8832.69
293.551	8841.5
293.618	8860.08
293.685	8884.43
293.752	8878.95
293.819	8877.74
293.886	8865.66
293.953	8877.07
294.02	8890.4
294.087	8897.58
294.154	8889.73
294.221	8905.42
294.288	8910.09
294.356	8924.63
294.423	8929.83
294.49	8931.03
294.557	8943.6
294.624	8932.77
294.691	8961.65
294.758	8968.82
294.825	8972.09
294.892	8961.17
294.959	8964.01
295.026	8972.04
295.093	8966.56
295.16	8974.83
295.226	8975.22
295.293	9001.55
295.36	9006.18
295.427	9011.42
295.494	9015.61
295.561	9020.38
295.628	9045.18
295.695	9062.37
295.762	9065.06
295.829	9083.55
295.896	9098.19
295.963	9114.99
296.03	9125.2
296.096	9131.5
296.163	9140.79
296.23	9157.98
296.297	9179.4
296.364	9175.31
296.431	9187.98
296.498	9186
296.564	9209.35
296.631	9205.79
296.698	9194.14
296.765	9216.57
296.832	9209.4
296.899	9200.3
296.965	9218.93
297.032	9192.88
297.099	9210.55
297.166	9214.64
297.233	9200.77
297.299	9193.26
297.366	9191.24
297.433	9190.09
297.5	9200.87
297.566	9196.01
297.633	9194.85
297.7	9192.88
297.767	9195.91
297.833	9196.83
297.9	9193.7
297.967	9174.54
298.033	9193.56
298.1	9221
298.167	9210.41
298.234	9212.58
298.3	9222.64
298.367	9218.6
298.434	9220.23
298.5	9202.32
298.567	9199.96
298.634	9195.48
298.7	9215.42
298.767	9219.94
298.834	9243.49
298.9	9238.96
298.967	9236.65
299.033	9246.71
299.1	9262.56
299.167	9276.13
299.233	9270.5
299.3	9288.41
299.366	9310.12
299.433	9327.32
299.5	9303.62
299.566	9311.42
299.633	9329.58
299.699	9337.81
299.766	9338.34
299.832	9350.33
299.899	9367.86
299.965	9380.81
300.032	9386.49
300.099	9395.11
300.165	9399.01
300.232	9391.02
300.298	9391.64
300.365	9406.57
300.431	9410.04
300.498	9405.37
300.564	9412.01
300.631	9422.99
300.697	9432.67
300.763	9431.47
300.83	9420.87
300.896	9434.55
300.963	9444.23
301.029	9452.32
301.096	9456.7
301.162	9470.28
301.229	9465.94
301.295	9450.73
301.361	9456.12
301.428	9460.36
301.494	9442.88
301.561	9440.76
301.627	9441.53
301.693	9443.74
301.76	9447.84
301.826	9441.34
301.892	9444.56
301.959	9455.16
302.025	9453.52
302.092	9454.05
302.158	9464.21
302.224	9468.69
302.291	9456.84
302.357	9456.36
302.423	9447.93
302.49	9443.02
302.556	9452.08
302.622	9454.53
302.688	9469.27
302.755	9484.54
302.821	9492.29
302.887	9506.4
302.954	9513.43
303.02	9520.12
303.086	9528.84
303.152	9519.64
303.219	9513.96
303.285	9529.27
303.351	9533.61
303.417	9539.05
303.483	9527.01
303.55	9520.94
303.616	9519.21
303.682	9523.35
303.748	9515.16
303.815	9531.35
303.881	9543.15
303.947	9530.67
304.013	9526.87
304.079	9523.01
304.145	9500.81
304.212	9503.46
304.278	9495.13
304.344	9485.64
304.41	9470.91
304.476	9457.91
304.542	9459.06
304.608	9471.63
304.674	9447.94
304.741	9444.66
304.807	9446.25
304.873	9455.55
304.939	9469.7
305.005	9453.38
305.071	9450.59
305.137	9447.84
305.203	9425.26
305.269	9421.84
305.335	9437.78
305.401	9438.26
305.467	9433.01
305.533	9446.49
305.599	9454.25
305.666	9467.63
305.732	9469.95
305.798	9490.75
305.864	9521.91
305.93	9531.35
305.996	9526.05
306.062	9531.3
306.128	9529.95
306.194	9517.96
306.259	9520.22
306.325	9510.74
306.391	9526.63
306.457	9537.7
306.523	9540.21
306.589	9559.37
306.655	9546.85
306.721	9520.46
306.787	9507.12
306.853	9523.02
306.919	9499.66
306.985	9489.79
307.051	9474.28
307.117	9467.25
307.183	9456.51
307.248	9419.43
307.314	9420.83
307.38	9422.32
307.446	9424.44
307.512	9414.13
307.578	9416.64
307.644	9405.22
307.709	9408.4
307.775	9400.22
307.841	9396.84
307.907	9400.46
307.973	9382.06
308.039	9381.48
308.104	9392.41
308.17	9390.78
308.236	9371.9
308.302	9384.9
308.368	9375.08
308.433	9382.2
308.499	9379.7
308.565	9372.04
308.631	9380.08
308.696	9352.11
308.762	9345.7
308.828	9352.64
308.894	9332.9
308.959	9314.02
309.025	9302.76
309.091	9297.94
309.156	9291.68
309.222	9287.78
309.288	9276.8
309.354	9259.47
309.419	9261.93
309.485	9246.13
309.551	9253.31
309.616	9236.5
309.682	9229.86
309.748	9220.76
309.813	9209.35
309.879	9197.55
309.945	9185.66
310.01	9177.52
310.076	9185.85
310.141	9180.6
310.207	9163.31
310.273	9166.49
310.338	9173.38
310.404	9164.57
310.469	9148.1
310.535	9137.55
310.601	9112.95
310.666	9120.61
310.732	9134.09
310.797	9114.54
310.863	9103.28
310.928	9102.65
310.994	9112.62
311.059	9107.27
311.125	9101.98
311.191	9119.65
311.256	9108.63
311.322	9115.08
311.387	9095.68
311.453	9513.57
311.518	9481.85
311.584	9477.8
311.649	9482.57
311.715	9469.19
311.78	9471.54
311.846	9468.27
311.911	9478.72
311.976	9485.41
312.042	9465.14
312.107	9445.16
312.173	9442.51
312.238	9439.96
312.304	9427.35
312.369	9414.16
312.434	9401.83
312.5	9399.23
312.565	9359.71
312.631	9364.09
312.696	9353.74
312.761	9357.44
312.827	8929.39
312.892	8968.72
312.958	8964.68
313.023	8960.78
313.088	8963.47
313.154	8949.56
313.219	8940.95
313.284	8927.22
313.35	8921.11
313.415	8914.8
313.48	8913.5
313.546	8919.52
313.611	8930.69
313.676	8926.6
313.741	8921.45
313.807	8931.41
313.872	8929.39
313.937	8939.5
314.003	8950.19
314.068	8950.38
314.133	8954.04
314.198	8943.16
314.264	8925.25
314.329	8914.61
314.394	8913.12
314.459	8910.86
314.525	8930.88
314.59	8917.79
314.655	8904.74
314.72	8911.39
314.785	8910.14
314.851	8904.84
314.916	8886.07
314.981	8868.21
315.046	8859.4
315.111	8849.73
315.176	8837.02
315.242	8840.68
315.307	8834.95
315.372	8812.85
315.437	8809.48
315.502	8802.55
315.567	8812.32
315.632	8796.87
315.698	8800.05
315.763	8791.62
315.828	8781.66
315.893	8772.75
315.958	8777.62
316.023	8772.9
316.088	8753.89
316.153	8732.86
316.218	8723.04
316.283	8705.72
316.348	8690.36
316.413	8687.76
316.479	8673.23
316.544	8636.28
316.609	8610.48
316.674	8575.64
316.739	8543.55
316.804	8510.73
316.869	8473.2
316.934	8432.87
316.999	8405.97
317.064	8353.1
317.129	8311.86
317.194	8274.86
317.259	8227.75
317.324	8175.9
317.389	8130.63
317.454	8093.3
317.518	8060.83
317.583	8036.92
317.648	8010.51
317.713	7972.61
317.778	7910.22
317.843	7882.47
317.908	7847.71
317.973	7807.98
318.038	7787.92
318.103	7750.71
318.168	7717.91
318.233	7694.25
318.297	7653.19
318.362	7612.9
318.427	7575.12
318.492	7549.2
318.557	7500.94
318.622	7472
318.687	7448.92
318.751	7407.64
318.816	7378.46
318.881	7346.69
318.946	7289.2
319.011	7245.8
319.075	7206.88
319.14	7176.56
319.205	7130.18
319.27	7097.47
319.335	7051.05
319.399	7001.41
319.464	6977.06
319.529	6925.08
319.594	6880.73
319.658	6853.06
319.723	6809.97
319.788	6785.91
319.853	6732.15
319.917	6703.34
319.982	6653.3
320.047	6615.21
320.112	6589.28
320.176	6538.43
320.241	6505.2
320.306	6478.89
320.37	6437.56
320.435	6410.76
320.5	6384.26
320.564	6348.65
320.629	6309.68
320.694	6282.8
320.758	6245.84
320.823	6208.45
320.888	6184.12
320.952	6141.37
321.017	6097.27
321.082	6064.4
321.146	6026.35
321.211	5991.48
321.275	5953.58
321.34	5910.23
321.405	5868.98
321.469	5826.68
321.534	5783.86
321.598	5734.08
321.663	5705.63
321.727	5681.22
321.792	5627.47
321.857	5583.79
321.921	5542.56
321.986	5501.63
322.05	5445.12
322.115	5406.16
322.179	5358.57
322.244	5302.07
322.308	5269.1
322.373	5225.59
322.437	5183.62
322.502	5160.81
322.566	5118.99
322.631	5080
322.695	5039.44
322.76	4996.29
322.824	4961.67
322.889	4924.18
322.953	4880.76
323.018	4812.05
323.082	4748.19
323.146	4703.97
323.211	4649.69
323.275	4609.34
323.34	4569.1
323.404	4533.85
323.468	4491.36
323.533	4447.2
323.597	4401.49
323.662	4348.58
323.726	4312.32
323.79	4264.4
323.855	4199.72
323.919	4152.9
323.983	4114.32
324.048	4050.49
324.112	4205.37
324.177	4077.41
324.241	3866.1
324.305	3660.87
324.37	3460.75
324.434	3265.22
324.498	3219.97
324.562	3172.29
324.627	3111.23
324.691	3052.01
324.755	2988.85
324.82	2913.31
324.884	2838.45
324.948	2768.83
325.012	2673.89
325.077	2550.92
