Data from 20250704_urea_1M_MAYP1162681_11-32-06-656.txt Node
Date: Fri Jul 04 11:32:06 BST 2025
User: adleo
Spectrometer: MAYP116268
Trigger mode: 0
Integration Time (sec): 1.000000E0
Scans to average: 1
Electric dark correction enabled: true
Nonlinearity correction enabled: true
Boxcar width: 10
XAxis mode: Wavelengths
Number of Pixels in Spectrum: 2068
>>>>>Begin Spectral Data<<<<<
179.565	1255.93
179.642	1312.94
179.718	1361.41
179.795	1398.47
179.871	1432.58
179.948	1451.2
180.024	1474.15
180.101	1495.26
180.177	1509.43
180.254	1532.31
180.33	1554.44
180.407	1611.27
180.483	1708.29
180.56	1805.83
180.636	1894.66
180.712	1881.78
180.789	1893.81
180.865	1907.87
180.942	1917.33
181.018	1925.46
181.095	1935.5
181.171	1942.3
181.248	1945.24
181.324	1959.37
181.4	1969.26
181.477	1978.63
181.553	1993.98
181.63	2015.24
181.706	2031.08
181.782	2040.21
181.859	2039.78
181.935	2045.96
182.011	2041.54
182.088	2059.71
182.164	2077.88
182.24	2091.72
182.317	2101.14
182.393	2097.71
182.469	2113.89
182.546	2126.4
182.622	2133.29
182.698	2130.39
182.775	2140.24
182.851	2152.65
182.927	2144.09
183.003	2138.15
183.08	2133.39
183.156	2141.95
183.232	2137.19
183.308	2128.97
183.385	2139.05
183.461	2159.13
183.537	2160.69
183.613	2174.73
183.69	2166.55
183.766	2151.93
183.842	2157.45
183.918	2166.54
183.995	2179.91
184.071	2183.19
184.147	2178.05
184.223	2166.4
184.299	2179.77
184.375	2167.64
184.452	2177.69
184.528	2228.12
184.604	2239.83
184.68	2252.29
184.756	2260.24
184.832	2268.95
184.908	2271.94
184.985	2268.99
185.061	2253.67
185.137	2266.43
185.213	2253.68
185.289	2253.11
185.365	2247.68
185.441	2247.92
185.517	2260.16
185.593	2256.97
185.669	2251.45
185.745	2264.15
185.822	2282.47
185.898	2274.37
185.974	2286.41
186.05	2273.42
186.126	2239.97
186.202	2233.88
186.278	2230.74
186.354	2218.89
186.43	2220.98
186.506	2219.98
186.582	2221.31
186.658	2225.31
186.734	2202.09
186.81	2205.66
186.886	2210.99
186.962	2223.45
187.038	2221.31
187.114	2211.79
187.19	2218.64
187.266	2210.6
187.341	2206.94
187.417	2200.32
187.493	2198.66
187.569	2199.7
187.645	2200.13
187.721	2184.05
187.797	2193.8
187.873	2198.23
187.949	2192.71
188.025	2187.19
188.101	2189.9
188.176	2191.18
188.252	2187
188.328	2193.7
188.404	2195.27
188.48	2187.71
188.556	2180.91
188.632	2177.72
188.707	2176.53
188.783	2174.2
188.859	2168.2
188.935	2161.4
189.011	2166.16
189.086	2161.07
189.162	2150.79
189.238	2143.56
189.314	2141.66
189.39	2134.81
189.465	2125.43
189.541	2141.37
189.617	2126.1
189.693	2121.97
189.768	2127.01
189.844	2157.09
189.92	2151.48
189.996	2159.66
190.071	2172.6
190.147	2172.08
190.223	2184.22
190.298	2178.03
190.374	2167.9
190.45	2181.31
190.526	2189.21
190.601	2184.02
190.677	2188.49
190.753	2220.01
190.828	2226.71
190.904	2244.61
190.98	2255.6
191.055	2268.59
191.131	2260.12
191.207	2279.96
191.282	2290.71
191.358	2282.29
191.433	2262.72
191.509	2275.13
191.585	2271.51
191.66	2272.37
191.736	2279.89
191.811	2268.61
191.887	2284.08
191.963	2303.26
192.038	2307.3
192.114	2309.11
192.189	2316.68
192.265	2309.92
192.34	2288.97
192.416	2285.26
192.491	2281.74
192.567	2289.02
192.642	2292.16
192.718	2291.69
192.793	2280.22
192.869	2274.46
192.944	2277.22
193.02	2284.89
193.095	2287.46
193.171	2294.02
193.246	2295.4
193.322	2294.21
193.397	2295.02
193.473	2283.36
193.548	2265.37
193.624	2269.51
193.699	2266.89
193.775	2279.56
193.85	2282.31
193.925	2287.03
194.001	2287.5
194.076	2282.46
194.152	2269.18
194.227	2259.71
194.302	2250.1
194.378	2256
194.453	2255.66
194.529	2266.56
194.604	2251.24
194.679	2245.15
194.755	2223.79
194.83	2235.6
194.905	2231.89
194.981	2239.45
195.056	2232.08
195.131	2240.64
195.207	2240.83
195.282	2230.41
195.357	2211.85
195.433	2226.79
195.508	2214.18
195.583	2220.79
195.659	2233.36
195.734	2241.07
195.809	2242.16
195.884	2254.1
195.96	2252.49
196.035	2265.67
196.11	2264.48
196.185	2276.28
196.261	2281.13
196.336	2313.34
196.411	2297.16
196.486	2303.49
196.561	2298.97
196.637	2304.77
196.712	2321.77
196.787	2324.86
196.862	2340.85
196.937	2352.65
197.013	2358.8
197.088	2369.36
197.163	2392.36
197.238	2409.75
197.313	2410.56
197.388	2427.32
197.464	2456.84
197.539	2468.46
197.614	2461.94
197.689	2471.08
197.764	2486.79
197.839	2507.65
197.914	2502.74
197.989	2527.36
198.065	2541.79
198.14	2591.96
198.215	2619.11
198.29	2628.68
198.365	2642.31
198.44	2651.4
198.515	2679.23
198.59	2693.38
198.665	2720.86
198.74	2728.1
198.815	2726.86
198.89	2749.44
198.965	2778
199.04	2774.85
199.115	2793.15
199.19	2836.26
199.265	2841.88
199.34	2853.89
199.415	2887.56
199.49	2913
199.565	2922.54
199.64	2947.61
199.715	2949.04
199.79	2959.38
199.865	2966.82
199.94	2967.25
200.015	3004.63
200.09	3010.69
200.165	3019.94
200.24	3028.18
200.315	3072.42
200.39	3088.78
200.464	3096.45
200.539	3096.98
200.614	3111.04
200.689	3130.64
200.764	3138.37
200.839	3158.01
200.914	3164.21
200.989	3152.99
201.063	3166.59
201.138	3148.62
201.213	3148.1
201.288	3125.21
201.363	3129.07
201.438	3128.31
201.512	3144.75
201.587	3123.33
201.662	3124.96
201.737	3135.45
201.812	3145.9
201.886	3109.81
201.961	3120.64
202.036	3109.77
202.111	3106.19
202.186	3082.03
202.26	3066.87
202.335	3044.83
202.41	3038.82
202.485	3020.47
202.559	3000.78
202.634	2968.84
202.709	2979.66
202.784	2957.97
202.858	2961.11
202.933	2940.9
203.008	2935.61
203.082	2912.64
203.157	2914.31
203.232	2874.24
203.306	2850.54
203.381	2816.07
203.456	2791.67
203.53	2770.68
203.605	2748.92
203.68	2724.23
203.754	2713.04
203.829	2694.55
203.904	2675.11
203.978	2660.67
204.053	2664.58
204.127	2651.15
204.202	2652.34
204.277	2633.76
204.351	2627.71
204.426	2615.18
204.5	2610.89
204.575	2574.13
204.65	2583.8
204.724	2571.6
204.799	2576.17
204.873	2575.41
204.948	2575.08
205.022	2563.51
205.097	2550.73
205.171	2563.73
205.246	2574.6
205.32	2574.84
205.395	2577.12
205.469	2565.7
205.544	2571.13
205.618	2554.7
205.693	2567.13
205.767	2554.56
205.842	2575.9
205.916	2568.66
205.991	2560.95
206.065	2565.33
206.14	2584.56
206.214	2579.84
206.289	2572.88
206.363	2587.27
206.438	2587.27
206.512	2592.51
206.586	2612.84
206.661	2620.42
206.735	2601.04
206.81	2600.9
206.884	2618.18
206.958	2605.56
207.033	2626.94
207.107	2635.19
207.181	2667.06
207.256	2659.11
207.33	2676.16
207.405	2689.99
207.479	2710.85
207.553	2717.28
207.628	2698.62
207.702	2710
207.776	2706.81
207.851	2709.57
207.925	2725.63
207.999	2728.45
208.073	2729.68
208.148	2733.02
208.222	2722.39
208.296	2755.16
208.371	2770.28
208.445	2781.43
208.519	2813.4
208.593	2825.6
208.668	2824.98
208.742	2827.93
208.816	2832.7
208.89	2852.62
208.965	2854.58
209.039	2866.79
209.113	2888.66
209.187	2913.14
209.261	2912.62
209.336	2936.07
209.41	2966.34
209.484	2970.49
209.558	2997
209.632	3013.97
209.707	3032.14
209.781	3063.75
209.855	3083.73
209.929	3113.76
210.003	3132.41
210.077	3141.18
210.151	3201.58
210.226	3250.88
210.3	3296.58
210.374	3338.89
210.448	3360.41
210.522	3389.48
210.596	3421.75
210.67	3456.16
210.744	3533.09
210.818	3591.97
210.892	3647.09
210.966	3668.29
211.041	3719.63
211.115	3753.2
211.189	3818.21
211.263	3874.96
211.337	3921.78
211.411	3984.63
211.485	4027.38
211.559	4090.27
211.633	4149.37
211.707	4174.96
211.781	4241.24
211.855	4268.6
211.929	4330.43
212.003	4379.38
212.077	4461.99
212.151	4548.57
212.225	4636.11
212.299	4706.92
212.373	4785.38
212.447	4866.77
212.52	4994.55
212.594	5093.88
212.668	5203.49
212.742	5291.52
212.816	5395.44
212.89	5503.32
212.964	5621.98
213.038	5739.02
213.112	5867.83
213.186	6009.04
213.26	6117.48
213.333	6203.87
213.407	6344.13
213.481	6481.86
213.555	6634.76
213.629	6766.62
213.703	6893.15
213.777	7042.69
213.85	7173.98
213.924	7359.57
213.998	7511.54
214.072	7661.83
214.146	7810.18
214.219	7971.73
214.293	8129.28
214.367	8297.61
214.441	8475.62
214.515	8629.05
214.588	8774.1
214.662	8915.32
214.736	9061.12
214.81	9236.88
214.883	9419.85
214.957	9573.29
215.031	9731.6
215.105	9880.39
215.178	10039.09
215.252	10211.96
215.326	10354.12
215.4	10504.37
215.473	10627.78
215.547	10779.22
215.621	10935.06
215.694	11110.04
215.768	11253.6
215.842	11416.29
215.915	11571.09
215.989	11715.25
216.063	11868.67
216.136	12034.81
216.21	12195.5
216.284	12380.4
216.357	12552.76
216.431	12711.21
216.504	12892.35
216.578	13086.23
216.652	13257.59
216.725	13416.76
216.799	13582.1
216.873	13743.59
216.946	13907.34
217.02	14061.5
217.093	14217.44
217.167	14345.67
217.24	14481.46
217.314	14624
217.387	14762.54
217.461	14895.53
217.535	15047.18
217.608	15181.52
217.682	15321.89
217.755	15471.5
217.829	15586.37
217.902	15720.27
217.976	15848.05
218.049	15965.17
218.123	16069.52
218.196	16198.5
218.27	16317.31
218.343	16423.34
218.417	16544.55
218.49	16668.61
218.563	16806.11
218.637	16921.4
218.71	17056.15
218.784	17176.78
218.857	17304.64
218.931	17416.31
219.004	17538.23
219.077	17650.14
219.151	17750.96
219.224	17858.23
219.298	17957.07
219.371	18077.94
219.444	18160.83
219.518	18260.68
219.591	18364.29
219.665	18488.19
219.738	18590.5
219.811	18676.76
219.885	18781.23
219.958	18883.2
220.031	18962.62
220.105	19045.99
220.178	19134.32
220.251	19219.96
220.325	19301.2
220.398	19379.61
220.471	19475.65
220.544	19557.24
220.618	19620.61
220.691	19701.47
220.764	19775.73
220.838	19852.98
220.911	19920.21
220.984	20000.69
221.057	20073.6
221.131	20130.56
221.204	20157.12
221.277	20230.66
221.35	20325.84
221.424	20371.96
221.497	20420.1
221.57	20473.4
221.643	20532.54
221.716	20598.85
221.79	20632.2
221.863	20685.55
221.936	20735.05
222.009	20771.48
222.082	20817.56
222.155	20863.49
222.229	20924.6
222.302	20970.24
222.375	21005.71
222.448	21046.49
222.521	21085.04
222.594	21121.24
222.667	21153.48
222.74	21208.28
222.814	21240
222.887	21252.33
222.96	21306.03
223.033	21349.89
223.106	21394.47
223.179	21415.68
223.252	21433.17
223.325	21457.61
223.398	21469.42
223.471	21494.68
223.544	21510.72
223.617	21524.75
223.69	21545.81
223.763	21544.61
223.837	21568.32
223.91	21589.97
223.983	21585.58
224.056	21583.6
224.129	21592.66
224.202	21615.22
224.275	21607.61
224.348	21597.05
224.42	21588.33
224.493	21572.18
224.566	21573.53
224.639	21584.95
224.712	21586.16
224.785	21579.17
224.858	21583.27
224.931	21586.21
225.004	21578.35
225.077	21588.23
225.15	21565.72
225.223	21559.74
225.296	21593.77
225.369	21565.38
225.442	21560.85
225.514	21565.63
225.587	21582.3
225.66	21590.01
225.733	21594.11
225.806	21594.3
225.879	21590.35
225.952	21589.44
226.025	21589.39
226.097	21596.09
226.17	21582.16
226.243	21557.53
226.316	21565.24
226.389	21567.22
226.461	21565.58
226.534	21562.93
226.607	21550.54
226.68	21562.64
226.753	21557.77
226.825	21518.77
226.898	21523.83
226.971	21509.18
227.044	21499.3
227.117	21482.72
227.189	21476.5
227.262	21465.9
227.335	21461.08
227.407	21456.84
227.48	21446.23
227.553	21438.86
227.626	21422.18
227.698	21410.18
227.771	21410.61
227.844	21384.39
227.916	21374.32
227.989	21351.71
228.062	21338.99
228.134	21346.51
228.207	21325.64
228.28	21312
228.352	21304.14
228.425	21303.18
228.498	21300.96
228.57	21278.31
228.643	21284.96
228.716	21259.18
228.788	21240.38
228.861	21228.38
228.934	21224.67
229.006	21212.91
229.079	21195.31
229.151	21164.76
229.224	21132.03
229.296	21118.15
229.369	21128.32
229.442	21123.84
229.514	21105.09
229.587	21097.67
229.659	21069.57
229.732	21065.23
229.804	21063.59
229.877	21067.11
229.949	21051.25
230.022	21056.51
230.094	21037.33
230.167	21013.76
230.239	20992.21
230.312	20967.64
230.384	20962.33
230.457	20944.36
230.529	20937.56
230.602	20931.01
230.674	20928.6
230.747	20926.81
230.819	20921.46
230.892	20867.29
230.964	20854.52
231.037	20832.69
231.109	20804.59
231.181	20782.62
231.254	20753.31
231.326	20721.7
231.399	20694.52
231.471	20665.21
231.544	20615.96
231.616	20615.81
231.688	20591.62
231.761	20569.88
231.833	20547.14
231.905	20511.52
231.978	20488.97
232.05	20455.86
232.122	20428.58
232.195	20387.81
232.267	20378.08
232.339	20351.62
232.412	20346.61
232.484	20312.48
232.556	20292.77
232.629	20297.64
232.701	20278.41
232.773	20256.29
232.846	20235.81
232.918	20205.74
232.99	20190.03
233.062	20177.16
233.135	20153.11
233.207	20117.16
233.279	20098.37
233.351	20084.44
233.424	20051.33
233.496	20015.09
233.568	20014.37
233.64	19972.3
233.713	19952.74
233.785	19918.86
233.857	19889.65
233.929	19849.66
234.001	19840.64
234.074	19832.79
234.146	19779.92
234.218	19764.84
234.29	19734.77
234.362	19694.24
234.434	19658.39
234.507	19608.32
234.579	19556.37
234.651	19516.27
234.723	19501.96
234.795	19486.01
234.867	19459.6
234.939	19455.89
235.012	19435.89
235.084	19406.59
235.156	19390.98
235.228	19358.31
235.3	19332.53
235.372	19300.82
235.444	19287.42
235.516	19235.13
235.588	19201.35
235.66	19181.93
235.732	19138.75
235.804	19174.75
235.876	19164.29
235.948	19151.81
236.02	19134.85
236.092	19114.8
236.164	19094.03
236.236	19059.48
236.308	19017.94
236.38	18983.2
236.452	18932.79
236.524	18902.43
236.596	18887.69
236.668	18857.18
236.74	18825.09
236.812	18792.17
236.884	18777.91
236.956	18751.4
237.028	18704.71
237.1	18664.28
237.172	18646.06
237.244	18636.47
237.316	18565.2
237.388	18529.49
237.46	18493.44
237.532	18468.77
237.604	18427.23
237.675	18406.7
237.747	18381.59
237.819	18343.86
237.891	18308.1
237.963	18270.13
238.035	18236.3
238.107	18172.78
238.178	18166.09
238.25	18133.51
238.322	18124.55
238.394	18071.73
238.466	18035.63
238.538	18025.85
238.609	18010.04
238.681	17954.53
238.753	17915.73
238.825	17885.71
238.897	17852.99
238.968	17845.09
239.04	17808.6
239.112	17807.06
239.184	17756.7
239.255	17727.98
239.327	17702
239.399	17672.56
239.471	17652.22
239.542	17625.76
239.614	17608.61
239.686	17549.24
239.758	17535.07
239.829	17494.2
239.901	17483.36
239.973	17448.61
240.044	17423.16
240.116	17385.81
240.188	17354.2
240.259	17313.86
240.331	17276.32
240.403	17253.81
240.474	17193.91
240.546	17159.07
240.618	17112.56
240.689	17080.8
240.761	17046.44
240.833	17036.36
240.904	17002.72
240.976	16973.47
241.048	16945.56
241.119	16919.73
241.191	16896.21
241.262	16884.6
241.334	16845.08
241.405	16805.27
241.477	16775
241.549	16734.52
241.62	16710.28
241.692	16692.73
241.763	16676.59
241.835	16642.37
241.906	16609.26
241.978	16559.95
242.049	16542.31
242.121	16526.31
242.192	16511.32
242.264	16460.57
242.335	16400.42
242.407	16392.66
242.478	16356.66
242.55	16327.02
242.621	16286.67
242.693	16252.45
242.764	16203.87
242.836	16162.08
242.907	16136.59
242.979	16114.61
243.05	16092.58
243.122	16061.35
243.193	16026.41
243.264	15976.66
243.336	15943.94
243.407	15924.03
243.479	15912.85
243.55	15882.29
243.622	15847.35
243.693	15809.56
243.764	15802.96
243.836	15768.35
243.907	15727.62
243.978	15700
244.05	15674.16
244.121	15629.29
244.192	15604.42
244.264	15565.9
244.335	15552.41
244.407	15508.74
244.478	15479.53
244.549	15442.56
244.62	15398.45
244.692	15368.42
244.763	15345.77
244.834	15308.75
244.906	15263.01
244.977	15250.43
245.048	15244.21
245.119	15206.95
245.191	15175.52
245.262	15125.1
245.333	15118.93
245.405	15089.77
245.476	15072.61
245.547	15043.01
245.618	15027.78
245.689	15001.94
245.761	14972.01
245.832	14937.64
245.903	14924.48
245.974	14896.62
246.045	14870.3
246.117	14861.52
246.188	14820.65
246.259	14775.14
246.33	14756
246.401	14733.25
246.473	14678.64
246.544	14634.53
246.615	14617.95
246.686	14593.41
246.757	14576.73
246.828	14537.49
246.899	14523.08
246.97	14473.67
247.042	14440.7
247.113	14413.7
247.184	14411.1
247.255	14383.43
247.326	14355.57
247.397	14317.68
247.468	14293.77
247.539	14269.28
247.61	14223.05
247.681	14204.44
247.752	14195.62
247.823	14158.7
247.894	14135.22
247.965	14103.64
248.037	14073.52
248.108	14037.84
248.179	14003.91
248.25	13977.92
248.321	13954.54
248.392	13919.5
248.463	13916.32
248.534	13889.42
248.605	13876.69
248.675	13837.02
248.746	13813.44
248.817	13793.29
248.888	13774.01
248.959	13730.05
249.03	13710.19
249.101	13689.7
249.172	13658.17
249.243	13617.63
249.314	13610.45
249.385	13583.84
249.456	13571.98
249.527	13539.87
249.598	13512.01
249.669	13488.53
249.739	13476.24
249.81	13461.82
249.881	13418.73
249.952	13395.2
250.023	13379.2
250.094	13338.42
250.165	13310.79
250.235	13295.61
250.306	13273.92
250.377	13242.15
250.448	13226.82
250.519	13180.64
250.59	13180.06
250.66	13164.01
250.731	13159.62
250.802	13129.54
250.873	13113.77
250.944	13089.33
251.014	13060.27
251.085	13065.33
251.156	13049.85
251.227	13036.74
251.297	13027.2
251.368	13020.11
251.439	13005.36
251.51	12988.82
251.58	12961.88
251.651	12932.37
251.722	12915.84
251.792	12878.62
251.863	12854.72
251.934	12845.89
252.005	12858.33
252.075	12832.78
252.146	12820.15
252.217	12811.91
252.287	12799.71
252.358	12782.26
252.429	12777.39
252.499	12753.34
252.57	12740.03
252.641	12731.02
252.711	12706
252.782	12664.16
252.852	12666.04
252.923	12641.02
252.994	12621.55
253.064	12609.01
253.135	12578.74
253.205	12551.41
253.276	12555.7
253.347	12555.7
253.417	12525.38
253.488	12496.02
253.558	12463.68
253.629	12444.73
253.699	12422.27
253.77	12411.47
253.841	12381.87
253.911	12371.9
253.982	12362.35
254.052	12347.6
254.123	12332.22
254.193	12308.7
254.264	12331.69
254.334	12301.28
254.405	12274.62
254.475	12241.12
254.546	12223.24
254.616	12225.12
254.687	12213.26
254.757	12196.34
254.827	12173.68
254.898	12166.41
254.968	12148.57
255.039	12128.33
255.109	12112.13
255.18	12084.9
255.25	12044.75
255.321	12036.74
255.391	11999.24
255.461	12002.62
255.532	11950.27
255.602	11922.51
255.673	11882.4
255.743	11851.7
255.813	11800.56
255.884	11791.26
255.954	11780.75
256.024	11778.1
256.095	11760.36
256.165	11731.92
256.235	11720.84
256.306	11700.26
256.376	11693.75
256.446	11680.88
256.517	11667.24
256.587	11667.1
256.657	11651.87
256.728	11637.02
256.798	11610.9
256.868	11586.66
256.938	11553.21
257.009	11550.17
257.079	11542.84
257.149	11558.31
257.219	11519.37
257.29	11523.23
257.36	11485.78
257.43	11483.42
257.5	11450.74
257.571	11431.08
257.641	11423.17
257.711	11390.59
257.781	11379.46
257.852	11365.72
257.922	11328.56
257.992	11311.5
258.062	11284.37
258.132	11277.43
258.202	11259.6
258.273	11252.46
258.343	11260.13
258.413	11236.9
258.483	11217.57
258.553	11186.78
258.623	11160.85
258.693	11149.04
258.764	11150.39
258.834	11149.28
258.904	11125.67
258.974	11097
259.044	11070.64
259.114	11053.87
259.184	11038.44
259.254	11015.65
259.324	10973.19
259.394	10970.01
259.464	10977.58
259.535	10964.28
259.605	10940.91
259.675	10920.67
259.745	10914.02
259.815	10890.02
259.885	10874.98
259.955	10886.6
260.025	10862.56
260.095	10846.27
260.165	10838.89
260.235	10838.41
260.305	10817.6
260.375	10791.09
260.445	10796.3
260.515	10804.01
260.585	10802.08
260.655	10791.58
260.725	10790.47
260.795	10784.44
260.865	10785.46
260.934	10750.47
261.004	10730.81
261.074	10711.06
261.144	10711.25
261.214	10696.46
261.284	10677.76
261.354	10670.39
261.424	10638.25
261.494	10644.65
261.564	10625.91
261.634	10615.5
261.703	10568.57
261.773	10562.26
261.843	10563.03
261.913	10552.53
261.983	10513.93
262.053	10501.07
262.123	10479.48
262.192	10444.46
262.262	10439.11
262.332	10413.09
262.402	10405.14
262.472	10399.02
262.541	10369.78
262.611	10365.73
262.681	10339.76
262.751	10337.69
262.821	10318.23
262.89	10294.57
262.96	10282.38
263.03	10294.28
263.1	10283.49
263.169	10275.74
263.239	10271.93
263.309	10270.24
263.379	10260.66
263.448	10253.57
263.518	10241.05
263.588	10229.78
263.657	10235.03
263.727	10238.64
263.797	10215.9
263.867	10203.33
263.936	10167.88
264.006	10165.66
264.076	10145.43
264.145	10135.7
264.215	10105.3
264.285	10101.44
264.354	10076.54
264.424	10055.11
264.494	10018.59
264.563	9992
264.633	9998.55
264.702	9983.09
264.772	9950.86
264.842	9932.21
264.911	9923.3
264.981	9899.36
265.05	9884.33
265.12	9869.69
265.19	9855.04
265.259	9860.92
265.329	9862.37
265.398	9860.87
265.468	9874.5
265.537	9852.88
265.607	9837.56
265.676	9837.75
265.746	9835.68
265.815	9834.38
265.885	9818.54
265.955	9796.63
266.024	9786.85
266.094	9752.17
266.163	9752.89
266.232	9752.51
266.302	9737.14
266.371	9727.75
266.441	9716.58
266.51	9719.85
266.58	9703.24
266.649	9677.76
266.719	9668.03
266.788	9652.85
266.858	9657.91
266.927	9622.85
266.996	9617.65
267.066	9608.06
267.135	9586.44
267.205	9579.36
267.274	9562.27
267.343	9565.73
267.413	9556.34
267.482	9553.55
267.552	9558.03
267.621	9528.99
267.69	9504.86
267.76	9500.77
267.829	9492.82
267.898	9484.49
267.968	9465.9
268.037	9465.71
268.106	9459.3
268.176	9437.63
268.245	9421.74
268.314	9405.99
268.384	9403.49
268.453	9398.91
268.522	9401.42
268.592	9403.49
268.661	9379.55
268.73	9382.68
268.799	9369.06
268.869	9377.19
268.938	9351
269.007	9331.07
269.076	9323.41
269.146	9321.1
269.215	9307.52
269.284	9313.49
269.353	9298.47
269.422	9279.69
269.492	9259.04
269.561	9226.92
269.63	9219.75
269.699	9210.41
269.768	9195.72
269.838	9192.06
269.907	9186.43
269.976	9154.17
270.045	9120.04
270.114	9117.39
270.183	9099.91
270.253	9084.55
270.322	9056.58
270.391	9050.86
270.46	9056.15
270.529	9051.24
270.598	9046.96
270.667	9039.49
270.736	9014.02
270.806	9009.5
270.875	9013.83
270.944	9003.62
271.013	9025.43
271.082	9026.97
271.151	9018.55
271.22	8995.54
271.289	8985.96
271.358	8976.28
271.427	8977.05
271.496	8975.51
271.565	8960.3
271.634	8951.83
271.703	8955.53
271.772	8958.13
271.841	8947.74
271.91	8924.44
271.979	8919.19
272.048	8895.31
272.117	8891.41
272.186	8879.43
272.255	8874.81
272.324	8871.92
272.393	8869.46
272.462	8853.77
272.531	8842.26
272.6	8830.76
272.669	8836.24
272.738	8826.66
272.807	8817.47
272.876	8797.55
272.945	8823.3
273.013	8833.17
273.082	8839.04
273.151	8823.54
273.22	8830.38
273.289	8823.35
273.358	8830.57
273.427	8820.85
273.496	8826.14
273.564	8826.81
273.633	8830.86
273.702	8814.54
273.771	8805.25
273.84	8799.38
273.909	8794.32
273.977	8792.16
274.046	8785.13
274.115	8796.11
274.184	8772.24
274.253	8769.59
274.322	8782.73
274.39	8753.03
274.459	8730.98
274.528	8704.13
274.597	8694.93
274.665	8684.2
274.734	8693.97
274.803	8684.83
274.872	8675.54
274.94	8657.83
275.009	8685.66
275.078	8670.3
275.147	8669.34
275.215	8660.05
275.284	8665.59
275.353	8654.76
275.421	8630.79
275.49	8645.9
275.559	8627.95
275.627	8629.78
275.696	8621.5
275.765	8618.23
275.833	8611.2
275.902	8611.88
275.971	8626.79
276.039	8647.83
276.108	8651.2
276.177	8653.75
276.245	8641.33
276.314	8642.68
276.383	8656.25
276.451	8618.17
276.52	8618.7
276.588	8627.31
276.657	8637.47
276.725	8622.88
276.794	8624.52
276.863	8637.32
276.931	8615.04
277	8627.89
277.068	8640.64
277.137	8654.07
277.205	8651.08
277.274	8668.89
277.342	8675.92
277.411	8655.13
277.48	8632.6
277.548	8623.99
277.617	8617.16
277.685	8617.73
277.754	8618.02
277.822	8600.17
277.89	8612.06
277.959	8602.34
278.027	8587.76
278.096	8575.77
278.164	8610.76
278.233	8600.8
278.301	8593.34
278.37	8594.55
278.438	8574.81
278.507	8571.25
278.575	8545.22
278.643	8541.13
278.712	8520.63
278.78	8513.07
278.849	8522.6
278.917	8533.81
278.985	8535.11
279.054	8541.03
279.122	8550.12
279.191	8551.14
279.259	8554.31
279.327	8534.58
279.396	8557.53
279.464	8560.28
279.532	8568.02
279.601	8561.86
279.669	8561.72
279.737	8573.12
279.806	8581.3
279.874	8589.29
279.942	8585.78
280.011	8587.46
280.079	8596.08
280.147	8613.07
280.215	8613.45
280.284	8608.4
280.352	8599.45
280.42	8603.39
280.488	8593
280.557	8587.99
280.625	8586.93
280.693	8581.98
280.761	8585.97
280.83	8561.09
280.898	8566.05
280.966	8543.38
281.034	8506.28
281.102	8485.83
281.171	8478.66
281.239	8488.91
281.307	8485.35
281.375	8478.95
281.443	8503.21
281.512	8501.76
281.58	8503.98
281.648	8487.04
281.716	8485.07
281.784	8484.87
281.852	8474.19
281.92	8473.85
281.989	8486.75
282.057	8469.38
282.125	8519.25
282.193	8510.2
282.261	8515.2
282.329	8509.24
282.397	8517.51
282.465	8527.86
282.533	8547.87
282.601	8535.7
282.67	8511.73
282.738	8503.89
282.806	8511.25
282.874	8496.42
282.942	8497.82
283.01	8495.51
283.078	8506.19
283.146	8503.35
283.214	8509.22
283.282	8515.53
283.35	8527.7
283.418	8516.78
283.486	8524.67
283.554	8483.61
283.622	8487.99
283.69	8490.49
283.758	8487.07
283.826	8490.39
283.894	8498.53
283.962	8522.3
284.03	8535.49
284.098	8534.86
284.165	8530
284.233	8536.98
284.301	8532.46
284.369	8524.13
284.437	8514.46
284.505	8508.68
284.573	8524.75
284.641	8514.22
284.709	8522.16
284.777	8502.47
284.845	8511.72
284.912	8517.39
284.98	8516.58
285.048	8514.22
285.116	8516.53
285.184	8534.19
285.252	8531.59
285.319	8509.41
285.387	8492.75
285.455	8477.36
285.523	8485.01
285.591	8481.35
285.659	8476.15
285.726	8482.02
285.794	8468.12
285.862	8465.76
285.93	8462.49
285.997	8461.62
286.065	8462.59
286.133	8448.58
286.201	8447.86
286.269	8432.03
286.336	8421.44
286.404	8419.71
286.472	8430.44
286.539	8412.88
286.607	8393.39
286.675	8395.12
286.743	8409.22
286.81	8405.7
286.878	8420.72
286.946	8412.2
287.013	8411.91
287.081	8411.24
287.149	8398.34
287.216	8421.82
287.284	8418.02
287.352	8422.93
287.419	8418.12
287.487	8427.98
287.555	8435.59
287.622	8432.22
287.69	8437.27
287.758	8448.92
287.825	8445.84
287.893	8431.88
287.96	8438.66
288.028	8453.15
288.096	8456.57
288.163	8457.82
288.231	8449.54
288.298	8445.98
288.366	8460.13
288.433	8459.07
288.501	8453.1
288.569	8458.83
288.636	8448.67
288.704	8463.98
288.771	8475.53
288.839	8460.85
288.906	8454.64
288.974	8457.05
289.041	8451.85
289.109	8438.96
289.176	8452.39
289.244	8454.6
289.311	8467.98
289.379	8482.9
289.446	8485.69
289.514	8485.59
289.581	8488.09
289.649	8494.83
289.716	8496.08
289.783	8485.2
289.851	8509.17
289.918	8510.51
289.986	8519.47
290.053	8525.82
290.121	8521.49
290.188	8521.1
290.255	8551.51
290.323	8546.22
290.39	8542.56
290.458	8551.8
290.525	8565.8
290.592	8562.53
290.66	8563.54
290.727	8552.71
290.794	8560.17
290.862	8552.18
290.929	8557.96
290.996	8554.64
291.064	8560.36
291.131	8576.34
291.198	8592.8
291.266	8583.9
291.333	8583.9
291.4	8587.65
291.468	8597.38
291.535	8592.66
291.602	8595.69
291.669	8586.26
291.737	8595.69
291.804	8598.53
291.871	8625
291.938	8637.47
292.006	8658.36
292.073	8674.24
292.14	8693.83
292.207	8684.68
292.275	8685.26
292.342	8695.9
292.409	8720.69
292.476	8741.33
292.543	8731.76
292.611	8731.23
292.678	8753.32
292.745	8780.61
292.812	8795.82
292.879	8797.31
292.946	8808.72
293.014	8818.92
293.081	8838.17
293.148	8856.22
293.215	8870.09
293.282	8854.3
293.349	8865.76
293.416	8847.17
293.484	8866.33
293.551	8870.47
293.618	8890.06
293.685	8916.92
293.752	8905.8
293.819	8900.85
293.886	8889.39
293.953	8898.39
294.02	8911.58
294.087	8920.73
294.154	8915.38
294.221	8927.47
294.288	8930.36
294.356	8942.82
294.423	8949.08
294.49	8937.34
294.557	8946.82
294.624	8940.18
294.691	8961.31
294.758	8956.16
294.825	8961.4
294.892	8949.27
294.959	8953.17
295.026	8964.39
295.093	8961.84
295.16	8961.74
295.226	8965.74
295.293	8996.74
295.36	9000.06
295.427	9010.17
295.494	9021.63
295.561	9029.77
295.628	9055.82
295.695	9069.01
295.762	9068.97
295.829	9085.09
295.896	9102.28
295.963	9106.57
296.03	9116.24
296.096	9117.11
296.163	9134.25
296.23	9152.54
296.297	9166.21
296.364	9158.08
296.431	9157.98
296.498	9147.83
296.564	9179.84
296.631	9185.47
296.698	9168.91
296.765	9191.39
296.832	9179.36
296.899	9161.25
296.965	9182.68
297.032	9154.6
297.099	9175.45
297.166	9185.13
297.233	9176.22
297.299	9170.25
297.366	9172.28
297.433	9177.04
297.5	9196.83
297.566	9194.62
297.633	9188.07
297.7	9191.68
297.767	9194.23
297.833	9201.26
297.9	9212.19
297.967	9194.62
298.033	9203.86
298.1	9231.26
298.167	9223.8
298.234	9230.44
298.3	9241.9
298.367	9229.96
298.434	9235.44
298.5	9219.41
298.567	9217.48
298.634	9219.41
298.7	9239.05
298.767	9242.23
298.834	9257.01
298.9	9243.82
298.967	9231.59
299.033	9250.56
299.1	9265.59
299.167	9289.08
299.233	9285.95
299.3	9301.5
299.366	9320.28
299.433	9335.93
299.5	9309.83
299.566	9310.03
299.633	9325.05
299.699	9342.48
299.766	9344.12
299.832	9353.46
299.899	9367.14
299.965	9380.67
300.032	9374.12
300.099	9381.49
300.165	9386.49
300.232	9379.46
300.298	9387.07
300.365	9401.13
300.431	9399.06
300.498	9390.34
300.564	9391.64
300.631	9403.3
300.697	9415.43
300.763	9415.91
300.83	9412.69
300.896	9424.77
300.963	9438.69
301.029	9445.34
301.096	9443.51
301.162	9452.37
301.229	9448.51
301.295	9429.4
301.361	9433.15
301.428	9439.41
301.494	9418.13
301.561	9421.64
301.627	9424.53
301.693	9423.33
301.76	9436.23
301.826	9427.47
301.892	9440.76
301.959	9449.05
302.025	9447.79
302.092	9444.52
302.158	9448.08
302.224	9449.67
302.291	9443.46
302.357	9432.14
302.423	9422.13
302.49	9410.81
302.556	9422.71
302.622	9422.85
302.688	9440.62
302.755	9454.49
302.821	9462.58
302.887	9481.26
302.954	9480.3
303.02	9488.68
303.086	9496
303.152	9486.46
303.219	9490.02
303.285	9494.36
303.351	9496.67
303.417	9494.89
303.483	9477.36
303.55	9468.89
303.616	9469.95
303.682	9472.69
303.748	9468.5
303.815	9483.57
303.881	9492.58
303.947	9479.96
304.013	9478.57
304.079	9470.62
304.145	9446.01
304.212	9443.89
304.278	9429.88
304.344	9427.81
304.41	9411.53
304.476	9401.81
304.542	9399.06
304.608	9399.93
304.674	9379.32
304.741	9376.57
304.807	9383.65
304.873	9391.4
304.939	9414.52
305.005	9393.14
305.071	9396.99
305.137	9403.59
305.203	9378.3
305.269	9378.98
305.335	9391.55
305.401	9385.87
305.467	9389.53
305.533	9402.58
305.599	9407.58
305.666	9422.17
305.732	9422.94
305.798	9440.86
305.864	9469.37
305.93	9477.41
305.996	9475.34
306.062	9478.18
306.128	9470.19
306.194	9453.62
306.259	9450.2
306.325	9438.02
306.391	9450.2
306.457	9452.32
306.523	9450.54
306.589	9480.06
306.655	9473.56
306.721	9455.06
306.787	9445.39
306.853	9455.21
306.919	9434.75
306.985	9426.37
307.051	9410.53
307.117	9398.25
307.183	9390.06
307.248	9357.99
307.314	9357.75
307.38	9362.18
307.446	9368.77
307.512	9359.58
307.578	9359.62
307.644	9362.22
307.709	9361.98
307.775	9357.41
307.841	9353.07
307.907	9353.46
307.973	9326.06
308.039	9327.41
308.104	9329.09
308.17	9331.02
308.236	9318.69
308.302	9327.65
308.368	9315.37
308.433	9327.45
308.499	9325.09
308.565	9321.82
308.631	9322.98
308.696	9301.36
308.762	9288.55
308.828	9281.28
308.894	9271.94
308.959	9253.31
309.025	9236.93
309.091	9229.95
309.156	9220.61
309.222	9224.61
309.288	9214.11
309.354	9191.77
309.419	9186.53
309.485	9172.47
309.551	9177.67
309.616	9156.92
309.682	9148.63
309.748	9150.17
309.813	9131.73
309.879	9119.46
309.945	9097.98
310.01	9095.53
310.076	9100.92
310.141	9096.35
310.207	9080.17
310.273	9074.01
310.338	9081.08
310.404	9067.75
310.469	9054.17
310.535	9044.11
310.601	9016.76
310.666	9023.07
310.732	9034.29
310.797	9019.46
310.863	9013.44
310.928	9003.33
310.994	9012.81
311.059	9010.74
311.125	9004.1
311.191	9019.56
311.256	9009.11
311.322	9017.15
311.387	8992.6
311.453	9378.25
311.518	9349.23
311.584	9353.27
311.649	9365.07
311.715	9355.82
311.78	9357.27
311.846	9347.21
311.911	9359.63
311.976	9365.02
312.042	9348.99
312.107	9336.28
312.173	9329.15
312.238	9318.18
312.304	9311.39
312.369	9294.01
312.434	9278.66
312.5	9272.98
312.565	9240.87
312.631	9246.79
312.696	9234.66
312.761	9240.58
312.827	8835.38
312.892	8874.47
312.958	8868.45
313.023	8862.14
313.088	8855.84
313.154	8840.92
313.219	8833.46
313.284	8816.27
313.35	8808.09
313.415	8798.32
313.48	8795.62
313.546	8796.3
313.611	8810.69
313.676	8805.49
313.741	8803.04
313.807	8817.48
313.872	8818.97
313.937	8825.95
314.003	8836.59
314.068	8839.76
314.133	8848.81
314.198	8844.34
314.264	8822.05
314.329	8812.52
314.394	8805.05
314.459	8808.66
314.525	8833.55
314.59	8828.35
314.655	8816.46
314.72	8821.13
314.785	8822.29
314.851	8817.67
314.916	8803.95
314.981	8786.43
315.046	8780.03
315.111	8767.03
315.176	8749.17
315.242	8742.24
315.307	8737.38
315.372	8718.56
315.437	8713.8
315.502	8702.77
315.567	8718.42
315.632	8707.49
315.698	8705.52
315.763	8703.3
315.828	8688.09
315.893	8675.24
315.958	8672.74
316.023	8668.02
316.088	8654.11
316.153	8632.84
316.218	8624.95
316.283	8607.2
316.348	8589.01
316.413	8582.94
316.479	8567.98
316.544	8538
316.609	8519.62
316.674	8483.44
316.739	8451.11
316.804	8420.6
316.869	8386.63
316.934	8349.57
316.999	8318.54
317.064	8269.85
317.129	8224.48
317.194	8195.28
317.259	8152.22
317.324	8099.36
317.389	8058.91
317.454	8016.33
317.518	7983.1
317.583	7958.28
317.648	7935.14
317.713	7899.65
317.778	7841.02
317.843	7811.59
317.908	7775.48
317.973	7738.69
318.038	7712.96
318.103	7678.34
318.168	7646.56
318.233	7618.62
318.297	7565.25
318.362	7530.34
318.427	7491.94
318.492	7469.44
318.557	7421.66
318.622	7398.01
318.687	7379.6
318.751	7340.58
318.816	7309.87
318.881	7276.75
318.946	7222.49
319.011	7180.1
319.075	7148.1
319.14	7114.37
319.205	7078.33
319.27	7041.29
319.335	6993.58
319.399	6954.52
319.464	6927.28
319.529	6869.59
319.594	6826.5
319.658	6802.19
319.723	6760.84
319.788	6734.86
319.853	6680.05
319.917	6653.79
319.982	6599.8
320.047	6564.75
320.112	6538
320.176	6489.84
320.241	6456.66
320.306	6428.96
320.37	6386.43
320.435	6356.86
320.5	6333.48
320.564	6290.42
320.629	6254.53
320.694	6230.53
320.758	6191.56
320.823	6145.68
320.888	6121.03
320.952	6073.53
321.017	6030.77
321.082	5991.87
321.146	5958.09
321.211	5923.36
321.275	5884.75
321.34	5842.22
321.405	5797.47
321.469	5751.76
321.534	5713.36
321.598	5665.17
321.663	5633.08
321.727	5600.15
321.792	5545.92
321.857	5503.92
321.921	5470.84
321.986	5428.91
322.05	5366.75
322.115	5332.05
322.179	5290.03
322.244	5239.39
322.308	5212.51
322.373	5165.13
322.437	5127.86
322.502	5103.85
322.566	5062.08
322.631	5024
322.695	4985.55
322.76	4943.17
322.824	4909.32
322.889	4867.43
322.953	4824.83
323.018	4763.21
323.082	4704.54
323.146	4657.46
323.211	4605.24
323.275	4557.72
323.34	4512.27
323.404	4478.6
323.468	4431.32
323.533	4388.66
323.597	4344.05
323.662	4288.71
323.726	4256.42
323.79	4209.32
323.855	4142.97
323.919	4093.97
323.983	4051.37
324.048	3985.68
324.112	4145.83
324.177	4017.8
324.241	3809.99
324.305	3606.33
324.37	3406.73
324.434	3216.31
324.498	3174.05
324.562	3124.27
324.627	3065.22
324.691	3013.1
324.755	2951.2
324.82	2877.1
324.884	2802.31
324.948	2731.53
325.012	2640.92
325.077	2518.79
