Data from 20250704_urea_0.1M_MAYP1162681_11-18-34-696.txt Node
Date: Fri Jul 04 11:18:34 BST 2025
User: adleo
Spectrometer: MAYP116268
Trigger mode: 0
Integration Time (sec): 1.000000E0
Scans to average: 1
Electric dark correction enabled: true
Nonlinearity correction enabled: true
Boxcar width: 10
XAxis mode: Wavelengths
Number of Pixels in Spectrum: 2068
>>>>>Begin Spectral Data<<<<<
179.565	1239.13
179.642	1298.55
179.718	1343.61
179.795	1385.8
179.871	1418.71
179.948	1439.45
180.024	1461.69
180.101	1484.17
180.177	1498.14
180.254	1521.15
180.33	1545.62
180.407	1602.27
180.483	1700.8
180.56	1794.3
180.636	1881.33
180.712	1868.73
180.789	1882.7
180.865	1897.53
180.942	1904.95
181.018	1913.98
181.095	1925.2
181.171	1931.1
181.248	1932.1
181.324	1947.46
181.4	1954.35
181.477	1966.29
181.553	1979.36
181.63	1998.38
181.706	2016.79
181.782	2026.49
181.859	2025.92
181.935	2029.82
182.011	2025.2
182.088	2042.61
182.164	2061.69
182.24	2074.91
182.317	2083.85
182.393	2081.99
182.469	2095.69
182.546	2110.72
182.622	2115.81
182.698	2111
182.775	2123.8
182.851	2139.59
182.927	2133.41
183.003	2128.23
183.08	2122.09
183.156	2130.27
183.232	2126.7
183.308	2114.05
183.385	2121.28
183.461	2140.83
183.537	2139.5
183.613	2153.1
183.69	2142.73
183.766	2132.79
183.842	2141.97
183.918	2147.15
183.995	2160.09
184.071	2164.42
184.147	2156.76
184.223	2145.11
184.299	2157.72
184.375	2143.22
184.452	2148.31
184.528	2199.8
184.604	2211.45
184.68	2220.35
184.756	2227.96
184.832	2234.76
184.908	2239.71
184.985	2241.8
185.061	2226.29
185.137	2238.24
185.213	2227.44
185.289	2228.91
185.365	2220.21
185.441	2216.59
185.517	2230.06
185.593	2227.44
185.669	2224.78
185.745	2237.15
185.822	2253.51
185.898	2245.89
185.974	2258.12
186.05	2248.84
186.126	2214.86
186.202	2208.29
186.278	2208.06
186.354	2198.02
186.43	2204.44
186.506	2202.63
186.582	2203.82
186.658	2209.1
186.734	2188.27
186.81	2190.55
186.886	2194.88
186.962	2208.2
187.038	2204.63
187.114	2198.4
187.19	2204.72
187.266	2193.36
187.341	2193.31
187.417	2189.88
187.493	2191.36
187.569	2194.21
187.645	2190.07
187.721	2175.23
187.797	2180.74
187.873	2186.93
187.949	2180.94
188.025	2174.32
188.101	2177.22
188.176	2180.65
188.252	2175.7
188.328	2184.4
188.404	2185.26
188.48	2178.74
188.556	2172.41
188.632	2172.18
188.707	2172.65
188.783	2170.18
188.859	2164.42
188.935	2155.05
189.011	2161.28
189.086	2152.39
189.162	2144.87
189.238	2139.88
189.314	2135.93
189.39	2130.08
189.465	2120.8
189.541	2135.41
189.617	2121.47
189.693	2116.85
189.768	2116.47
189.844	2142.74
189.92	2135.94
189.996	2141.8
190.071	2153.78
190.147	2152.02
190.223	2161.49
190.298	2152.88
190.374	2141.08
190.45	2154.35
190.526	2163.58
190.601	2158.25
190.677	2164.63
190.753	2191.28
190.828	2198.8
190.904	2215.41
190.98	2230.68
191.055	2240.72
191.131	2234.87
191.207	2255.66
191.282	2266.22
191.358	2260.89
191.433	2244.18
191.509	2254.98
191.585	2251.31
191.66	2252.22
191.736	2259.97
191.811	2253.88
191.887	2268.64
191.963	2290.81
192.038	2295.05
192.114	2293.9
192.189	2295.52
192.265	2286.91
192.34	2263.73
192.416	2261.11
192.491	2258.49
192.567	2260.59
192.642	2263.78
192.718	2261.49
192.793	2247.93
192.869	2242.41
192.944	2244.36
193.02	2254.36
193.095	2262.21
193.171	2273.11
193.246	2272.06
193.322	2268.92
193.397	2268.54
193.473	2254.83
193.548	2237.22
193.624	2245.31
193.699	2243.03
193.775	2262.02
193.85	2264.4
193.925	2274.77
194.001	2272.4
194.076	2262.07
194.152	2254.03
194.227	2245.03
194.302	2238.47
194.378	2243.56
194.453	2241.7
194.529	2250.7
194.604	2233.23
194.679	2224.95
194.755	2204.16
194.83	2216.16
194.905	2211.74
194.981	2218.4
195.056	2215.5
195.131	2221.78
195.207	2220.11
195.282	2213.12
195.357	2189.37
195.433	2204.07
195.508	2192.17
195.583	2201.73
195.659	2217.72
195.734	2225.05
195.809	2229.38
195.884	2235.66
195.96	2237.23
196.035	2251.17
196.11	2247.94
196.185	2261.97
196.261	2265.21
196.336	2298
196.411	2286.95
196.486	2296.75
196.561	2292
196.637	2296.85
196.712	2315.66
196.787	2319.7
196.862	2334.22
196.937	2349.3
197.013	2356.73
197.088	2367.34
197.163	2387.91
197.238	2405.15
197.313	2402.82
197.388	2415.06
197.464	2450.96
197.539	2459.39
197.614	2454.68
197.689	2470.72
197.764	2487.01
197.839	2506.38
197.914	2499.34
197.989	2519.57
198.065	2533.52
198.14	2582.89
198.215	2611.7
198.29	2621.52
198.365	2633.9
198.44	2644.42
198.515	2673.39
198.59	2688.54
198.665	2714.41
198.74	2725.89
198.815	2729.13
198.89	2753.62
198.965	2783.12
199.04	2778.35
199.115	2798.03
199.19	2838.86
199.265	2837.86
199.34	2848.34
199.415	2883.1
199.49	2903.35
199.565	2915.64
199.64	2938.57
199.715	2935.23
199.79	2944.62
199.865	2951.06
199.94	2950.39
200.015	2983.91
200.09	2985.24
200.165	2993.11
200.24	3000.54
200.315	3042.26
200.39	3059.28
200.464	3065.76
200.539	3065
200.614	3083.21
200.689	3101.86
200.764	3112.26
200.839	3131.99
200.914	3138.95
200.989	3129.12
201.063	3145.34
201.138	3126.9
201.213	3127.13
201.288	3110.68
201.363	3117.98
201.438	3119.08
201.512	3134.66
201.587	3116.92
201.662	3125.03
201.737	3139.05
201.812	3148.97
201.886	3115.94
201.961	3123.67
202.036	3113.23
202.111	3113.9
202.186	3081.11
202.26	3069.04
202.335	3047.58
202.41	3043.29
202.485	3025.94
202.559	3008.44
202.634	2987.08
202.709	3002.56
202.784	2990.93
202.858	2993.74
202.933	2976.86
203.008	2974.39
203.082	2961.13
203.157	2969.05
203.232	2935.83
203.306	2923.24
203.381	2902.25
203.456	2887.9
203.53	2880.22
203.605	2874.84
203.68	2866.4
203.754	2877.68
203.829	2879.5
203.904	2880.78
203.978	2893.75
204.053	2922.79
204.127	2937.24
204.202	2964.28
204.277	2974.05
204.351	2998.52
204.426	3027.67
204.5	3054.42
204.575	3062.77
204.65	3116.07
204.724	3151.11
204.799	3201.22
204.873	3242.65
204.948	3294.24
205.022	3337.57
205.097	3384.52
205.171	3458.84
205.246	3529.34
205.32	3598.41
205.395	3670.83
205.469	3735.05
205.544	3817.88
205.618	3883.46
205.693	3985.38
205.767	4061.06
205.842	4172.53
205.916	4258.23
205.991	4345.62
206.065	4455.53
206.14	4574.29
206.214	4674.03
206.289	4780.72
206.363	4913.79
206.438	5039.26
206.512	5170.11
206.586	5319.36
206.661	5462.4
206.735	5575.22
206.81	5715.04
206.884	5872.67
206.958	6004.83
207.033	6171.81
207.107	6327.66
207.181	6513.81
207.256	6650.81
207.33	6824.79
207.405	7004
207.479	7188.97
207.553	7365.21
207.628	7515.58
207.702	7704.5
207.776	7875.72
207.851	8054.24
207.925	8242.63
207.999	8416.1
208.073	8584.74
208.148	8763.62
208.222	8930.17
208.296	9144.62
208.371	9350.75
208.445	9549.91
208.519	9767.65
208.593	9963.13
208.668	10143.42
208.742	10332.03
208.816	10534.34
208.89	10739.35
208.965	10929.69
209.039	11131.74
209.113	11338.56
209.187	11555.2
209.261	11739
209.336	11947.3
209.41	12162.06
209.484	12358.33
209.558	12571.66
209.632	12783.16
209.707	12982.48
209.781	13189.79
209.855	13395
209.929	13602.56
210.003	13790.85
210.077	13984.44
210.151	14218.27
210.226	14439.42
210.3	14659.95
210.374	14871.85
210.448	15061.91
210.522	15244.89
210.596	15437.79
210.67	15624.57
210.744	15847.06
210.818	16053.16
210.892	16259.16
210.966	16428.68
211.041	16615.39
211.115	16796.32
211.189	16990.17
211.263	17180.01
211.337	17359.01
211.411	17544.17
211.485	17700.75
211.559	17877.13
211.633	18028.7
211.707	18153.85
211.781	18326.43
211.855	18444.01
211.929	18587.24
212.003	18720.34
212.077	18894.98
212.151	19045.29
212.225	19210.44
212.299	19350.92
212.373	19497.42
212.447	19627.3
212.52	19801.03
212.594	19946.71
212.668	20082.76
212.742	20214.37
212.816	20351.77
212.89	20474.76
212.964	20605.32
213.038	20740.08
213.112	20882.78
213.186	21029.4
213.26	21141.16
213.333	21216.97
213.407	21349.23
213.481	21473.24
213.555	21621.21
213.629	21719.78
213.703	21828
213.777	21947.74
213.85	22042.85
213.924	22180.63
213.998	22301.97
214.072	22404.04
214.146	22504.8
214.219	22612.64
214.293	22707.13
214.367	22805.68
214.441	22926.41
214.515	23010.3
214.588	23077.18
214.662	23143.48
214.736	23217.3
214.81	23317.44
214.883	23416.28
214.957	23499.47
215.031	23582.26
215.105	23630.48
215.178	23706.82
215.252	23785.19
215.326	23833.42
215.4	23894.04
215.473	23920.38
215.547	23978.21
215.621	24031.75
215.694	24101.84
215.768	24139.51
215.842	24191.17
215.915	24241.91
215.989	24278.53
216.063	24335.84
216.136	24394.64
216.21	24446.2
216.284	24509.54
216.357	24577.95
216.431	24641.97
216.504	24704.12
216.578	24778.03
216.652	24833.32
216.725	24886.1
216.799	24946.9
216.873	25005.72
216.946	25064.87
217.02	25108.87
217.093	25155.3
217.167	25179.23
217.24	25202.73
217.314	25258.85
217.387	25304.54
217.461	25346.09
217.535	25402.55
217.608	25439.13
217.682	25486.52
217.755	25553.99
217.829	25605.74
217.902	25642.13
217.976	25678.71
218.049	25699.32
218.123	25708.3
218.196	25762.69
218.27	25788.18
218.343	25809.71
218.417	25845.14
218.49	25865.85
218.563	25917.69
218.637	25952.01
218.71	26017.23
218.784	26059.76
218.857	26104.51
218.931	26139.12
219.004	26177.74
219.077	26219.69
219.151	26253.49
219.224	26281.59
219.298	26307.18
219.371	26340.69
219.444	26347.88
219.518	26370.62
219.591	26404.66
219.665	26471.87
219.738	26501.57
219.811	26518.9
219.885	26547.15
219.958	26577.67
220.031	26611.08
220.105	26642.8
220.178	26658.83
220.251	26661.2
220.325	26698.43
220.398	26722.82
220.471	26762.9
220.544	26783.62
220.618	26789.51
220.691	26797.77
220.764	26815.83
220.838	26832.78
220.911	26830.32
220.984	26867.4
221.057	26892.17
221.131	26913.09
221.204	26884.35
221.277	26908.69
221.35	26955.34
221.424	26969.69
221.497	26976.11
221.57	26988.09
221.643	27005.91
221.716	27025.86
221.79	27040.01
221.863	27037.21
221.936	27031.46
222.009	27022.72
222.082	27036.53
222.155	27038.71
222.229	27075.46
222.302	27085.56
222.375	27082.03
222.448	27093.04
222.521	27089.71
222.594	27085.7
222.667	27066.86
222.74	27091.16
222.814	27089.42
222.887	27079.37
222.96	27087.82
223.033	27088.4
223.106	27088.36
223.179	27081.11
223.252	27064.78
223.325	27058.31
223.398	27048.27
223.471	27045.76
223.544	27044.07
223.617	27028.42
223.69	27024.17
223.763	26991.71
223.837	26985.91
223.91	26973.31
223.983	26945.25
224.056	26933.22
224.129	26930.71
224.202	26930.86
224.275	26906.42
224.348	26874.84
224.42	26847.93
224.493	26811.71
224.566	26790.37
224.639	26769.65
224.712	26736.52
224.785	26717.35
224.858	26688.86
224.931	26665.25
225.004	26643.95
225.077	26609.53
225.15	26563.27
225.223	26549.65
225.296	26554.67
225.369	26504.7
225.442	26477.57
225.514	26453.86
225.587	26430.39
225.66	26398.33
225.733	26378.25
225.806	26351.83
225.879	26320.21
225.952	26281.98
226.025	26272.71
226.097	26263.53
226.17	26232.44
226.243	26191.36
226.316	26179.34
226.389	26159.49
226.461	26140.81
226.534	26114.4
226.607	26083.32
226.68	26090.46
226.753	26055.61
226.825	26000.23
226.898	25995.11
226.971	25964.99
227.044	25956.69
227.117	25932.65
227.189	25909.33
227.262	25899.39
227.335	25876.17
227.407	25854.45
227.48	25832.92
227.553	25805.31
227.626	25766.64
227.698	25743.82
227.771	25715.39
227.844	25673.11
227.916	25642.36
227.989	25593.96
228.062	25556.99
228.134	25562.06
228.207	25516.25
228.28	25481.41
228.352	25452.5
228.425	25425.62
228.498	25410.42
228.57	25369.64
228.643	25346.81
228.716	25314.43
228.788	25264.62
228.861	25235.04
228.934	25213.52
229.006	25191.03
229.079	25157.25
229.151	25125.3
229.224	25081.93
229.296	25061.81
229.369	25054.18
229.442	25042.02
229.514	25014.76
229.587	24990.54
229.659	24934.04
229.732	24911.32
229.804	24885.65
229.877	24873.39
229.949	24848.45
230.022	24837.78
230.094	24803
230.167	24784.57
230.239	24739.51
230.312	24717.27
230.384	24690.68
230.457	24666.56
230.529	24631.97
230.602	24598.3
230.674	24554.54
230.747	24529.41
230.819	24505.39
230.892	24443.3
230.964	24411.51
231.037	24385.85
231.109	24358.16
231.181	24331.92
231.254	24283.78
231.326	24246.64
231.399	24207.56
231.471	24171.92
231.544	24113.35
231.616	24095.99
231.688	24050.6
231.761	24011.15
231.833	23964.89
231.905	23916.95
231.978	23878.07
232.05	23839.1
232.122	23807.85
232.195	23775.83
232.267	23761.84
232.339	23733.39
232.412	23705.51
232.484	23659.6
232.556	23609.73
232.629	23594.78
232.701	23571.64
232.773	23547.43
232.846	23504.75
232.918	23471.43
232.99	23424.17
233.062	23392.63
233.135	23354
233.207	23299.27
233.279	23272.32
233.351	23233.46
233.424	23191.84
233.496	23140.3
233.568	23121.4
233.64	23055.82
233.713	23020.14
233.785	22971.15
233.857	22920.19
233.929	22858.43
234.001	22832.2
234.074	22816.29
234.146	22753.03
234.218	22705.63
234.29	22654.39
234.362	22612.92
234.434	22558.49
234.507	22513.71
234.579	22458.21
234.651	22395.16
234.723	22367.87
234.795	22337.26
234.867	22298.84
234.939	22272.61
235.012	22240.07
235.084	22205.46
235.156	22181.84
235.228	22129.77
235.3	22084.12
235.372	22040.35
235.444	22019.05
235.516	21956.43
235.588	21905.38
235.66	21868.5
235.732	21824.35
235.804	21843.29
235.876	21807.87
235.948	21784.78
236.02	21742.94
236.092	21691.32
236.164	21670.35
236.236	21625.57
236.308	21578.14
236.38	21541.22
236.452	21481.94
236.524	21438.51
236.596	21406.79
236.668	21366.64
236.74	21330.35
236.812	21284.85
236.884	21253.81
236.956	21222.72
237.028	21171.11
237.1	21125.9
237.172	21096.55
237.244	21061.46
237.316	20971.9
237.388	20922.41
237.46	20870.98
237.532	20850.59
237.604	20816.23
237.675	20788.18
237.747	20755.8
237.819	20699.22
237.891	20646.44
237.963	20607.17
238.035	20550.11
238.107	20468.47
238.178	20444.03
238.25	20391.16
238.322	20375.26
238.394	20317.48
238.466	20257.91
238.538	20223.79
238.609	20189.05
238.681	20129.96
238.753	20085.87
238.825	20053.96
238.897	20017.58
238.968	19992.18
239.04	19936.86
239.112	19914.3
239.184	19851.22
239.255	19802.74
239.327	19777.44
239.399	19740.62
239.471	19706.07
239.542	19676.82
239.614	19650.56
239.686	19569.98
239.758	19544.44
239.829	19490.47
239.901	19461.12
239.973	19432.78
240.044	19400.45
240.116	19353.22
240.188	19310.72
240.259	19262.72
240.331	19208.8
240.403	19169.52
240.474	19105
240.546	19053.92
240.618	18988.62
240.689	18939.32
240.761	18899.76
240.833	18864.82
240.904	18819.18
240.976	18774.27
241.048	18732.49
241.119	18692.06
241.191	18667.58
241.262	18639.15
241.334	18596.11
241.405	18558.28
241.477	18505.9
241.549	18465.18
241.62	18431.98
241.692	18398.34
241.763	18367.74
241.835	18330.83
241.906	18288.66
241.978	18233.72
242.049	18207.55
242.121	18182.5
242.192	18162.74
242.264	18103.56
242.335	18042.93
242.407	18016.38
242.478	17968.38
242.55	17929.54
242.621	17881.25
242.693	17841.59
242.764	17801.3
242.836	17750.94
242.907	17713.31
242.979	17684.39
243.05	17639.19
243.122	17603.14
243.193	17554.42
243.264	17494.71
243.336	17454.61
243.407	17427.48
243.479	17408.63
243.55	17364.68
243.622	17330.61
243.693	17287.14
243.764	17271.91
243.836	17220.34
243.907	17170.99
243.978	17136
244.05	17102.46
244.121	17055.57
244.192	17022.94
244.264	16963.9
244.335	16930.02
244.407	16876.52
244.478	16830.98
244.549	16794.45
244.62	16743.26
244.692	16711.74
244.763	16687.74
244.834	16639.93
244.906	16593.66
244.977	16559.16
245.048	16544.75
245.119	16497.9
245.191	16448.02
245.262	16383.48
245.333	16373.36
245.405	16339.14
245.476	16305.5
245.547	16270.51
245.618	16242.21
245.689	16208.33
245.761	16185.34
245.832	16149.87
245.903	16122.92
245.974	16092.8
246.045	16056.89
246.117	16035.01
246.188	15981.56
246.259	15930.37
246.33	15898.8
246.401	15853.39
246.473	15807.6
246.544	15754.1
246.615	15725.28
246.686	15694.62
246.757	15671.34
246.828	15622.32
246.899	15604.39
246.97	15557.73
247.042	15512.91
247.113	15488.9
247.184	15472.9
247.255	15433.86
247.326	15394.57
247.397	15350.56
247.468	15314.85
247.539	15279.23
247.61	15239.75
247.681	15213.14
247.752	15193.43
247.823	15153.03
247.894	15127.44
247.965	15081.4
248.037	15052.96
248.108	15010.78
248.179	14973.48
248.25	14942.38
248.321	14918.47
248.392	14866.22
248.463	14854.65
248.534	14824.09
248.605	14800.04
248.675	14763.65
248.746	14734.43
248.817	14721.03
248.888	14693.94
248.959	14648
249.03	14624.48
249.101	14587.8
249.172	14561.77
249.243	14512.35
249.314	14493.75
249.385	14467.86
249.456	14448.05
249.527	14409.73
249.598	14383.12
249.669	14346.53
249.739	14317.17
249.81	14289.16
249.881	14252.33
249.952	14229.15
250.023	14198.01
250.094	14144.84
250.165	14107.24
250.235	14077.35
250.306	14045.44
250.377	14011.98
250.448	13990.34
250.519	13937.79
250.59	13929.93
250.66	13900.53
250.731	13888.62
250.802	13859.12
250.873	13836.61
250.944	13811.01
251.014	13774.95
251.085	13776.69
251.156	13762.03
251.227	13754.8
251.297	13743.52
251.368	13734.84
251.439	13712.62
251.51	13705
251.58	13674.83
251.651	13642.14
251.722	13625.9
251.792	13572.63
251.863	13546.07
251.934	13536.42
252.005	13548.14
252.075	13520.61
252.146	13508.95
252.217	13495.35
252.287	13481.85
252.358	13451
252.429	13441.07
252.499	13412.97
252.57	13382.4
252.641	13369.97
252.711	13334.25
252.782	13295.15
252.852	13288.45
252.923	13257.21
252.994	13230.8
253.064	13224.24
253.135	13193.48
253.205	13156.94
253.276	13158.53
253.347	13147.54
253.417	13115.39
253.488	13072.44
253.558	13030.21
253.629	13003.55
253.699	12983.35
253.77	12963.64
253.841	12935.53
253.911	12924.97
253.982	12909.26
254.052	12893.79
254.123	12869.25
254.193	12847.7
254.264	12863.37
254.334	12824.51
254.405	12793.04
254.475	12754.62
254.546	12723.62
254.616	12712.34
254.687	12692.62
254.757	12670.11
254.827	12643.7
254.898	12627.6
254.968	12611.25
255.039	12590.96
255.109	12568.16
255.18	12534.8
255.25	12497.64
255.321	12484.53
255.391	12435.41
255.461	12439.36
255.532	12386.09
255.602	12354.95
255.673	12317.79
255.743	12279.37
255.813	12231.55
255.884	12226.78
255.954	12209.76
256.024	12209.33
256.095	12189.18
256.165	12159.63
256.235	12155.54
256.306	12136.79
256.376	12124.35
256.446	12109.41
256.517	12099.77
256.587	12097.11
256.657	12081.79
256.728	12051.66
256.798	12031.32
256.868	12006.3
256.938	11969
257.009	11958.25
257.079	11953.14
257.149	11964.47
257.219	11926.1
257.29	11913.81
257.36	11872.79
257.43	11868.5
257.5	11819.34
257.571	11796.1
257.641	11786.66
257.711	11749.4
257.781	11728.77
257.852	11720.38
257.922	11682.59
257.992	11655.84
258.062	11631.94
258.132	11622.87
258.202	11609.81
258.273	11591.31
258.343	11599.64
258.413	11570.68
258.483	11553.42
258.553	11518.58
258.623	11483.39
258.693	11469.12
258.764	11467.63
258.834	11461.32
258.904	11437.6
258.974	11415.48
259.044	11393.89
259.114	11381.17
259.184	11366.37
259.254	11350.08
259.324	11302.51
259.394	11293.36
259.464	11297.65
259.535	11273.65
259.605	11243.19
259.675	11216.15
259.745	11204.59
259.815	11165.84
259.885	11147.96
259.955	11161.36
260.025	11132.3
260.095	11114.9
260.165	11103.38
260.235	11099.14
260.305	11072.98
260.375	11048.45
260.445	11060.4
260.515	11055.43
260.585	11043.39
260.655	11024.74
260.725	11013.07
260.795	11003.92
260.865	11002.28
260.934	10968.74
261.004	10956.74
261.074	10948.31
261.144	10954.62
261.214	10947.68
261.284	10936.16
261.354	10923.73
261.424	10895.49
261.494	10904.35
261.564	10888.45
261.634	10876.64
261.703	10838.38
261.773	10828.02
261.843	10819.59
261.913	10798
261.983	10766.54
262.053	10758.44
262.123	10737.29
262.192	10715.85
262.262	10710.93
262.332	10687.95
262.402	10681.15
262.472	10666.79
262.541	10629.84
262.611	10618.76
262.681	10586.52
262.751	10577.75
262.821	10565.51
262.89	10527.5
262.96	10516.22
263.03	10515.45
263.1	10503.07
263.169	10491.99
263.239	10483.6
263.309	10490.54
263.379	10476.81
263.448	10469.29
263.518	10460.86
263.588	10443.18
263.657	10440.39
263.727	10439.23
263.797	10415.38
263.867	10399.68
263.936	10369.9
264.006	10365.42
264.076	10352.99
264.145	10342.83
264.215	10322.11
264.285	10310.93
264.354	10288.63
264.424	10259.19
264.494	10229.37
264.563	10205.09
264.633	10210.82
264.702	10202.44
264.772	10163.17
264.842	10143.57
264.911	10134.66
264.981	10096.93
265.05	10085.28
265.12	10066.78
265.19	10047.31
265.259	10048.37
265.329	10031.85
265.398	10021.69
265.468	10037.05
265.537	10010.32
265.607	9997.36
265.676	9992.83
265.746	9987.44
265.815	9990.47
265.885	9973.42
265.955	9951.22
266.024	9942.79
266.094	9903.67
266.163	9900.64
266.232	9908.83
266.302	9895.63
266.371	9883.4
266.441	9875.16
266.51	9874.15
266.58	9860.33
266.649	9838.41
266.719	9828.49
266.788	9826.8
266.858	9831.13
266.927	9792.36
266.996	9788.51
267.066	9780.75
267.135	9751.95
267.205	9742.65
267.274	9730.18
267.343	9733.02
267.413	9724.88
267.482	9720.93
267.552	9726.38
267.621	9696.99
267.69	9658.37
267.76	9651.24
267.829	9636.36
267.898	9630.29
267.968	9607.32
268.037	9599.47
268.106	9600
268.176	9580.64
268.245	9565.51
268.314	9545.53
268.384	9545.86
268.453	9533.29
268.522	9521.01
268.592	9527.51
268.661	9510.27
268.73	9500.55
268.799	9483.64
268.869	9491.78
268.938	9459.47
269.007	9436.93
269.076	9431.25
269.146	9432.17
269.215	9420.56
269.284	9430.72
269.353	9413.43
269.422	9404.24
269.492	9384.64
269.561	9341.83
269.63	9341.11
269.699	9321.56
269.768	9313.33
269.838	9304.27
269.907	9300.62
269.976	9279.77
270.045	9243.32
270.114	9238.22
270.183	9226.76
270.253	9215.78
270.322	9185.78
270.391	9180.44
270.46	9182.99
270.529	9173.46
270.598	9174.08
270.667	9165.32
270.736	9144.52
270.806	9133.01
270.875	9131.37
270.944	9119.72
271.013	9139.61
271.082	9119.58
271.151	9116.45
271.22	9084.87
271.289	9075.96
271.358	9063.88
271.427	9064.45
271.496	9059.93
271.565	9047.41
271.634	9034.6
271.703	9066.92
271.772	9069.9
271.841	9056.86
271.91	9039.67
271.979	9030.57
272.048	9011.07
272.117	9015.84
272.186	9000.77
272.255	9005.92
272.324	9008.71
272.393	9007.65
272.462	8996.29
272.531	8993.69
272.6	8983.29
272.669	8992.97
272.738	8976.98
272.807	8972.6
272.876	8950.65
272.945	8979.3
273.013	8980.45
273.082	8988.2
273.151	8941.07
273.22	8934.23
273.289	8933.89
273.358	8944.05
273.427	8938.32
273.496	8930.96
273.564	8927.11
273.633	8927.68
273.702	8908.28
273.771	8893.79
273.84	8891.29
273.909	8885.56
273.977	8889.51
274.046	8882.96
274.115	8892.98
274.184	8878.49
274.253	8867.42
274.322	8876.9
274.39	8842.87
274.459	8830.69
274.528	8800.85
274.597	8801.66
274.665	8802.92
274.734	8812.01
274.803	8795.79
274.872	8788.38
274.94	8777.89
275.009	8826.33
275.078	8814.01
275.147	8812.86
275.215	8812.47
275.284	8811.99
275.353	8807.08
275.421	8777.77
275.49	8793.99
275.559	8774.16
275.627	8768.14
275.696	8763.67
275.765	8760.11
275.833	8754.81
275.902	8755.39
275.971	8767.23
276.039	8775.51
276.108	8775.41
276.177	8772.33
276.245	8762.61
276.314	8755.34
276.383	8762.23
276.451	8701.02
276.52	8701.79
276.588	8707.9
276.657	8708
276.725	8701.21
276.794	8693.9
276.863	8703.33
276.931	8676.66
277	8685.42
277.068	8697.45
277.137	8713.1
277.205	8706.02
277.274	8722.68
277.342	8724.79
277.411	8704.34
277.48	8686.34
277.548	8673.59
277.617	8665.55
277.685	8662.61
277.754	8665.26
277.822	8654.05
277.89	8669.16
277.959	8660.31
278.027	8643.61
278.096	8632.92
278.164	8662.62
278.233	8662.14
278.301	8651.84
278.37	8655.93
278.438	8640.87
278.507	8641.69
278.575	8614.64
278.643	8616.9
278.712	8599.33
278.78	8591.34
278.849	8601.54
278.917	8618.78
278.985	8618.15
279.054	8623.49
279.122	8630.47
279.191	8633.55
279.259	8632.4
279.327	8610.4
279.396	8627.43
279.464	8628.64
279.532	8635.18
279.601	8625.7
279.669	8618.43
279.737	8631.43
279.806	8636.09
279.874	8648.37
279.942	8650.39
280.011	8641.34
280.079	8646.2
280.147	8661.75
280.215	8664.59
280.284	8661.99
280.352	8639.22
280.42	8642.79
280.488	8636.82
280.557	8633.79
280.625	8633.3
280.693	8633.93
280.761	8633.5
280.83	8614.15
280.898	8623.24
280.966	8598.7
281.034	8572.09
281.102	8559.62
281.171	8554.04
281.239	8559.09
281.307	8548.89
281.375	8531.47
281.443	8560.39
281.512	8560.1
281.58	8568.48
281.648	8554.04
281.716	8555.2
281.784	8560.01
281.852	8551.15
281.92	8549.9
281.989	8557.7
282.057	8540.67
282.125	8582.93
282.193	8579.51
282.261	8586.59
282.329	8586.92
282.397	8599.05
282.465	8596.64
282.533	8609.11
282.601	8595.97
282.67	8577.3
282.738	8573.69
282.806	8592.79
282.874	8586
282.942	8591.11
283.01	8579.41
283.078	8588.6
283.146	8584.75
283.214	8591.92
283.282	8596.83
283.35	8610.07
283.418	8609.63
283.486	8616.42
283.554	8572.61
283.622	8573.48
283.69	8570.93
283.758	8560.54
283.826	8564.19
283.894	8578.63
283.962	8602.17
284.03	8622.23
284.098	8625.51
284.165	8617.76
284.233	8609.05
284.301	8600.58
284.369	8588.26
284.437	8581.9
284.505	8571.85
284.573	8586.38
284.641	8579.31
284.709	8594.27
284.777	8575.46
284.845	8577.96
284.912	8584.21
284.98	8592.06
285.048	8589.51
285.116	8595.38
285.184	8609.53
285.252	8603.37
285.319	8587.54
285.387	8576.27
285.455	8559.62
285.523	8570.4
285.591	8569.87
285.659	8573.67
285.726	8587.87
285.794	8575.89
285.862	8575.26
285.93	8578.15
285.997	8574.97
286.065	8562.22
286.133	8545.57
286.201	8543.6
286.269	8535.75
286.336	8531.28
286.404	8522.66
286.472	8536.38
286.539	8509.58
286.607	8497.69
286.675	8505.25
286.743	8516.27
286.81	8509.72
286.878	8526.76
286.946	8510.54
287.013	8515.98
287.081	8514.05
287.149	8501.06
287.216	8525.26
287.284	8524.01
287.352	8523.34
287.419	8515.97
287.487	8536.28
287.555	8540.08
287.622	8539.84
287.69	8543.26
287.758	8552.69
287.825	8549.81
287.893	8532.72
287.96	8543.88
288.028	8554.18
288.096	8560.68
288.163	8558.56
288.231	8549.42
288.298	8542.92
288.366	8563.95
288.433	8560.01
288.501	8552.79
288.569	8554.76
288.636	8541.77
288.704	8560.49
288.771	8571.46
288.839	8564.39
288.906	8565.16
288.974	8578.01
289.041	8575.17
289.109	8564.77
289.176	8574.26
289.244	8582.87
289.311	8599.19
289.379	8609.82
289.446	8607.8
289.514	8602.99
289.581	8609.96
289.649	8613.86
289.716	8613.86
289.783	8606.69
289.851	8624.83
289.918	8626.66
289.986	8634.12
290.053	8643.41
290.121	8634.7
290.188	8634.02
290.255	8668.77
290.323	8658.67
290.39	8649.91
290.458	8652.79
290.525	8666.99
290.592	8662.03
290.66	8661.41
290.727	8651.49
290.794	8664.29
290.862	8667.86
290.929	8670.17
290.996	8666.32
291.064	8679.6
291.131	8693.08
291.198	8705.59
291.266	8701.35
291.333	8708.09
291.4	8712.18
291.468	8726.58
291.535	8720.85
291.602	8727.01
291.669	8720.13
291.737	8725.27
291.804	8730.14
291.871	8749.05
291.938	8756.75
292.006	8781.3
292.073	8797.52
292.14	8813.74
292.207	8805.75
292.275	8805.9
292.342	8816.01
292.409	8843.11
292.476	8865.11
292.543	8855.34
292.611	8859.62
292.678	8884.56
292.745	8909.16
292.812	8924.03
292.879	8923.07
292.946	8933.18
293.014	8945.5
293.081	8952.05
293.148	8971.2
293.215	8990.22
293.282	8985.79
293.349	9000.28
293.416	8980.11
293.484	8993.06
293.551	8998.69
293.618	9016.79
293.685	9045.05
293.752	9039.27
293.819	9033.4
293.886	9018.33
293.953	9031.18
294.02	9039.99
294.087	9043.8
294.154	9029.64
294.221	9044.47
294.288	9044.43
294.356	9063.15
294.423	9075
294.49	9065.18
294.557	9077.26
294.624	9067.78
294.691	9086.94
294.758	9083.18
294.825	9096.32
294.892	9092.47
294.959	9097.38
295.026	9110.82
295.093	9098.15
295.16	9097.48
295.226	9102.05
295.293	9129.02
295.36	9134.55
295.427	9141.49
295.494	9154.34
295.561	9170.23
295.628	9193.2
295.695	9209.38
295.762	9207.31
295.829	9210.05
295.896	9229.89
295.963	9236.24
296.03	9247.66
296.096	9258.97
296.163	9271.01
296.23	9284.25
296.297	9299.51
296.364	9300.09
296.431	9305.77
296.498	9308.37
296.564	9343.86
296.631	9346.17
296.698	9336.25
296.765	9361.19
296.832	9352.96
296.899	9339.09
296.965	9359.99
297.032	9334.7
297.099	9354.83
297.166	9366.2
297.233	9369.13
297.299	9365.43
297.366	9362.92
297.433	9363.31
297.5	9374
297.566	9371.35
297.633	9367.35
297.7	9372.17
297.767	9372.6
297.833	9374.09
297.9	9377.9
297.967	9356.61
298.033	9372.84
298.1	9395
298.167	9384.06
298.234	9394.75
298.3	9407.18
298.367	9399.57
298.434	9405.3
298.5	9394.99
298.567	9395.76
298.634	9390.75
298.7	9407.51
298.767	9415.12
298.834	9431.35
298.9	9422.49
298.967	9422.25
299.033	9437.56
299.1	9447.38
299.167	9461.93
299.233	9459.13
299.3	9478.44
299.366	9494.48
299.433	9509.12
299.5	9492.89
299.566	9503.19
299.633	9518.65
299.699	9531.27
299.766	9526.02
299.832	9530.12
299.899	9540.13
299.965	9551.88
300.032	9549.48
300.099	9553.86
300.165	9563.4
300.232	9559.4
300.298	9562.05
300.365	9579.38
300.431	9578.85
300.498	9571.58
300.564	9576.16
300.631	9590.75
300.697	9603.85
300.763	9608.86
300.83	9602.31
300.896	9617.28
300.963	9623.02
301.029	9624.32
301.096	9625.09
301.162	9640.74
301.229	9640.64
301.295	9629.61
301.361	9636.64
301.428	9641.84
301.494	9633.18
301.561	9632.5
301.627	9636.07
301.693	9637.41
301.76	9632.16
301.826	9633.66
301.892	9653.5
301.959	9668
302.025	9667.32
302.092	9658.61
302.158	9663.66
302.224	9666.84
302.291	9650.9
302.357	9646.66
302.423	9645.22
302.49	9636.36
302.556	9652.15
302.622	9647.19
302.688	9663.23
302.755	9670.41
302.821	9683.46
302.887	9695.45
302.954	9689.29
303.02	9699.16
303.086	9708.89
303.152	9711.92
303.219	9708.94
303.285	9703.3
303.351	9704.07
303.417	9703.83
303.483	9697.14
303.55	9699.3
303.616	9700.36
303.682	9704.36
303.748	9703.83
303.815	9718.23
303.881	9730.76
303.947	9707.35
304.013	9714.09
304.079	9702.72
304.145	9687.89
304.212	9682.16
304.278	9670.98
304.344	9681.1
304.41	9668.09
304.476	9663.66
304.542	9665.16
304.608	9671.03
304.674	9654.13
304.741	9644.78
304.807	9645.55
304.873	9648.2
304.939	9652.68
305.005	9635.68
305.071	9637.03
305.137	9632.74
305.203	9608.52
305.269	9603.65
305.335	9623.83
305.401	9624.17
305.467	9624.46
305.533	9632.69
305.599	9648.59
305.666	9656.68
305.732	9649.07
305.798	9662.41
305.864	9681.97
305.93	9679.46
305.996	9679.8
306.062	9686.59
306.128	9688.71
306.194	9676.43
306.259	9681.24
306.325	9677.92
306.391	9686.88
306.457	9697.33
306.523	9707.39
306.589	9733.64
306.655	9730.56
306.721	9714.86
306.787	9701.95
306.853	9718.19
306.919	9698.73
306.985	9682.35
307.051	9678.31
307.117	9675.32
307.183	9668.05
307.248	9642.71
307.314	9651.24
307.38	9655.72
307.446	9656.49
307.512	9648.4
307.578	9661.21
307.644	9655.33
307.709	9654.9
307.775	9650.18
307.841	9646.86
307.907	9643.15
307.973	9620.03
308.039	9617.86
308.104	9619.55
308.17	9617.28
308.236	9604.66
308.302	9611.02
308.368	9604.76
308.433	9611.02
308.499	9605.19
308.565	9590.51
308.631	9590.27
308.696	9565.75
308.762	9547.16
308.828	9549.86
308.894	9528.62
308.959	9502.19
309.025	9490.48
309.091	9484.95
309.156	9477.29
309.222	9473.29
309.288	9460.15
309.354	9437.85
309.419	9441.8
309.485	9429.52
309.551	9443.39
309.616	9422.59
309.682	9415.8
309.748	9408.52
309.813	9400.19
309.879	9393.45
309.945	9385.7
310.01	9379.34
310.076	9381.85
310.141	9373.23
310.207	9355.6
310.273	9349.73
310.338	9358.35
310.404	9340.2
310.469	9331.43
310.535	9326.33
310.601	9306.2
310.666	9315.45
310.732	9328.78
310.797	9308.99
310.863	9298.78
310.928	9286.55
310.994	9289.34
311.059	9291.41
311.125	9284.48
311.191	9294.31
311.256	9280.1
311.322	9284.82
311.387	9266.81
311.453	9649.05
311.518	9627.87
311.584	9628.59
311.649	9643.61
311.715	9625.66
311.78	9637.74
311.846	9622.38
311.911	9625.61
311.976	9627.29
312.042	9607.45
312.107	9582.03
312.173	9579.24
312.238	9571.49
312.304	9568.74
312.369	9557.53
312.434	9538.89
312.5	9539.81
312.565	9499.84
312.631	9508.7
312.696	9502.39
312.761	9507.4
312.827	9115.82
312.892	9149.72
312.958	9148.32
313.023	9146.78
313.088	9149.38
313.154	9132.38
313.219	9132.77
313.284	9126.22
313.35	9127.42
313.415	9118.81
313.48	9123.62
313.546	9123.52
313.611	9132.05
313.676	9122.32
313.741	9121.21
313.807	9137.05
313.872	9137
313.937	9143.98
314.003	9152.99
314.068	9145.14
314.133	9153.52
314.198	9144.04
314.264	9126.03
314.329	9109.9
314.394	9103.45
314.459	9098.29
314.525	9114.76
314.59	9101.38
314.655	9088.23
314.72	9093.1
314.785	9095.84
314.851	9090.83
314.916	9076.54
314.981	9068.16
315.046	9062.43
315.111	9050.59
315.176	9031.95
315.242	9037.49
315.307	9039.85
315.372	9021.99
315.437	9016.79
315.502	9004.99
315.567	9020.4
315.632	9007.93
315.698	9012.46
315.763	9010.48
315.828	9007.5
315.893	9006.53
315.958	9006.97
316.023	8999.55
316.088	8972.84
316.153	8949.25
316.218	8944.68
316.283	8924.75
316.348	8905.11
316.413	8900.16
316.479	8882.3
316.544	8852.94
316.609	8817.52
316.674	8781.47
316.739	8741.62
316.804	8714.57
316.869	8678.86
316.934	8632.46
316.999	8602.96
317.064	8549.88
317.129	8505.17
317.194	8465.19
317.259	8412.1
317.324	8363.56
317.389	8320.64
317.454	8285.03
317.518	8254.77
317.583	8218.4
317.648	8194.48
317.713	8155.76
317.778	8092.21
317.843	8064.02
317.908	8024.19
317.973	7985.81
318.038	7951.75
318.103	7922.71
318.168	7886.64
318.233	7849.12
318.297	7803.87
318.362	7761.31
318.427	7721.5
318.492	7697.45
318.557	7645.73
318.622	7613.7
318.687	7590.58
318.751	7547.7
318.816	7511.64
318.881	7475.49
318.946	7426.65
319.011	7380.45
319.075	7346.22
319.14	7315.08
319.205	7269.71
319.27	7234.58
319.335	7192.29
319.399	7152.83
319.464	7116.07
319.529	7069.75
319.594	7031.99
319.658	7001.52
319.723	6961.46
319.788	6936.67
319.853	6877
319.917	6854.18
319.982	6800.1
320.047	6754.95
320.112	6728.05
320.176	6676.76
320.241	6643.23
320.306	6613.51
320.37	6569.67
320.435	6532.79
320.5	6503.45
320.564	6465.57
320.629	6422.66
320.694	6390.15
320.758	6352.57
320.823	6305.72
320.888	6278.8
320.952	6229.99
321.017	6185.74
321.082	6143.71
321.146	6111.02
321.211	6082.19
321.275	6042.84
321.34	6006.24
321.405	5966.14
321.469	5920.09
321.534	5882.11
321.598	5829.25
321.663	5795.71
321.727	5769.81
321.792	5720.32
321.857	5675.29
321.921	5634.87
321.986	5590.39
322.05	5535.02
322.115	5498.11
322.179	5457.28
322.244	5398.76
322.308	5367.66
322.373	5323.43
322.437	5284.57
322.502	5252.5
322.566	5204
322.631	5164.19
322.695	5122.61
322.76	5078.26
322.824	5046.02
322.889	5004.46
322.953	4964.19
323.018	4901.46
323.082	4832.66
323.146	4780.97
323.211	4728.22
323.275	4681.59
323.34	4640.35
323.404	4602.4
323.468	4553.63
323.533	4513.4
323.597	4466.82
323.662	4413.67
323.726	4374.53
323.79	4331.29
323.855	4263.31
323.919	4214.86
323.983	4167.04
324.048	4099.47
324.112	4227.06
324.177	4089.59
324.241	3874.75
324.305	3662.48
324.37	3456.19
324.434	3260.66
324.498	3216.34
324.562	3163.75
324.627	3102.93
324.691	3044.22
324.755	2976.73
324.82	2897.43
324.884	2813.04
324.948	2736.58
325.012	2638.36
325.077	2512.42
