Data from 20250704_urea_0.5M_MAYP1162681_11-05-05-769.txt Node
Date: Fri Jul 04 11:05:05 BST 2025
User: adleo
Spectrometer: MAYP116268
Trigger mode: 0
Integration Time (sec): 1.000000E0
Scans to average: 1
Electric dark correction enabled: true
Nonlinearity correction enabled: true
Boxcar width: 10
XAxis mode: Wavelengths
Number of Pixels in Spectrum: 2068
>>>>>Begin Spectral Data<<<<<
179.565	1242.7
179.642	1298.79
179.718	1343.57
179.795	1384.8
179.871	1420.46
179.948	1438.51
180.024	1461.24
180.101	1484.61
180.177	1498.48
180.254	1521.79
180.33	1541.93
180.407	1597.1
180.483	1695.64
180.56	1789
180.636	1877.5
180.712	1863.24
180.789	1875.31
180.865	1889.19
180.942	1896.36
181.018	1905.16
181.095	1917.76
181.171	1922.99
181.248	1925.23
181.324	1939.11
181.4	1946.96
181.477	1957.28
181.553	1970.78
181.63	1989.04
181.706	2003.5
181.782	2011.53
181.859	2011.29
181.935	2018.14
182.011	2016.9
182.088	2030.6
182.164	2048.49
182.24	2060.09
182.317	2072.55
182.393	2069.88
182.469	2085.82
182.546	2103.18
182.622	2107.03
182.698	2100.51
182.775	2108.36
182.851	2129.15
182.927	2122.78
183.003	2116.45
183.08	2112.17
183.156	2121.21
183.232	2117.74
183.308	2107.08
183.385	2117.07
183.461	2135.34
183.537	2138.43
183.613	2149.37
183.69	2141.81
183.766	2133.77
183.842	2142.85
183.918	2148.85
183.995	2164.21
184.071	2167.02
184.147	2160.36
184.223	2150.99
184.299	2168.45
184.375	2161.56
184.452	2160.99
184.528	2213.76
184.604	2226.12
184.68	2234.45
184.756	2243.16
184.832	2250.68
184.908	2256.19
184.985	2254.77
185.061	2236.74
185.137	2243.82
185.213	2231.08
185.289	2235.55
185.365	2226.61
185.441	2221.66
185.517	2234.22
185.593	2226.8
185.669	2220.66
185.745	2232.18
185.822	2247.21
185.898	2234.17
185.974	2242.06
186.05	2233.35
186.126	2197.71
186.202	2191.57
186.278	2190.19
186.354	2179.53
186.43	2186.58
186.506	2184.58
186.582	2184.77
186.658	2192.48
186.734	2172.93
186.81	2177.25
186.886	2175.3
186.962	2189.1
187.038	2187.63
187.114	2178.53
187.19	2188.81
187.266	2180.53
187.341	2180.01
187.417	2174.54
187.493	2175.87
187.569	2179.11
187.645	2174.64
187.721	2161.31
187.797	2168.64
187.873	2172.16
187.949	2168.12
188.025	2160.55
188.101	2162.69
188.176	2168.25
188.252	2163.97
188.328	2172.2
188.404	2172.44
188.48	2168.92
188.556	2162.54
188.632	2162.54
188.707	2163.3
188.783	2161.26
188.859	2154.74
188.935	2143.23
189.011	2149.27
189.086	2143.04
189.162	2133.76
189.238	2131.43
189.314	2128.29
189.39	2120.49
189.465	2112.31
189.541	2127.68
189.617	2111.98
189.693	2105.94
189.768	2107.18
189.844	2130.3
189.92	2121.22
189.996	2131.31
190.071	2143.73
190.147	2141.92
190.223	2148.39
190.298	2141.68
190.374	2128.74
190.45	2140.82
190.526	2151.43
190.601	2145.43
190.677	2149.14
190.753	2178.04
190.828	2182.36
190.904	2199.78
190.98	2211.39
191.055	2224.24
191.131	2216.19
191.207	2236.13
191.282	2246.92
191.358	2239.79
191.433	2227.74
191.509	2241.87
191.585	2238.2
191.66	2239.01
191.736	2246.62
191.811	2240.77
191.887	2259.05
191.963	2282.27
192.038	2288.65
192.114	2288.7
192.189	2294.79
192.265	2290.51
192.34	2271.79
192.416	2268.32
192.491	2262.9
192.567	2269.94
192.642	2270.56
192.718	2268.75
192.793	2255.86
192.869	2254.67
192.944	2256.86
193.02	2263.04
193.095	2268.13
193.171	2273.13
193.246	2273.56
193.322	2270.89
193.397	2269.13
193.473	2254.14
193.548	2233.77
193.624	2238.72
193.699	2237.34
193.775	2250.38
193.85	2250.05
193.925	2257.43
194.001	2257.43
194.076	2255.09
194.152	2244
194.227	2236.63
194.302	2228.68
194.378	2232.01
194.453	2230.3
194.529	2241.34
194.604	2224.97
194.679	2218.26
194.755	2200.47
194.83	2212.04
194.905	2211.52
194.981	2224.7
195.056	2218.28
195.131	2226.94
195.207	2226.79
195.282	2215.04
195.357	2197.15
195.433	2214.18
195.508	2202.52
195.583	2208.61
195.659	2216.84
195.734	2225.41
195.809	2226.7
195.884	2235.54
195.96	2238.64
196.035	2251.01
196.11	2249.29
196.185	2262.38
196.261	2267.09
196.336	2298.59
196.411	2286.79
196.486	2291.4
196.561	2282.69
196.637	2288.83
196.712	2302.35
196.787	2306.49
196.862	2325.71
196.937	2336.37
197.013	2343.23
197.088	2351.99
197.163	2376.51
197.238	2394.65
197.313	2391.89
197.388	2404.08
197.464	2434.41
197.539	2445.55
197.614	2440.41
197.689	2453.69
197.764	2470.46
197.839	2489.21
197.914	2480.78
197.989	2502.31
198.065	2513.69
198.14	2562.19
198.215	2587.19
198.29	2601.43
198.365	2612.39
198.44	2625.63
198.515	2654.59
198.59	2668.79
198.665	2695.85
198.74	2704.04
198.815	2706.09
198.89	2731.24
198.965	2762.08
199.04	2757.07
199.115	2771.93
199.19	2814
199.265	2815.86
199.34	2827.16
199.415	2861.01
199.49	2885.4
199.565	2893.98
199.64	2919.86
199.715	2921.29
199.79	2930.44
199.865	2934.39
199.94	2936.82
200.015	2965.34
200.09	2970.54
200.165	2977.45
200.24	2984.17
200.315	3023.77
200.39	3038.13
200.464	3044.7
200.539	3044.08
200.614	3062.2
200.689	3084.13
200.764	3090.95
200.839	3108.54
200.914	3116.45
200.989	3106.39
201.063	3118.93
201.138	3101.06
201.213	3099.68
201.288	3077.94
201.363	3083.8
201.438	3087.38
201.512	3100.87
201.587	3082.93
201.662	3084.84
201.737	3098.05
201.812	3105.49
201.886	3072.75
201.961	3084.11
202.036	3069.71
202.111	3069.19
202.186	3037.6
202.26	3019.9
202.335	2999.68
202.41	2993.53
202.485	2975.09
202.559	2956.59
202.634	2931.09
202.709	2941.76
202.784	2924.07
202.858	2922.17
202.933	2904.77
203.008	2894.85
203.082	2873.17
203.157	2871.93
203.232	2831.77
203.306	2808.17
203.381	2777.38
203.456	2754.65
203.53	2731.42
203.605	2715.32
203.68	2692.39
203.754	2689.3
203.829	2680.34
203.904	2659.33
203.978	2647.85
204.053	2651.18
204.127	2636.52
204.202	2631.94
204.277	2614.46
204.351	2606.75
204.426	2602.12
204.5	2591.84
204.575	2560.17
204.65	2571.85
204.724	2564.84
204.799	2574.5
204.873	2571.41
204.948	2571.69
205.022	2562.41
205.097	2554.16
205.171	2565.16
205.246	2571.4
205.32	2568.88
205.395	2563.45
205.469	2553.69
205.544	2556.07
205.618	2537.17
205.693	2549.93
205.767	2539.69
205.842	2559.37
205.916	2553.51
205.991	2544.46
206.065	2551.6
206.14	2567.98
206.214	2564.35
206.289	2555.54
206.363	2565.83
206.438	2569.93
206.512	2576.4
206.586	2593.5
206.661	2603.41
206.735	2586.66
206.81	2591.18
206.884	2610.66
206.958	2603.85
207.033	2625.42
207.107	2640.19
207.181	2677.89
207.256	2676.41
207.33	2704.61
207.405	2724.4
207.479	2750.55
207.553	2765.89
207.628	2757.46
207.702	2780.43
207.776	2782.43
207.851	2798.44
207.925	2828.91
207.999	2838.68
208.073	2855.08
208.148	2875.91
208.222	2879.67
208.296	2931.05
208.371	2969.55
208.445	3000.69
208.519	3052.27
208.593	3089.75
208.668	3112.85
208.742	3148.75
208.816	3181.12
208.89	3229.33
208.965	3265.1
209.039	3316.08
209.113	3376.65
209.187	3443.09
209.261	3487.39
209.336	3562.87
209.41	3639.67
209.484	3697.83
209.558	3782.34
209.632	3857.3
209.707	3932.71
209.781	4032.08
209.855	4124
209.929	4218.33
210.003	4306.8
210.077	4395.54
210.151	4536.4
210.226	4664.37
210.3	4785.18
210.374	4917.72
210.448	5022.27
210.522	5140.37
210.596	5263.04
210.67	5393.3
210.744	5563.63
210.818	5717.39
210.892	5867.24
210.966	5992.03
211.041	6142.49
211.115	6278.53
211.189	6443.06
211.263	6609.06
211.337	6758.59
211.411	6922.59
211.485	7069
211.559	7234.15
211.633	7396.68
211.707	7530.55
211.781	7706.53
211.855	7843.73
211.929	8002.79
212.003	8158.63
212.077	8350.17
212.151	8539.37
212.225	8729.75
212.299	8904.08
212.373	9083.53
212.447	9257.82
212.52	9482.23
212.594	9674.86
212.668	9876.05
212.742	10051.51
212.816	10237.73
212.89	10426.94
212.964	10616.39
213.038	10820.87
213.112	11037.4
213.186	11245.7
213.26	11411.6
213.333	11559.17
213.407	11761.04
213.481	11953.47
213.555	12159.06
213.629	12339.08
213.703	12517.67
213.777	12702.91
213.85	12873.6
213.924	13099.38
213.998	13295.13
214.072	13470.41
214.146	13645.39
214.219	13826.73
214.293	14006.83
214.367	14188.56
214.441	14381.08
214.515	14555
214.588	14709.93
214.662	14853.91
214.736	15007.63
214.81	15201.36
214.883	15388.63
214.957	15549.67
215.031	15712.74
215.105	15863.46
215.178	16017.75
215.252	16180.9
215.326	16316.97
215.4	16448.98
215.473	16554.48
215.547	16688.8
215.621	16825.72
215.694	16989.34
215.768	17117.3
215.842	17259.96
215.915	17395.33
215.989	17511.72
216.063	17634.85
216.136	17768.78
216.21	17898.85
216.284	18053.64
216.357	18181.54
216.431	18298.6
216.504	18427.08
216.578	18577.33
216.652	18707.26
216.725	18836.55
216.799	18954.72
216.873	19074.81
216.946	19206.56
217.02	19313.98
217.093	19425.1
217.167	19512.52
217.24	19587.31
217.314	19683.02
217.387	19766.82
217.461	19863.49
217.535	19974.57
217.608	20063.2
217.682	20156.5
217.755	20269.36
217.829	20341.6
217.902	20431.34
217.976	20519.97
218.049	20594.76
218.123	20665.9
218.196	20751.35
218.27	20823.21
218.343	20889.86
218.417	20965.24
218.49	21029.77
218.563	21121.2
218.637	21203
218.71	21300.94
218.784	21386.78
218.857	21472.18
218.931	21553.93
219.004	21612.88
219.077	21683.73
219.151	21754.44
219.224	21808.43
219.298	21857.11
219.371	21934.53
219.444	21980.52
219.518	22038.17
219.591	22101.41
219.665	22184.47
219.738	22243.38
219.811	22282.96
219.885	22341.48
219.958	22404.1
220.031	22461.18
220.105	22501.58
220.178	22553.79
220.251	22587.93
220.325	22636.58
220.398	22679.53
220.471	22724.66
220.544	22779.28
220.618	22807.73
220.691	22856.76
220.764	22913.65
220.838	22955.36
220.911	22983.13
220.984	23033.71
221.057	23070.45
221.131	23106.08
221.204	23097.5
221.277	23141.81
221.35	23190.94
221.424	23205.79
221.497	23225.18
221.57	23251.26
221.643	23283.91
221.716	23295.53
221.79	23311.97
221.863	23325.96
221.936	23342.93
222.009	23361.01
222.082	23373.21
222.155	23376.88
222.229	23396.46
222.302	23395.54
222.375	23400.07
222.448	23406.49
222.521	23410.15
222.594	23426.93
222.667	23412.66
222.74	23443.28
222.814	23441.54
222.887	23444
222.96	23462.47
223.033	23470.67
223.106	23471.54
223.179	23469.42
223.252	23473.42
223.325	23474.05
223.398	23473.23
223.471	23480.27
223.544	23473.32
223.617	23474.24
223.69	23474.87
223.763	23463.82
223.837	23471.49
223.91	23477.18
223.983	23456.06
224.056	23435.23
224.129	23424.57
224.202	23435.23
224.275	23410.88
224.348	23395.93
224.42	23374.95
224.493	23350.65
224.566	23333.91
224.639	23324.17
224.712	23318.77
224.785	23308.26
224.858	23286.42
224.931	23269.25
225.004	23232.55
225.077	23226.72
225.15	23194.22
225.223	23184.43
225.296	23194.8
225.369	23161.38
225.442	23137.42
225.514	23132.98
225.587	23126.67
225.66	23108.97
225.733	23102.56
225.806	23084.48
225.879	23058.58
225.952	23035.68
226.025	23030.33
226.097	23036.6
226.17	23019.82
226.243	22977.2
226.316	22946.53
226.389	22938.09
226.461	22920.98
226.534	22910.47
226.607	22882.69
226.68	22878.89
226.753	22861
226.825	22806.99
226.898	22796.92
226.971	22770.4
227.044	22747.55
227.117	22724.5
227.189	22712.88
227.262	22696.01
227.335	22679.08
227.407	22654.55
227.48	22638.78
227.553	22604.7
227.626	22564
227.698	22536.04
227.771	22511.31
227.844	22484.41
227.916	22451.24
227.989	22411.37
228.062	22389.05
228.134	22382.26
228.207	22357.86
228.28	22323.87
228.352	22298.86
228.425	22275.76
228.498	22264.96
228.57	22231.03
228.643	22228.18
228.716	22200.08
228.788	22163.29
228.861	22124.2
228.934	22109.98
229.006	22074.79
229.079	22047.46
229.151	22026.44
229.224	21989.9
229.296	21980.74
229.369	21980.41
229.442	21981.66
229.514	21953.37
229.587	21935.14
229.659	21891.81
229.732	21862.79
229.804	21856.09
229.877	21851.03
229.949	21840.76
230.022	21825.72
230.094	21801.91
230.167	21772.65
230.239	21732.84
230.312	21709.46
230.384	21714.23
230.457	21691.29
230.529	21667.43
230.602	21658.56
230.674	21631.42
230.747	21619.47
230.819	21608.33
230.892	21547.7
230.964	21507.84
231.037	21495.4
231.109	21467.06
231.181	21451.3
231.254	21419.1
231.326	21387.44
231.399	21352.54
231.471	21310.51
231.544	21254.07
231.616	21233.73
231.688	21197.68
231.761	21163.03
231.833	21128.95
231.905	21076.56
231.978	21044.12
232.05	21016.65
232.122	20986.72
232.195	20947.25
232.267	20930.72
232.339	20885.27
232.412	20877.07
232.484	20852.93
232.556	20813.41
232.629	20802.18
232.701	20777.65
232.773	20743.48
232.846	20700.73
232.918	20681.07
232.99	20653.26
233.062	20633.84
233.135	20611.96
233.207	20569.16
233.279	20546.75
233.351	20517.55
233.424	20478.99
233.496	20436.92
233.568	20420.34
233.64	20372.05
233.713	20338.61
233.785	20298.95
233.857	20274.18
233.929	20224.1
234.001	20207.96
234.074	20187.04
234.146	20138.18
234.218	20101.94
234.29	20071.29
234.362	20036.93
234.434	19976.11
234.507	19928.64
234.579	19894.23
234.651	19857.61
234.723	19838.96
234.795	19813.17
234.867	19775.49
234.939	19759.59
235.012	19731.88
235.084	19708.79
235.156	19691.25
235.228	19658.1
235.3	19619.98
235.372	19578.63
235.444	19562.87
235.516	19502.11
235.588	19472.47
235.66	19437.82
235.732	19394.02
235.804	19417.77
235.876	19396.96
235.948	19388.18
236.02	19358.16
236.092	19315.23
236.164	19281.88
236.236	19244.53
236.308	19206.08
236.38	19185.31
236.452	19143.77
236.524	19115.67
236.596	19089.5
236.668	19058.28
236.74	19025.99
236.812	18995.34
236.884	18976.36
236.956	18944.07
237.028	18904.17
237.1	18854.48
237.172	18834.68
237.244	18825.14
237.316	18751.93
237.388	18704.37
237.46	18653.58
237.532	18636.42
237.604	18594.55
237.675	18570.6
237.747	18533.92
237.819	18491.52
237.891	18449.45
237.963	18412.39
238.035	18369.74
238.107	18304.01
238.178	18287.53
238.25	18250.8
238.322	18241.65
238.394	18177.75
238.466	18130.76
238.538	18104.88
238.609	18082.86
238.681	18027.39
238.753	17979.01
238.825	17947.78
238.897	17913.42
238.968	17901.57
239.04	17857.18
239.112	17850.82
239.184	17799.21
239.255	17770.92
239.327	17738
239.399	17708.41
239.471	17687.64
239.542	17668.75
239.614	17648.41
239.686	17580.03
239.758	17558.44
239.829	17510.97
239.901	17502.49
239.973	17471.5
240.044	17442.44
240.116	17410.34
240.188	17381.43
240.259	17345.43
240.331	17305.67
240.403	17285.33
240.474	17233.67
240.546	17191.35
240.618	17137.86
240.689	17101.13
240.761	17069.76
240.833	17059.06
240.904	17022.72
240.976	16979.78
241.048	16944.99
241.119	16916.55
241.191	16889.51
241.262	16866.81
241.334	16826.86
241.405	16792.11
241.477	16753.94
241.549	16712.44
241.62	16682.27
241.692	16654.71
241.763	16635.91
241.835	16598.65
241.906	16560.1
241.978	16512.29
242.049	16496.72
242.121	16481.39
242.192	16471.13
242.264	16420.9
242.335	16368.95
242.407	16338.05
242.478	16299.83
242.55	16263.44
242.621	16221.22
242.693	16183.87
242.764	16139.77
242.836	16106.03
242.907	16079.28
242.979	16054.75
243.05	16029.15
243.122	15999.99
243.193	15968.47
243.264	15906.87
243.336	15872.27
243.407	15852.84
243.479	15841.03
243.55	15804.4
243.622	15770.9
243.693	15727.14
243.764	15710.6
243.836	15669.05
243.907	15630.49
243.978	15594.39
244.05	15572.89
244.121	15530.28
244.192	15514.23
244.264	15474.95
244.335	15443.57
244.407	15384.28
244.478	15353.72
244.549	15319.98
244.62	15270.38
244.692	15236.16
244.763	15223.58
244.834	15198.9
244.906	15158.89
244.977	15134.21
245.048	15117.58
245.119	15081.43
245.191	15048.26
245.262	14990.95
245.333	14978.8
245.405	14949.83
245.476	14927.66
245.547	14903.08
245.618	14880.18
245.689	14846.24
245.761	14816.84
245.832	14785.41
245.903	14773.21
245.974	14751.52
246.045	14716.19
246.117	14706.64
246.188	14660.22
246.259	14614.77
246.33	14580.54
246.401	14546.89
246.473	14506.06
246.544	14469.24
246.615	14451.59
246.686	14416.35
246.757	14407.53
246.828	14370.27
246.899	14361.93
246.97	14311.65
247.042	14264.84
247.113	14245.95
247.184	14240.26
247.255	14210.13
247.326	14183.04
247.397	14144.81
247.468	14113.67
247.539	14087.93
247.61	14046.76
247.681	14034.04
247.752	14028.44
247.823	13983.95
247.894	13961.24
247.965	13917.28
248.037	13882.96
248.108	13840.78
248.179	13815.03
248.25	13787.07
248.321	13767.41
248.392	13725.71
248.463	13731.97
248.534	13707.44
248.605	13680.73
248.675	13653.49
248.746	13632.86
248.817	13612.28
248.888	13603.26
248.959	13559.49
249.03	13543.39
249.101	13520.01
249.172	13483.42
249.243	13427.07
249.314	13425.28
249.385	13405.91
249.456	13389.47
249.527	13370.67
249.598	13351.82
249.669	13329.11
249.739	13309.49
249.81	13288.62
249.881	13254.68
249.952	13225.76
250.023	13196.21
250.094	13163.91
250.165	13126.16
250.235	13104.33
250.306	13081.67
250.377	13045.32
250.448	13032.4
250.519	12987.38
250.59	12979.57
250.66	12957.54
250.731	12957.44
250.802	12929.19
250.873	12911.45
250.944	12893.57
251.014	12859.1
251.085	12855.49
251.156	12831.96
251.227	12820.1
251.297	12808.49
251.368	12794.79
251.439	12791.52
251.51	12788.09
251.58	12756.62
251.651	12728.37
251.722	12711.06
251.792	12672.45
251.863	12648.78
251.934	12637.69
252.005	12645.17
252.075	12619.62
252.146	12616.05
252.217	12602.65
252.287	12593.97
252.358	12566.5
252.429	12571.17
252.499	12550.3
252.57	12531.64
252.641	12528.99
252.711	12508.89
252.782	12468.5
252.852	12472.06
252.923	12441.45
252.994	12426.51
253.064	12421.01
253.135	12393.15
253.205	12366.74
253.276	12360.95
253.347	12349.72
253.417	12326.49
253.488	12299.11
253.558	12274.96
253.629	12255.34
253.699	12238.37
253.77	12222.75
253.841	12196.73
253.911	12177.15
253.982	12157.34
254.052	12151.08
254.123	12128.37
254.193	12111.21
254.264	12131.07
254.334	12093.33
254.405	12064.46
254.475	12020.88
254.546	11998.47
254.616	11993.46
254.687	11979.38
254.757	11969.69
254.827	11948.15
254.898	11926.99
254.968	11908.38
255.039	11881.59
255.109	11868.43
255.18	11840.66
255.25	11801.53
255.321	11795.21
255.391	11758.53
255.461	11766.29
255.532	11717.66
255.602	11691.05
255.673	11651.43
255.743	11620.97
255.813	11582.85
255.884	11572.58
255.954	11569.3
256.024	11574.99
256.095	11560.48
256.165	11536.53
256.235	11522.45
256.306	11508.19
256.376	11507.8
256.446	11495.66
256.517	11489.78
256.587	11479.94
256.657	11469.39
256.728	11453.58
256.798	11431.7
256.868	11409.48
256.938	11376.56
257.009	11370.73
257.079	11369.24
257.149	11376.81
257.219	11340.61
257.29	11331.74
257.36	11295.84
257.43	11293.87
257.5	11245.67
257.571	11226.54
257.641	11209.48
257.711	11178.92
257.781	11165.57
257.852	11148.95
257.922	11121.28
257.992	11094.88
258.062	11080.66
258.132	11076.13
258.202	11056.81
258.273	11049.67
258.343	11054.44
258.413	11032.28
258.483	11015.22
258.553	10981.58
258.623	10960.95
258.693	10949.2
258.764	10946.02
258.834	10944.96
258.904	10926.69
258.974	10905.01
259.044	10878.89
259.114	10871.13
259.184	10863.76
259.254	10838.51
259.324	10803.43
259.394	10791.09
259.464	10802.8
259.535	10779.05
259.605	10749.6
259.675	10727.34
259.745	10708.07
259.815	10676.75
259.885	10651.45
259.955	10658.1
260.025	10634.69
260.095	10614.74
260.165	10606.26
260.235	10612.71
260.305	10589.3
260.375	10558.17
260.445	10564.53
260.515	10562.27
260.585	10559.57
260.655	10538.94
260.725	10535.86
260.795	10527.48
260.865	10530.75
260.934	10495.68
261.004	10485.32
261.074	10466.91
261.144	10475.1
261.214	10477.03
261.284	10457.71
261.354	10458.82
261.424	10429.18
261.494	10434.63
261.564	10422.63
261.634	10414.73
261.703	10374.55
261.773	10365.87
261.843	10361.68
261.913	10347.13
261.983	10317.84
262.053	10310.28
262.123	10296.79
262.192	10264.42
262.262	10261.72
262.332	10234.35
262.402	10230.5
262.472	10218.17
262.541	10185.51
262.611	10172.21
262.681	10140.41
262.751	10136.27
262.821	10120.04
262.89	10093.69
262.96	10086.36
263.03	10089.01
263.1	10075.96
263.169	10068.06
263.239	10058.66
263.309	10056.98
263.379	10049.85
263.448	10031.93
263.518	10014.35
263.588	9999.94
263.657	10006.88
263.727	10001.24
263.797	9984.29
263.867	9967.96
263.936	9939.35
264.006	9941.08
264.076	9930.34
264.145	9913.67
264.215	9897.34
264.285	9888.72
264.354	9859.25
264.424	9833.09
264.494	9803.37
264.563	9781.07
264.633	9780.15
264.702	9770.91
264.772	9745.23
264.842	9727.17
264.911	9735.55
264.981	9714.11
265.05	9702.31
265.12	9690.71
265.19	9679.24
265.259	9676.83
265.329	9671.73
265.398	9665.81
265.468	9681.02
265.537	9664.17
265.607	9658.97
265.676	9655.79
265.746	9651.94
265.815	9654.29
265.885	9645.87
265.955	9624.34
266.024	9612.45
266.094	9580.32
266.163	9589.76
266.232	9587.69
266.302	9573.34
266.371	9559.81
266.441	9546.28
266.51	9542.76
266.58	9523.26
266.649	9503.18
266.719	9506.07
266.788	9501.44
266.858	9500.62
266.927	9461.52
266.996	9448.38
267.066	9442.21
267.135	9417.36
267.205	9411.97
267.274	9405.47
267.343	9407.15
267.413	9398.83
267.482	9407.73
267.552	9413.51
267.621	9380
267.69	9349.61
267.76	9343.3
267.829	9329.58
267.898	9316.63
267.968	9298.28
268.037	9297.8
268.106	9295.06
268.176	9271.08
268.245	9256
268.314	9242.04
268.384	9246.61
268.453	9236.4
268.522	9233.27
268.592	9237.99
268.661	9222.78
268.73	9210.84
268.799	9189.94
268.869	9197.79
268.938	9168.27
269.007	9150.31
269.076	9140.35
269.146	9144.97
269.215	9139.87
269.284	9145.36
269.353	9134.81
269.422	9124.94
269.492	9108.77
269.561	9070.11
269.63	9060.58
269.699	9043.53
269.768	9034.05
269.838	9026.73
269.907	9028.42
269.976	9003.33
270.045	8968.82
270.114	8959.82
270.183	8948.55
270.253	8939.17
270.322	8911.05
270.391	8895.79
270.46	8900.51
270.529	8898.88
270.598	8900.13
270.667	8885.4
270.736	8866.52
270.806	8865.71
270.875	8867.92
270.944	8859.69
271.013	8883.95
271.082	8876.63
271.151	8873.22
271.22	8845.59
271.289	8837.45
271.358	8823.54
271.427	8821.33
271.496	8813.48
271.565	8795.77
271.634	8790.14
271.703	8821.87
271.772	8822.4
271.841	8813.59
271.91	8789.28
271.979	8783.7
272.048	8760.98
272.117	8761.41
272.186	8746.11
272.255	8739.32
272.324	8732.63
272.393	8724.16
272.462	8704.71
272.531	8702.98
272.6	8693.83
272.669	8704.56
272.738	8688.68
272.807	8683.82
272.876	8658.27
272.945	8687.48
273.013	8690.8
273.082	8697.59
273.151	8653.97
273.22	8655.66
273.289	8647.62
273.358	8659.46
273.427	8650.03
273.496	8648.92
273.564	8643.63
273.633	8648.44
273.702	8628.32
273.771	8618.07
273.84	8613.45
273.909	8613.31
273.977	8608.88
274.046	8603.54
274.115	8607.97
274.184	8594.11
274.253	8583.67
274.322	8598.63
274.39	8570.14
274.459	8558.68
274.528	8527.84
274.597	8515.67
274.665	8503.39
274.734	8515.86
274.803	8504.64
274.872	8499.25
274.94	8482.84
275.009	8537.97
275.078	8530.37
275.147	8534.8
275.215	8529.74
275.284	8538.65
275.353	8529.89
275.421	8507.51
275.49	8515.89
275.559	8499.47
275.627	8495.72
275.696	8490.67
275.765	8487.11
275.833	8475.61
275.902	8474.26
275.971	8489.13
276.039	8502.8
276.108	8509.73
276.177	8507.75
276.245	8500.87
276.314	8496.11
276.383	8502.6
276.451	8441.94
276.52	8441.75
276.588	8451.71
276.657	8462.39
276.725	8451.61
276.794	8453.01
276.863	8466.19
276.931	8439.34
277	8448.15
277.068	8464.55
277.137	8483.08
277.205	8480.53
277.274	8502.9
277.342	8513.54
277.411	8492.13
277.48	8479.38
277.548	8472.16
277.617	8474.04
277.685	8465.71
277.754	8462.54
277.822	8453.83
277.89	8468.22
277.959	8457.87
278.027	8436.32
278.096	8424.62
278.164	8454.94
278.233	8448.06
278.301	8432.95
278.37	8446.67
278.438	8433.19
278.507	8427.04
278.575	8402.01
278.643	8395.9
278.712	8378.24
278.78	8363.66
278.849	8377.04
278.917	8387.91
278.985	8378.82
279.054	8376.07
279.122	8391.09
279.191	8396.52
279.259	8394.36
279.327	8366.64
279.396	8384.06
279.464	8379.58
279.532	8382.62
279.601	8380.21
279.669	8376.5
279.737	8393.44
279.806	8393.63
279.874	8401.38
279.942	8402.92
280.011	8401.43
280.079	8410.96
280.147	8428.86
280.215	8432.08
280.284	8432.9
280.352	8420.82
280.42	8431.31
280.488	8421.59
280.557	8408.36
280.625	8411.73
280.693	8411.34
280.761	8417.84
280.83	8398.49
280.898	8416.92
280.966	8394.69
281.034	8361.68
281.102	8344.17
281.171	8334.59
281.239	8341.33
281.307	8331.32
281.375	8318.96
281.443	8339.12
281.512	8334.35
281.58	8338.54
281.648	8329.16
281.716	8322.52
281.784	8325.31
281.852	8317.95
281.92	8319.92
281.989	8332.91
282.057	8311.74
282.125	8357.51
282.193	8352.6
282.261	8355.54
282.329	8349.72
282.397	8358.18
282.465	8356.07
282.533	8373.19
282.601	8360.88
282.67	8341.05
282.738	8336.14
282.806	8348.27
282.874	8335.03
282.942	8338.16
283.01	8333.01
283.078	8336.81
283.146	8335.9
283.214	8342.68
283.282	8346.2
283.35	8365.64
283.418	8358.28
283.486	8368.09
283.554	8325.69
283.622	8334.01
283.69	8333.96
283.758	8327.71
283.826	8335.65
283.894	8350.95
283.962	8368.18
284.03	8385.45
284.098	8383.62
284.165	8383.48
284.233	8387.13
284.301	8384.39
284.369	8375.59
284.437	8360.96
284.505	8356.29
284.573	8371.3
284.641	8359.9
284.709	8365
284.777	8340.07
284.845	8352.15
284.912	8356.24
284.98	8361.53
285.048	8352.2
285.116	8359.18
285.184	8375.54
285.252	8376.35
285.319	8356.68
285.387	8347.68
285.455	8334.88
285.523	8344.64
285.591	8338.44
285.659	8332.38
285.726	8349.17
285.794	8336.13
285.862	8343.25
285.93	8345.52
285.997	8343.64
286.065	8342.15
286.133	8337.14
286.201	8335.89
286.269	8317.8
286.336	8313.13
286.404	8307.98
286.472	8317.37
286.539	8289.75
286.607	8272.77
286.675	8272.29
286.743	8283.54
286.81	8281.76
286.878	8294.66
286.946	8284.12
287.013	8291.82
287.081	8295.57
287.149	8276.13
287.216	8295.18
287.284	8283.88
287.352	8281.95
287.419	8274.64
287.487	8287.92
287.555	8288.01
287.622	8286.91
287.69	8295.91
287.758	8301.29
287.825	8294.85
287.893	8279.74
287.96	8291.72
288.028	8304.56
288.096	8303.84
288.163	8302.78
288.231	8290.47
288.298	8283.25
288.366	8297.63
288.433	8289.41
288.501	8276.13
288.569	8280.75
288.636	8277.81
288.704	8295.47
288.771	8305.72
288.839	8298.6
288.906	8292.3
288.974	8304.52
289.041	8298.27
289.109	8286.67
289.176	8297.5
289.244	8307.75
289.311	8325.07
289.379	8334.21
289.446	8335.07
289.514	8336.32
289.581	8337.72
289.649	8342.24
289.716	8346.14
289.783	8343.83
289.851	8368.13
289.918	8365.05
289.986	8374.38
290.053	8378.76
290.121	8370.44
290.188	8373.95
290.255	8401.67
290.323	8398.39
290.39	8386.99
290.458	8400.07
290.525	8414.27
290.592	8410.71
290.66	8410.32
290.727	8400.99
290.794	8421.78
290.862	8414.85
290.929	8417.06
290.996	8418.07
291.064	8427.17
291.131	8436.16
291.198	8443.29
291.266	8433.61
291.333	8444.58
291.4	8457.1
291.468	8472.11
291.535	8470.81
291.602	8469.99
291.669	8461.91
291.737	8461.33
291.804	8464.07
291.871	8479.47
291.938	8485.3
292.006	8510.08
292.073	8524.42
292.14	8539.58
292.207	8522.21
292.275	8532.22
292.342	8545.74
292.409	8575.2
292.476	8596.33
292.543	8592.72
292.611	8592.81
292.678	8615.24
292.745	8642.14
292.812	8647.53
292.879	8647.72
292.946	8655.71
293.014	8671.26
293.081	8679.15
293.148	8699.46
293.215	8713.22
293.282	8702.83
293.349	8712.4
293.416	8697.58
293.484	8706.87
293.551	8714.57
293.618	8736.66
293.685	8760.15
293.752	8750.57
293.819	8746.72
293.886	8738.1
293.953	8746.28
294.02	8760.43
294.087	8772.47
294.154	8760.87
294.221	8766.89
294.288	8765.83
294.356	8787.87
294.423	8790.42
294.49	8788.45
294.557	8804.58
294.624	8799.96
294.691	8822.62
294.758	8826.57
294.825	8829.84
294.892	8824.79
294.959	8827.1
295.026	8835.53
295.093	8827.44
295.16	8831.48
295.226	8831.09
295.293	8850.21
295.36	8856.75
295.427	8868.88
295.494	8876.92
295.561	8886.93
295.628	8910.24
295.695	8923.09
295.762	8920.11
295.829	8938.06
295.896	8951.64
295.963	8954.62
296.03	8964.87
296.096	8975.56
296.163	8981.87
296.23	8999.25
296.297	9013.74
296.364	9014.55
296.431	9022.07
296.498	9018.74
296.564	9042.47
296.631	9047.43
296.698	9038.43
296.765	9059.13
296.832	9045.7
296.899	9030.15
296.965	9052.15
297.032	9032.8
297.099	9048.54
297.166	9056.67
297.233	9049.21
297.299	9040.55
297.366	9045.8
297.433	9045.31
297.5	9050.32
297.566	9054.85
297.633	9054.41
297.7	9059.81
297.767	9060.38
297.833	9064.09
297.9	9069.05
297.967	9053.5
298.033	9061.88
298.1	9086.82
298.167	9073.43
298.234	9087.44
298.3	9098.23
298.367	9086.91
298.434	9097.6
298.5	9089.51
298.567	9084.07
298.634	9082
298.7	9099.28
298.767	9095.53
298.834	9111.46
298.9	9102.94
298.967	9099.72
299.033	9108.09
299.1	9118.59
299.167	9129.42
299.233	9115.94
299.3	9128.89
299.366	9149.3
299.433	9169.67
299.5	9143.43
299.566	9152.05
299.633	9157.2
299.699	9169.09
299.766	9167.31
299.832	9174.2
299.899	9184.6
299.965	9194.95
300.032	9192.25
300.099	9202.17
300.165	9208.43
300.232	9204.68
300.298	9208.14
300.365	9220.13
300.431	9223.74
300.498	9214.5
300.564	9222.35
300.631	9241.8
300.697	9256.29
300.763	9254.56
300.83	9247.14
300.896	9260.91
300.963	9273.67
301.029	9282.48
301.096	9285.9
301.162	9300.44
301.229	9295.1
301.295	9284.89
301.361	9291.49
301.428	9298.66
301.494	9287.87
301.561	9289.08
301.627	9291.68
301.693	9296.68
301.76	9294.76
301.826	9286.28
301.892	9302.37
301.959	9311.8
302.025	9306.12
302.092	9300.59
302.158	9303.76
302.224	9301.21
302.291	9298.13
302.357	9293.99
302.423	9291.48
302.49	9277.33
302.556	9291.53
302.622	9289.42
302.688	9304.49
302.755	9312.77
302.821	9316.19
302.887	9325.62
302.954	9327.98
303.02	9342
303.086	9350.13
303.152	9351.58
303.219	9349.41
303.285	9347.15
303.351	9354.95
303.417	9353.12
303.483	9341.32
303.55	9331.79
303.616	9335.5
303.682	9339.69
303.748	9331.79
303.815	9340.94
303.881	9355.67
303.947	9344.21
304.013	9347.73
304.079	9335.16
304.145	9320.81
304.212	9321.34
304.278	9311.76
304.344	9305.6
304.41	9293.65
304.476	9280.32
304.542	9273.05
304.608	9280.03
304.674	9265.78
304.741	9255.13
304.807	9265.39
304.873	9276.61
304.939	9299.96
305.005	9277.86
305.071	9270.93
305.137	9270.35
305.203	9250.08
305.269	9245.79
305.335	9253.11
305.401	9247.14
305.467	9245.21
305.533	9255.66
305.599	9257.2
305.666	9271.79
305.732	9273.57
305.798	9283.88
305.864	9312.63
305.93	9320.43
305.996	9317.78
306.062	9318.98
306.128	9315.42
306.194	9297.56
306.259	9290.82
306.325	9278.05
306.391	9292.79
306.457	9297.51
306.523	9302.08
306.589	9322.5
306.655	9314.7
306.721	9294.52
306.787	9277.57
306.853	9293.22
306.919	9273.19
306.985	9271.03
307.051	9259.28
307.117	9255.57
307.183	9248.2
307.248	9219.31
307.314	9223.6
307.38	9221.86
307.446	9227.3
307.512	9212.38
307.578	9222.68
307.644	9222.83
307.709	9226.15
307.775	9223.5
307.841	9222.06
307.907	9224.13
307.973	9204
308.039	9205.15
308.104	9215.89
308.17	9221.23
308.236	9211.03
308.302	9213.87
308.368	9209.87
308.433	9209.1
308.499	9198.12
308.565	9185.7
308.631	9185.08
308.696	9160.86
308.762	9151.61
308.828	9150.22
308.894	9137.56
308.959	9114.21
309.025	9101.31
309.091	9094.37
309.156	9082.53
309.222	9086.04
309.288	9071.46
309.354	9049.22
309.419	9043.58
309.485	9026.88
309.551	9033.62
309.616	9012.29
309.682	9012.96
309.748	8998.04
309.813	8993.61
309.879	8992.89
309.945	8983.26
310.01	8982.49
310.076	8987.54
310.141	8980.9
310.207	8963.28
310.273	8967.61
310.338	8967.13
310.404	8950.77
310.469	8940.8
310.535	8929.2
310.601	8902.63
310.666	8909.7
310.732	8924.34
310.797	8920.34
310.863	8909.32
310.928	8901.71
310.994	8901.23
311.059	8892.71
311.125	8892.95
311.191	8902.43
311.256	8886.94
311.322	8893.39
311.387	8866.67
311.453	9312.51
311.518	9291.91
311.584	9290.03
311.649	9290.27
311.715	9283.87
311.78	9284.69
311.846	9275.49
311.911	9283.15
311.976	9287.33
312.042	9268.85
312.107	9251.14
312.173	9235.68
312.238	9233.66
312.304	9228.32
312.369	9229.14
312.434	9225.43
312.5	9215.37
312.565	9183.12
312.631	9191.35
312.696	9180.57
312.761	9184.75
312.827	8725.59
312.892	8762.89
312.958	8760.77
313.023	8766.21
313.088	8763.81
313.154	8749.9
313.219	8736.71
313.284	8729.68
313.35	8727.61
313.415	8713.61
313.48	8706.68
313.546	8712.36
313.611	8716.98
313.676	8708.07
313.741	8691.47
313.807	8693.68
313.872	8703.6
313.937	8705.91
314.003	8713.42
314.068	8717.17
314.133	8724.87
314.198	8717.56
314.264	8696.28
314.329	8686.75
314.394	8678.95
314.459	8680.3
314.525	8702.68
314.59	8703.25
314.655	8690.31
314.72	8694.69
314.785	8704.02
314.851	8698.78
314.916	8683.33
314.981	8668.65
315.046	8661.53
315.111	8659.99
315.176	8647.81
315.242	8647.23
315.307	8650.31
315.372	8627.12
315.437	8610.32
315.502	8596.17
315.567	8601.95
315.632	8588.18
315.698	8591.6
315.763	8587.56
315.828	8571.68
315.893	8567.63
315.958	8563.88
316.023	8557.96
316.088	8543.14
316.153	8518.12
316.218	8514.36
316.283	8498.63
316.348	8485.49
316.413	8485.11
316.479	8464.81
316.544	8433.15
316.609	8402.3
316.674	8366.31
316.739	8335.53
316.804	8308.01
316.869	8276.69
316.934	8242.29
316.999	8218.28
317.064	8171.71
317.129	8125.38
317.194	8097.58
317.259	8044.62
317.324	7994.31
317.389	7950.06
317.454	7907.35
317.518	7876.52
317.583	7853.19
317.648	7827.94
317.713	7792.83
317.778	7729.93
317.843	7705.17
317.908	7669.11
317.973	7632.85
318.038	7604.53
318.103	7568.86
318.168	7542.61
318.233	7517.37
318.297	7472.85
318.362	7432.52
318.427	7393.39
318.492	7373.01
318.557	7324.23
318.622	7306.25
318.687	7284.58
318.751	7249.31
318.816	7221.48
318.881	7192.65
318.946	7140.55
319.011	7096.97
319.075	7058.48
319.14	7026.1
319.205	6983.68
319.27	6948.18
319.335	6902.93
319.399	6865.17
319.464	6845.86
319.529	6793.07
319.594	6752.29
319.658	6724.86
319.723	6684.91
319.788	6655.9
319.853	6603.5
319.917	6574.03
319.982	6519.43
320.047	6480.53
320.112	6450.87
320.176	6399.45
320.241	6358.54
320.306	6331.56
320.37	6295.52
320.435	6267.91
320.5	6246.7
320.564	6207.73
320.629	6173.62
320.694	6146.7
320.758	6106.91
320.823	6058.07
320.888	6036.57
320.952	5991.14
321.017	5946.76
321.082	5908.39
321.146	5874.62
321.211	5842.72
321.275	5809.73
321.34	5767.68
321.405	5724.95
321.469	5679.6
321.534	5640.19
321.598	5596.66
321.663	5566.73
321.727	5535.71
321.792	5485.33
321.857	5442.37
321.921	5409.58
321.986	5368.42
322.05	5311.79
322.115	5274.98
322.179	5236.75
322.244	5175.82
322.308	5146.69
322.373	5103.34
322.437	5063.58
322.502	5042.74
322.566	4995.75
322.631	4953.52
322.695	4919.62
322.76	4881.99
322.824	4852.3
322.889	4812.43
322.953	4770.51
323.018	4705.59
323.082	4642.52
323.146	4594.67
323.211	4538.97
323.275	4488.34
323.34	4446.54
323.404	4411
323.468	4368.66
323.533	4326.71
323.597	4287.37
323.662	4235.34
323.726	4200.62
323.79	4155.96
323.855	4089.99
323.919	4049.07
323.983	4013.41
324.048	3949.82
324.112	4077.09
324.177	3951.92
324.241	3747.55
324.305	3546.71
324.37	3349.6
324.434	3160.38
324.498	3117.64
324.562	3071.25
324.627	3016.8
324.691	2960.74
324.755	2900.17
324.82	2823.49
324.884	2744.61
324.948	2674.04
325.012	2579.92
325.077	2461.67
