Data from 20250704_urea_0.5M_MAYP1162681_11-05-02-767.txt Node
Date: Fri Jul 04 11:05:02 BST 2025
User: adleo
Spectrometer: MAYP116268
Trigger mode: 0
Integration Time (sec): 1.000000E0
Scans to average: 1
Electric dark correction enabled: true
Nonlinearity correction enabled: true
Boxcar width: 10
XAxis mode: Wavelengths
Number of Pixels in Spectrum: 2068
>>>>>Begin Spectral Data<<<<<
179.565	1247.02
179.642	1305.7
179.718	1353.67
179.795	1394.93
179.871	1429.55
179.948	1447.12
180.024	1468.44
180.101	1494.43
180.177	1509.44
180.254	1531.73
180.33	1555.41
180.407	1610.96
180.483	1708.6
180.56	1801.2
180.636	1889.12
180.712	1875.38
180.789	1885.6
180.865	1895.2
180.942	1905.71
181.018	1914.07
181.095	1925.49
181.171	1934.05
181.248	1935.28
181.324	1949.65
181.4	1955.45
181.477	1963.72
181.553	1979.03
181.63	1998.14
181.706	2012.75
181.782	2019.83
181.859	2018.12
181.935	2021.35
182.011	2020.78
182.088	2037
182.164	2057.27
182.24	2068.96
182.317	2079.09
182.393	2076.67
182.469	2095.26
182.546	2107.01
182.622	2117.76
182.698	2112
182.775	2119.66
182.851	2136.12
182.927	2126.8
183.003	2123.66
183.08	2117.86
183.156	2123.85
183.232	2121.09
183.308	2108.54
183.385	2116.57
183.461	2138.07
183.537	2140.74
183.613	2148.3
183.69	2140.55
183.766	2128.7
183.842	2138.93
183.918	2144.3
183.995	2159.43
184.071	2162.14
184.147	2154.67
184.223	2138.12
184.299	2152.63
184.375	2141.17
184.452	2145.79
184.528	2198.27
184.604	2208.69
184.68	2221.06
184.756	2230.91
184.832	2236.24
184.908	2239.52
184.985	2240.18
185.061	2222.96
185.137	2231.76
185.213	2223.77
185.289	2226.1
185.365	2221.92
185.441	2216.97
185.517	2230.15
185.593	2226.3
185.669	2224.16
185.745	2238.53
185.822	2257.36
185.898	2249.75
185.974	2260.69
186.05	2250.26
186.126	2214.67
186.202	2207.91
186.278	2205.49
186.354	2193.02
186.43	2197.68
186.506	2199.16
186.582	2197.78
186.658	2201.44
186.734	2178.23
186.81	2180.89
186.886	2183.37
186.962	2193.31
187.038	2191.79
187.114	2183.12
187.19	2188.31
187.266	2177.46
187.341	2177.42
187.417	2166.19
187.493	2168.76
187.569	2172.38
187.645	2169.47
187.721	2157.62
187.797	2164.52
187.873	2168.61
187.949	2165.24
188.025	2159.76
188.101	2163.81
188.176	2170.33
188.252	2168.52
188.328	2180.07
188.404	2178.65
188.48	2173.03
188.556	2168.08
188.632	2169.51
188.707	2171.8
188.783	2172.22
188.859	2168.13
188.935	2155.95
189.011	2169.89
189.086	2161.85
189.162	2151.81
189.238	2148.48
189.314	2146.34
189.39	2140.97
189.465	2134.12
189.541	2152.53
189.617	2140.83
189.693	2133.98
189.768	2135.17
189.844	2159.54
189.92	2149.88
189.996	2161.78
190.071	2173.62
190.147	2172.72
190.223	2180.24
190.298	2170.77
190.374	2154.69
190.45	2165.2
190.526	2173.86
190.601	2163.25
190.677	2164.39
190.753	2194.91
190.828	2194.62
190.904	2210.85
190.98	2225.79
191.055	2234.12
191.131	2223.03
191.207	2239.39
191.282	2247.38
191.358	2239.06
191.433	2220.69
191.509	2234.24
191.585	2230.58
191.66	2230.19
191.736	2236.05
191.811	2227.24
191.887	2245
191.963	2269.31
192.038	2277.3
192.114	2277.73
192.189	2283.87
192.265	2281.25
192.34	2256.07
192.416	2258.3
192.491	2250.54
192.567	2252.31
192.642	2257.73
192.718	2257.26
192.793	2246.41
192.869	2241.84
192.944	2244.98
193.02	2256.4
193.095	2259.83
193.171	2264.49
193.246	2267.92
193.322	2265.78
193.397	2264.92
193.473	2250.45
193.548	2233.6
193.624	2236.79
193.699	2233.51
193.775	2250.79
193.85	2252.36
193.925	2262.26
194.001	2259.07
194.076	2254.6
194.152	2246.74
194.227	2239.37
194.302	2230.76
194.378	2237.09
194.453	2237.75
194.529	2250.12
194.604	2235.61
194.679	2229.33
194.755	2209.83
194.83	2217.64
194.905	2215.49
194.981	2224.06
195.056	2217.07
195.131	2223.2
195.207	2222.49
195.282	2214.55
195.357	2189.99
195.433	2204.97
195.508	2193.7
195.583	2204.59
195.659	2217.01
195.734	2223.39
195.809	2223.58
195.884	2234.19
195.96	2234.33
196.035	2248.75
196.11	2243.46
196.185	2256.03
196.261	2259.31
196.336	2291
196.411	2278.05
196.486	2283.67
196.561	2279.91
196.637	2286.85
196.712	2303.33
196.787	2305.94
196.862	2321.46
196.937	2335.49
197.013	2341.35
197.088	2349.82
197.163	2372.63
197.238	2389.82
197.313	2389.02
197.388	2401.06
197.464	2428.92
197.539	2438.58
197.614	2431.15
197.689	2441.58
197.764	2457.06
197.839	2481.62
197.914	2477.38
197.989	2501.91
198.065	2517.43
198.14	2568.18
198.215	2599.04
198.29	2609.18
198.365	2622.42
198.44	2632.85
198.515	2661.01
198.59	2675.06
198.665	2706.64
198.74	2713.22
198.815	2713.6
198.89	2736.13
198.965	2767.87
199.04	2766.78
199.115	2781.97
199.19	2825.18
199.265	2831.23
199.34	2842.29
199.415	2873.81
199.49	2892.34
199.565	2902.35
199.64	2925.89
199.715	2923.27
199.79	2932.71
199.865	2938
199.94	2938
200.015	2971.8
200.09	2977.05
200.165	2984.53
200.24	2987.92
200.315	3032.35
200.39	3050.56
200.464	3056.95
200.539	3058.71
200.614	3073.2
200.689	3100.48
200.764	3107.11
200.839	3127.99
200.914	3132.71
200.989	3123.74
201.063	3139.62
201.138	3120.94
201.213	3121.8
201.288	3105.01
201.363	3106.82
201.438	3110.68
201.512	3124.03
201.587	3107.76
201.662	3111.39
201.737	3122.21
201.812	3131.66
201.886	3093.09
201.961	3102.64
202.036	3091.53
202.111	3088.57
202.186	3062.41
202.26	3043.04
202.335	3020.73
202.41	3008.9
202.485	2990.84
202.559	2969.82
202.634	2941.79
202.709	2952.55
202.784	2934.1
202.858	2927.67
202.933	2906.27
203.008	2898.12
203.082	2879.82
203.157	2874.91
203.232	2835.55
203.306	2816.1
203.381	2781.54
203.456	2758.67
203.53	2733.49
203.605	2712.2
203.68	2688.98
203.754	2680.41
203.829	2665.45
203.904	2648.35
203.978	2639.11
204.053	2644.59
204.127	2632.96
204.202	2632.06
204.277	2615.96
204.351	2607.86
204.426	2602.1
204.5	2597.09
204.575	2562.76
204.65	2572.77
204.724	2566.62
204.799	2571.33
204.873	2565.52
204.948	2566.28
205.022	2554.91
205.097	2549.04
205.171	2564.85
205.246	2573.67
205.32	2569.72
205.395	2572.39
205.469	2561.63
205.544	2569.16
205.618	2552.15
205.693	2562.82
205.767	2551.16
205.842	2570.97
205.916	2567.35
205.991	2560.69
206.065	2564.78
206.14	2584.44
206.214	2581.68
206.289	2573.72
206.363	2587.24
206.438	2592.1
206.512	2598.15
206.586	2617.15
206.661	2626.83
206.735	2604.83
206.81	2608.17
206.884	2626.07
206.958	2613.93
207.033	2635.4
207.107	2644.65
207.181	2680.34
207.256	2680.2
207.33	2703.92
207.405	2721.42
207.479	2746.1
207.553	2757.39
207.628	2750.82
207.702	2768.78
207.776	2772.88
207.851	2789.51
207.925	2818.26
207.999	2828.84
208.073	2845
208.148	2863.92
208.222	2871.74
208.296	2925.49
208.371	2957.55
208.445	2996.27
208.519	3049.96
208.593	3088.44
208.668	3117.02
208.742	3146.04
208.816	3178.47
208.89	3230.25
208.965	3266.31
209.039	3313.09
209.113	3375.28
209.187	3442.1
209.261	3487.78
209.336	3556.81
209.41	3630.65
209.484	3691.15
209.558	3773.99
209.632	3850.76
209.707	3932
209.781	4025.35
209.855	4116.5
209.929	4216.8
210.003	4303.33
210.077	4384.07
210.151	4523.84
210.226	4647.56
210.3	4775.92
210.374	4901.7
210.448	5010.52
210.522	5126.99
210.596	5249.89
210.67	5376.21
210.744	5542.27
210.818	5698.72
210.892	5851.23
210.966	5980.96
211.041	6131.82
211.115	6267.9
211.189	6436.71
211.263	6596.95
211.337	6752.15
211.411	6913.44
211.485	7059.24
211.559	7229.4
211.633	7396.04
211.707	7526.31
211.781	7701.56
211.855	7835.44
211.929	8002.96
212.003	8161.75
212.077	8348.37
212.151	8535.59
212.225	8724.8
212.299	8900.04
212.373	9071.15
212.447	9247.32
212.52	9457.86
212.594	9637.14
212.668	9838.28
212.742	10010.38
212.816	10203.05
212.89	10385.09
212.964	10575.87
213.038	10774.28
213.112	10983.59
213.186	11188.85
213.26	11359.23
213.333	11502.8
213.407	11702.5
213.481	11894.25
213.555	12090.11
213.629	12272.02
213.703	12452.62
213.777	12647.12
213.85	12820.22
213.924	13044.5
213.998	13240.79
214.072	13425.99
214.146	13608.83
214.219	13789.59
214.293	13964.72
214.367	14153.05
214.441	14348.62
214.515	14524.22
214.588	14680.93
214.662	14808.92
214.736	14970.54
214.81	15159.45
214.883	15349.42
214.957	15514.99
215.031	15685
215.105	15837.55
215.178	15993.19
215.252	16148.54
215.326	16281.85
215.4	16420.37
215.473	16527.8
215.547	16665.26
215.621	16804.98
215.694	16964.84
215.768	17093.66
215.842	17227.02
215.915	17351.02
215.989	17463.36
216.063	17590.44
216.136	17722.01
216.21	17873.38
216.284	18018.1
216.357	18149.62
216.431	18267.93
216.504	18403
216.578	18549.79
216.652	18681.55
216.725	18800.58
216.799	18937.49
216.873	19061.29
216.946	19187.74
217.02	19293.86
217.093	19395.97
217.167	19472.74
217.24	19559
217.314	19660.54
217.387	19761.3
217.461	19846.6
217.535	19965.88
217.608	20053.82
217.682	20142.26
217.755	20232.66
217.829	20309.63
217.902	20387.36
217.976	20477.24
218.049	20547.7
218.123	20603.56
218.196	20691.99
218.27	20770.55
218.343	20817.93
218.417	20896.68
218.49	20963.14
218.563	21054.43
218.637	21115.83
218.71	21216.95
218.784	21289.87
218.857	21367.61
218.931	21439.23
219.004	21519.68
219.077	21575.54
219.151	21632.85
219.224	21695.8
219.298	21755.19
219.371	21826.86
219.444	21872.13
219.518	21925.92
219.591	21981.06
219.665	22062.34
219.738	22106.79
219.811	22139.81
219.885	22205.99
219.958	22255.02
220.031	22305.68
220.105	22362.04
220.178	22425.87
220.251	22471
220.325	22522.15
220.398	22569.15
220.471	22618.71
220.544	22657.43
220.618	22690.64
220.691	22737.7
220.764	22778.58
220.838	22816.43
220.911	22837.64
220.984	22898.34
221.057	22933.1
221.131	22962.51
221.204	22960.49
221.277	23015.21
221.35	23074.66
221.424	23101.04
221.497	23132.14
221.57	23157.45
221.643	23175.73
221.716	23205.19
221.79	23201.57
221.863	23209.48
221.936	23222.36
222.009	23232.19
222.082	23253.36
222.155	23267.59
222.229	23293.38
222.302	23310.79
222.375	23331.62
222.448	23352.07
222.521	23351.25
222.594	23356.99
222.667	23361.23
222.74	23382.54
222.814	23380.33
222.887	23381.29
222.96	23397.06
223.033	23405.26
223.106	23416.49
223.179	23428.02
223.252	23421.61
223.325	23439.35
223.398	23449.14
223.471	23454.78
223.544	23460.86
223.617	23452.37
223.69	23451.45
223.763	23444.7
223.837	23451.6
223.91	23454.25
223.983	23429.22
224.056	23425.95
224.129	23427.2
224.202	23436.17
224.275	23410.42
224.348	23390.6
224.42	23374.93
224.493	23330.56
224.566	23308.96
224.639	23297.34
224.712	23280.99
224.785	23268.07
224.858	23252.44
224.931	23237.06
225.004	23212.95
225.077	23198
225.15	23160.11
225.223	23142.85
225.296	23147.23
225.369	23104.08
225.442	23070.52
225.514	23062.8
225.587	23044.19
225.66	23029
225.733	23016.03
225.806	23013.09
225.879	22992.84
225.952	22959.04
226.025	22971.19
226.097	22968.15
226.17	22933.05
226.243	22891.11
226.316	22872.16
226.389	22851.91
226.461	22845.11
226.534	22822.55
226.607	22798.68
226.68	22808.13
226.753	22796.51
226.825	22750.8
226.898	22747.91
226.971	22728.38
227.044	22711.51
227.117	22697.67
227.189	22680.85
227.262	22662.77
227.335	22645.22
227.407	22620.1
227.48	22612.05
227.553	22586.01
227.626	22554.87
227.698	22532.88
227.771	22522.37
227.844	22488.77
227.916	22466.45
227.989	22404.99
228.062	22374.52
228.134	22380.35
228.207	22350.56
228.28	22318.84
228.352	22294.83
228.425	22267.59
228.498	22252.17
228.57	22228.84
228.643	22214.08
228.716	22184.34
228.788	22146.93
228.861	22110.73
228.934	22099.5
229.006	22072.98
229.079	22041.84
229.151	22008
229.224	21978.45
229.296	21963.56
229.369	21964.57
229.442	21955.07
229.514	21928.23
229.587	21923.02
229.659	21867.78
229.732	21842.52
229.804	21820.01
229.877	21817.6
229.949	21809.5
230.022	21798.99
230.094	21764.96
230.167	21734.26
230.239	21700.76
230.312	21669.57
230.384	21674.2
230.457	21659.84
230.529	21627.88
230.602	21604.65
230.674	21585.71
230.747	21569.03
230.819	21544.88
230.892	21491.43
230.964	21460
231.037	21444.19
231.109	21410.5
231.181	21390.35
231.254	21353.29
231.326	21330.49
231.399	21283.5
231.471	21247.59
231.544	21200.69
231.616	21188.64
231.688	21167
231.761	21130.61
231.833	21103.86
231.905	21045.88
231.978	21002.5
232.05	20971.85
232.122	20941.78
232.195	20902.5
232.267	20884.47
232.339	20838.4
232.412	20826.25
232.484	20785.48
232.556	20754.01
232.629	20753.62
232.701	20736.32
232.773	20715.45
232.846	20673.86
232.918	20648.9
232.99	20609.72
233.062	20581.33
233.135	20546.58
233.207	20497.52
233.279	20484.37
233.351	20461.67
233.424	20430.73
233.496	20393.86
233.568	20388.32
233.64	20345.81
233.713	20316.03
233.785	20281.86
233.857	20257.86
233.929	20208.99
234.001	20195.26
234.074	20189.24
234.146	20132.42
234.218	20094.92
234.29	20063.94
234.362	20029.62
234.434	19984.57
234.507	19956.23
234.579	19909.82
234.651	19872.47
234.723	19846.64
234.795	19811.22
234.867	19773.1
234.939	19759.03
235.012	19726.89
235.084	19687.66
235.156	19660.1
235.228	19624.53
235.3	19584.05
235.372	19553.26
235.444	19532.2
235.516	19476.54
235.588	19433.17
235.66	19403.05
235.732	19366.19
235.804	19384.84
235.876	19361.9
235.948	19346.33
236.02	19307.59
236.092	19273.47
236.164	19235.59
236.236	19196.9
236.308	19166.73
236.38	19139.12
236.452	19085
236.524	19059.07
236.596	19045
236.668	19012.09
236.74	18981.54
236.812	18959.51
236.884	18928.77
236.956	18891.28
237.028	18844.39
237.1	18800.53
237.172	18788.78
237.244	18766.27
237.316	18683.53
237.388	18634.57
237.46	18588.11
237.532	18563.63
237.604	18523.59
237.675	18507.92
237.747	18482.67
237.819	18437.33
237.891	18402.19
237.963	18361.28
238.035	18314.39
238.107	18237.24
238.178	18226.73
238.25	18187.46
238.322	18167.27
238.394	18119.03
238.466	18078.6
238.538	18065.78
238.609	18040.52
238.681	17971.23
238.753	17923.13
238.825	17899.47
238.897	17878.27
238.968	17869.83
239.04	17828.63
239.112	17819.42
239.184	17770.08
239.255	17732.97
239.327	17704.53
239.399	17663.86
239.471	17643.14
239.542	17618.7
239.614	17598.66
239.686	17532.97
239.758	17512.01
239.829	17464.59
239.901	17448.49
239.973	17412.78
240.044	17374.56
240.116	17336.1
240.188	17308.49
240.259	17276.44
240.331	17245.45
240.403	17219.43
240.474	17163.57
240.546	17124.68
240.618	17071.67
240.689	17038.07
240.761	17000.82
240.833	16982.17
240.904	16952.24
240.976	16910.98
241.048	16875.85
241.119	16856.62
241.191	16837.92
241.262	16822.98
241.334	16793.92
241.405	16751.03
241.477	16716.08
241.549	16683.65
241.62	16652.32
241.692	16622.87
241.763	16603.02
241.835	16554.68
241.906	16516.5
241.978	16467.15
242.049	16443.53
242.121	16427.68
242.192	16404.78
242.264	16356.58
242.335	16302.46
242.407	16277.93
242.478	16246.4
242.55	16217.1
242.621	16169
242.693	16129.81
242.764	16089.91
242.836	16042.14
242.907	16015.73
242.979	15988.06
243.05	15960.73
243.122	15940.73
243.193	15903.62
243.264	15843.76
243.336	15814.06
243.407	15791.07
243.479	15775.46
243.55	15749.91
243.622	15719.21
243.693	15686.05
243.764	15675.63
243.836	15644.21
243.907	15606.23
243.978	15573.06
244.05	15547.66
244.121	15506.59
244.192	15482.73
244.264	15428.46
244.335	15403.35
244.407	15357.27
244.478	15334.37
244.549	15301.98
244.62	15247.56
244.692	15226.3
244.763	15215.02
244.834	15178.34
244.906	15136.4
244.977	15114.08
245.048	15100.93
245.119	15062.65
245.191	15024.04
245.262	14973.52
245.333	14958.58
245.405	14929.47
245.476	14905.85
245.547	14879.87
245.618	14864.25
245.689	14845.64
245.761	14823.18
245.832	14799.27
245.903	14787.17
245.974	14765.86
246.045	14731.45
246.117	14725.9
246.188	14682.32
246.259	14640.05
246.33	14611.08
246.401	14579.31
246.473	14539.78
246.544	14492.93
246.615	14480.73
246.686	14451.23
246.757	14439.85
246.828	14392.76
246.899	14379.5
246.97	14338.09
247.042	14295.38
247.113	14268.39
247.184	14254.31
247.255	14223.75
247.326	14185.38
247.397	14143.1
247.468	14110.13
247.539	14094.08
247.61	14051.32
247.681	14030.88
247.752	14017.43
247.823	13975.49
247.894	13957.36
247.965	13917.45
248.037	13888.33
248.108	13844.13
248.179	13813.9
248.25	13786.18
248.321	13777.12
248.392	13733.4
248.463	13731.76
248.534	13710.35
248.605	13701.29
248.675	13661.91
248.746	13634.77
248.817	13627.49
248.888	13619.87
248.959	13582.32
249.03	13555.76
249.101	13538.35
249.172	13508.27
249.243	13461.85
249.314	13460.4
249.385	13437.31
249.456	13422.66
249.527	13397.73
249.598	13377.29
249.669	13359.94
249.739	13339.69
249.81	13322.77
249.881	13286.18
249.952	13254.85
250.023	13226.65
250.094	13176.95
250.165	13141.03
250.235	13120.84
250.306	13093.99
250.377	13051.37
250.448	13030.79
250.519	12984.41
250.59	12972.17
250.66	12945.8
250.731	12945.46
250.802	12922.95
250.873	12896
250.944	12878.65
251.014	12842.21
251.085	12849.97
251.156	12833.43
251.227	12821.33
251.297	12802.15
251.368	12799.11
251.439	12787.78
251.51	12779.01
251.58	12751.43
251.651	12725.69
251.722	12716.1
251.792	12674.93
251.863	12654.74
251.934	12651.75
252.005	12664.67
252.075	12644.66
252.146	12632.46
252.217	12613.13
252.287	12600.17
252.358	12586.72
252.429	12582.28
252.499	12565.85
252.57	12537.55
252.641	12514.8
252.711	12491.18
252.782	12453.24
252.852	12451.07
252.923	12429.43
252.994	12406.14
253.064	12404.94
253.135	12376.11
253.205	12348.2
253.276	12351.58
253.347	12348.64
253.417	12314.51
253.488	12284.48
253.558	12258.5
253.629	12238.69
253.699	12223.21
253.77	12212.7
253.841	12184.79
253.911	12161.22
253.982	12148.84
254.052	12140.88
254.123	12129.31
254.193	12112.83
254.264	12135.15
254.334	12109.16
254.405	12079.13
254.475	12050.46
254.546	12023.51
254.616	12023.8
254.687	12011.17
254.757	11989.82
254.827	11965.62
254.898	11950.73
254.968	11932.65
255.039	11900.94
255.109	11894.09
255.18	11863.39
255.25	11815.43
255.321	11805.79
255.391	11777.35
255.461	11772.29
255.532	11717.83
255.602	11692.14
255.673	11650.25
255.743	11618.68
255.813	11570.87
255.884	11561.23
255.954	11552.7
256.024	11552.65
256.095	11532.07
256.165	11503.59
256.235	11493.46
256.306	11472.26
256.376	11469.22
256.446	11457.99
256.517	11448.79
256.587	11436.54
256.657	11423.43
256.728	11414.42
256.798	11399.53
256.868	11375.82
256.938	11354.76
257.009	11348.06
257.079	11343.14
257.149	11356.64
257.219	11313.74
257.29	11303.91
257.36	11268.73
257.43	11263.24
257.5	11225.6
257.571	11206.32
257.641	11190.51
257.711	11158.85
257.781	11147.57
257.852	11137.07
257.922	11097.55
257.992	11084.25
258.062	11064.83
258.132	11053.79
258.202	11033.6
258.273	11016.4
258.343	11021.89
258.413	10993.6
258.483	10979.72
258.553	10944.3
258.623	10919.82
258.693	10909.9
258.764	10915.78
258.834	10918.57
258.904	10898.86
258.974	10878.86
259.044	10856.31
259.114	10847.3
259.184	10836.94
259.254	10821.18
259.324	10776.75
259.394	10773.04
259.464	10773.57
259.535	10759.12
259.605	10743.22
259.675	10715.22
259.745	10705.97
259.815	10680.24
259.885	10657.06
259.955	10667.14
260.025	10646.52
260.095	10623.19
260.165	10616.79
260.235	10613.61
260.305	10587.49
260.375	10559.88
260.445	10565.95
260.515	10569.47
260.585	10564.22
260.655	10550.24
260.725	10536.61
260.795	10530.59
260.865	10535.98
260.934	10503.89
261.004	10497.34
261.074	10479.66
261.144	10481.39
261.214	10470.12
261.284	10450.22
261.354	10454.84
261.424	10429.3
261.494	10435.86
261.564	10424.29
261.634	10415.57
261.703	10380.93
261.773	10382.23
261.843	10379.63
261.913	10363.06
261.983	10333.72
262.053	10320.95
262.123	10302.3
262.192	10276.77
262.262	10276.68
262.332	10251.14
262.402	10245.7
262.472	10225.65
262.541	10194.97
262.611	10199.93
262.681	10179.36
262.751	10176.18
262.821	10155.08
262.89	10125.21
262.96	10120.88
263.03	10125.07
263.1	10112.2
263.169	10098.38
263.239	10080.36
263.309	10082.92
263.379	10070.29
263.448	10053.15
263.518	10044.43
263.588	10033.69
263.657	10040.53
263.727	10041.73
263.797	10019.38
263.867	10000.93
263.936	9976.89
264.006	9979.16
264.076	9950.45
264.145	9929.54
264.215	9903.73
264.285	9902.57
264.354	9868.96
264.424	9845.55
264.494	9814.62
264.563	9796.7
264.633	9801.9
264.702	9791.74
264.772	9762.6
264.842	9742.42
264.911	9741.21
264.981	9716.45
265.05	9702.1
265.12	9688.04
265.19	9666.84
265.259	9667.03
265.329	9666.17
265.398	9651.67
265.468	9659.14
265.537	9648.64
265.607	9650.13
265.676	9650.47
265.746	9638.86
265.815	9643.97
265.885	9627.45
265.955	9604.38
266.024	9584.06
266.094	9552.9
266.163	9557.23
266.232	9554.01
266.302	9543.22
266.371	9536.33
266.441	9524.68
266.51	9522.51
266.58	9507.82
266.649	9485.28
266.719	9484.85
266.788	9472.81
266.858	9481.82
266.927	9447.43
266.996	9437.85
267.066	9424.46
267.135	9404.82
267.205	9402.17
267.274	9393.79
267.343	9403.18
267.413	9402.75
267.482	9412.38
267.552	9410.69
267.621	9382.52
267.69	9355.75
267.76	9352.28
267.829	9344.05
267.898	9333.31
267.968	9308.61
268.037	9306.97
268.106	9309.04
268.176	9282.08
268.245	9271.15
268.314	9253.43
268.384	9254.34
268.453	9245.43
268.522	9236.62
268.592	9235.85
268.661	9213.99
268.73	9205.85
268.799	9177.16
268.869	9179.13
268.938	9150.24
269.007	9137.19
269.076	9129.68
269.146	9132.77
269.215	9125.35
269.284	9128.67
269.353	9108.74
269.422	9102.24
269.492	9080.44
269.561	9043.94
269.63	9043.51
269.699	9030.7
269.768	9025.94
269.838	9024.25
269.907	9022.95
269.976	8999.27
270.045	8969.86
270.114	8965.67
270.183	8957.53
270.253	8954.74
270.322	8929.71
270.391	8920.76
270.46	8922.83
270.529	8922.06
270.598	8919.31
270.667	8903.28
270.736	8883.83
270.806	8884.07
270.875	8886.09
270.944	8871.22
271.013	8890.76
271.082	8876.8
271.151	8867.46
271.22	8835.94
271.289	8826.65
271.358	8815.33
271.427	8814.32
271.496	8806.67
271.565	8790.84
271.634	8784.82
271.703	8811.88
271.772	8808.22
271.841	8792.1
271.91	8767.31
271.979	8759.08
272.048	8739.15
272.117	8741.32
272.186	8725.72
272.255	8727.21
272.324	8723.94
272.393	8727.02
272.462	8713.3
272.531	8704.68
272.6	8700.26
272.669	8708.24
272.738	8696.45
272.807	8695.83
272.876	8676.67
272.945	8704.88
273.013	8705.99
273.082	8713.93
273.151	8668.87
273.22	8668.77
273.289	8669.4
273.358	8680.71
273.427	8668.24
273.496	8660.88
273.564	8656.02
273.633	8662.23
273.702	8644.23
273.771	8632.97
273.84	8625.27
273.909	8618.24
273.977	8625.03
274.046	8617.08
274.115	8622.43
274.184	8602.41
274.253	8592.4
274.322	8601.06
274.39	8569.63
274.459	8557.99
274.528	8526.13
274.597	8520.45
274.665	8516.41
274.734	8518.24
274.803	8505.34
274.872	8498.07
274.94	8484.36
275.009	8542.09
275.078	8519.91
275.147	8520.05
275.215	8517.74
275.284	8528.38
275.353	8523.27
275.421	8494.98
275.49	8505.23
275.559	8491.08
275.627	8487.23
275.696	8479.39
275.765	8482.04
275.833	8476.12
275.902	8477.23
275.971	8483.48
276.039	8502.68
276.108	8507.74
276.177	8508.07
276.245	8497.49
276.314	8495.32
276.383	8510.62
276.451	8444.42
276.52	8448.7
276.588	8461.36
276.657	8467.9
276.725	8454.96
276.794	8453.66
276.863	8464.53
276.931	8443.12
277	8452.69
277.068	8461.21
277.137	8476.51
277.205	8475.94
277.274	8493.84
277.342	8504.66
277.411	8495.52
277.48	8474.25
277.548	8466.74
277.617	8468.77
277.685	8468.19
277.754	8471.85
277.822	8458.47
277.89	8473.34
277.959	8466.8
278.027	8448.65
278.096	8438.6
278.164	8461.12
278.233	8453.09
278.301	8445.48
278.37	8453.09
278.438	8438.7
278.507	8442.16
278.575	8417.33
278.643	8408.82
278.712	8383.8
278.78	8366.91
278.849	8374.51
278.917	8382.11
278.985	8379.85
279.054	8383.17
279.122	8396.11
279.191	8396.74
279.259	8394.72
279.327	8374.36
279.396	8391.25
279.464	8389.76
279.532	8393.08
279.601	8385.62
279.669	8380.42
279.737	8393.17
279.806	8399.72
279.874	8407.27
279.942	8408.14
280.011	8402.51
280.079	8412.66
280.147	8438.6
280.215	8445
280.284	8440.09
280.352	8436
280.42	8441.34
280.488	8430.46
280.557	8423.1
280.625	8426.37
280.693	8422
280.761	8424.26
280.83	8406.02
280.898	8416.27
280.966	8396.16
281.034	8366.33
281.102	8353.1
281.171	8348.86
281.239	8348.96
281.307	8341.79
281.375	8327.36
281.443	8356.18
281.512	8349.39
281.58	8352.38
281.648	8333.42
281.716	8335.44
281.784	8330.68
281.852	8322.59
281.92	8324.81
281.989	8337.61
282.057	8314.03
282.125	8363.02
282.193	8359.42
282.261	8370.1
282.329	8369.04
282.397	8374.38
282.465	8379.53
282.533	8397.61
282.601	8379.76
282.67	8363.74
282.738	8358.16
282.806	8367.54
282.874	8352.86
282.942	8358.06
283.01	8351.52
283.078	8361.67
283.146	8354.69
283.214	8363.21
283.282	8365.95
283.35	8378.22
283.418	8367.87
283.486	8380.62
283.554	8338.94
283.622	8345.15
283.69	8339.09
283.758	8329.8
283.826	8338.46
283.894	8346.69
283.962	8368.3
284.03	8386.82
284.098	8384.08
284.165	8377.87
284.233	8376.28
284.301	8368.63
284.369	8360.74
284.437	8353.57
284.505	8350.73
284.573	8370.61
284.641	8359.68
284.709	8367.19
284.777	8350.06
284.845	8355.79
284.912	8353.38
284.98	8362.43
285.048	8353.04
285.116	8355.59
285.184	8370.03
285.252	8365.7
285.319	8354.78
285.387	8341.35
285.455	8324.65
285.523	8335.82
285.591	8335.09
285.659	8346.5
285.726	8363.87
285.794	8350.4
285.862	8345.39
285.93	8343.47
285.997	8338.13
286.065	8329.08
286.133	8319.08
286.201	8313.69
286.269	8296.32
286.336	8291.7
286.404	8278.8
286.472	8291.51
286.539	8273.47
286.607	8258.21
286.675	8259.99
286.743	8265.14
286.81	8259.56
286.878	8277.41
286.946	8271.01
287.013	8278.18
287.081	8272.07
287.149	8251.23
287.216	8270.28
287.284	8264.75
287.352	8260.33
287.419	8252.44
287.487	8271.1
287.555	8275.34
287.622	8266.77
287.69	8280.87
287.758	8299.4
287.825	8298.87
287.893	8277.6
287.96	8283.37
288.028	8293.43
288.096	8300.26
288.163	8305.75
288.231	8297.28
288.298	8289.63
288.366	8300.7
288.433	8293
288.501	8285.11
288.569	8289.25
288.636	8281.35
288.704	8297.23
288.771	8314.17
288.839	8306.13
288.906	8301.71
288.974	8311.28
289.041	8315.28
289.109	8298.97
289.176	8300.89
289.244	8297.86
289.311	8315.9
289.379	8326.34
289.446	8327.45
289.514	8324.8
289.581	8325.86
289.649	8328.31
289.716	8340.25
289.783	8332.74
289.851	8352.71
289.918	8351.46
289.986	8361.7
290.053	8367.62
290.121	8364.01
290.188	8358.96
290.255	8393.56
290.323	8386.73
290.39	8378.21
290.458	8388.5
290.525	8407.12
290.592	8398.66
290.66	8409.05
290.727	8401.3
290.794	8411.93
290.862	8406.83
290.929	8412.75
290.996	8406.74
291.064	8415.98
291.131	8425.79
291.198	8437.34
291.266	8441.05
291.333	8445.38
291.4	8453.18
291.468	8467.76
291.535	8468.19
291.602	8480.27
291.669	8466.21
291.737	8473.91
291.804	8477.33
291.871	8491.33
291.938	8494.94
292.006	8523.19
292.073	8536.19
292.14	8553.08
292.207	8548.22
292.275	8555.87
292.342	8563.57
292.409	8596.39
292.476	8619.35
292.543	8607.17
292.611	8607.17
292.678	8620.07
292.745	8641.39
292.812	8654.67
292.879	8655.06
292.946	8661.12
293.014	8667.33
293.081	8683.07
293.148	8696.83
293.215	8711.51
293.282	8707.08
293.349	8719.93
293.416	8699.96
293.484	8712.18
293.551	8717.91
293.618	8738.94
293.685	8766.19
293.752	8759.26
293.819	8752.71
293.886	8736.06
293.953	8745.06
294.02	8757.96
294.087	8761.33
294.154	8757.38
294.221	8770.43
294.288	8768.98
294.356	8788.91
294.423	8797.96
294.49	8783.42
294.557	8797.29
294.624	8788.67
294.691	8809.03
294.758	8813.94
294.825	8827.8
294.892	8817.26
294.959	8820.73
295.026	8825.35
295.093	8815.04
295.16	8816.25
295.226	8819.23
295.293	8849.13
295.36	8857.93
295.427	8868.04
295.494	8878.59
295.561	8883.64
295.628	8903.86
295.695	8920.09
295.762	8918.93
295.829	8924.9
295.896	8949.3
295.963	8955.08
296.03	8964.08
296.096	8971.59
296.163	8981.99
296.23	8990.08
296.297	9006.78
296.364	9003.75
296.431	9007.02
296.498	9007.36
296.564	9031.81
296.631	9036.58
296.698	9023.63
296.765	9037.54
296.832	9021.85
296.899	9011.88
296.965	9030.94
297.032	9007.45
297.099	9025.65
297.166	9031.38
297.233	9031.47
297.299	9020.54
297.366	9026.71
297.433	9035.47
297.5	9042.26
297.566	9036.43
297.633	9035.32
297.7	9035.23
297.767	9036
297.833	9039.85
297.9	9040.23
297.967	9026.9
298.033	9041.87
298.1	9073.03
298.167	9062.39
298.234	9073.41
298.3	9079.67
298.367	9080.54
298.434	9092.67
298.5	9080.82
298.567	9078.03
298.634	9077.79
298.7	9099.6
298.767	9094.93
298.834	9105.71
298.9	9101.43
298.967	9097.38
299.033	9114.19
299.1	9133.45
299.167	9149.48
299.233	9145.43
299.3	9164.74
299.366	9178.7
299.433	9189.29
299.5	9159.1
299.566	9166.23
299.633	9183.61
299.699	9199.79
299.766	9197.52
299.832	9199.69
299.899	9210.24
299.965	9225.79
300.032	9221.6
300.099	9220.59
300.165	9231.37
300.232	9224.1
300.298	9224.97
300.365	9238.45
300.431	9236.33
300.498	9225.26
300.564	9229.74
300.631	9248.47
300.697	9259.2
300.763	9262.48
300.83	9257.13
300.896	9275.62
300.963	9286.26
301.029	9289.44
301.096	9297.14
301.162	9303.79
301.229	9296.42
301.295	9284.14
301.361	9282.84
301.428	9290.06
301.494	9278.75
301.561	9283.9
301.627	9287.66
301.693	9293.77
301.76	9301.81
301.826	9300.9
301.892	9316.93
301.959	9333.45
302.025	9327.14
302.092	9315.3
302.158	9321.08
302.224	9329.55
302.291	9320.74
302.357	9318.33
302.423	9311.45
302.49	9301.09
302.556	9315.54
302.622	9320.5
302.688	9331.53
302.755	9350.4
302.821	9357.96
302.887	9370.77
302.954	9369.37
303.02	9382.57
303.086	9385.21
303.152	9382.9
303.219	9373.03
303.285	9379.68
303.351	9378.09
303.417	9378.38
303.483	9373.71
303.55	9367.06
303.616	9361.86
303.682	9359.84
303.748	9349.3
303.815	9365.57
303.881	9373.08
303.947	9356.28
304.013	9353.49
304.079	9346.5
304.145	9324.54
304.212	9323.82
304.278	9316.41
304.344	9306.49
304.41	9296.42
304.476	9287.76
304.542	9281.11
304.608	9289.54
304.674	9264.16
304.741	9255.49
304.807	9255.98
304.873	9259.44
304.939	9275.77
305.005	9257.32
305.071	9254.44
305.137	9257.13
305.203	9229.49
305.269	9225.21
305.335	9237.73
305.401	9240.18
305.467	9233.1
305.533	9236.71
305.599	9242.3
305.666	9250.39
305.732	9248.51
305.798	9258.05
305.864	9280.29
305.93	9283.52
305.996	9283.28
306.062	9285.2
306.128	9280.73
306.194	9271.58
306.259	9274.23
306.325	9265.03
306.391	9278.27
306.457	9289.78
306.523	9295.27
306.589	9319.63
306.655	9314
306.721	9298.35
306.787	9281.78
306.853	9300.03
306.919	9285.93
306.985	9281.64
307.051	9276.06
307.117	9278.03
307.183	9267.58
307.248	9242.35
307.314	9242.2
307.38	9246.68
307.446	9257.71
307.512	9253.52
307.578	9261.27
307.644	9253.66
307.709	9255.16
307.775	9251.26
307.841	9244.66
307.907	9245.38
307.973	9226.02
308.039	9224.97
308.104	9232.77
308.17	9233.01
308.236	9223.14
308.302	9229.2
308.368	9215.77
308.433	9212.3
308.499	9202.14
308.565	9192.18
308.631	9195.5
308.696	9180.96
308.762	9166.66
308.828	9159.15
308.894	9136.09
308.959	9115.58
309.025	9110.24
309.091	9103.35
309.156	9088.86
309.222	9092.18
309.288	9079.9
309.354	9060.26
309.419	9046.93
309.485	9027.57
309.551	9040.57
309.616	9027.09
309.682	9020.88
309.748	9013.08
309.813	9007.35
309.879	9004.99
309.945	8991.42
310.01	8979.34
310.076	8978.13
310.141	8970.48
310.207	8957.91
310.273	8967.68
310.338	8968.5
310.404	8950.84
310.469	8939.62
310.535	8936.63
310.601	8915.55
310.666	8920.46
310.732	8934.56
310.797	8927.87
310.863	8915.6
310.928	8902.98
310.994	8900.53
311.059	8900.05
311.125	8900.34
311.191	8907.61
311.256	8893.84
311.322	8904.81
311.387	8890.71
311.453	9325.32
311.518	9307.08
311.584	9306.31
311.649	9304.91
311.715	9295.91
311.78	9296.63
311.846	9282.19
311.911	9287.01
311.976	9290.47
312.042	9279.45
312.107	9259.09
312.173	9256.2
312.238	9257.45
312.304	9246.76
312.369	9234.54
312.434	9222.7
312.5	9210.28
312.565	9180.68
312.631	9180.82
312.696	9171.87
312.761	9174.56
312.827	8726.62
312.892	8759.84
312.958	8757.04
313.023	8750.5
313.088	8749.82
313.154	8729.95
313.219	8729.9
313.284	8712.67
313.35	8703.09
313.415	8685.38
313.48	8679.03
313.546	8685.91
313.611	8692.99
313.676	8682.78
313.741	8671.38
313.807	8677.35
313.872	8681.87
313.937	8690.92
314.003	8704.35
314.068	8710.12
314.133	8717.01
314.198	8705.94
314.264	8681.48
314.329	8668
314.394	8672.67
314.459	8668.25
314.525	8693.41
314.59	8682.63
314.655	8678.01
314.72	8685.67
314.785	8689.13
314.851	8682.68
314.916	8660.98
314.981	8645.82
315.046	8642.11
315.111	8638.65
315.176	8623.78
315.242	8630.71
315.307	8620.26
315.372	8597.69
315.437	8582.82
315.502	8571.99
315.567	8587.97
315.632	8572.47
315.698	8572.71
315.763	8561.55
315.828	8556.59
315.893	8553.17
315.958	8554.9
316.023	8542.78
316.088	8520.64
316.153	8503.46
316.218	8502.79
316.283	8483.64
316.348	8468
316.413	8461.8
316.479	8446.98
316.544	8417.34
316.609	8386.21
316.674	8359.36
316.739	8326.51
316.804	8292.83
316.869	8254.87
316.934	8215.42
316.999	8191.8
317.064	8142.39
317.129	8099.53
317.194	8058.5
317.259	8014.48
317.324	7965.18
317.389	7927.09
317.454	7892.65
317.518	7861.48
317.583	7838.06
317.648	7816.37
317.713	7782.27
317.778	7730.29
317.843	7706.1
317.908	7671.96
317.973	7634.84
318.038	7605.8
318.103	7579.31
318.168	7550.32
318.233	7526.09
318.297	7476.1
318.362	7439.41
318.427	7405.34
318.492	7380.15
318.557	7342.67
318.622	7309.79
318.687	7288.79
318.751	7252.22
318.816	7219.25
318.881	7185.17
318.946	7131.49
319.011	7093.77
319.075	7057.25
319.14	7026.07
319.205	6982.59
319.27	6944.78
319.335	6901.02
319.399	6866.24
319.464	6835.16
319.529	6782.47
319.594	6743.85
319.658	6720.27
319.723	6679.88
319.788	6654.72
319.853	6606.31
319.917	6572.61
319.982	6526.89
320.047	6487.09
320.112	6457.13
320.176	6407.73
320.241	6371.67
320.306	6340.47
320.37	6296.5
320.435	6264.29
320.5	6234.2
320.564	6198.11
320.629	6161.26
320.694	6132.95
320.758	6090.72
320.823	6046.38
320.888	6028.25
320.952	5976.59
321.017	5936.29
321.082	5896.47
321.146	5863.28
321.211	5829.51
321.275	5792.01
321.34	5746.22
321.405	5699.47
321.469	5655.36
321.534	5616.72
321.598	5566.48
321.663	5536.89
321.727	5507.07
321.792	5459.09
321.857	5415.8
321.921	5375.92
321.986	5334.81
322.05	5279.61
322.115	5245.35
322.179	5204.48
322.244	5143.93
322.308	5118.49
322.373	5074.33
322.437	5038.31
322.502	5009.99
322.566	4970.23
322.631	4936.18
322.695	4905.3
322.76	4865.76
322.824	4831.96
322.889	4790.8
322.953	4753.19
323.018	4689.71
323.082	4628.08
323.146	4575.98
323.211	4525.07
323.275	4483.97
323.34	4444.41
323.404	4409.59
323.468	4362.85
323.533	4321
323.597	4279.46
323.662	4226.9
323.726	4189.55
323.79	4144.61
323.855	4080.8
323.919	4033.19
323.983	3988.87
324.048	3922.08
324.112	4059.13
324.177	3934.83
324.241	3732.67
324.305	3531.64
324.37	3336.01
324.434	3148.22
324.498	3109.67
324.562	3063.57
324.627	3002.59
324.691	2946.42
324.755	2882.23
324.82	2808.67
324.884	2731.06
324.948	2660.57
325.012	2569.47
325.077	2449.86
