Data from 20250704_urea_1M_MAYP1162681_11-32-22-655.txt Node
Date: Fri Jul 04 11:32:22 BST 2025
User: adleo
Spectrometer: MAYP116268
Trigger mode: 0
Integration Time (sec): 1.000000E0
Scans to average: 1
Electric dark correction enabled: true
Nonlinearity correction enabled: true
Boxcar width: 10
XAxis mode: Wavelengths
Number of Pixels in Spectrum: 2068
>>>>>Begin Spectral Data<<<<<
179.565	1243.2
179.642	1306.29
179.718	1351.54
179.795	1395.17
179.871	1427.59
179.948	1448.04
180.024	1469.55
180.101	1490.99
180.177	1506.92
180.254	1529.7
180.33	1552.78
180.407	1607.71
180.483	1705.39
180.56	1800.7
180.636	1890.53
180.712	1876.69
180.789	1888.76
180.865	1903.59
180.942	1912.91
181.018	1922.8
181.095	1936.68
181.171	1941.58
181.248	1941.44
181.324	1957.8
181.4	1963.79
181.477	1975.11
181.553	1988.75
181.63	2010.2
181.706	2028.89
181.782	2036.59
181.859	2037.31
181.935	2043.44
182.011	2042.16
182.088	2063.56
182.164	2081.4
182.24	2092.1
182.317	2103.52
182.393	2102.66
182.469	2117.02
182.546	2130.44
182.622	2135.15
182.698	2129.77
182.775	2141.47
182.851	2153.94
182.927	2145.56
183.003	2140.62
183.08	2134.01
183.156	2145
183.232	2138.95
183.308	2128.63
183.385	2136.29
183.461	2153.51
183.537	2156.51
183.613	2169.4
183.69	2156.46
183.766	2145.27
183.842	2156.26
183.918	2161.31
183.995	2171.68
184.071	2175.44
184.147	2169.49
184.223	2159.69
184.299	2175.3
184.375	2167.4
184.452	2174.78
184.528	2226.56
184.604	2236.35
184.68	2250.67
184.756	2256.38
184.832	2263.9
184.908	2265.95
184.985	2265.57
185.061	2249.1
185.137	2258.19
185.213	2247.59
185.289	2251.87
185.365	2246.44
185.441	2243.49
185.517	2254.82
185.593	2249.68
185.669	2247.16
185.745	2256.96
185.822	2273.28
185.898	2263.04
185.974	2270.13
186.05	2260.47
186.126	2225.02
186.202	2219.88
186.278	2215.5
186.354	2202.99
186.43	2210.22
186.506	2211.03
186.582	2214.08
186.658	2220.83
186.734	2198.9
186.81	2201.85
186.886	2202.94
186.962	2214.69
187.038	2210.93
187.114	2203.03
187.19	2213.26
187.266	2201.94
187.341	2204.46
187.417	2197.94
187.493	2196.33
187.569	2197.04
187.645	2194.04
187.721	2181.62
187.797	2189.57
187.873	2195.94
187.949	2193
188.025	2184.33
188.101	2185.66
188.176	2187.42
188.252	2182.43
188.328	2187.04
188.404	2184.81
188.48	2179.96
188.556	2174.53
188.632	2171.91
188.707	2175.39
188.783	2170.91
188.859	2166.21
188.935	2154.41
189.011	2163.26
189.086	2158.5
189.162	2151.32
189.238	2147.23
189.314	2145.66
189.39	2138.8
189.465	2129.19
189.541	2144.56
189.617	2129.06
189.693	2124.58
189.768	2129.44
189.844	2155.9
189.92	2150.81
189.996	2162.09
190.071	2172.51
190.147	2169.56
190.223	2180.22
190.298	2171.37
190.374	2159.14
190.45	2170.89
190.526	2179.74
190.601	2171.89
190.677	2173.31
190.753	2202.35
190.828	2207.77
190.904	2222.29
190.98	2234.99
191.055	2244.75
191.131	2238.51
191.207	2262.63
191.282	2272.1
191.358	2260.54
191.433	2245.54
191.509	2259.57
191.585	2255.72
191.66	2256.72
191.736	2267.14
191.811	2259.05
191.887	2275.28
191.963	2300.22
192.038	2304.17
192.114	2304.55
192.189	2309.83
192.265	2307.54
192.34	2281.36
192.416	2279.6
192.491	2277.12
192.567	2283.65
192.642	2288.69
192.718	2286.17
192.793	2270.04
192.869	2267.94
192.944	2271.04
193.02	2279.7
193.095	2281.6
193.171	2288.74
193.246	2289.69
193.322	2284.65
193.397	2281.27
193.473	2266.56
193.548	2247.38
193.624	2255.81
193.699	2253.81
193.775	2270.42
193.85	2271.99
193.925	2284.18
194.001	2285.08
194.076	2275.18
194.152	2262.85
194.227	2253.1
194.302	2244.2
194.378	2249.58
194.453	2247.96
194.529	2261.19
194.604	2242.96
194.679	2237.25
194.755	2217.27
194.83	2228.6
194.905	2229.7
194.981	2239.17
195.056	2233.84
195.131	2241.88
195.207	2239.17
195.282	2231.7
195.357	2211.08
195.433	2226.41
195.508	2213.99
195.583	2221.88
195.659	2237.54
195.734	2247.25
195.809	2246.97
195.884	2258.05
195.96	2260.48
196.035	2271.04
196.11	2267.04
196.185	2280.98
196.261	2285.17
196.336	2316.44
196.411	2302.49
196.486	2305.72
196.561	2301.63
196.637	2309.58
196.712	2324.62
196.787	2325.15
196.862	2338.9
196.937	2348.56
197.013	2354.32
197.088	2365.65
197.163	2384.26
197.238	2401.75
197.313	2399.08
197.388	2417.84
197.464	2447.75
197.539	2457.65
197.614	2451.99
197.689	2464.84
197.764	2484.8
197.839	2507.94
197.914	2502.03
197.989	2524.22
198.065	2538.03
198.14	2590.26
198.215	2619.31
198.29	2632.41
198.365	2649.56
198.44	2660.6
198.515	2691.62
198.59	2709.53
198.665	2737.02
198.74	2746.93
198.815	2746.46
198.89	2771.75
198.965	2798.3
199.04	2791.68
199.115	2808.3
199.19	2853.76
199.265	2858.52
199.34	2865
199.415	2895.95
199.49	2916.2
199.565	2928.59
199.64	2951.7
199.715	2948.98
199.79	2954.61
199.865	2963.29
199.94	2959.67
200.015	2992.56
200.09	2997.62
200.165	3003.34
200.24	3010.2
200.315	3051.87
200.39	3069.56
200.464	3072.37
200.539	3075.23
200.614	3094.25
200.689	3117.91
200.764	3122.2
200.839	3138.5
200.914	3143.89
200.989	3136.63
201.063	3153.28
201.138	3134.36
201.213	3139.18
201.288	3118.77
201.363	3127.78
201.438	3126.11
201.512	3142.89
201.587	3125.48
201.662	3128.06
201.737	3140.55
201.812	3149.66
201.886	3111.91
201.961	3121.79
202.036	3113.49
202.111	3108.29
202.186	3075.7
202.26	3058.15
202.335	3040.5
202.41	3035.02
202.485	3019.29
202.559	2996.55
202.634	2968.85
202.709	2980
202.784	2955.16
202.858	2955.92
202.933	2935.57
203.008	2926.84
203.082	2906.87
203.157	2903.2
203.232	2862.7
203.306	2838
203.381	2802.25
203.456	2781.81
203.53	2756.1
203.605	2734.19
203.68	2710.22
203.754	2706.93
203.829	2691.59
203.904	2668.05
203.978	2656.95
204.053	2661.05
204.127	2648.42
204.202	2646.42
204.277	2626.89
204.351	2622.13
204.426	2611.5
204.5	2602.36
204.575	2568.84
204.65	2577.79
204.724	2573.5
204.799	2579.07
204.873	2576.02
204.948	2576.5
205.022	2562.93
205.097	2556.12
205.171	2570.16
205.246	2578.55
205.32	2574.69
205.395	2571.84
205.469	2564.55
205.544	2570.51
205.618	2549.79
205.693	2561.7
205.767	2548.37
205.842	2570.61
205.916	2564.23
205.991	2557.04
206.065	2564.04
206.14	2580.08
206.214	2581.51
206.289	2573.17
206.363	2583.46
206.438	2587.89
206.512	2595.85
206.586	2617.85
206.661	2627.86
206.735	2605.62
206.81	2607.67
206.884	2625.24
206.958	2614.82
207.033	2633
207.107	2638.96
207.181	2672.93
207.256	2669.12
207.33	2690.55
207.405	2702.9
207.479	2722.58
207.553	2729.91
207.628	2711.34
207.702	2721.39
207.776	2710.57
207.851	2714.39
207.925	2732.93
207.999	2728.02
208.073	2725.54
208.148	2728.5
208.222	2713.48
208.296	2747.06
208.371	2764.13
208.445	2779.19
208.519	2812.49
208.593	2825.69
208.668	2823.93
208.742	2828.65
208.816	2831.7
208.89	2846.57
208.965	2848.38
209.039	2857.54
209.113	2880.61
209.187	2906.47
209.261	2909.33
209.336	2937.64
209.41	2961.15
209.484	2964.67
209.558	2995.14
209.632	3013.01
209.707	3029.65
209.781	3061.12
209.855	3088.35
209.929	3121.25
210.003	3137.18
210.077	3144.67
210.151	3204.87
210.226	3248.4
210.3	3292.23
210.374	3332.3
210.448	3355.92
210.522	3382.27
210.596	3414.86
210.67	3444.12
210.744	3516.94
210.818	3576.21
210.892	3622.87
210.966	3652.14
211.041	3703.43
211.115	3735.18
211.189	3798.8
211.263	3855.83
211.337	3908.1
211.411	3965.12
211.485	4001.8
211.559	4061.97
211.633	4121.02
211.707	4148.43
211.781	4221.12
211.855	4251.59
211.929	4308.33
212.003	4359.2
212.077	4447.07
212.151	4535.37
212.225	4623.86
212.299	4696.77
212.373	4767.18
212.447	4852.97
212.52	4971.6
212.594	5071.49
212.668	5184.69
212.742	5275.93
212.816	5378.55
212.89	5477.13
212.964	5593.63
213.038	5714.51
213.112	5853.06
213.186	5993.36
213.26	6094.6
213.333	6179.16
213.407	6316.11
213.481	6458.3
213.555	6608.36
213.629	6738.83
213.703	6870.55
213.777	7014.07
213.85	7142.38
213.924	7330.4
213.998	7484.52
214.072	7639.76
214.146	7786.13
214.219	7944.27
214.293	8103.36
214.367	8269.9
214.441	8451.12
214.515	8604.11
214.588	8748.68
214.662	8878.06
214.736	9024.34
214.81	9198.7
214.883	9377.56
214.957	9536.39
215.031	9697.45
215.105	9849.95
215.178	10005.18
215.252	10170.88
215.326	10325.85
215.4	10479.66
215.473	10606.19
215.547	10757.83
215.621	10918.44
215.694	11102
215.768	11250.95
215.842	11412.2
215.915	11571.44
215.989	11714.58
216.063	11873.54
216.136	12034.57
216.21	12207.36
216.284	12384.35
216.357	12555.85
216.431	12717.91
216.504	12890.33
216.578	13078.46
216.652	13249.73
216.725	13406.64
216.799	13566.34
216.873	13719.49
216.946	13885.55
217.02	14034.26
217.093	14180.66
217.167	14307.68
217.24	14427.28
217.314	14568.57
217.387	14701.71
217.461	14835.67
217.535	14992.04
217.608	15117.85
217.682	15267.27
217.755	15403.3
217.829	15523.13
217.902	15660.64
217.976	15798.78
218.049	15920.54
218.123	16020.98
218.196	16157
218.27	16276.43
218.343	16385.02
218.417	16513.13
218.49	16626.58
218.563	16764.91
218.637	16893.35
218.71	17028.1
218.784	17147.86
218.857	17279.43
218.931	17400.3
219.004	17518.14
219.077	17635.39
219.151	17747.63
219.224	17849.46
219.298	17956.88
219.371	18075.09
219.444	18164.73
219.518	18252.68
219.591	18353.59
219.665	18491.08
219.738	18584.52
219.811	18666.59
219.885	18777.91
219.958	18873.81
220.031	18954.38
220.105	19041.03
220.178	19128.35
220.251	19209.11
220.325	19305.4
220.398	19378.55
220.471	19460.18
220.544	19537.63
220.618	19595.79
220.691	19670.49
220.764	19745.13
220.838	19818.09
220.911	19877.42
220.984	19960.55
221.057	20041.27
221.131	20098.61
221.204	20121.94
221.277	20196.4
221.35	20289.45
221.424	20339.96
221.497	20388.01
221.57	20452.63
221.643	20510.47
221.716	20561.21
221.79	20594.71
221.863	20634.56
221.936	20681.94
222.009	20720.88
222.082	20774.81
222.155	20815.19
222.229	20875.63
222.302	20915.49
222.375	20958.29
222.448	21005.23
222.521	21037.14
222.594	21054.87
222.667	21083.84
222.74	21131.36
222.814	21156.23
222.887	21189.73
222.96	21229.49
223.033	21268.67
223.106	21294.8
223.179	21323.38
223.252	21354.76
223.325	21394.09
223.398	21416.59
223.471	21447.54
223.544	21472.99
223.617	21484.99
223.69	21509.28
223.763	21511.45
223.837	21532.8
223.91	21553
223.983	21549.62
224.056	21555.17
224.129	21579.84
224.202	21611.65
224.275	21608.86
224.348	21605.1
224.42	21600.13
224.493	21592.23
224.566	21606.64
224.639	21622.93
224.712	21627.56
224.785	21626.16
224.858	21612.52
224.931	21614.16
225.004	21594.4
225.077	21598.5
225.15	21574.11
225.223	21567.6
225.296	21592.96
225.369	21572.9
225.442	21563.94
225.514	21570.01
225.587	21569.96
225.66	21572.23
225.733	21561.24
225.806	21567.7
225.879	21560.71
225.952	21545.38
226.025	21554.68
226.097	21559.84
226.17	21554.35
226.243	21527.16
226.316	21519.4
226.389	21529.09
226.461	21530.87
226.534	21533.52
226.607	21524.17
226.68	21542.92
226.753	21536.08
226.825	21505.66
226.898	21511.06
226.971	21495.45
227.044	21487.16
227.117	21486.77
227.189	21480.12
227.262	21474.82
227.335	21465.75
227.407	21454.57
227.48	21458.91
227.553	21447.58
227.626	21414.57
227.698	21396.59
227.771	21395.43
227.844	21379.77
227.916	21362.08
227.989	21333.06
228.062	21311.47
228.134	21328.05
228.207	21317.06
228.28	21289.78
228.352	21270.45
228.425	21257.83
228.498	21259.03
228.57	21238.69
228.643	21237.34
228.716	21220.04
228.788	21209.2
228.861	21189.63
228.934	21191.03
229.006	21161.24
229.079	21131.79
229.151	21111.4
229.224	21082.39
229.296	21061.04
229.369	21060.22
229.442	21064.9
229.514	21048.32
229.587	21054.34
229.659	21009.32
229.732	20998.43
229.804	21010.96
229.877	21016.7
229.949	21010
230.022	21006
230.094	20985.9
230.167	20962.62
230.239	20940.11
230.312	20923.44
230.384	20945.13
230.457	20924.98
230.529	20917.99
230.602	20909.46
230.674	20906.19
230.747	20908.07
230.819	20902.43
230.892	20861.27
230.964	20840.59
231.037	20822.23
231.109	20795.72
231.181	20784.78
231.254	20747.72
231.326	20721.07
231.399	20693.07
231.471	20662.66
231.544	20617.45
231.616	20614.32
231.688	20593.55
231.761	20564.3
231.833	20534.32
231.905	20471.86
231.978	20455.47
232.05	20421.88
232.122	20405.93
232.195	20375.28
232.267	20368.24
232.339	20336.68
232.412	20334.17
232.484	20307.18
232.556	20286.46
232.629	20277.93
232.701	20264.92
232.773	20248.82
232.846	20219.57
232.918	20210.85
232.99	20192.1
233.062	20174.7
233.135	20157.02
233.207	20120.49
233.279	20102.27
233.351	20090.71
233.424	20060.54
233.496	20018.76
233.568	20024.35
233.64	19983.14
233.713	19956.45
233.785	19928.21
233.857	19912.21
233.929	19856.5
234.001	19846.81
234.074	19832.69
234.146	19789.8
234.218	19760.89
234.29	19730.67
234.362	19711.35
234.434	19656.65
234.507	19622.15
234.579	19591.02
234.651	19556.71
234.723	19537.91
234.795	19515.65
234.867	19475.75
234.939	19468.61
235.012	19454.25
235.084	19426.98
235.156	19410.06
235.228	19376.47
235.3	19332
235.372	19305.3
235.444	19299.27
235.516	19241.21
235.588	19211.33
235.66	19186.22
235.732	19145.79
235.804	19174.32
235.876	19147.43
235.948	19141.55
236.02	19112.64
236.092	19075.67
236.164	19050.76
236.236	19018.52
236.308	18987.34
236.38	18966.43
236.452	18927.68
236.524	18899.83
236.596	18888.79
236.668	18864.17
236.74	18837.47
236.812	18817.14
236.884	18788.03
236.956	18765.57
237.028	18733.38
237.1	18696.47
237.172	18685.72
237.244	18681.43
237.316	18606.79
237.388	18567.17
237.46	18525.49
237.532	18511.13
237.604	18477.3
237.675	18459.86
237.747	18440.24
237.819	18400.34
237.891	18368.29
237.963	18326.46
238.035	18288.59
238.107	18208.54
238.178	18189.12
238.25	18161.17
238.322	18151.05
238.394	18105.61
238.466	18068.35
238.538	18048.31
238.609	18023.97
238.681	17970.82
238.753	17925.18
238.825	17898.82
238.897	17877.81
238.968	17868.75
239.04	17826.15
239.112	17816.85
239.184	17766.24
239.255	17729.96
239.327	17714.58
239.399	17684.37
239.471	17669.76
239.542	17645.57
239.614	17626.49
239.686	17566.3
239.758	17544.51
239.829	17494.83
239.901	17477.57
239.973	17442.3
240.044	17411.74
240.116	17385.91
240.188	17356.18
240.259	17315.6
240.331	17282.05
240.403	17254.39
240.474	17207.84
240.546	17168.56
240.618	17126.53
240.689	17100.85
240.761	17071.21
240.833	17043.83
240.904	17009.52
240.976	16970.43
241.048	16938.09
241.119	16922.34
241.191	16903.35
241.262	16889.61
241.334	16861.18
241.405	16829.27
241.477	16792.06
241.549	16757.17
241.62	16721.7
241.692	16705.6
241.763	16694.23
241.835	16663.29
241.906	16630.99
241.978	16584.58
242.049	16565.59
242.121	16540.19
242.192	16521.64
242.264	16482.36
242.335	16434.98
242.407	16403.22
242.478	16367.84
242.55	16339.5
242.621	16304.07
242.693	16262
242.764	16222.43
242.836	16184.11
242.907	16157.79
242.979	16136.68
243.05	16109.11
243.122	16088.73
243.193	16044.58
243.264	15984.33
243.336	15946.73
243.407	15927.07
243.479	15915.55
243.55	15891.79
243.622	15872.75
243.693	15832.36
243.764	15814.48
243.836	15782.76
243.907	15757.26
243.978	15727.09
244.05	15713.49
244.121	15661.29
244.192	15648.62
244.264	15600.08
244.335	15580.56
244.407	15537.85
244.478	15516.26
244.549	15489.7
244.62	15442.94
244.692	15413.54
244.763	15398.6
244.834	15370.59
244.906	15330.39
244.977	15303.06
245.048	15287.78
245.119	15241.51
245.191	15204.3
245.262	15149.15
245.333	15130.79
245.405	15102.97
245.476	15086.1
245.547	15046.77
245.618	15025.61
245.689	15000.06
245.761	14976.78
245.832	14945.3
245.903	14920.67
245.974	14896.81
246.045	14853.57
246.117	14843.78
246.188	14807.63
246.259	14772.3
246.33	14739.18
246.401	14701.58
246.473	14653.91
246.544	14607.25
246.615	14593.8
246.686	14560.78
246.757	14550.99
246.828	14514.21
246.899	14498.5
246.97	14455.01
247.042	14418.72
247.113	14404.21
247.184	14397.07
247.255	14371.81
247.326	14346.46
247.397	14321.78
247.468	14290.35
247.539	14276.17
247.61	14230.86
247.681	14209.79
247.752	14196.63
247.823	14157.44
247.894	14134.45
247.965	14101.43
248.037	14077.08
248.108	14027.43
248.179	14002.7
248.25	13976.33
248.321	13959.56
248.392	13920.46
248.463	13920.22
248.534	13897.85
248.605	13879.2
248.675	13849.65
248.746	13821.88
248.817	13800.62
248.888	13777.29
248.959	13729.32
249.03	13709.8
249.101	13688.69
249.172	13662.12
249.243	13608.47
249.314	13602.93
249.385	13586.97
249.456	13576.22
249.527	13549.03
249.598	13542.57
249.669	13521.02
249.739	13506.56
249.81	13487.42
249.881	13453.1
249.952	13420.9
250.023	13398.29
250.094	13358.66
250.165	13320.53
250.235	13296.24
250.306	13275.8
250.377	13236.27
250.448	13227.16
250.519	13180.11
250.59	13179.87
250.66	13153.59
250.731	13159.76
250.802	13133.54
250.873	13111.56
250.944	13091.02
251.014	13062.68
251.085	13053.03
251.156	13040.07
251.227	13027.29
251.297	13019.82
251.368	13019.72
251.439	13003.67
251.51	12992.29
251.58	12960.38
251.651	12922.25
251.722	12904.9
251.792	12862.91
251.863	12846.09
251.934	12839.43
252.005	12842.52
252.075	12810.99
252.146	12807.76
252.217	12788.77
252.287	12780.04
252.358	12759.41
252.429	12756.04
252.499	12732.95
252.57	12717.76
252.641	12698.63
252.711	12676.07
252.782	12633.6
252.852	12626.46
252.923	12610.12
252.994	12587.85
253.064	12589.01
253.135	12576.09
253.205	12556.03
253.276	12554.35
253.347	12557.91
253.417	12527.11
253.488	12510.34
253.558	12488.36
253.629	12465.65
253.699	12447.53
253.77	12433.31
253.841	12406.94
253.911	12389.97
253.982	12372.14
254.052	12361.1
254.123	12352.08
254.193	12334.73
254.264	12358.54
254.334	12330.2
254.405	12300.94
254.475	12270.57
254.546	12246.18
254.616	12237.75
254.687	12222.95
254.757	12209.5
254.827	12185.06
254.898	12175.42
254.968	12154.26
255.039	12127.03
255.109	12121.92
255.18	12093.81
255.25	12055.3
255.321	12039.11
255.391	12001.8
255.461	12013.08
255.532	11966.27
255.602	11935.67
255.673	11890.79
255.743	11854.88
255.813	11809.28
255.884	11800.41
255.954	11795.21
256.024	11791.5
256.095	11777.23
256.165	11750.19
256.235	11731.83
256.306	11704.79
256.376	11695.44
256.446	11686.09
256.517	11682.86
256.587	11663.38
256.657	11655.58
256.728	11641.79
256.798	11628.1
256.868	11603.48
256.938	11571.18
257.009	11567.76
257.079	11559.95
257.149	11575.18
257.219	11542.99
257.29	11532.82
257.36	11496.19
257.43	11489.92
257.5	11447.22
257.571	11419.03
257.641	11411.22
257.711	11380.71
257.781	11367.27
257.852	11356.42
257.922	11310.64
257.992	11285.87
258.062	11266.11
258.132	11257.43
258.202	11239.89
258.273	11224.9
258.343	11236.9
258.413	11210.06
258.483	11191.74
258.553	11165.19
258.623	11132.71
258.693	11119.55
258.764	11126.78
258.834	11126.97
258.904	11107.79
258.974	11084.03
259.044	11071.17
259.114	11056.56
259.184	11042.06
259.254	11026.83
259.324	10982.83
259.394	10982.21
259.464	10983.75
259.535	10968.62
259.605	10945.97
259.675	10920.62
259.745	10909.59
259.815	10871.18
259.885	10848.05
259.955	10860.1
260.025	10835.91
260.095	10819.33
260.165	10808.39
260.235	10805.46
260.305	10782.66
260.375	10752.26
260.445	10765.8
260.515	10764.49
260.585	10760.83
260.655	10749.22
260.725	10741.85
260.795	10742.33
260.865	10741.27
260.934	10712.16
261.004	10701.61
261.074	10683.73
261.144	10685.66
261.214	10681.33
261.284	10670.34
261.354	10669.62
261.424	10639.55
261.494	10643.11
261.564	10626.05
261.634	10617.72
261.703	10576.52
261.773	10562.55
261.843	10557.44
261.913	10536.29
261.983	10500.2
262.053	10491.58
262.123	10474.38
262.192	10451.25
262.262	10443.64
262.332	10416.37
262.402	10406.92
262.472	10394.83
262.541	10363.08
262.611	10361.59
262.681	10336.58
262.751	10331.04
262.821	10312.4
262.89	10285.03
262.96	10273.52
263.03	10281.08
263.1	10270.92
263.169	10263.64
263.239	10256.66
263.309	10254.44
263.379	10251.79
263.448	10246.88
263.518	10233.68
263.588	10225.2
263.657	10230.01
263.727	10232.04
263.797	10221.39
263.867	10208.77
263.936	10175.44
264.006	10172.59
264.076	10148.51
264.145	10132.56
264.215	10113.92
264.285	10109.87
264.354	10076.54
264.424	10055.88
264.494	10031.74
264.563	10007.56
264.633	10006.59
264.702	10002.31
264.772	9969.93
264.842	9947.92
264.911	9933.86
264.981	9908.32
265.05	9893.49
265.12	9869.69
265.19	9846.57
265.259	9841.51
265.329	9833.71
265.398	9828.26
265.468	9848.88
265.537	9830.82
265.607	9827.4
265.676	9823.98
265.746	9818.3
265.815	9826.92
265.885	9817.67
265.955	9791.18
266.024	9780.1
266.094	9751.49
266.163	9755.92
266.232	9762.47
266.302	9745.23
266.371	9739.94
266.441	9726.21
266.51	9718.7
266.58	9707.76
266.649	9690.33
266.719	9689.32
266.788	9688.54
266.858	9695.77
266.927	9653.58
266.996	9653
267.066	9642.6
267.135	9613.32
267.205	9604.02
267.274	9589.53
267.343	9586.4
267.413	9580.09
267.482	9584.42
267.552	9581.05
267.621	9545.27
267.69	9516.52
267.76	9518.06
267.829	9501.49
267.898	9492
267.968	9476.93
268.037	9472.84
268.106	9474.19
268.176	9445.77
268.245	9426.94
268.314	9408.11
268.384	9408.02
268.453	9391.21
268.522	9380.09
268.592	9386.2
268.661	9368.72
268.73	9366.22
268.799	9347.87
268.869	9351.05
268.938	9318.16
269.007	9300.39
269.076	9290.86
269.146	9292.31
269.215	9280.8
269.284	9289.8
269.353	9269
269.422	9254.56
269.492	9238.24
269.561	9191.92
269.63	9190.28
269.699	9171.07
269.768	9161.58
269.838	9157.83
269.907	9160.67
269.976	9137.9
270.045	9106.94
270.114	9108.15
270.183	9093.85
270.253	9089.22
270.322	9063.56
270.391	9057.59
270.46	9067.13
270.529	9068.09
270.598	9065.01
270.667	9053.07
270.736	9036.84
270.806	9034.53
270.875	9036.65
270.944	9022.98
271.013	9047.82
271.082	9045.32
271.151	9048.11
271.22	9020.53
271.289	9003.77
271.358	8990.48
271.427	8984.32
271.496	8979.94
271.565	8959.34
271.634	8952.94
271.703	8958.66
271.772	8961.46
271.841	8950.67
271.91	8923.14
271.979	8914.38
272.048	8893.05
272.117	8893.19
272.186	8880.53
272.255	8882.07
272.324	8881.79
272.393	8880.78
272.462	8863.59
272.531	8851.22
272.6	8832.68
272.669	8839.28
272.738	8830.37
272.807	8823.25
272.876	8805.87
272.945	8833.46
273.013	8839.86
273.082	8839.67
273.151	8814.44
273.22	8809.24
273.289	8806.69
273.358	8821.18
273.427	8804.82
273.496	8808.28
273.564	8802.41
273.633	8804.38
273.702	8787.83
273.771	8773.24
273.84	8766.7
273.909	8772.18
273.977	8770.26
274.046	8766.41
274.115	8772.66
274.184	8756.4
274.253	8752.21
274.322	8767.52
274.39	8734.78
274.459	8715.39
274.528	8686.51
274.597	8679.92
274.665	8673.13
274.734	8675.88
274.803	8666.15
274.872	8662.16
274.94	8642.62
275.009	8677.48
275.078	8660.92
275.147	8663.9
275.215	8664.48
275.284	8671.27
275.353	8655.72
275.421	8633.44
275.49	8650.86
275.559	8637.19
275.627	8635.7
275.696	8625.11
275.765	8619
275.833	8610.2
275.902	8614.09
275.971	8633.01
276.039	8652.98
276.108	8663.95
276.177	8664.43
276.245	8652.6
276.314	8649.27
276.383	8655.39
276.451	8614.42
276.52	8608.59
276.588	8618.89
276.657	8617.69
276.725	8609.84
276.794	8608.26
276.863	8617.06
276.931	8585.11
277	8585.3
277.068	8594.82
277.137	8613.07
277.205	8614.61
277.274	8637.22
277.342	8645.55
277.411	8621.44
277.48	8607.44
277.548	8595.26
277.617	8595.79
277.685	8590.83
277.754	8595.45
277.822	8590.3
277.89	8599.69
277.959	8600.75
278.027	8579.33
278.096	8570.72
278.164	8594.4
278.233	8590.41
278.301	8581.26
278.37	8594.06
278.438	8586.89
278.507	8588.77
278.575	8567.79
278.643	8558.64
278.712	8536.36
278.78	8520.53
278.849	8531.78
278.917	8535.92
278.985	8526.25
279.054	8525.82
279.122	8541.65
279.191	8540.54
279.259	8536.69
279.327	8520.62
279.396	8539.58
279.464	8538.96
279.532	8545.16
279.601	8539
279.669	8532.26
279.737	8544.05
279.806	8541.46
279.874	8551.8
279.942	8547.47
280.011	8541.79
280.079	8551.23
280.147	8564.84
280.215	8573.22
280.284	8570.28
280.352	8558.64
280.42	8570.96
280.488	8559.5
280.557	8554.21
280.625	8555.75
280.693	8560.13
280.761	8559.98
280.83	8538.37
280.898	8547.61
280.966	8531.3
281.034	8497.56
281.102	8483.71
281.171	8476.34
281.239	8485.63
281.307	8481.21
281.375	8469.37
281.443	8487.66
281.512	8482.17
281.58	8492.76
281.648	8481.64
281.716	8483.81
281.784	8481.5
281.852	8470
281.92	8475.58
281.989	8477.46
282.057	8461.53
282.125	8500.86
282.193	8500.04
282.261	8503.41
282.329	8497.82
282.397	8505.28
282.465	8514.52
282.533	8533.09
282.601	8527.56
282.67	8502.97
282.738	8492.86
282.806	8510.33
282.874	8500.03
282.942	8510.14
283.01	8504.94
283.078	8507.2
283.146	8497.87
283.214	8508.02
283.282	8517.89
283.35	8521.5
283.418	8514.66
283.486	8520.43
283.554	8478.46
283.622	8474.85
283.69	8473.89
283.758	8469.56
283.826	8473.99
283.894	8480.05
283.962	8502.24
284.03	8513.11
284.098	8523.84
284.165	8519.32
284.233	8519.95
284.301	8516.48
284.369	8499.69
284.437	8487.7
284.505	8480.2
284.573	8500.79
284.641	8485.83
284.709	8485.39
284.777	8472.64
284.845	8480.1
284.912	8486.55
284.98	8491.5
285.048	8490.78
285.116	8497.95
285.184	8511.62
285.252	8507.62
285.319	8491.65
285.387	8475.04
285.455	8460.17
285.523	8463.4
285.591	8461.96
285.659	8456.61
285.726	8463.5
285.794	8455.6
285.862	8448.53
285.93	8451.61
285.997	8447.62
286.065	8451.32
286.133	8446.65
286.201	8446.65
286.269	8436.26
286.336	8426.15
286.404	8413.74
286.472	8413.5
286.539	8390.16
286.607	8374.48
286.675	8380.11
286.743	8387.76
286.81	8385.35
286.878	8394.3
286.946	8387.18
287.013	8388.24
287.081	8391.12
287.149	8378.61
287.216	8394.49
287.284	8402.43
287.352	8401.8
287.419	8396.27
287.487	8410.52
287.555	8416.05
287.622	8413.93
287.69	8418.07
287.758	8433.08
287.825	8428.32
287.893	8423.41
287.96	8431.78
288.028	8443.33
288.096	8446.17
288.163	8451.23
288.231	8442.23
288.298	8447.57
288.366	8461.48
288.433	8456.71
288.501	8445.02
288.569	8452.72
288.636	8444.88
288.704	8449.54
288.771	8460.85
288.839	8453.15
288.906	8444.64
288.974	8450.99
289.041	8449.35
289.109	8436.99
289.176	8446.23
289.244	8456.28
289.311	8473.17
289.379	8482.31
289.446	8485.83
289.514	8482.41
289.581	8483.57
289.649	8483.61
289.716	8482.6
289.783	8476.11
289.851	8496.22
289.918	8499.01
289.986	8504.45
290.053	8514.65
290.121	8512.72
290.188	8510.13
290.255	8539.63
290.323	8533.13
290.39	8528.75
290.458	8534.28
290.525	8548.09
290.592	8539.62
290.66	8544.24
290.727	8539.81
290.794	8551.17
290.862	8545.3
290.929	8547.71
290.996	8543.04
291.064	8554.97
291.131	8568.21
291.198	8574.9
291.266	8577.74
291.333	8580.91
291.4	8588.81
291.468	8604.35
291.535	8600.12
291.602	8604.4
291.669	8595.93
291.737	8604.54
291.804	8603.24
291.871	8617.78
291.938	8624.18
292.006	8655.28
292.073	8664.95
292.14	8673.32
292.207	8664.9
292.275	8667.84
292.342	8677.46
292.409	8706.87
292.476	8729.64
292.543	8725.5
292.611	8733.59
292.678	8744.8
292.745	8770.65
292.812	8782.25
292.879	8777.14
292.946	8788.36
293.014	8804.77
293.081	8815.7
293.148	8829.66
293.215	8844.96
293.282	8840.49
293.349	8857.57
293.416	8832.59
293.484	8848.14
293.551	8854.44
293.618	8881.83
293.685	8906.57
293.752	8899.02
293.819	8900.08
293.886	8884
293.953	8888.43
294.02	8899.3
294.087	8910.71
294.154	8905.47
294.221	8916.4
294.288	8918.22
294.356	8931.94
294.423	8936.23
294.49	8929.01
294.557	8941.28
294.624	8933.39
294.691	8954.28
294.758	8946.58
294.825	8960.2
294.892	8949.47
294.959	8956.59
295.026	8957.41
295.093	8951.92
295.16	8960.05
295.226	8956.64
295.293	8984.7
295.36	8986.53
295.427	8994.77
295.494	9004.15
295.561	9007.14
295.628	9037.72
295.695	9050.24
295.762	9052.74
295.829	9061.55
295.896	9080.08
295.963	9085.72
296.03	9100.5
296.096	9102.52
296.163	9118.89
296.23	9135.74
296.297	9155.04
296.364	9150.61
296.431	9158.08
296.498	9159.09
296.564	9179.4
296.631	9183.93
296.698	9173.62
296.765	9199.14
296.832	9193.75
296.899	9180.65
296.965	9203.23
297.032	9175.21
297.099	9192.35
297.166	9201.69
297.233	9196.44
297.299	9186.52
297.366	9190.71
297.433	9194.32
297.5	9202.51
297.566	9198.75
297.633	9195.48
297.7	9191.24
297.767	9189.17
297.833	9193.7
297.9	9195.77
297.967	9181.9
298.033	9195.82
298.1	9223.02
298.167	9213.3
298.234	9214.07
298.3	9226.63
298.367	9220.95
298.434	9229.23
298.5	9222.97
298.567	9218.5
298.634	9216.67
298.7	9235.97
298.767	9239.92
298.834	9250.37
298.9	9249.84
298.967	9241.46
299.033	9250.52
299.1	9267.27
299.167	9291.35
299.233	9287.78
299.3	9298.95
299.366	9314.84
299.433	9326.21
299.5	9291.34
299.566	9293.85
299.633	9315.61
299.699	9327.75
299.766	9328.81
299.832	9336.08
299.899	9342
299.965	9355.48
300.032	9351.44
300.099	9355.29
300.165	9357.6
300.232	9352.26
300.298	9357.65
300.365	9378.21
300.431	9373.4
300.498	9369.01
300.564	9374.07
300.631	9389.77
300.697	9407.39
300.763	9407.78
300.83	9404.41
300.896	9427.81
300.963	9440.76
301.029	9443.22
301.096	9450.06
301.162	9460.36
301.229	9453.67
301.295	9439.41
301.361	9444.66
301.428	9450.68
301.494	9438.74
301.561	9443.22
301.627	9450.92
301.693	9445
301.76	9445.43
301.826	9440.18
301.892	9451.02
301.959	9456.61
302.025	9451.6
302.092	9440.28
302.158	9442.21
302.224	9448.18
302.291	9437.68
302.357	9431.95
302.423	9420.92
302.49	9404.79
302.556	9408.88
302.622	9404.65
302.688	9425.21
302.755	9441
302.821	9453.48
302.887	9466.04
302.954	9459.06
303.02	9460.84
303.086	9468.55
303.152	9468.93
303.219	9470.18
303.285	9474.33
303.351	9481.31
303.417	9477.94
303.483	9475.34
303.55	9474.13
303.616	9477.55
303.682	9482.71
303.748	9478.37
303.815	9495.52
303.881	9508.62
303.947	9502.55
304.013	9504.57
304.079	9489.21
304.145	9461.47
304.212	9458.34
304.278	9446.69
304.344	9445.1
304.41	9434.74
304.476	9424.58
304.542	9412.59
304.608	9421.12
304.674	9409.8
304.741	9396.89
304.807	9400.7
304.873	9408.35
304.939	9426.65
305.005	9402.53
305.071	9393.33
305.137	9389.58
305.203	9364.1
305.269	9358.71
305.335	9369.35
305.401	9370.94
305.467	9377.34
305.533	9392.42
305.599	9395.21
305.666	9407.29
305.732	9406.91
305.798	9414.95
305.864	9445.92
305.93	9450.88
305.996	9442.4
306.062	9441.77
306.128	9442.88
306.194	9432.77
306.259	9427.86
306.325	9415.77
306.391	9424.29
306.457	9435.37
306.523	9447.6
306.589	9466.09
306.655	9456.36
306.721	9439.22
306.787	9423.57
306.853	9434.94
306.919	9416.3
306.985	9414.9
307.051	9406.91
307.117	9401.04
307.183	9398.29
307.248	9368.77
307.314	9379.17
307.38	9387.31
307.446	9391.31
307.512	9378.74
307.578	9380.52
307.644	9370.5
307.709	9373.3
307.775	9372.38
307.841	9361.74
307.907	9352.78
307.973	9337.28
308.039	9341.18
308.104	9344.4
308.17	9347.68
308.236	9333.18
308.302	9338
308.368	9320.52
308.433	9320.04
308.499	9317.53
308.565	9307.95
308.631	9307.38
308.696	9282.77
308.762	9266.54
308.828	9268.08
308.894	9251.04
308.959	9229.09
309.025	9225.48
309.091	9217.15
309.156	9206.65
309.222	9214.83
309.288	9207.23
309.354	9184.84
309.419	9180.6
309.485	9170.35
309.551	9173.19
309.616	9158.26
309.682	9149.26
309.748	9143.24
309.813	9134.86
309.879	9126.73
309.945	9115.99
310.01	9112.96
310.076	9114.98
310.141	9113.63
310.207	9091.92
310.273	9096.83
310.338	9101.64
310.404	9084.31
310.469	9070.83
310.535	9064.62
310.601	9042.66
310.666	9053.11
310.732	9062.5
310.797	9049.4
310.863	9038.62
310.928	9034.96
310.994	9043.82
311.059	9038.14
311.125	9039.68
311.191	9051.04
311.256	9040.21
311.322	9044.59
311.387	9026.3
311.453	9414.11
311.518	9383.74
311.584	9383.4
311.649	9380.42
311.715	9363
311.78	9359.58
311.846	9350.62
311.911	9356.21
311.976	9358.57
312.042	9331.13
312.107	9317.12
312.173	9309.99
312.238	9298.68
312.304	9290.64
312.369	9274.03
312.434	9268.45
312.5	9258.39
312.565	9224.31
312.631	9224.45
312.696	9209.62
312.761	9213.19
312.827	8813.19
312.892	8857.57
312.958	8850.83
313.023	8849.58
313.088	8860.27
313.154	8852.81
313.219	8846.45
313.284	8833.26
313.35	8830.09
313.415	8819.35
313.48	8814.78
313.546	8820.41
313.611	8832.64
313.676	8822.1
313.741	8809.44
313.807	8812.09
313.872	8814.98
313.937	8825.8
314.003	8837.74
314.068	8843.13
314.133	8848.91
314.198	8838.76
314.264	8813.86
314.329	8807.61
314.394	8810.4
314.459	8798.22
314.525	8820.07
314.59	8814.44
314.655	8803.13
314.72	8807.13
314.785	8816.8
314.851	8808.47
314.916	8787.63
314.981	8770.5
315.046	8760.92
315.111	8756.64
315.176	8750.91
315.242	8752.31
315.307	8746.77
315.372	8729.83
315.437	8716.69
315.502	8700.32
315.567	8713.27
315.632	8702.29
315.698	8701.96
315.763	8691.13
315.828	8689.25
315.893	8687.28
315.958	8685.06
316.023	8678.28
316.088	8658.93
316.153	8634.53
316.218	8627.46
316.283	8607.34
316.348	8594.69
316.413	8598.92
316.479	8582.85
316.544	8547.25
316.609	8524.63
316.674	8488.88
316.739	8452.74
316.804	8426.43
316.869	8397.6
316.934	8362.19
316.999	8328.36
317.064	8273.86
317.129	8235.61
317.194	8200.2
317.259	8142.84
317.324	8093.21
317.389	8050.73
317.454	8013.54
317.518	7981.37
317.583	7961.21
317.648	7944.57
317.713	7906.43
317.778	7841.31
317.843	7816.25
317.908	7779.13
317.973	7737.34
318.038	7709.4
318.103	7678.05
318.168	7649.73
318.233	7620.3
318.297	7573.86
318.362	7541.5
318.427	7506.65
318.492	7484.87
318.557	7437.15
318.622	7413.93
318.687	7392.39
318.751	7349.14
318.816	7315.88
318.881	7280.99
318.946	7223.65
319.011	7175.3
319.075	7136.77
319.14	7109.04
319.205	7067.33
319.27	7037.45
319.335	6995.17
319.399	6958.41
319.464	6928.15
319.529	6869.45
319.594	6831.78
319.658	6800.51
319.723	6759.83
319.788	6735.43
319.853	6678.89
319.917	6653.06
319.982	6606.42
320.047	6567.57
320.112	6544.62
320.176	6493.97
320.241	6470.06
320.306	6450.08
320.37	6412.78
320.435	6386
320.5	6354.99
320.564	6313.37
320.629	6270.95
320.694	6242.24
320.758	6198.29
320.823	6151.98
320.888	6132.65
320.952	6079.77
321.017	6042.06
321.082	6006.31
321.146	5971.15
321.211	5938.09
321.275	5897.23
321.34	5845.29
321.405	5807.98
321.469	5766.78
321.534	5729.57
321.598	5678.98
321.663	5644.73
321.727	5616.58
321.792	5562.88
321.857	5524.43
321.921	5486.8
321.986	5446.21
322.05	5391
322.115	5360.9
322.179	5320.13
322.244	5265.56
322.308	5238.49
322.373	5192.92
322.437	5147.75
322.502	5121.48
322.566	5076.69
322.631	5041.49
322.695	5008.88
322.76	4956.98
322.824	4917.95
322.889	4874.87
322.953	4825.99
323.018	4760.3
323.082	4693.82
323.146	4645.79
323.211	4591.46
323.275	4546.81
323.34	4500.99
323.404	4465.11
323.468	4419.17
323.533	4378.56
323.597	4334.77
323.662	4281.24
323.726	4245.42
323.79	4202.14
323.855	4138.18
323.919	4091.52
323.983	4046.62
324.048	3978.98
324.112	4142.19
324.177	4017.63
324.241	3811.16
324.305	3609.56
324.37	3410.44
324.434	3220.12
324.498	3180.09
324.562	3131.66
324.627	3074.01
324.691	3023.09
324.755	2959.17
324.82	2881.96
324.884	2806.78
324.948	2735.85
325.012	2644.99
325.077	2523.57
