Data from 20250704_urea_1M_MAYP1162681_11-32-02-661.txt Node
Date: Fri Jul 04 11:32:02 BST 2025
User: adleo
Spectrometer: MAYP116268
Trigger mode: 0
Integration Time (sec): 1.000000E0
Scans to average: 1
Electric dark correction enabled: true
Nonlinearity correction enabled: true
Boxcar width: 10
XAxis mode: Wavelengths
Number of Pixels in Spectrum: 2068
>>>>>Begin Spectral Data<<<<<
179.565	1253.19
179.642	1313.94
179.718	1359.28
179.795	1398.99
179.871	1431.75
179.948	1447.69
180.024	1468.44
180.101	1494.32
180.177	1510.02
180.254	1536.57
180.33	1557.98
180.407	1614.72
180.483	1713.59
180.56	1807
180.636	1893.45
180.712	1883.23
180.789	1895.4
180.865	1910.75
180.942	1917.74
181.018	1926.1
181.095	1943.18
181.171	1947.03
181.248	1947.98
181.324	1964.96
181.4	1971.62
181.477	1982.79
181.553	1997.53
181.63	2019.26
181.706	2033.48
181.782	2042.04
181.859	2039.47
181.935	2046.65
182.011	2043.71
182.088	2061.21
182.164	2079.95
182.24	2095.12
182.317	2106.49
182.393	2104.54
182.469	2115.24
182.546	2128.51
182.622	2136.03
182.698	2126.56
182.775	2141.21
182.851	2154.48
182.927	2143.35
183.003	2140.31
183.08	2135.31
183.156	2145.16
183.232	2141.11
183.308	2130.27
183.385	2140.16
183.461	2159.67
183.537	2161.05
183.613	2175.08
183.69	2166.9
183.766	2157.62
183.842	2165.47
183.918	2166.9
183.995	2180.45
184.071	2184.83
184.147	2178.36
184.223	2163.29
184.299	2179.23
184.375	2166.76
184.452	2173.71
184.528	2224.34
184.604	2234.14
184.68	2244.84
184.756	2250.46
184.832	2256.97
184.908	2261.11
184.985	2259.02
185.061	2240.27
185.137	2248.41
185.213	2237.13
185.289	2237.04
185.365	2232.09
185.441	2230.85
185.517	2245.66
185.593	2240.19
185.669	2236.85
185.745	2250.18
185.822	2268.25
185.898	2256.11
185.974	2263.82
186.05	2253.97
186.126	2220.71
186.202	2214.67
186.278	2213.24
186.354	2205.77
186.43	2212.29
186.506	2213.29
186.582	2211.44
186.658	2218.62
186.734	2200.59
186.81	2199.78
186.886	2204.44
186.962	2217.29
187.038	2215.58
187.114	2206.39
187.19	2214.05
187.266	2204.96
187.341	2203.3
187.417	2198.02
187.493	2200.01
187.569	2207.01
187.645	2203.54
187.721	2192.92
187.797	2199.73
187.873	2205.87
187.949	2201.58
188.025	2192.4
188.101	2193.21
188.176	2197.82
188.252	2196.92
188.328	2203.72
188.404	2205.29
188.48	2200.63
188.556	2192.11
188.632	2191.63
188.707	2193.06
188.783	2192.11
188.859	2188.11
188.935	2178.17
189.011	2183.64
189.086	2177.36
189.162	2169.13
189.238	2163.66
189.314	2161.57
189.39	2156.14
189.465	2148.01
189.541	2163.9
189.617	2149.72
189.693	2145.97
189.768	2149.82
189.844	2172.62
189.92	2166.15
189.996	2179.57
190.071	2187.95
190.147	2184.76
190.223	2190.56
190.298	2183.47
190.374	2169.68
190.45	2183.09
190.526	2192.32
190.601	2187.75
190.677	2191.51
190.753	2215.69
190.828	2222.07
190.904	2239.68
190.98	2254.95
191.055	2263.04
191.131	2253
191.207	2275.17
191.282	2284.68
191.358	2275.69
191.433	2258.84
191.509	2271.44
191.585	2263.5
191.66	2264.92
191.736	2274.58
191.811	2264.88
191.887	2281.54
191.963	2304.38
192.038	2307.95
192.114	2307.57
192.189	2311.28
192.265	2305.38
192.34	2285.34
192.416	2282.82
192.491	2274.86
192.567	2277.44
192.642	2282.34
192.718	2284.34
192.793	2270.73
192.869	2264.54
192.944	2268.54
193.02	2275.49
193.095	2280.29
193.171	2286.1
193.246	2288.76
193.322	2285.77
193.397	2288.1
193.473	2271.53
193.548	2255.06
193.624	2261.3
193.699	2260.78
193.775	2276.58
193.85	2279.1
193.925	2286.67
194.001	2285.29
194.076	2276.2
194.152	2268.25
194.227	2257.26
194.302	2245.7
194.378	2252.74
194.453	2252.41
194.529	2265.21
194.604	2250.08
194.679	2241.7
194.755	2224.53
194.83	2236
194.905	2233.62
194.981	2243.38
195.056	2238.43
195.131	2244.48
195.207	2240.91
195.282	2232.06
195.357	2211.49
195.433	2227.39
195.508	2216.63
195.583	2224.2
195.659	2240.23
195.734	2246.09
195.809	2248.71
195.884	2259.84
195.96	2260.17
196.035	2272.88
196.11	2267.73
196.185	2280.72
196.261	2283.01
196.336	2316.23
196.411	2303.66
196.486	2309.75
196.561	2305.32
196.637	2314.93
196.712	2330.69
196.787	2335.17
196.862	2350.21
196.937	2362.05
197.013	2366.15
197.088	2378.33
197.163	2402
197.238	2420.29
197.313	2418.48
197.388	2432.14
197.464	2461.86
197.539	2468.91
197.614	2463.05
197.689	2476.81
197.764	2495.62
197.839	2519.05
197.914	2510.62
197.989	2530.19
198.065	2543.86
198.14	2595.28
198.215	2622.52
198.29	2633.2
198.365	2646.58
198.44	2657.06
198.515	2687.69
198.59	2702.51
198.665	2730.42
198.74	2738.05
198.815	2739.19
198.89	2764.01
198.965	2796.57
199.04	2792.33
199.115	2812.53
199.19	2856.45
199.265	2858.98
199.34	2868.56
199.415	2900.79
199.49	2924.57
199.565	2933.81
199.64	2959.22
199.715	2952.01
199.79	2960.45
199.865	2967.55
199.94	2964.22
200.015	2995.5
200.09	3001.31
200.165	3009.66
200.24	3015.62
200.315	3063.58
200.39	3077.41
200.464	3084.37
200.539	3081.56
200.614	3099.05
200.689	3118.84
200.764	3128
200.839	3150.31
200.914	3153.98
200.989	3144.63
201.063	3157.98
201.138	3141.4
201.213	3140.64
201.288	3124.33
201.363	3128.38
201.438	3128.62
201.512	3146.5
201.587	3133.05
201.662	3130.57
201.737	3142.58
201.812	3146.49
201.886	3107.68
201.961	3118.75
202.036	3104.45
202.111	3100.26
202.186	3068.04
202.26	3051.11
202.335	3024.21
202.41	3013.53
202.485	2996.14
202.559	2975.59
202.634	2948.65
202.709	2957.94
202.784	2939.3
202.858	2937.25
202.933	2919.28
203.008	2911.22
203.082	2892.11
203.157	2888.25
203.232	2849.8
203.306	2828.21
203.381	2797.22
203.456	2772.3
203.53	2746.92
203.605	2728.35
203.68	2705.14
203.754	2700.05
203.829	2684.65
203.904	2668.17
203.978	2655.78
204.053	2664.26
204.127	2650.07
204.202	2648.45
204.277	2632.35
204.351	2624.92
204.426	2616.53
204.5	2606.34
204.575	2572.3
204.65	2582.25
204.724	2574.34
204.799	2581.82
204.873	2577.48
204.948	2577.05
205.022	2564.82
205.097	2561.72
205.171	2575.29
205.246	2584.96
205.32	2585.77
205.395	2585.34
205.469	2573.97
205.544	2580.45
205.618	2557.01
205.693	2569.73
205.767	2554.87
205.842	2573.54
205.916	2566.93
205.991	2556.54
206.065	2560.45
206.14	2575.72
206.214	2572.48
206.289	2564.39
206.363	2577.48
206.438	2579.29
206.512	2585.68
206.586	2608.49
206.661	2612.21
206.735	2592.21
206.81	2592.64
206.884	2605.45
206.958	2592.26
207.033	2610.49
207.107	2618.26
207.181	2652.18
207.256	2648.23
207.33	2671.66
207.405	2685.59
207.479	2707.21
207.553	2717.4
207.628	2700.74
207.702	2715.36
207.776	2709.26
207.851	2711.98
207.925	2727.14
207.999	2724.71
208.073	2725.18
208.148	2724.66
208.222	2713.7
208.296	2745.04
208.371	2760.72
208.445	2771.16
208.519	2803.03
208.593	2815.03
208.668	2812.41
208.742	2817.47
208.816	2820.18
208.89	2835.06
208.965	2837.78
209.039	2846.74
209.113	2870.1
209.187	2898.2
209.261	2897.86
209.336	2921.51
209.41	2947.1
209.484	2953.88
209.558	2981.43
209.632	2997.97
209.707	3014.28
209.781	3046.55
209.855	3072.5
209.929	3103.39
210.003	3125.66
210.077	3136.82
210.151	3197.83
210.226	3242.92
210.3	3285.52
210.374	3327.63
210.448	3349.78
210.522	3376.94
210.596	3408.68
210.67	3437.65
210.744	3510.81
210.818	3572.32
210.892	3623.57
210.966	3652.64
211.041	3702.88
211.115	3738.89
211.189	3805.14
211.263	3866.33
211.337	3917.5
211.411	3976.53
211.485	4018.66
211.559	4080.54
211.633	4137.92
211.707	4165.61
211.781	4236.2
211.855	4267.34
211.929	4323.99
212.003	4374.38
212.077	4462.97
212.151	4555.11
212.225	4650.56
212.299	4723.28
212.373	4797.53
212.447	4886.2
212.52	5012.61
212.594	5109.68
212.668	5219.71
212.742	5311.92
212.816	5411.81
212.89	5514.19
212.964	5631.13
213.038	5759.12
213.112	5892.73
213.186	6038.45
213.26	6146.84
213.333	6230.63
213.407	6374.5
213.481	6516.02
213.555	6672.29
213.629	6799.59
213.703	6924.3
213.777	7068.33
213.85	7197.94
213.924	7382.47
213.998	7537.09
214.072	7685.61
214.146	7831.21
214.219	7990.98
214.293	8146.04
214.367	8315.51
214.441	8491.16
214.515	8647.82
214.588	8782.87
214.662	8913.93
214.736	9060.99
214.81	9240.22
214.883	9427.42
214.957	9584.1
215.031	9741.88
215.105	9887.64
215.178	10055.26
215.252	10222.45
215.326	10370.97
215.4	10526.43
215.473	10655.75
215.547	10802.57
215.621	10958.61
215.694	11136.72
215.768	11284.52
215.842	11440.36
215.915	11596.76
215.989	11742.99
216.063	11896.41
216.136	12065.68
216.21	12239.14
216.284	12416.38
216.357	12578.72
216.431	12743.81
216.504	12912.91
216.578	13098.4
216.652	13271.3
216.725	13421.36
216.799	13590.99
216.873	13748.38
216.946	13918.74
217.02	14060.8
217.093	14211.25
217.167	14338.46
217.24	14477
217.314	14621.76
217.387	14765.99
217.461	14903.9
217.535	15058.48
217.608	15184.1
217.682	15322.58
217.755	15461.94
217.829	15584.46
217.902	15728.92
217.976	15849.56
218.049	15969.82
218.123	16075.23
218.196	16214.19
218.27	16329.19
218.343	16436.47
218.417	16558.31
218.49	16671.24
218.563	16813.95
218.637	16931.54
218.71	17071.64
218.784	17194.44
218.857	17317.77
218.931	17427.17
219.004	17537.15
219.077	17655.12
219.151	17770.64
219.224	17877.53
219.298	17979.12
219.371	18081.96
219.444	18158.44
219.518	18259.88
219.591	18358.39
219.665	18498.48
219.738	18583.72
219.811	18674.13
219.885	18772.78
219.958	18863.42
220.031	18946.65
220.105	19029.48
220.178	19125.48
220.251	19197.43
220.325	19283.25
220.398	19357.61
220.471	19441.46
220.544	19524.59
220.618	19584.49
220.691	19661.4
220.764	19726.41
220.838	19808.48
220.911	19880
220.984	19969.73
221.057	20047.32
221.131	20109.19
221.204	20130.88
221.277	20213.87
221.35	20306.44
221.424	20356.03
221.497	20419.6
221.57	20470.88
221.643	20529.04
221.716	20585.19
221.79	20626.15
221.863	20664.33
221.936	20708.33
222.009	20755.36
222.082	20802.06
222.155	20831.12
222.229	20876.67
222.302	20917.87
222.375	20948.33
222.448	20995.18
222.521	21026.07
222.594	21041.88
222.667	21069.59
222.74	21110.08
222.814	21125.12
222.887	21141.31
222.96	21182.28
223.033	21215.15
223.106	21253.71
223.179	21284.22
223.252	21296.41
223.325	21330.15
223.398	21354.39
223.471	21386.06
223.544	21408.28
223.617	21438.02
223.69	21470.94
223.763	21488.39
223.837	21512.39
223.91	21536.68
223.983	21528.49
224.056	21537.5
224.129	21560.49
224.202	21587.92
224.275	21601.99
224.348	21604.26
224.42	21607.63
224.493	21598.95
224.566	21593.99
224.639	21612.55
224.712	21604.01
224.785	21611.1
224.858	21614.76
224.931	21610.38
225.004	21607.29
225.077	21608.3
225.15	21577.94
225.223	21574.47
225.296	21599.73
225.369	21583.24
225.442	21574.42
225.514	21583.82
225.587	21581.56
225.66	21581.99
225.733	21575
225.806	21568.97
225.879	21569.84
225.952	21554.08
226.025	21572.06
226.097	21586.18
226.17	21563.43
226.243	21544.35
226.316	21542.13
226.389	21532.15
226.461	21528.01
226.534	21526.27
226.607	21527.09
226.68	21544.44
226.753	21542.85
226.825	21506.22
226.898	21518.75
226.971	21505.35
227.044	21506.99
227.117	21501.69
227.189	21504.39
227.262	21505.83
227.335	21503.23
227.407	21482.41
227.48	21481.06
227.553	21460.28
227.626	21438.83
227.698	21426.06
227.771	21426.35
227.844	21406.64
227.916	21393.38
227.989	21367.16
228.062	21349.48
228.134	21350.97
228.207	21338.77
228.28	21320.85
228.352	21310.72
228.425	21292.94
228.498	21286.34
228.57	21249.22
228.643	21240.26
228.716	21212.35
228.788	21189.75
228.861	21165.5
228.934	21170.9
229.006	21149.55
229.079	21129.89
229.151	21108.1
229.224	21083.14
229.296	21068.19
229.369	21076.82
229.442	21072.92
229.514	21059.47
229.587	21049.3
229.659	21017.01
229.732	20997.64
229.804	20991.08
229.877	20994.17
229.949	20991.76
230.022	21004.14
230.094	20991.32
230.167	20976.48
230.239	20949.01
230.312	20936.77
230.384	20941.83
230.457	20922.45
230.529	20915.08
230.602	20900.28
230.674	20884.04
230.747	20883.17
230.819	20880.67
230.892	20836.42
230.964	20829.15
231.037	20817.34
231.109	20798.54
231.181	20782.01
231.254	20751.94
231.326	20721.63
231.399	20692.52
231.471	20662.78
231.544	20611.16
231.616	20608.13
231.688	20591.59
231.761	20570.73
231.833	20541.14
231.905	20497.33
231.978	20472.12
232.05	20443.35
232.122	20426.44
232.195	20406.87
232.267	20396.27
232.339	20359.69
232.412	20348.12
232.484	20315.35
232.556	20283.21
232.629	20282.68
232.701	20270.39
232.773	20239.02
232.846	20207.93
232.918	20189.38
232.99	20164.56
233.062	20146.15
233.135	20123.69
233.207	20081.29
233.279	20066.83
233.351	20042.06
233.424	20018.11
233.496	19989.82
233.568	19988.9
233.64	19946.98
233.713	19922.79
233.785	19887.94
233.857	19862.84
233.929	19824.96
234.001	19813.1
234.074	19809.15
234.146	19766.6
234.218	19733.35
234.29	19718.75
234.362	19688.43
234.434	19637.88
234.507	19598.41
234.579	19558.71
234.651	19519.43
234.723	19494.03
234.795	19477.79
234.867	19464.45
234.939	19446.37
235.012	19420.21
235.084	19389.37
235.156	19377.8
235.228	19341.61
235.3	19309.42
235.372	19285.42
235.444	19272.17
235.516	19222.05
235.588	19189.28
235.66	19157.67
235.732	19119.45
235.804	19155.02
235.876	19141.96
235.948	19140.18
236.02	19112.71
236.092	19080.66
236.164	19047.27
236.236	19017.63
236.308	18970.26
236.38	18935.08
236.452	18889.06
236.524	18863.95
236.596	18851.52
236.668	18833.21
236.74	18808
236.812	18783.48
236.884	18762.22
236.956	18725.6
237.028	18693.84
237.1	18652.74
237.172	18634.81
237.244	18615.92
237.316	18529.66
237.388	18492.89
237.46	18445.86
237.532	18438.34
237.604	18403.3
237.675	18393.95
237.747	18379.79
237.819	18345.81
237.891	18314.63
237.963	18283.79
238.035	18243.7
238.107	18169.05
238.178	18139.22
238.25	18108.33
238.322	18101.68
238.394	18056.52
238.466	18022.94
238.538	17991.13
238.609	17971.23
238.681	17929.69
238.753	17900.14
238.825	17875.66
238.897	17847.18
238.968	17839.95
239.04	17790.41
239.112	17797.45
239.184	17751.09
239.255	17720.25
239.327	17701.84
239.399	17670.17
239.471	17652.63
239.542	17631.57
239.614	17626.46
239.686	17568.97
239.758	17543.86
239.829	17495.91
239.901	17475.96
239.973	17449.98
240.044	17428.06
240.116	17393.93
240.188	17357.12
240.259	17328.97
240.331	17288.63
240.403	17261.4
240.474	17205.84
240.546	17166.56
240.618	17106.41
240.689	17070.22
240.761	17032.29
240.833	17011.57
240.904	16976.19
240.976	16945.25
241.048	16913.39
241.119	16884.77
241.191	16867.95
241.262	16854.55
241.334	16821.29
241.405	16786.11
241.477	16753.97
241.549	16720.81
241.62	16691.12
241.692	16673.19
241.763	16647.26
241.835	16620.08
241.906	16588.75
241.978	16553.13
242.049	16536.7
242.121	16520.84
242.192	16511.35
242.264	16473.42
242.335	16423.82
242.407	16403.05
242.478	16370.61
242.55	16347.33
242.621	16312.92
242.693	16271.28
242.764	16237.15
242.836	16203.61
242.907	16183.36
242.979	16148.76
243.05	16124.03
243.122	16099.79
243.193	16055.88
243.264	16002.04
243.336	15970.04
243.407	15955.63
243.479	15939.91
243.55	15912.78
243.622	15880.92
243.693	15846.65
243.764	15829.54
243.836	15796.81
243.907	15772.71
243.978	15739.02
244.05	15711.16
244.121	15664.11
244.192	15647.77
244.264	15597.55
244.335	15562.89
244.407	15507.36
244.478	15484.71
244.549	15449.14
244.62	15406.77
244.692	15374.81
244.763	15364.78
244.834	15330.32
244.906	15290.31
244.977	15264.62
245.048	15249.05
245.119	15214.2
245.191	15177.86
245.262	15130.81
245.333	15111.87
245.405	15074.27
245.476	15046.26
245.547	15015.17
245.618	14993.34
245.689	14971.98
245.761	14948.75
245.832	14923.35
245.903	14910.52
245.974	14886.76
246.045	14861.6
246.117	14849.88
246.188	14816.14
246.259	14773.19
246.33	14744.85
246.401	14710.86
246.473	14665.84
246.544	14634.75
246.615	14614.12
246.686	14582.49
246.757	14565.91
246.828	14531.93
246.899	14513.75
246.97	14472.2
247.042	14441.83
247.113	14419.22
247.184	14405.92
247.255	14378.88
247.326	14355.78
247.397	14329.03
247.468	14295.82
247.539	14269.4
247.61	14226.35
247.681	14214.35
247.752	14201.24
247.823	14166.67
247.894	14145.56
247.965	14113.07
248.037	14080.1
248.108	14043.94
248.179	14020.85
248.25	13996.22
248.321	13974.96
248.392	13947
248.463	13944.44
248.534	13912.24
248.605	13904.48
248.675	13875.03
248.746	13853.62
248.817	13835.02
248.888	13813.95
248.959	13777.36
249.03	13753.4
249.101	13731.32
249.172	13697.43
249.243	13642.96
249.314	13638.33
249.385	13607.53
249.456	13593.94
249.527	13565.98
249.598	13543.17
249.669	13514.54
249.739	13494.53
249.81	13482.96
249.881	13436.59
249.952	13416.05
250.023	13393.93
250.094	13347.07
250.165	13312.22
250.235	13283.24
250.306	13262.03
250.377	13226.12
250.448	13202.4
250.519	13162.1
250.59	13157.96
250.66	13128.98
250.731	13134.62
250.802	13114.28
250.873	13096.59
250.944	13075.18
251.014	13044.91
251.085	13047.9
251.156	13033.05
251.227	13018.88
251.297	13002.1
251.368	12991.5
251.439	12978
251.51	12972.46
251.58	12944.35
251.651	12913.31
251.722	12905.16
251.792	12858.64
251.863	12833.34
251.934	12832.23
252.005	12840.42
252.075	12808.32
252.146	12808.61
252.217	12797.37
252.287	12775.01
252.358	12754.23
252.429	12750.13
252.499	12724.87
252.57	12706.56
252.641	12696.1
252.711	12672.91
252.782	12641.19
252.852	12645.67
252.923	12621.14
252.994	12596.31
253.064	12587.54
253.135	12560.74
253.205	12539.91
253.276	12544.49
253.347	12547.14
253.417	12521.83
253.488	12490.21
253.558	12474.4
253.629	12443.74
253.699	12424.65
253.77	12413.9
253.841	12389.85
253.911	12376.6
253.982	12366.33
254.052	12351.63
254.123	12337.21
254.193	12320.82
254.264	12335.09
254.334	12302.41
254.405	12270.74
254.475	12241.14
254.546	12222.34
254.616	12221.72
254.687	12205.09
254.757	12188.07
254.827	12167.97
254.898	12151.2
254.968	12139.63
255.039	12112.54
255.109	12106.23
255.18	12077.26
255.25	12036.24
255.321	12035.32
255.391	11995.46
255.461	11997.92
255.532	11956.61
255.602	11932.02
255.673	11892.26
255.743	11862.52
255.813	11820.63
255.884	11810.71
255.954	11804.39
256.024	11801.4
256.095	11783.52
256.165	11744.91
256.235	11735.23
256.306	11706.35
256.376	11704.33
256.446	11690.69
256.517	11675.12
256.587	11674.4
256.657	11657.14
256.728	11636.66
256.798	11616.13
256.868	11598.58
256.938	11570.73
257.009	11561.28
257.079	11546.24
257.149	11562.63
257.219	11527.15
257.29	11511.69
257.36	11475.35
257.43	11466.48
257.5	11431.63
257.571	11408.5
257.641	11400.06
257.711	11363.53
257.781	11353.94
257.852	11341.51
257.922	11301.6
257.992	11291.05
258.062	11267.57
258.132	11261.5
258.202	11252.54
258.273	11230.71
258.343	11230.27
258.413	11200.06
258.483	11184.83
258.553	11162.71
258.623	11135.33
258.693	11117.5
258.764	11123.38
258.834	11130.27
258.904	11111.76
258.974	11083.24
259.044	11064.06
259.114	11056.25
259.184	11050.13
259.254	11029.02
259.324	10989.22
259.394	10987.58
259.464	10990.08
259.535	10965.84
259.605	10939.53
259.675	10911.78
259.745	10906.86
259.815	10884.69
259.885	10866.77
259.955	10883.11
260.025	10857.52
260.095	10839.26
260.165	10833.91
260.235	10833.09
260.305	10807.31
260.375	10774.74
260.445	10789.14
260.515	10792.13
260.585	10783.89
260.655	10765.63
260.725	10760.95
260.795	10754.79
260.865	10758.45
260.934	10727.66
261.004	10720.57
261.074	10708.91
261.144	10715.61
261.214	10707.56
261.284	10688.1
261.354	10685.06
261.424	10651.76
261.494	10651.86
261.564	10634.51
261.634	10623.33
261.703	10588.21
261.773	10583.05
261.843	10580.69
261.913	10555.35
261.983	10518.87
262.053	10510.15
262.123	10490.25
262.192	10459.37
262.262	10456.91
262.332	10424.15
262.402	10420.68
262.472	10403.77
262.541	10363.55
262.611	10361.47
262.681	10333.87
262.751	10327.89
262.821	10307.47
262.89	10276
262.96	10265.4
263.03	10274.46
263.1	10270.61
263.169	10263.33
263.239	10252.73
263.309	10252.16
263.379	10248.64
263.448	10240.55
263.518	10227.73
263.588	10216.65
263.657	10224.41
263.727	10215.54
263.797	10197.53
263.867	10178.64
263.936	10154.84
264.006	10163.61
264.076	10140.68
264.145	10133.69
264.215	10110.33
264.285	10109.27
264.354	10083.88
264.424	10062.59
264.494	10030.94
264.563	10004.35
264.633	10008.68
264.702	9992.21
264.772	9965.09
264.842	9947.65
264.911	9938.74
264.981	9913.83
265.05	9903.72
265.12	9886.86
265.19	9874.09
265.259	9873.13
265.329	9864.41
265.398	9851.22
265.468	9865.23
265.537	9847.99
265.607	9838.79
265.676	9838.89
265.746	9829.83
265.815	9825.88
265.885	9810.33
265.955	9784.66
266.024	9770.69
266.094	9728.98
266.163	9733.65
266.232	9735.38
266.302	9717.52
266.371	9708.99
266.441	9694.16
266.51	9689.58
266.58	9675.23
266.649	9650.23
266.719	9654.95
266.788	9647.44
266.858	9656.45
266.927	9612.67
266.996	9604.33
267.066	9597.01
267.135	9571.68
267.205	9567.11
267.274	9565.28
267.343	9571.2
267.413	9562.77
267.482	9568.12
267.552	9574.24
267.621	9545.72
267.69	9517.21
267.76	9514.81
267.829	9505.37
267.898	9498.58
267.968	9478.21
268.037	9483.55
268.106	9483.7
268.176	9454.61
268.245	9444.21
268.314	9426.77
268.384	9434.86
268.453	9428.22
268.522	9420.61
268.592	9427.73
268.661	9408.76
268.73	9396.87
268.799	9376.26
268.869	9390.08
268.938	9355.5
269.007	9340.72
269.076	9334.94
269.146	9335.28
269.215	9326.23
269.284	9334.8
269.353	9321.37
269.422	9306.39
269.492	9280.06
269.561	9247.75
269.63	9247.12
269.699	9231.04
269.768	9220.3
269.838	9214.76
269.907	9203.69
269.976	9176.2
270.045	9135.86
270.114	9131.14
270.183	9120.5
270.253	9118.86
270.322	9084.63
270.391	9078.85
270.46	9083.57
270.529	9080.54
270.598	9075.1
270.667	9061.14
270.736	9037.16
270.806	9028.88
270.875	9031.81
270.944	9027
271.013	9046.69
271.082	9031.04
271.151	9027.58
271.22	9000.72
271.289	8981.99
271.358	8976.26
271.427	8972.02
271.496	8973.66
271.565	8960.66
271.634	8954.59
271.703	8954.74
271.772	8962.73
271.841	8961.14
271.91	8941.79
271.979	8931.77
272.048	8912.86
272.117	8908.43
272.186	8889.89
272.255	8892.59
272.324	8899.81
272.393	8891.2
272.462	8868.76
272.531	8865.01
272.6	8855.62
272.669	8858.31
272.738	8849.84
272.807	8844.84
272.876	8826.6
272.945	8853.12
273.013	8855.77
273.082	8856.59
273.151	8831.6
273.22	8825.59
273.289	8814.61
273.358	8820.15
273.427	8807.97
273.496	8807.92
273.564	8806.62
273.633	8817.79
273.702	8799.69
273.771	8782.51
273.84	8781.35
273.909	8785.49
273.977	8788.19
274.046	8772.16
274.115	8787.51
274.184	8770.67
274.253	8763.69
274.322	8771.2
274.39	8735.63
274.459	8718.06
274.528	8690.29
274.597	8685.48
274.665	8680.66
274.734	8688.46
274.803	8680.42
274.872	8678.07
274.94	8664.4
275.009	8716.26
275.078	8696.43
275.147	8689.98
275.215	8684.97
275.284	8691.52
275.353	8677.47
275.421	8649.07
275.49	8667.26
275.559	8643.29
275.627	8643.25
275.696	8632.76
275.765	8636.61
275.833	8633.62
275.902	8630.64
275.971	8644.02
276.039	8658.17
276.108	8663.36
276.177	8654.75
276.245	8645.03
276.314	8640.89
276.383	8646.66
276.451	8588.59
276.52	8600.05
276.588	8610.25
276.657	8616.03
276.725	8592.25
276.794	8595.81
276.863	8608.52
276.931	8583.63
277	8593.26
277.068	8601.87
277.137	8620.69
277.205	8611.31
277.274	8634.41
277.342	8644.08
277.411	8625.65
277.48	8617.66
277.548	8610.06
277.617	8613.57
277.685	8603.95
277.754	8607.46
277.822	8598.85
277.89	8611.36
277.959	8595.53
278.027	8581.33
278.096	8569.92
278.164	8609.35
278.233	8597.46
278.301	8585.52
278.37	8594.09
278.438	8586.87
278.507	8589.04
278.575	8567.48
278.643	8569.35
278.712	8542.31
278.78	8530.23
278.849	8541.15
278.917	8547.69
278.985	8540.72
279.054	8541.29
279.122	8552.75
279.191	8548.17
279.259	8543.12
279.327	8521.13
279.396	8538.88
279.464	8536.33
279.532	8542.74
279.601	8533.83
279.669	8528.68
279.737	8540.33
279.806	8540.23
279.874	8549.28
279.942	8544.42
280.011	8537.15
280.079	8545.33
280.147	8566.75
280.215	8573.39
280.284	8568.87
280.352	8555.92
280.42	8564.58
280.488	8549.13
280.557	8542.3
280.625	8545.86
280.693	8551.15
280.761	8556.88
280.83	8542.59
280.898	8557.12
280.966	8536.53
281.034	8504.42
281.102	8489.9
281.171	8487.73
281.239	8495.53
281.307	8487.68
281.375	8481.67
281.443	8504.33
281.512	8497.02
281.58	8501.93
281.648	8483.5
281.716	8483.98
281.784	8483.69
281.852	8471.76
281.92	8481.04
281.989	8494.52
282.057	8480.8
282.125	8526.29
282.193	8526.2
282.261	8528.27
282.329	8525.71
282.397	8530.91
282.465	8531.68
282.533	8549.1
282.601	8539.14
282.67	8514.26
282.738	8506.8
282.806	8512.38
282.874	8499.34
282.942	8504.58
283.01	8495.15
283.078	8507.9
283.146	8504.68
283.214	8514.97
283.282	8525.56
283.35	8530.28
283.418	8519.98
283.486	8521.57
283.554	8468.96
283.622	8466.6
283.69	8461.93
283.758	8452.55
283.826	8458.95
283.894	8475.02
283.962	8501.06
284.03	8517.23
284.098	8526.8
284.165	8517.71
284.233	8516.46
284.301	8514
284.369	8507.65
284.437	8502.21
284.505	8496.34
284.573	8513.81
284.641	8497.69
284.709	8495.57
284.777	8482.82
284.845	8491.05
284.912	8499.71
284.98	8509.48
285.048	8502.11
285.116	8508.03
285.184	8524.4
285.252	8521.27
285.319	8504.43
285.387	8490.85
285.455	8467.66
285.523	8469.2
285.591	8469.97
285.659	8473.82
285.726	8487.82
285.794	8473.15
285.862	8469.78
285.93	8466.84
285.997	8458.04
286.065	8454.91
286.133	8449.76
286.201	8447.5
286.269	8435.08
286.336	8424.59
286.404	8421.85
286.472	8434.17
286.539	8411.22
286.607	8392.5
286.675	8393.32
286.743	8393.8
286.81	8388.22
286.878	8404.67
286.946	8401.21
287.013	8395.15
287.081	8393.08
287.149	8377.63
287.216	8397.12
287.284	8391.97
287.352	8397.16
287.419	8395.24
287.487	8413.67
287.555	8413.04
287.622	8414.78
287.69	8421.99
287.758	8434.02
287.825	8427.72
287.893	8414.2
287.96	8424.69
288.028	8439.65
288.096	8447.26
288.163	8453.61
288.231	8439.94
288.298	8435.66
288.366	8447.69
288.433	8457.5
288.501	8451.73
288.569	8452.16
288.636	8441.91
288.704	8459.96
288.771	8467.18
288.839	8455.44
288.906	8451.59
288.974	8461.4
289.041	8454.14
289.109	8441.05
289.176	8451.59
289.244	8453.32
289.311	8470.74
289.379	8482.58
289.446	8481.67
289.514	8479.89
289.581	8485.13
289.649	8489.51
289.716	8494.08
289.783	8482.29
289.851	8497.88
289.918	8495.76
289.986	8504.86
290.053	8515.16
290.121	8508.23
290.188	8507.22
290.255	8530.31
290.323	8526.7
290.39	8528.77
290.458	8540.8
290.525	8556.44
290.592	8543.98
290.66	8552.16
290.727	8541.09
290.794	8555
290.862	8553.7
290.929	8556.34
290.996	8554.18
291.064	8568.04
291.131	8579.73
291.198	8601.34
291.266	8600.33
291.333	8607.84
291.4	8612.89
291.468	8623.62
291.535	8620.4
291.602	8626.46
291.669	8630.84
291.737	8629.83
291.804	8623.1
291.871	8638.69
291.938	8647.11
292.006	8685.48
292.073	8697.65
292.14	8710.41
292.207	8702.9
292.275	8702.95
292.342	8712.28
292.409	8739.63
292.476	8770.1
292.543	8762.69
292.611	8760.81
292.678	8776.6
292.745	8801.05
292.812	8808.7
292.879	8808.6
292.946	8816.54
293.014	8828.53
293.081	8836.09
293.148	8854.95
293.215	8875.41
293.282	8863.52
293.349	8872.81
293.416	8849.46
293.484	8860.97
293.551	8872.52
293.618	8886.57
293.685	8910.4
293.752	8902.75
293.819	8897.07
293.886	8872.18
293.953	8881.37
294.02	8888.79
294.087	8892.4
294.154	8883.3
294.221	8900.44
294.288	8898.13
294.356	8916.13
294.423	8924.89
294.49	8916.85
294.557	8928.94
294.624	8917.05
294.691	8942.46
294.758	8941.02
294.825	8946.22
294.892	8936.88
294.959	8932.54
295.026	8941.69
295.093	8932.79
295.16	8936.3
295.226	8931.73
295.293	8963.16
295.36	8960.66
295.427	8978.33
295.494	8993.93
295.561	9005.39
295.628	9028.12
295.695	9047.85
295.762	9050.84
295.829	9056.62
295.896	9075.78
295.963	9084.97
296.03	9094.02
296.096	9099.08
296.163	9109.72
296.23	9125.41
296.297	9146.07
296.364	9149.63
296.431	9153.43
296.498	9154.06
296.564	9181.64
296.631	9190.93
296.698	9177.5
296.765	9203.35
296.832	9189.44
296.899	9174.46
296.965	9189.39
297.032	9165.12
297.099	9175.04
297.166	9179.47
297.233	9180
297.299	9165.6
297.366	9165.75
297.433	9169.26
297.5	9187.7
297.566	9188.14
297.633	9186.6
297.7	9186.5
297.767	9185.97
297.833	9195.65
297.9	9201.76
297.967	9182.26
298.033	9198.49
298.1	9224.93
298.167	9220.45
298.234	9222.18
298.3	9232.44
298.367	9229.4
298.434	9241.68
298.5	9239.95
298.567	9238.46
298.634	9234.17
298.7	9255.84
298.767	9254.73
298.834	9271.1
298.9	9255.11
298.967	9251.31
299.033	9262.29
299.1	9272.35
299.167	9286.36
299.233	9281.93
299.3	9295.8
299.366	9314.04
299.433	9324.49
299.5	9299.36
299.566	9300.95
299.633	9320.98
299.699	9330.32
299.766	9320.59
299.832	9321.8
299.899	9328.11
299.965	9333.69
300.032	9330.85
300.099	9339.81
300.165	9342.7
300.232	9341.64
300.298	9339.71
300.365	9356.71
300.431	9356.08
300.498	9348.67
300.564	9355.6
300.631	9364.32
300.697	9380.64
300.763	9380.06
300.83	9379.01
300.896	9389.45
300.963	9399.61
301.029	9408.33
301.096	9410.84
301.162	9428.02
301.229	9422.78
301.295	9406.31
301.361	9416.28
301.428	9420.27
301.494	9399.81
301.561	9407.27
301.627	9409.34
301.693	9418.92
301.76	9420.22
301.826	9417.58
301.892	9432.84
301.959	9437.66
302.025	9429.76
302.092	9418.68
302.158	9423.84
302.224	9423.11
302.291	9417.96
302.357	9417.96
302.423	9404.33
302.49	9398.84
302.556	9414.45
302.622	9415.07
302.688	9433.56
302.755	9444.3
302.821	9456.48
302.887	9474.93
302.954	9472.18
303.02	9476.71
303.086	9477.62
303.152	9472.9
303.219	9463.56
303.285	9470.45
303.351	9474.78
303.417	9485.43
303.483	9482.34
303.55	9479.6
303.616	9483.64
303.682	9483.4
303.748	9470.79
303.815	9486.2
303.881	9505.08
303.947	9487.35
304.013	9494.05
304.079	9486.68
304.145	9470.26
304.212	9465.49
304.278	9458.22
304.344	9451
304.41	9441.22
304.476	9438.04
304.542	9434.29
304.608	9441.75
304.674	9420.8
304.741	9418.49
304.807	9417.48
304.873	9417.38
304.939	9436.55
305.005	9416.32
305.071	9409.34
305.137	9417.29
305.203	9387
305.269	9374.72
305.335	9388.83
305.401	9380.45
305.467	9378.19
305.533	9387
305.599	9395.42
305.666	9400.43
305.732	9404.91
305.798	9414.54
305.864	9433.85
305.93	9433.81
305.996	9435.54
306.062	9437.03
306.128	9434.19
306.194	9417.72
306.259	9414.98
306.325	9407.46
306.391	9417.14
306.457	9429.71
306.523	9430.58
306.589	9459.81
306.655	9447.48
306.721	9431.54
306.787	9424.7
306.853	9440.74
306.919	9424.85
306.985	9411.46
307.051	9405.78
307.117	9394.8
307.183	9389.21
307.248	9368.94
307.314	9378.47
307.38	9384.11
307.446	9394.12
307.512	9380.88
307.578	9390.32
307.644	9384.98
307.709	9384.64
307.775	9379.05
307.841	9374.43
307.907	9372.65
307.973	9352.9
308.039	9358.73
308.104	9362
308.17	9360.03
308.236	9345.53
308.302	9346.06
308.368	9340.67
308.433	9338.41
308.499	9336.24
308.565	9326.23
308.631	9324.78
308.696	9304.46
308.762	9288.86
308.828	9280.48
308.894	9269.36
308.959	9243.02
309.025	9243.41
309.091	9236.72
309.156	9231.03
309.222	9232.96
309.288	9216.45
309.354	9193.67
309.419	9190.54
309.485	9174.37
309.551	9179.47
309.616	9162.38
309.682	9162.86
309.748	9156.22
309.813	9154.77
309.879	9141.1
309.945	9128.97
310.01	9117.41
310.076	9113.51
310.141	9111.49
310.207	9099.02
310.273	9095.94
310.338	9101.86
310.404	9078.99
310.469	9065.75
310.535	9054.82
310.601	9031.38
310.666	9044.76
310.732	9058.58
310.797	9046.3
310.863	9035.81
310.928	9024.73
310.994	9022.95
311.059	9018.23
311.125	9015.39
311.191	9026.13
311.256	9019.97
311.322	9030.42
311.387	9017.27
311.453	9410.05
311.518	9381.12
311.584	9378.62
311.649	9382.13
311.715	9371.88
311.78	9373.04
311.846	9360.66
311.911	9367.4
311.976	9374.24
312.042	9352.33
312.107	9338.9
312.173	9324.85
312.238	9323.84
312.304	9321.04
312.369	9314.54
312.434	9295.48
312.5	9286.53
312.565	9252.39
312.631	9258.22
312.696	9249.84
312.761	9250.42
312.827	8851.19
312.892	8889.22
312.958	8884.94
313.023	8883.44
313.088	8882.05
313.154	8865.93
313.219	8856.49
313.284	8839.4
313.35	8837.57
313.415	8828.33
313.48	8820.15
313.546	8822.6
313.611	8829.44
313.676	8821.01
313.741	8811
313.807	8820.25
313.872	8821.4
313.937	8822.22
314.003	8835.31
314.068	8834.54
314.133	8840.99
314.198	8828.86
314.264	8810.23
314.329	8797.76
314.394	8793.87
314.459	8794.39
314.525	8824.62
314.59	8821.97
314.655	8815.38
314.72	8812.83
314.785	8820.63
314.851	8809.7
314.916	8796.9
314.981	8780.82
315.046	8772.54
315.111	8758.16
315.176	8746.07
315.242	8752.52
315.307	8750.31
315.372	8722.25
315.437	8699.24
315.502	8690.34
315.567	8705.07
315.632	8687.21
315.698	8693.08
315.763	8688.51
315.828	8677.44
315.893	8664.97
315.958	8659.77
316.023	8651.01
316.088	8632.29
316.153	8604.86
316.218	8607.27
316.283	8592.69
316.348	8575.46
316.413	8572.62
316.479	8564.83
316.544	8536.29
316.609	8505.25
316.674	8469.7
316.739	8442.18
316.804	8422.26
316.869	8384.83
316.934	8345.9
316.999	8318.42
317.064	8264.64
317.129	8216.62
317.194	8180.97
317.259	8136.56
317.324	8087.26
317.389	8048.06
317.454	8014.34
317.518	7986.11
317.583	7959.16
317.648	7936.32
317.713	7903.18
317.778	7844.5
317.843	7820.74
317.908	7780.45
317.973	7745.15
318.038	7722.16
318.103	7683.56
318.168	7649.37
318.233	7627.11
318.297	7577.15
318.362	7539.65
318.427	7504.18
318.492	7490.77
318.557	7446.07
318.622	7421.12
318.687	7401.7
318.751	7362.58
318.816	7327.82
318.881	7294.52
318.946	7241.31
319.011	7196.9
319.075	7155.96
319.14	7124.54
319.205	7074.94
319.27	7041.89
319.335	6992.36
319.399	6950.8
319.464	6925.53
319.529	6879.18
319.594	6835.32
319.658	6809.47
319.723	6767.06
319.788	6741.75
319.853	6687.08
319.917	6657.32
319.982	6601.75
320.047	6564.1
320.112	6537.54
320.176	6489
320.241	6454.04
320.306	6428.31
320.37	6386.69
320.435	6359.37
320.5	6333.21
320.564	6298.36
320.629	6260.98
320.694	6234.68
320.758	6197.15
320.823	6155.21
320.888	6128.15
320.952	6081.47
321.017	6039.43
321.082	6004.13
321.146	5968
321.211	5930.67
321.275	5894.08
321.34	5850.87
321.405	5807.9
321.469	5765.21
321.534	5725.56
321.598	5674.55
321.663	5641.5
321.727	5611.29
321.792	5560.13
321.857	5514.49
321.921	5473.69
321.986	5429.89
322.05	5373.73
322.115	5336.35
322.179	5294.61
322.244	5240.05
322.308	5205.84
322.373	5160.99
322.437	5118.17
322.502	5093.73
322.566	5046.35
322.631	5009.95
322.695	4973.04
322.76	4930.52
322.824	4894.79
322.889	4853.86
322.953	4809.06
323.018	4743.23
323.082	4683.21
323.146	4635.31
323.211	4585.59
323.275	4543.9
323.34	4502.72
323.404	4469.81
323.468	4421.73
323.533	4377.29
323.597	4334.31
323.662	4284.85
323.726	4251.66
323.79	4206.04
323.855	4142.37
323.919	4097
323.983	4051.01
324.048	3989.33
324.112	4145.06
324.177	4016.73
324.241	3809.49
324.305	3609.75
324.37	3410.88
324.434	3217.54
324.498	3174.83
324.562	3125.03
324.627	3066.07
324.691	3012.16
324.755	2948.81
324.82	2878.42
324.884	2804.72
324.948	2734.11
325.012	2642.28
325.077	2517.61
