Data from 20250704_urea_0.5M_MAYP1162681_11-04-57-767.txt Node
Date: Fri Jul 04 11:04:57 BST 2025
User: adleo
Spectrometer: MAYP116268
Trigger mode: 0
Integration Time (sec): 1.000000E0
Scans to average: 1
Electric dark correction enabled: true
Nonlinearity correction enabled: true
Boxcar width: 10
XAxis mode: Wavelengths
Number of Pixels in Spectrum: 2068
>>>>>Begin Spectral Data<<<<<
179.565	1232.4
179.642	1291.47
179.718	1340.15
179.795	1380.88
179.871	1413.44
179.948	1431.96
180.024	1451.41
180.101	1476.79
180.177	1491.36
180.254	1513.36
180.33	1535.49
180.407	1593.94
180.483	1690.96
180.56	1783.46
180.636	1869.3
180.712	1858.03
180.789	1870.49
180.865	1881.32
180.942	1892.45
181.018	1902.76
181.095	1915.7
181.171	1920.07
181.248	1919.98
181.324	1933.48
181.4	1939.52
181.477	1951.93
181.553	1964.53
181.63	1985.45
181.706	1999.53
181.782	2006.71
181.859	2005.28
181.935	2011.89
182.011	2004
182.088	2020.97
182.164	2042.38
182.24	2056.5
182.317	2067.87
182.393	2065.78
182.469	2079.09
182.546	2090.75
182.622	2094.65
182.698	2087.89
182.775	2096.59
182.851	2111.01
182.927	2101.26
183.003	2101.59
183.08	2095.83
183.156	2102.59
183.232	2100.59
183.308	2089.79
183.385	2097.73
183.461	2118.19
183.537	2120.52
183.613	2134.83
183.69	2126.6
183.766	2112.47
183.842	2116.99
183.918	2119.8
183.995	2131.69
184.071	2137.35
184.147	2131.83
184.223	2120.37
184.299	2131.7
184.375	2124.28
184.452	2130.13
184.528	2185.33
184.604	2191.66
184.68	2203.36
184.756	2216.25
184.832	2220.73
184.908	2225.62
184.985	2224.44
185.061	2206.55
185.137	2214.45
185.213	2204.79
185.289	2205.84
185.365	2201.08
185.441	2201.56
185.517	2215.5
185.593	2213.46
185.669	2210.65
185.745	2220.88
185.822	2240.9
185.898	2235.09
185.974	2243.51
186.05	2235.57
186.126	2197.35
186.202	2190.12
186.278	2185.27
186.354	2172.23
186.43	2177.99
186.506	2180.75
186.582	2183.98
186.658	2194.64
186.734	2173.99
186.81	2177.08
186.886	2178.99
186.962	2193.54
187.038	2191.59
187.114	2184.88
187.19	2192.02
187.266	2183.6
187.341	2186.12
187.417	2175.61
187.493	2174.47
187.569	2176.8
187.645	2172.71
187.721	2160.48
187.797	2170.66
187.873	2171.23
187.949	2169.47
188.025	2165.28
188.101	2164.66
188.176	2169.89
188.252	2162.71
188.328	2173.27
188.404	2172.46
188.48	2169.94
188.556	2160.42
188.632	2160.61
188.707	2162.66
188.783	2159.9
188.859	2154.05
188.935	2142.2
189.011	2151.24
189.086	2146.53
189.162	2140.11
189.238	2137.54
189.314	2136.73
189.39	2130.6
189.465	2129.17
189.541	2142.35
189.617	2126.08
189.693	2118.66
189.768	2118.61
189.844	2145.93
189.92	2135.33
189.996	2145.6
190.071	2157.26
190.147	2158.12
190.223	2169.25
190.298	2160.16
190.374	2146.13
190.45	2158.88
190.526	2167.2
190.601	2161.26
190.677	2164.49
190.753	2192.48
190.828	2193.67
190.904	2208.56
190.98	2222.6
191.055	2234.21
191.131	2227.31
191.207	2248.67
191.282	2259.71
191.358	2251.91
191.433	2233.63
191.509	2248.51
191.585	2245.28
191.66	2243.37
191.736	2249.75
191.811	2237.71
191.887	2254.18
191.963	2280.16
192.038	2285.06
192.114	2286.63
192.189	2291.81
192.265	2286.35
192.34	2259.5
192.416	2259.5
192.491	2256.36
192.567	2257.21
192.642	2256.64
192.718	2257.21
192.793	2245.03
192.869	2241.8
192.944	2244.46
193.02	2253.22
193.095	2253.98
193.171	2256.74
193.246	2258.69
193.322	2255.6
193.397	2255.83
193.473	2238.84
193.548	2219.28
193.624	2224.47
193.699	2222.19
193.775	2235.13
193.85	2237.56
193.925	2249.21
194.001	2247.88
194.076	2240.89
194.152	2232.7
194.227	2226.42
194.302	2213.29
194.378	2216.62
194.453	2215.67
194.529	2228.14
194.604	2213.34
194.679	2207.11
194.755	2189.51
194.83	2199.08
194.905	2201.03
194.981	2211.73
195.056	2205.17
195.131	2212.07
195.207	2207.93
195.282	2198.13
195.357	2180.57
195.433	2194.93
195.508	2181.9
195.583	2189.17
195.659	2203.31
195.734	2211.54
195.809	2211.83
195.884	2222.72
195.96	2223.34
196.035	2236.38
196.11	2234.43
196.185	2248.94
196.261	2254.41
196.336	2287.53
196.411	2277.54
196.486	2279.53
196.561	2272.4
196.637	2283.91
196.712	2299.95
196.787	2306.9
196.862	2323.46
196.937	2334.12
197.013	2341.26
197.088	2357.53
197.163	2383.72
197.238	2401.87
197.313	2400.11
197.388	2413.39
197.464	2444.34
197.539	2451.15
197.614	2444.77
197.689	2458.77
197.764	2475.06
197.839	2495.58
197.914	2486.67
197.989	2506
198.065	2520.38
198.14	2572.08
198.215	2597.42
198.29	2609.18
198.365	2619.76
198.44	2628.04
198.515	2655.86
198.59	2669.82
198.665	2694.64
198.74	2701.88
198.815	2698.17
198.89	2719.22
198.965	2752.06
199.04	2748.34
199.115	2767.25
199.19	2808.12
199.265	2808.89
199.34	2819.47
199.415	2854.08
199.49	2880.14
199.565	2893.77
199.64	2915.89
199.715	2914.31
199.79	2921.08
199.865	2928.52
199.94	2931.19
200.015	2966.32
200.09	2974.57
200.165	2982.43
200.24	2991.02
200.315	3032.05
200.39	3050.31
200.464	3060.09
200.539	3057.18
200.614	3075.34
200.689	3102.19
200.764	3108.43
200.839	3125.5
200.914	3132.6
200.989	3120.24
201.063	3131.36
201.138	3108.82
201.213	3110.54
201.288	3092.41
201.363	3096.66
201.438	3098.66
201.512	3112.05
201.587	3093.41
201.662	3097.41
201.737	3111.62
201.812	3117.59
201.886	3081.17
201.961	3094.77
202.036	3080.09
202.111	3079.33
202.186	3048.02
202.26	3026.89
202.335	3009.2
202.41	3000.19
202.485	2977.46
202.559	2959.34
202.634	2933.03
202.709	2945.7
202.784	2926.92
202.858	2922.96
202.933	2906.04
203.008	2897.17
203.082	2876.78
203.157	2877.11
203.232	2835.32
203.306	2812.68
203.381	2781.64
203.456	2758.77
203.53	2732.49
203.605	2715.06
203.68	2693.27
203.754	2689.89
203.829	2677.27
203.904	2657.31
203.978	2648.49
204.053	2656.45
204.127	2643.02
204.202	2640.68
204.277	2623.2
204.351	2617.2
204.426	2611.67
204.5	2601.77
204.575	2567.77
204.65	2577.87
204.724	2568.96
204.799	2571.96
204.873	2567.91
204.948	2568.15
205.022	2556.91
205.097	2546.43
205.171	2556.52
205.246	2562.05
205.32	2561.19
205.395	2561.9
205.469	2551.53
205.544	2557.91
205.618	2538.53
205.693	2550.58
205.767	2538.34
205.842	2559.87
205.916	2551.92
205.991	2543.2
206.065	2551.58
206.14	2569.29
206.214	2564.24
206.289	2560.28
206.363	2576.52
206.438	2581.43
206.512	2588.1
206.586	2611.86
206.661	2621.92
206.735	2604.64
206.81	2607.07
206.884	2623.02
206.958	2611.79
207.033	2633.02
207.107	2646.61
207.181	2682.87
207.256	2684.06
207.33	2710.35
207.405	2725.95
207.479	2750.38
207.553	2764.96
207.628	2756.96
207.702	2777.11
207.776	2782.21
207.851	2795.46
207.925	2822.3
207.999	2829.64
208.073	2840.7
208.148	2858.06
208.222	2865.54
208.296	2921.92
208.371	2958.7
208.445	2995.47
208.519	3048.57
208.593	3087.25
208.668	3109.82
208.742	3145.81
208.816	3178.86
208.89	3228.69
208.965	3268.28
209.039	3317.01
209.113	3376.05
209.187	3446.75
209.261	3490.7
209.336	3564.61
209.41	3640.8
209.484	3702.68
209.558	3789.53
209.632	3870.08
209.707	3951.9
209.781	4049.41
209.855	4138.36
209.929	4236.13
210.003	4322.8
210.077	4414.6
210.151	4553.13
210.226	4679.8
210.3	4799.32
210.374	4924.29
210.448	5034.46
210.522	5158.08
210.596	5283.61
210.67	5415.41
210.744	5581.2
210.818	5740.48
210.892	5887.34
210.966	6013.72
211.041	6168.37
211.115	6305.95
211.189	6476.88
211.263	6639.45
211.337	6791.67
211.411	6960.39
211.485	7113.35
211.559	7281.3
211.633	7440.09
211.707	7572.47
211.781	7755.19
211.855	7893.35
211.929	8055.76
212.003	8210.95
212.077	8398.51
212.151	8592.19
212.225	8776.75
212.299	8946.59
212.373	9122.33
212.447	9300.62
212.52	9519.11
212.594	9700.81
212.668	9902.63
212.742	10077.63
212.816	10262.36
212.89	10450.17
212.964	10634.99
213.038	10829.08
213.112	11041.81
213.186	11259.7
213.26	11434.95
213.333	11577.07
213.407	11782.32
213.481	11980.44
213.555	12189.64
213.629	12365.72
213.703	12542.38
213.777	12737.36
213.85	12910.45
213.924	13131.99
213.998	13331.31
214.072	13510.83
214.146	13690.24
214.219	13879.74
214.293	14056.02
214.367	14233.94
214.441	14421.5
214.515	14592.58
214.588	14743.36
214.662	14880.6
214.736	15027.71
214.81	15208.86
214.883	15396.42
214.957	15552.3
215.031	15709.92
215.105	15849.75
215.178	16000.38
215.252	16164.54
215.326	16306.72
215.4	16447.32
215.473	16561.83
215.547	16691.62
215.621	16831.05
215.694	16994.24
215.768	17109.95
215.842	17244.65
215.915	17379.36
215.989	17503.16
216.063	17638.68
216.136	17784.51
216.21	17925.67
216.284	18069.81
216.357	18202.19
216.431	18327.87
216.504	18461.65
216.578	18608.83
216.652	18739.81
216.725	18861.97
216.799	18980.86
216.873	19091.36
216.946	19215.02
217.02	19315.01
217.093	19423.83
217.167	19507.48
217.24	19599.96
217.314	19699.48
217.387	19792.63
217.461	19887.18
217.535	19996.67
217.608	20079.99
217.682	20171.32
217.755	20266.54
217.829	20349.72
217.902	20433.44
217.976	20517.58
218.049	20594.59
218.123	20674.17
218.196	20759.81
218.27	20845.5
218.343	20904.05
218.417	20980.01
218.49	21057.41
218.563	21150.1
218.637	21232.08
218.71	21334.75
218.784	21404.01
218.857	21490.57
218.931	21567.3
219.004	21633.67
219.077	21697.69
219.151	21763.14
219.224	21823.83
219.298	21881.33
219.371	21950.27
219.444	22000.83
219.518	22048.79
219.591	22105.58
219.665	22180.06
219.738	22240.99
219.811	22271.36
219.885	22342.85
219.958	22403.26
220.031	22431.51
220.105	22474.46
220.178	22512.45
220.251	22537.57
220.325	22584
220.398	22627.68
220.471	22670.87
220.544	22720.39
220.618	22747.72
220.691	22790.54
220.764	22820.62
220.838	22864.88
220.911	22897.86
220.984	22960.64
221.057	23007.36
221.131	23037.64
221.204	23028.28
221.277	23061.79
221.35	23125.49
221.424	23141.11
221.497	23161.32
221.57	23193.81
221.643	23229.64
221.716	23257.61
221.79	23274.63
221.863	23281.28
221.936	23297.82
222.009	23311.03
222.082	23322.37
222.155	23344.64
222.229	23374.25
222.302	23396.82
222.375	23400.34
222.448	23405.64
222.521	23398.07
222.594	23397.83
222.667	23400.63
222.74	23415.24
222.814	23424.5
222.887	23419.63
222.96	23429.17
223.033	23446.01
223.106	23450.54
223.179	23455.6
223.252	23460.18
223.325	23469.83
223.398	23480.15
223.471	23476.1
223.544	23479.66
223.617	23477.45
223.69	23478.65
223.763	23460.86
223.837	23459.12
223.91	23461.87
223.983	23449.72
224.056	23441.38
224.129	23439.01
224.202	23446.97
224.275	23437.76
224.348	23417.36
224.42	23393.01
224.493	23371.21
224.566	23353.61
224.639	23358.14
224.712	23331.77
224.785	23313.1
224.858	23294.78
224.931	23271.15
225.004	23251.38
225.077	23237.21
225.15	23211.26
225.223	23186.58
225.296	23206.78
225.369	23179.68
225.442	23156.35
225.514	23143.13
225.587	23122.35
225.66	23108.56
225.733	23088.84
225.806	23079.92
225.879	23059.38
225.952	23039.9
226.025	23028.52
226.097	23017.72
226.17	22985.56
226.243	22942.12
226.316	22917.72
226.389	22899.21
226.461	22894.53
226.534	22880.16
226.607	22850.03
226.68	22845.69
226.753	22826.79
226.825	22762.42
226.898	22753.5
226.971	22730.31
227.044	22707.51
227.117	22691.65
227.189	22681.66
227.262	22665.13
227.335	22660.93
227.407	22636.83
227.48	22620.53
227.553	22604.48
227.626	22575.89
227.698	22561.18
227.771	22553.86
227.844	22523.44
227.916	22500.01
227.989	22450.01
228.062	22415.5
228.134	22413.13
228.207	22374.81
228.28	22349.64
228.352	22330.36
228.425	22299.65
228.498	22288.85
228.57	22260.65
228.643	22248.65
228.716	22209.65
228.788	22181.45
228.861	22135.22
228.934	22132.47
229.006	22102.97
229.079	22072.5
229.151	22044.2
229.224	21996.96
229.296	21976.28
229.369	21979.22
229.442	21970.11
229.514	21940.81
229.587	21928.42
229.659	21887.4
229.732	21874.58
229.804	21867.15
229.877	21875.06
229.949	21863.78
230.022	21860.07
230.094	21834.28
230.167	21809.21
230.239	21770.94
230.312	21745.16
230.384	21740.38
230.457	21704.86
230.529	21676.95
230.602	21657.48
230.674	21633.52
230.747	21621.33
230.819	21608.65
230.892	21553.85
230.964	21525.89
231.037	21505.5
231.109	21475.09
231.181	21463.33
231.254	21429.4
231.326	21384.14
231.399	21335.46
231.471	21304.03
231.544	21249.85
231.616	21224.21
231.688	21194.52
231.761	21174.23
231.833	21134.81
231.905	21075.62
231.978	21045.3
232.05	21016.87
232.122	20974.21
232.195	20935.75
232.267	20923.66
232.339	20882.02
232.412	20872.09
232.484	20829.24
232.556	20805.39
232.629	20803.12
232.701	20780.66
232.773	20753.82
232.846	20729.33
232.918	20696.22
232.99	20665.57
233.062	20639.74
233.135	20617.91
233.207	20572.46
233.279	20547.02
233.351	20523.69
233.424	20495.79
233.496	20464.22
233.568	20454.49
233.64	20415.16
233.713	20381.72
233.785	20340.51
233.857	20314.97
233.929	20262.01
234.001	20247.6
234.074	20224.75
234.146	20164.61
234.218	20123.65
234.29	20093.72
234.362	20048.08
234.434	19998.83
234.507	19952.66
234.579	19910.45
234.651	19871.85
234.723	19851.27
234.795	19825.68
234.867	19787.71
234.939	19770.98
235.012	19740.82
235.084	19705.59
235.156	19688.14
235.228	19652.29
235.3	19618.08
235.372	19584.15
235.444	19559.28
235.516	19506.85
235.588	19475.1
235.66	19446.9
235.732	19401.99
235.804	19420.35
235.876	19397.03
235.948	19390.04
236.02	19358.14
236.092	19312.31
236.164	19271.4
236.236	19230.77
236.308	19186.15
236.38	19162.1
236.452	19114.59
236.524	19071.12
236.596	19044.66
236.668	19011.8
236.74	18974.93
236.812	18942.12
236.884	18914.55
236.956	18885.06
237.028	18841.35
237.1	18799.38
237.172	18775.72
237.244	18757.12
237.316	18680.45
237.388	18651.77
237.46	18604.98
237.532	18579.1
237.604	18550.62
237.675	18549.95
237.747	18524.65
237.819	18476.84
237.891	18441.13
237.963	18399.93
238.035	18367.98
238.107	18301.57
238.178	18276.95
238.25	18243.5
238.322	18232.85
238.394	18180.04
238.466	18142.59
238.538	18112.52
238.609	18077.73
238.681	18025.58
238.753	17985.2
238.825	17958.65
238.897	17915.95
238.968	17898.75
239.04	17857.93
239.112	17845.88
239.184	17786.61
239.255	17742.65
239.327	17723.57
239.399	17686.41
239.471	17666.85
239.542	17633.74
239.614	17625.07
239.686	17571.81
239.758	17544.92
239.829	17494.42
239.901	17472.44
239.973	17434.66
240.044	17418.47
240.116	17384.49
240.188	17349.55
240.259	17311.96
240.331	17263.57
240.403	17231.52
240.474	17175.81
240.546	17142.12
240.618	17092.87
240.689	17047.09
240.761	17014.55
240.833	16994.7
240.904	16953.64
240.976	16915.47
241.048	16889.25
241.119	16847.37
241.191	16822.11
241.262	16814.26
241.334	16782.11
241.405	16743.22
241.477	16704.47
241.549	16657.67
241.62	16632.22
241.692	16609.19
241.763	16589.96
241.835	16556.27
241.906	16527.83
241.978	16482.57
242.049	16454.28
242.121	16423.34
242.192	16415.24
242.264	16372.15
242.335	16310.27
242.407	16288.53
242.478	16248.77
242.55	16212.86
242.621	16170.73
242.693	16128.71
242.764	16089.47
242.836	16046.87
242.907	16031.06
242.979	16009.7
243.05	15986.09
243.122	15955.24
243.193	15925.26
243.264	15871.23
243.336	15835.51
243.407	15809.97
243.479	15797.82
243.55	15765.09
243.622	15745.19
243.693	15703.78
243.764	15682.24
243.836	15651.1
243.907	15616.73
243.978	15583.86
244.05	15562.51
244.121	15519.32
244.192	15501.77
244.264	15446.73
244.335	15419.25
244.407	15367.44
244.478	15340.35
244.549	15303.42
244.62	15252.04
244.692	15213.33
244.763	15192.75
244.834	15159.06
244.906	15121.36
244.977	15099.38
245.048	15088.68
245.119	15042.31
245.191	15002.98
245.262	14954.53
245.333	14944.46
245.405	14914.52
245.476	14889.26
245.547	14852.73
245.618	14836.72
245.689	14796.76
245.761	14779.31
245.832	14752.32
245.903	14733.42
245.974	14709.18
246.045	14677.7
246.117	14674.18
246.188	14628.72
246.259	14585.58
246.33	14556.99
246.401	14519.73
246.473	14470.51
246.544	14435.28
246.615	14417.92
246.686	14389.67
246.757	14381.48
246.828	14340.55
246.899	14326.19
246.97	14287.04
247.042	14252.05
247.113	14227.03
247.184	14223.89
247.255	14181.04
247.326	14153.61
247.397	14121.7
247.468	14090.51
247.539	14072.14
247.61	14031.31
247.681	14019.26
247.752	14011.4
247.823	13978.28
247.894	13959
247.965	13923.72
248.037	13873.82
248.108	13834.1
248.179	13808.02
248.25	13776.59
248.321	13757.11
248.392	13718.74
248.463	13711.51
248.534	13693.14
248.605	13676.95
248.675	13643.11
248.746	13625.99
248.817	13607.19
248.888	13581.55
248.959	13542.55
249.03	13511.74
249.101	13480.79
249.172	13451.58
249.243	13402.8
249.314	13398.55
249.385	13374.88
249.456	13360.86
249.527	13343.31
249.598	13319.5
249.669	13289.8
249.739	13277.12
249.81	13250.85
249.881	13210.69
249.952	13191.41
250.023	13155.93
250.094	13120.16
250.165	13086.03
250.235	13060.05
250.306	13041.87
250.377	13011.22
250.448	12989.91
250.519	12947.25
250.59	12947.82
250.66	12921.79
250.731	12920.15
250.802	12885.21
250.873	12858.5
250.944	12837.82
251.014	12814.54
251.085	12814.73
251.156	12798.34
251.227	12781.71
251.297	12781.95
251.368	12779.3
251.439	12759.53
251.51	12752.3
251.58	12724.54
251.651	12700.96
251.722	12695.61
251.792	12649.09
251.863	12622.58
251.934	12621.71
252.005	12629.19
252.075	12599.78
252.146	12590
252.217	12581.56
252.287	12578.91
252.358	12562.62
252.429	12567.1
252.499	12541.07
252.57	12528.97
252.641	12523.91
252.711	12505.01
252.782	12461.48
252.852	12455.99
252.923	12436.42
252.994	12416.85
253.064	12408.7
253.135	12382.91
253.205	12359.48
253.276	12359.48
253.347	12363.39
253.417	12332.3
253.488	12312.73
253.558	12287.8
253.629	12265.82
253.699	12243.36
253.77	12220.46
253.841	12198.15
253.911	12167.25
253.982	12150.19
254.052	12135.19
254.123	12115.48
254.193	12090.75
254.264	12114.85
254.334	12083.09
254.405	12049.2
254.475	12021
254.546	11996.71
254.616	11993.43
254.687	11970.15
254.757	11951.21
254.827	11931.35
254.898	11914.67
254.968	11889.99
255.039	11866.52
255.109	11856.01
255.18	11826.42
255.25	11792.68
255.321	11781.11
255.391	11750.07
255.461	11754.51
255.532	11704.86
255.602	11681.15
255.673	11644.18
255.743	11610.34
255.813	11571.16
255.884	11569.04
255.954	11555.93
256.024	11554.53
256.095	11537.42
256.165	11508.31
256.235	11503.87
256.306	11470.52
256.376	11470.96
256.446	11460.21
256.517	11449.56
256.587	11446.71
256.657	11431.1
256.728	11417.8
256.798	11400.54
256.868	11391.29
256.938	11366.23
257.009	11362.47
257.079	11357.89
257.149	11365.7
257.219	11327.48
257.29	11319.48
257.36	11285.41
257.43	11281.89
257.5	11238.71
257.571	11216.54
257.641	11204.2
257.711	11167.62
257.781	11159.19
257.852	11144.3
257.922	11113.98
257.992	11099.96
258.062	11074.51
258.132	11065.12
258.202	11042.71
258.273	11022.61
258.343	11015.91
258.413	10998.28
258.483	10980.4
258.553	10952.06
258.623	10933.75
258.693	10926.18
258.764	10926.62
258.834	10919.2
258.904	10901.32
258.974	10877.9
259.044	10860.17
259.114	10852.02
259.184	10838.77
259.254	10827.93
259.324	10784.51
259.394	10775.41
259.464	10771.55
259.535	10754.88
259.605	10740.61
259.675	10716.28
259.745	10711.03
259.815	10684.53
259.885	10654.7
259.955	10664.78
260.025	10638.61
260.095	10612.4
260.165	10602.57
260.235	10597.9
260.305	10577.76
260.375	10553.04
260.445	10567.83
260.515	10568.55
260.585	10568.99
260.655	10554.87
260.725	10548.17
260.795	10545.57
260.865	10550
260.934	10527.93
261.004	10521.28
261.074	10510.39
261.144	10524.7
261.214	10518.34
261.284	10501.19
261.354	10498.45
261.424	10472.23
261.494	10479.46
261.564	10471.65
261.634	10455.85
261.703	10425.59
261.773	10416.87
261.843	10411.86
261.913	10393.7
261.983	10356.75
262.053	10343.4
262.123	10325.38
262.192	10292.14
262.262	10285.98
262.332	10257.41
262.402	10247.77
262.472	10232.55
262.541	10191.94
262.611	10182.54
262.681	10161.92
262.751	10164.38
262.821	10145.69
262.89	10117.99
262.96	10108.4
263.03	10106.71
263.1	10097.46
263.169	10083.83
263.239	10075.26
263.309	10076.75
263.379	10064.42
263.448	10059.79
263.518	10048.91
263.588	10041.39
263.657	10046.16
263.727	10039.46
263.797	10022.61
263.867	10005.31
263.936	9974.87
264.006	9977.28
264.076	9959.17
264.145	9932.39
264.215	9901.89
264.285	9900.35
264.354	9868.23
264.424	9842.7
264.494	9819.05
264.563	9799.69
264.633	9799.4
264.702	9791.79
264.772	9755.03
264.842	9739.62
264.911	9727.19
264.981	9700.94
265.05	9687.41
265.12	9674.21
265.19	9663.33
265.259	9660.34
265.329	9656.1
265.398	9647.58
265.468	9660.2
265.537	9639.82
265.607	9640.35
265.676	9646.81
265.746	9640.69
265.815	9647.53
265.885	9633.23
265.955	9613.39
266.024	9600.91
266.094	9567.25
266.163	9563.2
266.232	9571.49
266.302	9558.34
266.371	9548.61
266.441	9534.55
266.51	9534.07
266.58	9508.93
266.649	9496.32
266.719	9499.3
266.788	9496.56
266.858	9505.13
266.927	9468.67
266.996	9454.52
267.066	9446.57
267.135	9414.55
267.205	9404.19
267.274	9393.17
267.343	9397.89
267.413	9385.37
267.482	9387.49
267.552	9393.31
267.621	9372.17
267.69	9332.64
267.76	9327.68
267.829	9323.2
267.898	9316.37
267.968	9293.21
268.037	9300.09
268.106	9289.83
268.176	9262.29
268.245	9242.69
268.314	9222.95
268.384	9223.67
268.453	9217.12
268.522	9211.01
268.592	9214.18
268.661	9195.36
268.73	9189.1
268.799	9166.42
268.869	9172.1
268.938	9140.66
269.007	9119.38
269.076	9109.66
269.146	9113.03
269.215	9104.94
269.284	9118.42
269.353	9104.99
269.422	9091.66
269.492	9068.11
269.561	9031.29
269.63	9026.52
269.699	9008.37
269.768	8998.21
269.838	8987.62
269.907	8990.56
269.976	8965.19
270.045	8936.35
270.114	8936.07
270.183	8927.64
270.253	8919.41
270.322	8898.13
270.391	8892.79
270.46	8905.55
270.529	8903.86
270.598	8900.2
270.667	8888.51
270.736	8857.98
270.806	8852.88
270.875	8854.9
270.944	8849.7
271.013	8876.8
271.082	8868.23
271.151	8867.9
271.22	8841.91
271.289	8833.05
271.358	8818.94
271.427	8811.44
271.496	8804.7
271.565	8787.13
271.634	8776.78
271.703	8806.1
271.772	8804.9
271.841	8797.68
271.91	8770.43
271.979	8765.72
272.048	8746.9
272.117	8748.73
272.186	8731.88
272.255	8732.99
272.324	8734.19
272.393	8725
272.462	8702.18
272.531	8695.64
272.6	8684.08
272.669	8691.93
272.738	8681.24
272.807	8675.95
272.876	8662.62
272.945	8690.97
273.013	8695.88
273.082	8694.67
273.151	8651.06
273.22	8644.32
273.289	8635.95
273.358	8644.9
273.427	8629.26
273.496	8630.22
273.564	8622.95
273.633	8626.13
273.702	8605.53
273.771	8593.64
273.84	8595.33
273.909	8593.02
273.977	8592.78
274.046	8588.45
274.115	8592.87
274.184	8574.4
274.253	8570.79
274.322	8580.22
274.39	8548.12
274.459	8536.81
274.528	8508.28
274.597	8502.55
274.665	8500.29
274.734	8506.11
274.803	8498.36
274.872	8490.76
274.94	8480.61
275.009	8534.24
275.078	8520.14
275.147	8518.8
275.215	8511.96
275.284	8519.23
275.353	8508.26
275.421	8484.68
275.49	8495.17
275.559	8482.8
275.627	8484.73
275.696	8472.89
275.765	8471.01
275.833	8462.11
275.902	8464.76
275.971	8484.44
276.039	8496.56
276.108	8500.99
276.177	8498.01
276.245	8486.79
276.314	8485.16
276.383	8486.79
276.451	8427.67
276.52	8427.96
276.588	8441.63
276.657	8444.27
276.725	8431.09
276.794	8432.58
276.863	8443.89
276.931	8424.2
277	8432.63
277.068	8437.15
277.137	8455.63
277.205	8453.7
277.274	8478
277.342	8478.92
277.411	8459.43
277.48	8453.03
277.548	8443.17
277.617	8443.94
277.685	8439.89
277.754	8449.66
277.822	8445.38
277.89	8460.73
277.959	8458.57
278.027	8435.52
278.096	8429.6
278.164	8456.84
278.233	8449.43
278.301	8436.78
278.37	8442.21
278.438	8426.19
278.507	8430.95
278.575	8403.77
278.643	8395.88
278.712	8372.54
278.78	8363.64
278.849	8373.21
278.917	8381.1
278.985	8379.08
279.054	8380.53
279.122	8389.67
279.191	8382.16
279.259	8372.83
279.327	8349.01
279.396	8364.84
279.464	8360.36
279.532	8368.11
279.601	8360.46
279.669	8357.57
279.737	8377.78
279.806	8375.13
279.874	8389.95
279.942	8389.18
280.011	8388.85
280.079	8407.71
280.147	8426.71
280.215	8429.55
280.284	8433.16
280.352	8419.45
280.42	8425.94
280.488	8421.47
280.557	8418.15
280.625	8421.85
280.693	8433.5
280.761	8436.19
280.83	8418.43
280.898	8434.41
280.966	8416.94
281.034	8390.91
281.102	8373.21
281.171	8363.58
281.239	8378.31
281.307	8368.15
281.375	8352.57
281.443	8380.91
281.512	8366.52
281.58	8375.09
281.648	8356.23
281.716	8348.43
281.784	8345.59
281.852	8340.2
281.92	8332.36
281.989	8340.64
282.057	8320.72
282.125	8356.34
282.193	8354.56
282.261	8361.87
282.329	8359.56
282.397	8360.62
282.465	8360.38
282.533	8382.17
282.601	8372.02
282.67	8350.89
282.738	8342.42
282.806	8355.51
282.874	8336.55
282.942	8345.69
283.01	8339.19
283.078	8352.23
283.146	8348.72
283.214	8356.32
283.282	8353.24
283.35	8374.13
283.418	8364.98
283.486	8374.41
283.554	8332.3
283.622	8336.1
283.69	8323.88
283.758	8314.5
283.826	8323.5
283.894	8336.2
283.962	8353.19
284.03	8366.56
284.098	8364.93
284.165	8357.62
284.233	8358.1
284.301	8350.21
284.369	8337.6
284.437	8322.3
284.505	8313.93
284.573	8326.77
284.641	8316.86
284.709	8325.86
284.777	8303.05
284.845	8315.66
284.912	8316.91
284.98	8322.92
285.048	8313.54
285.116	8325.76
285.184	8335
285.252	8330.86
285.319	8311.71
285.387	8304.59
285.455	8286.5
285.523	8293.14
285.591	8293.96
285.659	8296.41
285.726	8315.66
285.794	8303.49
285.862	8306.28
285.93	8308.01
285.997	8304.64
286.065	8300.65
286.133	8295.79
286.201	8294.39
286.269	8276.64
286.336	8271.3
286.404	8265.57
286.472	8275.43
286.539	8260.62
286.607	8251.86
286.675	8250.13
286.743	8263.45
286.81	8255.27
286.878	8270.67
286.946	8256.91
287.013	8260.57
287.081	8256.19
287.149	8236.41
287.216	8257.39
287.284	8249.83
287.352	8248.68
287.419	8246.23
287.487	8262.44
287.555	8263.69
287.622	8265.04
287.69	8272.45
287.758	8283.61
287.825	8285.34
287.893	8272.01
287.96	8272.06
288.028	8279.91
288.096	8285.68
288.163	8284.67
288.231	8279.76
288.298	8278.46
288.366	8300.06
288.433	8296.36
288.501	8289.1
288.569	8296.84
288.636	8288.95
288.704	8302.95
288.771	8311.42
288.839	8302.9
288.906	8299.2
288.974	8309.74
289.041	8305.99
289.109	8294.1
289.176	8304.21
289.244	8306.28
289.311	8325.72
289.379	8338.32
289.446	8342.99
289.514	8344.34
289.581	8344.34
289.649	8346.26
289.716	8345.78
289.783	8332.93
289.851	8354.44
289.918	8357.85
289.986	8362.57
290.053	8366.9
290.121	8365.7
290.188	8368.87
290.255	8402.41
290.323	8391.39
290.39	8381.05
290.458	8390.19
290.525	8408.86
290.592	8401.01
290.66	8396.73
290.727	8382.25
290.794	8397.79
290.862	8399.14
290.929	8402.46
290.996	8401.64
291.064	8411.02
291.131	8419.54
291.198	8439.99
291.266	8432.87
291.333	8432.53
291.4	8433.45
291.468	8457.85
291.535	8457.75
291.602	8460.69
291.669	8450.58
291.737	8461.16
291.804	8462.17
291.871	8475.17
291.938	8481.33
292.006	8510.21
292.073	8531.47
292.14	8551.11
292.207	8540.04
292.275	8539.46
292.342	8547.45
292.409	8575.56
292.476	8596.98
292.543	8593.99
292.611	8592.21
292.678	8612.04
292.745	8638.41
292.812	8656.79
292.879	8649.91
292.946	8654.29
293.014	8667.48
293.081	8676.72
293.148	8686.92
293.215	8710.69
293.282	8708.87
293.349	8711.66
293.416	8689.37
293.484	8695.53
293.551	8701.79
293.618	8717.77
293.685	8742.7
293.752	8733.84
293.819	8736.35
293.886	8722.63
293.953	8728.21
294.02	8734.03
294.087	8747.13
294.154	8741.35
294.221	8752.86
294.288	8750.74
294.356	8769.61
294.423	8778.51
294.49	8770.52
294.557	8785.44
294.624	8769.03
294.691	8789.58
294.758	8794.78
294.825	8805.56
294.892	8797.33
294.959	8797.09
295.026	8808.12
295.093	8803.69
295.16	8811.1
295.226	8804.98
295.293	8831.32
295.36	8830.55
295.427	8850.76
295.494	8856.11
295.561	8864.39
295.628	8889.96
295.695	8899.34
295.762	8899.49
295.829	8905.75
295.896	8924.08
295.963	8930.15
296.03	8944.88
296.096	8940.59
296.163	8956.34
296.23	8973.86
296.297	8991.57
296.364	8992.49
296.431	8992.01
296.498	8987.67
296.564	9010.97
296.631	9012.8
296.698	9000.91
296.765	9030.85
296.832	9015.4
296.899	9000.04
296.965	9023.34
297.032	9002.3
297.099	9025.46
297.166	9032
297.233	9025.17
297.299	9012.6
297.366	9014.1
297.433	9018.52
297.5	9036.1
297.566	9031.62
297.633	9030.46
297.7	9033.45
297.767	9030.37
297.833	9041.01
297.9	9043.32
297.967	9025.12
298.033	9044.77
298.1	9074.14
298.167	9062.97
298.234	9068.79
298.3	9077.22
298.367	9066.48
298.434	9073.36
298.5	9061.76
298.567	9061.57
298.634	9066.29
298.7	9086.74
298.767	9092.86
298.834	9103.11
298.9	9094.54
298.967	9090.21
299.033	9099.17
299.1	9113.71
299.167	9129.69
299.233	9123.72
299.3	9141
299.366	9160.79
299.433	9176.73
299.5	9148.41
299.566	9156.21
299.633	9172.05
299.699	9185.63
299.766	9189
299.832	9188.14
299.899	9194.15
299.965	9207.15
300.032	9202.82
300.099	9207.64
300.165	9208.94
300.232	9206.29
300.298	9211.2
300.365	9227.81
300.431	9227.23
300.498	9220.59
300.564	9226.03
300.631	9243.51
300.697	9253.86
300.763	9254.87
300.83	9245.04
300.896	9259.68
300.963	9264.93
301.029	9267.96
301.096	9276.44
301.162	9283.42
301.229	9279.71
301.295	9278.27
301.361	9279.18
301.428	9283.56
301.494	9269.02
301.561	9274.13
301.627	9277.11
301.693	9280.24
301.76	9280.63
301.826	9274.99
301.892	9287.99
301.959	9296.66
302.025	9287.51
302.092	9281.4
302.158	9288.76
302.224	9287.51
302.291	9278.65
302.357	9280.63
302.423	9271.62
302.49	9258.33
302.556	9272.49
302.622	9275.09
302.688	9285.49
302.755	9300.66
302.821	9309.38
302.887	9322.23
302.954	9315.97
303.02	9325.26
303.086	9331.14
303.152	9330.66
303.219	9328.92
303.285	9330.42
303.351	9335.71
303.417	9342.02
303.483	9333.21
303.55	9322.95
303.616	9324.21
303.682	9321.94
303.748	9309.71
303.815	9329.46
303.881	9336.44
303.947	9322.33
304.013	9326.66
304.079	9315.73
304.145	9294.59
304.212	9289.97
304.278	9284.05
304.344	9283.86
304.41	9267.15
304.476	9259.2
304.542	9260.31
304.608	9261.18
304.674	9246.11
304.741	9247.26
304.807	9247.94
304.873	9251.31
304.939	9269.36
305.005	9254.29
305.071	9259.01
305.137	9263.01
305.203	9237.97
305.269	9238.64
305.335	9249.23
305.401	9240.13
305.467	9236.04
305.533	9245.29
305.599	9255.01
305.666	9261.46
305.732	9264.35
305.798	9277.64
305.864	9300.76
305.93	9298.69
305.996	9298.11
306.062	9301.43
306.128	9289.15
306.194	9274.08
306.259	9277.11
306.325	9261.56
306.391	9268.35
306.457	9275.28
306.523	9277.64
306.589	9302.87
306.655	9297.72
306.721	9275.24
306.787	9271.24
306.853	9285.73
306.919	9265.27
306.985	9260.89
307.051	9258.05
307.117	9251.07
307.183	9245.1
307.248	9214.76
307.314	9221.69
307.38	9227.52
307.446	9234.17
307.512	9224.54
307.578	9232.24
307.644	9232.14
307.709	9239.99
307.775	9235.47
307.841	9228.58
307.907	9227.23
307.973	9201.61
308.039	9199.16
308.104	9204.94
308.17	9206.38
308.236	9191.07
308.302	9196.65
308.368	9188.76
308.433	9185.19
308.499	9176.29
308.565	9164.88
308.631	9169.21
308.696	9144.75
308.762	9135.7
308.828	9129.92
308.894	9116.39
308.959	9093.09
309.025	9077.59
309.091	9072.01
309.156	9064.69
309.222	9065.31
309.288	9051.55
309.354	9033.59
309.419	9026.37
309.485	9016.64
309.551	9019.48
309.616	9006.34
309.682	9004.99
309.748	8994.02
309.813	8986.46
309.879	8983.14
309.945	8978.57
310.01	8970.67
310.076	8971.54
310.141	8964.46
310.207	8946.17
310.273	8947.27
310.338	8952.47
310.404	8939.09
310.469	8925.95
310.535	8918.44
310.601	8894.95
310.666	8900.82
310.732	8912.52
310.797	8906.64
310.863	8890.81
310.928	8881.66
310.994	8889.65
311.059	8885.94
311.125	8885.17
311.191	8898.7
311.256	8886.86
311.322	8888.02
311.387	8864.1
311.453	9304.24
311.518	9280.18
311.584	9279.84
311.649	9285.76
311.715	9274.79
311.78	9275.61
311.846	9269.73
311.911	9274.98
311.976	9278.59
312.042	9266.22
312.107	9246.58
312.173	9233.39
312.238	9231.76
312.304	9226.75
312.369	9213.51
312.434	9197.1
312.5	9189.64
312.565	9150.84
312.631	9155.27
312.696	9144.92
312.761	9152.14
312.827	8701.69
312.892	8735.14
312.958	8727.59
313.023	8724.84
313.088	8725.28
313.154	8711.8
313.219	8698.86
313.284	8692.69
313.35	8691.68
313.415	8679.41
313.48	8678.26
313.546	8688.99
313.611	8699.63
313.676	8690.53
313.741	8682.73
313.807	8688.65
313.872	8687.98
313.937	8699.24
314.003	8710.55
314.068	8716.52
314.133	8724.7
314.198	8715.61
314.264	8693.85
314.329	8689.27
314.394	8677.1
314.459	8668.29
314.525	8690.38
314.59	8691.1
314.655	8672.96
314.72	8676.71
314.785	8683.31
314.851	8677.15
314.916	8652.07
314.981	8634.02
315.046	8629.07
315.111	8617.57
315.176	8609.05
315.242	8611.74
315.307	8606.74
315.372	8579.02
315.437	8563.28
315.502	8555.1
315.567	8568.86
315.632	8556.69
315.698	8555.1
315.763	8561.55
315.828	8551.78
315.893	8545.47
315.958	8540.9
316.023	8537.39
316.088	8515.54
316.153	8496.39
316.218	8487.25
316.283	8472.53
316.348	8455.4
316.413	8449.38
316.479	8438.08
316.544	8407.58
316.609	8381.25
316.674	8353.69
316.739	8330.55
316.804	8302.64
316.869	8268.05
316.934	8228.07
316.999	8197.81
317.064	8152.97
317.129	8100.25
317.194	8068.22
317.259	8019.38
317.324	7965.81
317.389	7919.73
317.454	7886.45
317.518	7850.48
317.583	7831.14
317.648	7810.9
317.713	7779.98
317.778	7723.85
317.843	7694.08
317.908	7658.22
317.973	7616.86
318.038	7586.14
318.103	7542.11
318.168	7515.47
318.233	7485.47
318.297	7443.69
318.362	7411.87
318.427	7376.25
318.492	7358.8
318.557	7321.94
318.622	7299.98
318.687	7278.16
318.751	7244.09
318.816	7207.76
318.881	7171.87
318.946	7117.75
319.011	7074.75
319.075	7038.33
319.14	7006.52
319.205	6966.35
319.27	6935.99
319.335	6893.19
319.399	6851.55
319.464	6833.73
319.529	6780.03
319.594	6746.35
319.658	6715.08
319.723	6672.34
319.788	6645.88
319.853	6596.08
319.917	6564.01
319.982	6504.85
320.047	6468.79
320.112	6441.04
320.176	6395.63
320.241	6373.16
320.306	6344.41
320.37	6306.3
320.435	6276.73
320.5	6249.85
320.564	6211.93
320.629	6167.88
320.694	6140.15
320.758	6104.11
320.823	6059.58
320.888	6034.3
320.952	5982.73
321.017	5939.79
321.082	5904.25
321.146	5869.18
321.211	5833.3
321.275	5793.31
321.34	5757.87
321.405	5722.15
321.469	5681.82
321.534	5644.91
321.598	5592.07
321.663	5564.87
321.727	5533.09
321.792	5484.43
321.857	5438.55
321.921	5399.63
321.986	5360.25
322.05	5304.81
322.115	5267.44
322.179	5221.93
322.244	5169.18
322.308	5140.49
322.373	5094.98
322.437	5053.46
322.502	5027.58
322.566	4983.61
322.631	4949.8
322.695	4912.36
322.76	4864.53
322.824	4828.81
322.889	4784.83
322.953	4739.55
323.018	4671.77
323.082	4609.18
323.146	4559.95
323.211	4509.52
323.275	4464.59
323.34	4418.63
323.404	4383.91
323.468	4339.89
323.533	4298.48
323.597	4254.26
323.662	4201.37
323.726	4171.19
323.79	4129.17
323.855	4064.21
323.919	4019.9
323.983	3975.39
324.048	3912.29
324.112	4043.77
324.177	3921.36
324.241	3718.71
324.305	3520.36
324.37	3326.93
324.434	3140.15
324.498	3097.48
324.562	3048.94
324.627	2991.83
324.691	2941.76
324.755	2879.85
324.82	2806.14
324.884	2733.29
324.948	2663.43
325.012	2571.99
325.077	2444.57
