Data from 20250703_urea_0.1M_MAYP1162681_07-31-04-859.txt Node
Date: Fri Jul 04 07:31:04 BST 2025
User: adleo
Spectrometer: MAYP116268
Trigger mode: 0
Integration Time (sec): 1.000000E0
Scans to average: 1
Electric dark correction enabled: true
Nonlinearity correction enabled: true
Boxcar width: 10
XAxis mode: Wavelengths
Number of Pixels in Spectrum: 2068
>>>>>Begin Spectral Data<<<<<
179.565	1245.42
179.642	1302.13
179.718	1349.81
179.795	1389.75
179.871	1422.83
179.948	1439.8
180.024	1459.36
180.101	1482.9
180.177	1499.59
180.254	1522.56
180.33	1544.29
180.407	1600.32
180.483	1699.9
180.56	1793.69
180.636	1881.19
180.712	1866.26
180.789	1879.19
180.865	1893.4
180.942	1900.38
181.018	1913.74
181.095	1928.49
181.171	1931.67
181.248	1931.77
181.324	1946.84
181.4	1953.79
181.477	1969.24
181.553	1983.79
181.63	2007.19
181.706	2024.31
181.782	2029.3
181.859	2028.35
181.935	2035.72
182.011	2030.39
182.088	2045.71
182.164	2063.98
182.24	2075.82
182.317	2086.28
182.393	2081.67
182.469	2095.08
182.546	2111.11
182.622	2114.77
182.698	2107.44
182.775	2122.47
182.851	2139.07
182.927	2130.13
183.003	2127.9
183.08	2119.05
183.156	2127.99
183.232	2121.57
183.308	2108.39
183.385	2120.19
183.461	2140.36
183.537	2141.55
183.613	2158.86
183.69	2148.63
183.766	2139.16
183.842	2146.92
183.918	2153.15
183.995	2167.47
184.071	2169.85
184.147	2162.66
184.223	2151.58
184.299	2163.38
184.375	2150.97
184.452	2159.15
184.528	2209.07
184.604	2217.68
184.68	2228.05
184.756	2236.71
184.832	2244.75
184.908	2251.69
184.985	2249.08
185.061	2231.28
185.137	2239.09
185.213	2224.67
185.289	2227.86
185.365	2219.3
185.441	2218.44
185.517	2231.48
185.593	2229.15
185.669	2225.82
185.745	2237.24
185.822	2254.79
185.898	2244.56
185.974	2254.45
186.05	2243.84
186.126	2209.15
186.202	2202.59
186.278	2199.68
186.354	2189.69
186.43	2195.64
186.506	2192.31
186.582	2191.46
186.658	2198.4
186.734	2179.8
186.81	2179.56
186.886	2184.08
186.962	2197.31
187.038	2193.07
187.114	2185.84
187.19	2192.78
187.266	2185.55
187.341	2184.51
187.417	2175.09
187.493	2174.33
187.569	2179.13
187.645	2172.57
187.721	2161
187.797	2169.71
187.873	2174.8
187.949	2168.9
188.025	2162.62
188.101	2166.42
188.176	2173.51
188.252	2168.99
188.328	2176.7
188.404	2180.03
188.48	2174.08
188.556	2170.27
188.632	2170.65
188.707	2171.04
188.783	2165.37
188.859	2158.14
188.935	2147.3
189.011	2157.81
189.086	2152.82
189.162	2141.25
189.238	2140.54
189.314	2139.16
189.39	2132.93
189.465	2126.84
189.541	2142.16
189.617	2126.89
189.693	2120.04
189.768	2122.09
189.844	2146.22
189.92	2136.32
189.996	2146.93
190.071	2157.78
190.147	2153.69
190.223	2163.78
190.298	2153.74
190.374	2142.75
190.45	2156.88
190.526	2166.82
190.601	2161.35
190.677	2166.58
190.753	2193.19
190.828	2194.04
190.904	2209.7
190.98	2222.31
191.055	2231.68
191.131	2225.45
191.207	2246.86
191.282	2258.27
191.358	2250.09
191.433	2235.29
191.509	2250.46
191.585	2247.84
191.66	2249.79
191.736	2256.88
191.811	2247.65
191.887	2264.54
191.963	2288
192.038	2293.67
192.114	2291.81
192.189	2294.62
192.265	2288.63
192.34	2268.73
192.416	2269.91
192.491	2262.35
192.567	2268.49
192.642	2271.77
192.718	2270.25
192.793	2256.35
192.869	2251.36
192.944	2252.98
193.02	2260.92
193.095	2264.92
193.171	2266.78
193.246	2266.44
193.322	2263.64
193.397	2265.54
193.473	2250.88
193.548	2233.56
193.624	2239.22
193.699	2241.36
193.775	2262.02
193.85	2264.59
193.925	2272.25
194.001	2271.11
194.076	2265.93
194.152	2253.84
194.227	2243.03
194.302	2233.04
194.378	2236.14
194.453	2233.57
194.529	2248.18
194.604	2234.43
194.679	2226.86
194.755	2210.4
194.83	2219.3
194.905	2219.88
194.981	2228.73
195.056	2223.88
195.131	2227.63
195.207	2225.59
195.282	2212.08
195.357	2189.8
195.433	2205.12
195.508	2195.55
195.583	2203.07
195.659	2216.68
195.734	2222.72
195.809	2224.72
195.884	2235.9
195.96	2238.23
196.035	2255.31
196.11	2250.51
196.185	2261.4
196.261	2266.97
196.336	2298.47
196.411	2287.19
196.486	2291.81
196.561	2284.24
196.637	2292.71
196.712	2311.42
196.787	2312.51
196.862	2329.59
196.937	2339.68
197.013	2350.01
197.088	2360.24
197.163	2383.86
197.238	2402.54
197.313	2403.39
197.388	2418.05
197.464	2448.91
197.539	2460.05
197.614	2453.29
197.689	2465.82
197.764	2484.91
197.839	2506.15
197.914	2498.34
197.989	2520.96
198.065	2533.72
198.14	2584.37
198.215	2610.65
198.29	2619.9
198.365	2634.95
198.44	2648.76
198.515	2675.96
198.59	2686.73
198.665	2713.17
198.74	2724.37
198.815	2725.18
198.89	2750.33
198.965	2782.74
199.04	2778.74
199.115	2793.55
199.19	2835.72
199.265	2835.95
199.34	2845.58
199.415	2878.48
199.49	2903.21
199.565	2912.6
199.64	2937.72
199.715	2934.71
199.79	2944.05
199.865	2951.54
199.94	2949.25
200.015	2976.62
200.09	2980.57
200.165	2988.58
200.24	2998.93
200.315	3035.67
200.39	3051.84
200.464	3056.08
200.539	3053.17
200.614	3070.38
200.689	3094.61
200.764	3102.1
200.839	3123.73
200.914	3127.4
200.989	3118.53
201.063	3134.94
201.138	3118.54
201.213	3117.07
201.288	3098.52
201.363	3103.38
201.438	3107.82
201.512	3127.74
201.587	3112.05
201.662	3119.39
201.737	3130.94
201.812	3136.09
201.886	3104.44
201.961	3115.08
202.036	3104.22
202.111	3102.64
202.186	3073.62
202.26	3056.88
202.335	3036.37
202.41	3031.03
202.485	3014.16
202.559	2992.94
202.634	2968.24
202.709	2978.3
202.784	2962.28
202.858	2966.19
202.933	2948.64
203.008	2941.4
203.082	2921
203.157	2926.48
203.232	2888.02
203.306	2873.96
203.381	2844.83
203.456	2826.33
203.53	2807.3
203.605	2795.44
203.68	2778.08
203.754	2780.23
203.829	2773.7
203.904	2759.45
203.978	2757.35
204.053	2773.56
204.127	2773.75
204.202	2778.94
204.277	2774.32
204.351	2782.42
204.426	2785.38
204.5	2795.82
204.575	2781.62
204.65	2808.7
204.724	2819.76
204.799	2848.68
204.873	2864.8
204.948	2892.54
205.022	2904.94
205.097	2925.59
205.171	2963.54
205.246	3001.6
205.32	3028.63
205.395	3063.07
205.469	3088.85
205.544	3130.8
205.618	3149.93
205.693	3199.69
205.767	3230.41
205.842	3294.07
205.916	3332.92
205.991	3373.48
206.065	3424.32
206.14	3491.03
206.214	3540.94
206.289	3584.55
206.363	3651.03
206.438	3714.73
206.512	3774.11
206.586	3853.75
206.661	3920.92
206.735	3965.63
206.81	4030.18
206.884	4117.56
206.958	4169.95
207.033	4260.38
207.107	4341.21
207.181	4444.31
207.256	4509.18
207.33	4604.44
207.405	4696.35
207.479	4795.82
207.553	4881.5
207.628	4944.1
207.702	5034.8
207.776	5109.9
207.851	5197.7
207.925	5295.76
207.999	5381.7
208.073	5467.25
208.148	5558.72
208.222	5638.42
208.296	5754.17
208.371	5859.81
208.445	5963.35
208.519	6084.65
208.593	6190.22
208.668	6275.47
208.742	6373.23
208.816	6476.51
208.89	6581.04
208.965	6676.46
209.039	6774.16
209.113	6889
209.187	7007.21
209.261	7101.6
209.336	7219.61
209.41	7334.22
209.484	7427.86
209.558	7537.18
209.632	7645.33
209.707	7751.2
209.781	7871.32
209.855	7990.98
209.929	8111.07
210.003	8204.44
210.077	8304.41
210.151	8447.88
210.226	8583.3
210.3	8705.47
210.374	8825.15
210.448	8930.66
210.522	9035.27
210.596	9147.05
210.67	9246.66
210.744	9393.85
210.818	9516.42
210.892	9627.85
210.966	9717.94
211.041	9834.05
211.115	9928.16
211.189	10050.98
211.263	10162.1
211.337	10256.22
211.411	10360.77
211.485	10442.67
211.559	10547.02
211.633	10639.71
211.707	10691.84
211.781	10786.54
211.855	10843.64
211.929	10923.53
212.003	10984.82
212.077	11083.75
212.151	11179.56
212.225	11281.34
212.299	11352.34
212.373	11435.13
212.447	11520.97
212.52	11637.12
212.594	11726.97
212.668	11821.05
212.742	11888.19
212.816	11966.8
212.89	12051.73
212.964	12124.42
213.038	12210.27
213.112	12306.92
213.186	12402.07
213.26	12467.72
213.333	12498.95
213.407	12579.74
213.481	12658.6
213.555	12759.97
213.629	12824.18
213.703	12884.58
213.777	12956.46
213.85	13013.44
213.924	13117.03
213.998	13194.3
214.072	13259.33
214.146	13316.89
214.219	13387.85
214.293	13454.86
214.367	13526.06
214.441	13602.8
214.515	13674.73
214.588	13717.78
214.662	13751.14
214.736	13793.32
214.81	13866.88
214.883	13942.37
214.957	14003.88
215.031	14055.61
215.105	14091.18
215.178	14138.33
215.252	14195.6
215.326	14238.79
215.4	14285.94
215.473	14306.52
215.547	14338.67
215.621	14387.79
215.694	14442.94
215.768	14476.01
215.842	14526.91
215.915	14567.69
215.989	14590.93
216.063	14632.57
216.136	14686.13
216.21	14739.83
216.284	14810.16
216.357	14865.45
216.431	14914.81
216.504	14975.55
216.578	15056.82
216.652	15121.5
216.725	15171.59
216.799	15241.58
216.873	15288.09
216.946	15337.69
217.02	15372.4
217.093	15421.47
217.167	15454
217.24	15493.43
217.314	15540.04
217.387	15577.06
217.461	15617.7
217.535	15685.47
217.608	15726.53
217.682	15782.11
217.755	15846.89
217.829	15886.17
217.902	15936.49
217.976	15981.36
218.049	16014.43
218.123	16046.43
218.196	16099.06
218.27	16145.14
218.343	16173.14
218.417	16224.91
218.49	16277.25
218.563	16342.7
218.637	16396.59
218.71	16463.29
218.784	16520.69
218.857	16586.63
218.931	16647.02
219.004	16708.56
219.077	16765.1
219.151	16807.85
219.224	16848.23
219.298	16885.2
219.371	16945.97
219.444	16975.8
219.518	17020.58
219.591	17064.24
219.665	17134.07
219.738	17183.95
219.811	17221.59
219.885	17274.75
219.958	17326.08
220.031	17376.54
220.105	17427.67
220.178	17473.93
220.251	17508.92
220.325	17562.99
220.398	17601.93
220.471	17650.99
220.544	17698.75
220.618	17727.52
220.691	17781.64
220.764	17832.48
220.838	17887.47
220.911	17917.01
220.984	17983.61
221.057	18043.61
221.131	18097.2
221.204	18116.52
221.277	18170.11
221.35	18247.55
221.424	18287.21
221.497	18333.52
221.57	18371.35
221.643	18414.19
221.716	18466.96
221.79	18506.62
221.863	18543.2
221.936	18582.43
222.009	18617.41
222.082	18654.66
222.155	18694.61
222.229	18754.27
222.302	18790.46
222.375	18823.38
222.448	18876.38
222.521	18914.17
222.594	18942.55
222.667	18971.42
222.74	19010.3
222.814	19039.99
222.887	19060.47
222.96	19101.05
223.033	19137.91
223.106	19175.88
223.179	19216.46
223.252	19249.86
223.325	19281.85
223.398	19310.91
223.471	19345.56
223.544	19376.84
223.617	19410.71
223.69	19438.33
223.763	19440.69
223.837	19469.99
223.91	19499.91
223.983	19510.47
224.056	19524.54
224.129	19556.97
224.202	19586.51
224.275	19602.22
224.348	19613.93
224.42	19622.94
224.493	19626.22
224.566	19639.28
224.639	19666.36
224.712	19676.14
224.785	19688
224.858	19702.5
224.931	19711.47
225.004	19719.66
225.077	19745.97
225.15	19737.44
225.223	19754.89
225.296	19804.09
225.369	19805.78
225.442	19815.8
225.514	19834.88
225.587	19845.82
225.66	19862.59
225.733	19883.51
225.806	19900.13
225.879	19915.41
225.952	19922.98
226.025	19957.1
226.097	19985.82
226.17	19993.43
226.243	19987.07
226.316	19996.13
226.389	20017.62
226.461	20045.34
226.534	20071.98
226.607	20072.95
226.68	20106.97
226.753	20117.14
226.825	20109.43
226.898	20143.02
226.971	20158.73
227.044	20176.32
227.117	20196.13
227.189	20215.21
227.262	20243.69
227.335	20264.61
227.407	20279.74
227.48	20304.27
227.553	20311.98
227.626	20320.89
227.698	20335.79
227.771	20355.98
227.844	20345.95
227.916	20354.92
227.989	20348.94
228.062	20343.74
228.134	20369.71
228.207	20375.16
228.28	20371.69
228.352	20368.46
228.425	20373.47
228.498	20385.23
228.57	20382.15
228.643	20393.95
228.716	20391.59
228.788	20380.99
228.861	20381.04
228.934	20399.5
229.006	20399.3
229.079	20395.59
229.151	20397.33
229.224	20375.5
229.296	20388.41
229.369	20439.26
229.442	20459.16
229.514	20456.22
229.587	20479.59
229.659	20471.16
229.732	20485.57
229.804	20510.05
229.877	20539.45
229.949	20549.57
230.022	20570.25
230.094	20566.29
230.167	20577.48
230.239	20565.23
230.312	20568.99
230.384	20583.89
230.457	20581.28
230.529	20576.51
230.602	20582.25
230.674	20579.89
230.747	20596.42
230.819	20602.87
230.892	20555.11
230.964	20550.54
231.037	20546.68
231.109	20536.85
231.181	20538.05
231.254	20516.03
231.326	20515.31
231.399	20499.59
231.471	20484.12
231.544	20453.67
231.616	20458.34
231.688	20444.08
231.761	20436.8
231.833	20426.82
231.905	20404.27
231.978	20398.34
232.05	20405.42
232.122	20403.3
232.195	20392.51
232.267	20395.54
232.339	20374.97
232.412	20391.79
232.484	20369.91
232.556	20355.11
232.629	20359.88
232.701	20361.42
232.773	20361.91
232.846	20336.99
232.918	20329.14
232.99	20317.91
233.062	20319.5
233.135	20309.33
233.207	20296.85
233.279	20288.46
233.351	20288.9
233.424	20270.39
233.496	20244.32
233.568	20250.63
233.64	20213.43
233.713	20203.21
233.785	20193.57
233.857	20181.52
233.929	20149.43
234.001	20156.66
234.074	20161.86
234.146	20132.66
234.218	20106.25
234.29	20083.36
234.362	20065.91
234.434	20035.94
234.507	20012.66
234.579	19973.58
234.651	19953.87
234.723	19934.74
234.795	19925.58
234.867	19897.68
234.939	19894.55
235.012	19883.56
235.084	19860.52
235.156	19857.58
235.228	19823.66
235.3	19795.99
235.372	19784.14
235.444	19776.57
235.516	19724.91
235.588	19710.79
235.66	19689.64
235.732	19661.21
235.804	19700
235.876	19685.3
235.948	19677.16
236.02	19653.64
236.092	19638.41
236.164	19617.98
236.236	19592.82
236.308	19562.71
236.38	19542.85
236.452	19512.49
236.524	19492.59
236.596	19475.43
236.668	19463.29
236.74	19439.63
236.812	19414.52
236.884	19398.81
236.956	19387.05
237.028	19365.13
237.1	19327.01
237.172	19319.01
237.244	19313.66
237.316	19252.6
237.388	19223.59
237.46	19196.51
237.532	19186.49
237.604	19147.02
237.675	19136.75
237.747	19120.95
237.819	19086.68
237.891	19054.88
237.963	19020.13
238.035	18979.75
238.107	18918.17
238.178	18901.97
238.25	18876.82
238.322	18872.43
238.394	18818.56
238.466	18771.23
238.538	18751.48
238.609	18732.2
238.681	18678.71
238.753	18640.25
238.825	18612.64
238.897	18587.68
238.968	18567.01
239.04	18528.79
239.112	18523.97
239.184	18472.99
239.255	18440.65
239.327	18419.4
239.399	18390.44
239.471	18372.17
239.542	18352.37
239.614	18339.11
239.686	18277.77
239.758	18257.87
239.829	18210.49
239.901	18205.53
239.973	18185.58
240.044	18158.5
240.116	18123.32
240.188	18095.85
240.259	18066.45
240.331	18021.49
240.403	17994.36
240.474	17948
240.546	17910.8
240.618	17869.06
240.689	17843.76
240.761	17806.85
240.833	17798.85
240.904	17770.56
240.976	17737.4
241.048	17707.09
241.119	17682.32
241.191	17659.52
241.262	17638.99
241.334	17613.21
241.405	17572.83
241.477	17527.72
241.549	17483.62
241.62	17463.43
241.692	17439.33
241.763	17420.63
241.835	17389.84
241.906	17358.61
241.978	17316.01
242.049	17296.1
242.121	17261.89
242.192	17238.85
242.264	17195.52
242.335	17142.03
242.407	17116.97
242.478	17078.56
242.55	17051.81
242.621	17010.7
242.693	16978.75
242.764	16936.62
242.836	16883.61
242.907	16859.95
242.979	16833.49
243.05	16814.5
243.122	16780.23
243.193	16737.53
243.264	16677.62
243.336	16643.5
243.407	16619.55
243.479	16605.96
243.55	16571.59
243.622	16555.01
243.693	16524.55
243.764	16512.55
243.836	16472.36
243.907	16432.3
243.978	16402.9
244.05	16372.54
244.121	16325.02
244.192	16296.53
244.264	16254.21
244.335	16232.19
244.407	16173.77
244.478	16145.53
244.549	16105.14
244.62	16054.87
244.692	16031.15
244.763	16007.87
244.834	15968.11
244.906	15922.95
244.977	15891.18
245.048	15881.54
245.119	15839.61
245.191	15797.77
245.262	15739.11
245.333	15724.94
245.405	15692.99
245.476	15656.11
245.547	15626.23
245.618	15608.54
245.689	15580.73
245.761	15552.77
245.832	15523.61
245.903	15502.88
245.974	15477.34
246.045	15447.55
246.117	15440.46
246.188	15395.54
246.259	15349.12
246.33	15317.83
246.401	15289.83
246.473	15243.51
246.544	15200.99
246.615	15178.05
246.686	15139.68
246.757	15130.28
246.828	15087.52
246.899	15069.3
246.97	15031.46
247.042	14986.49
247.113	14962.2
247.184	14951.93
247.255	14918.04
247.326	14887.48
247.397	14854.17
247.468	14827.37
247.539	14802.11
247.61	14746.29
247.681	14722.38
247.752	14716.45
247.823	14673.84
247.894	14649.21
247.965	14609.05
248.037	14572.27
248.108	14524.16
248.179	14496.54
248.25	14460.97
248.321	14437.97
248.392	14398.73
248.463	14395.17
248.534	14368.17
248.605	14346.34
248.675	14310.52
248.746	14292.35
248.817	14271.71
248.888	14253.73
248.959	14199.89
249.03	14182.58
249.101	14159.11
249.172	14131.68
249.243	14081.64
249.314	14081.88
249.385	14049.49
249.456	14043.7
249.527	14016.27
249.598	14004.51
249.669	13982.38
249.739	13959.29
249.81	13942.8
249.881	13900.96
249.952	13870.83
250.023	13841.91
250.094	13800.4
250.165	13765.02
250.235	13726.94
250.306	13699.94
250.377	13661.71
250.448	13648.46
250.519	13591.81
250.59	13588.3
250.66	13556.67
250.731	13547.99
250.802	13514.97
250.873	13491.5
250.944	13457.8
251.014	13422.61
251.085	13417.93
251.156	13392.96
251.227	13383.42
251.297	13360.86
251.368	13357.72
251.439	13346.83
251.51	13335.02
251.58	13296.65
251.651	13266.28
251.722	13262.37
251.792	13226.36
251.863	13202.74
251.934	13197.24
252.005	13199.99
252.075	13167.5
252.146	13153.04
252.217	13144.75
252.287	13133.13
252.358	13110.62
252.429	13107.72
252.499	13085.55
252.57	13058.84
252.641	13040.62
252.711	13020.76
252.782	12979.64
252.852	12977.38
252.923	12947.49
252.994	12930.47
253.064	12926.81
253.135	12896.77
253.205	12869.97
253.276	12873.11
253.347	12871.8
253.417	12840.13
253.488	12820.8
253.558	12794.05
253.629	12772.12
253.699	12755.44
253.77	12741.41
253.841	12721.02
253.911	12705.78
253.982	12691.56
254.052	12681.39
254.123	12671.75
254.193	12648.61
254.264	12671.8
254.334	12630.58
254.405	12597.32
254.475	12563.53
254.546	12540.15
254.616	12535.38
254.687	12512.15
254.757	12484.24
254.827	12453.87
254.898	12429.04
254.968	12407.4
255.039	12380.36
255.109	12365.66
255.18	12327.33
255.25	12277.73
255.321	12267.03
255.391	12228.61
255.461	12229.53
255.532	12178.14
255.602	12148.55
255.673	12107.19
255.743	12078.12
255.813	12028.62
255.884	12021.25
255.954	12007.32
256.024	12002.83
256.095	11978.59
256.165	11948.66
256.235	11933.23
256.306	11907.54
256.376	11904.5
256.446	11891.15
256.517	11877.61
256.587	11872.55
256.657	11858.13
256.728	11848.59
256.798	11825.46
256.868	11803.24
256.938	11765.49
257.009	11756.82
257.079	11743.18
257.149	11747.8
257.219	11703.46
257.29	11696.71
257.36	11653
257.43	11650.54
257.5	11608.18
257.571	11586.68
257.641	11583.02
257.711	11552.55
257.781	11547.78
257.852	11536.41
257.922	11498.48
257.992	11486.24
258.062	11462.81
258.132	11445.85
258.202	11425.7
258.273	11414.13
258.343	11417.89
258.413	11388.54
258.483	11376.73
258.553	11347.29
258.623	11323.67
258.693	11310.08
258.764	11313.7
258.834	11316.2
258.904	11295.04
258.974	11270.37
259.044	11250.37
259.114	11232.44
259.184	11215.86
259.254	11184.73
259.324	11137.74
259.394	11126.8
259.464	11126.13
259.535	11106.76
259.605	11084.88
259.675	11057.8
259.745	11033.6
259.815	10997.27
259.885	10981.8
259.955	10984.93
260.025	10959.49
260.095	10939.54
260.165	10925.27
260.235	10921.66
260.305	10891.59
260.375	10862.34
260.445	10876.17
260.515	10874.38
260.585	10873.04
260.655	10861.52
260.725	10863.01
260.795	10859.83
260.865	10864.7
260.934	10836.94
261.004	10827.21
261.074	10814.39
261.144	10816.9
261.214	10815.79
261.284	10799.5
261.354	10797.09
261.424	10771.6
261.494	10775.36
261.564	10765.62
261.634	10762.06
261.703	10726.93
261.773	10729.1
261.843	10717.68
261.913	10696.96
261.983	10666.99
262.053	10644.53
262.123	10624.92
262.192	10592.83
262.262	10588.45
262.332	10547.54
262.402	10538.53
262.472	10524.8
262.541	10487.32
262.611	10481.49
262.681	10451.37
262.751	10444.77
262.821	10421.65
262.89	10393.8
262.96	10384.4
263.03	10380.31
263.1	10367.44
263.169	10351.01
263.239	10336.75
263.309	10340.94
263.379	10332.22
263.448	10311.32
263.518	10301.39
263.588	10284.1
263.657	10290.99
263.727	10290.89
263.797	10282.51
263.867	10270.37
263.936	10240.26
264.006	10248.06
264.076	10227.15
264.145	10208.94
264.215	10190.11
264.285	10186.45
264.354	10154.99
264.424	10133.94
264.494	10107.54
264.563	10087.11
264.633	10096.17
264.702	10084.99
264.772	10054.78
264.842	10038.21
264.911	10034.84
264.981	10008.78
265.05	9995.92
265.12	9972.56
265.19	9955.64
265.259	9956.66
265.329	9947.41
265.398	9937.63
265.468	9949.67
265.537	9933.01
265.607	9933.92
265.676	9928.77
265.746	9924.24
265.815	9927.27
265.885	9911.33
265.955	9888.41
266.024	9868.46
266.094	9829.69
266.163	9829.93
266.232	9830.8
266.302	9810.86
266.371	9800.41
266.441	9789.67
266.51	9793.66
266.58	9776.66
266.649	9750.85
266.719	9747.91
266.788	9737.41
266.858	9740.1
266.927	9698.58
266.996	9689.24
267.066	9677.87
267.135	9653.99
267.205	9645.27
267.274	9632.75
267.343	9636.36
267.413	9622.35
267.482	9631.4
267.552	9638.05
267.621	9608.86
267.69	9576.02
267.76	9566.48
267.829	9561.14
267.898	9551.74
267.968	9520.39
268.037	9516.59
268.106	9514.23
268.176	9488.61
268.245	9471.8
268.314	9455.04
268.384	9457.59
268.453	9445.65
268.522	9435.34
268.592	9437.42
268.661	9415.36
268.73	9413.96
268.799	9391.33
268.869	9400.96
268.938	9365.86
269.007	9345.68
269.076	9335.95
269.146	9343.03
269.215	9341.54
269.284	9346.88
269.353	9327.67
269.422	9321.22
269.492	9307.55
269.561	9271
269.63	9263.54
269.699	9252.56
269.768	9248.47
269.838	9238.84
269.907	9238.5
269.976	9216.69
270.045	9184.19
270.114	9188.05
270.183	9172.35
270.253	9166.67
270.322	9136.48
270.391	9128.39
270.46	9127.72
270.529	9129.21
270.598	9118.52
270.667	9104.8
270.736	9080.53
270.806	9076.3
270.875	9076.15
270.944	9059.98
271.013	9080.49
271.082	9079.62
271.151	9077.26
271.22	9040.92
271.289	9024.6
271.358	9008.37
271.427	9004.14
271.496	9001.44
271.565	8982.66
271.634	8968.99
271.703	8971.98
271.772	8976.12
271.841	8966.35
271.91	8945.5
271.979	8935.68
272.048	8916.09
272.117	8917.63
272.186	8899.67
272.255	8903.14
272.324	8900.44
272.393	8905.98
272.462	8893.36
272.531	8876.47
272.6	8862.99
272.669	8876.08
272.738	8871.02
272.807	8869.29
272.876	8850.42
272.945	8879.31
273.013	8876.13
273.082	8884.31
273.151	8861.83
273.22	8853.46
273.289	8847.1
273.358	8857.6
273.427	8843.69
273.496	8840.08
273.564	8830.55
273.633	8834.35
273.702	8814.66
273.771	8805.27
273.84	8799.4
273.909	8790.59
273.977	8789.82
274.046	8776.49
274.115	8780.82
274.184	8763.93
274.253	8753.97
274.322	8760.22
274.39	8720.61
274.459	8710.64
274.528	8682.58
274.597	8670.41
274.665	8668.34
274.734	8673.59
274.803	8666.46
274.872	8656.93
274.94	8645
275.009	8703.94
275.078	8692.39
275.147	8692
275.215	8687.86
275.284	8687.86
275.353	8681.61
275.421	8658.7
275.49	8673.91
275.559	8662.26
275.627	8654.47
275.696	8648.69
275.765	8648.6
275.833	8640.94
275.902	8637.09
275.971	8651.58
276.039	8674.97
276.108	8679.16
276.177	8679.01
276.245	8661.01
276.314	8660.63
276.383	8671.5
276.451	8602.79
276.52	8603.03
276.588	8610.35
276.657	8616.51
276.725	8609.58
276.794	8614.05
276.863	8626.86
276.931	8602.12
277	8612.37
277.068	8622.47
277.137	8638.16
277.205	8636.96
277.274	8660.16
277.342	8674.31
277.411	8653.33
277.48	8640.28
277.548	8627.48
277.617	8632.53
277.685	8629.55
277.754	8630.22
277.822	8620.74
277.89	8634.8
277.959	8621.85
278.027	8605.44
278.096	8593.84
278.164	8620.32
278.233	8607.9
278.301	8589.71
278.37	8594.91
278.438	8571.04
278.507	8576.04
278.575	8551.74
278.643	8546.83
278.712	8524.31
278.78	8506.89
278.849	8513.05
278.917	8516.85
278.985	8512.47
279.054	8511.94
279.122	8526.57
279.191	8528.98
279.259	8525.51
279.327	8509.72
279.396	8533.59
279.464	8527.48
279.532	8533.11
279.601	8525.51
279.669	8517.18
279.737	8533.78
279.806	8536.53
279.874	8554.33
279.942	8548.36
280.011	8541.24
280.079	8546.83
280.147	8563.43
280.215	8568.48
280.284	8563.57
280.352	8548.7
280.42	8562.95
280.488	8552.02
280.557	8536.96
280.625	8538.21
280.693	8534.07
280.761	8532.58
280.83	8507.46
280.898	8521.46
280.966	8501.4
281.034	8469.78
281.102	8459.72
281.171	8448.75
281.239	8459.24
281.307	8450.15
281.375	8444.28
281.443	8472.38
281.512	8471.18
281.58	8477
281.648	8465.11
281.716	8465.36
281.784	8464.49
281.852	8454.29
281.92	8450.87
281.989	8465.11
282.057	8450.63
282.125	8497.7
282.193	8497.7
282.261	8507.28
282.329	8502.85
282.397	8511.99
282.465	8511.27
282.533	8525.61
282.601	8516.95
282.67	8494.43
282.738	8491.35
282.806	8498.13
282.874	8484.51
282.942	8484.9
283.01	8478.64
283.078	8482.44
283.146	8478.93
283.214	8491.05
283.282	8496.35
283.35	8507.85
283.418	8504.29
283.486	8508.86
283.554	8464.87
283.622	8462.27
283.69	8456.3
283.758	8449.13
283.826	8445.33
283.894	8461.5
283.962	8476.61
284.03	8498.6
284.098	8499.95
284.165	8488.45
284.233	8492.83
284.301	8488.45
284.369	8481.28
284.437	8469.39
284.505	8463.76
284.573	8480.75
284.641	8468.72
284.709	8472.37
284.777	8452.45
284.845	8452.45
284.912	8450.91
284.98	8458.47
285.048	8450.19
285.116	8461.26
285.184	8475.45
285.252	8477.57
285.319	8457.94
285.387	8451.87
285.455	8432.05
285.523	8435.95
285.591	8431.09
285.659	8427.72
285.726	8434.46
285.794	8421.99
285.862	8426.42
285.93	8428.01
285.997	8420.07
286.065	8415.93
286.133	8406.98
286.201	8411.36
286.269	8401.45
286.336	8400.72
286.404	8385.62
286.472	8395.67
286.539	8372.87
286.607	8357.37
286.675	8356.17
286.743	8363.72
286.81	8358.72
286.878	8368.82
286.946	8362.95
287.013	8360.98
287.081	8361.22
287.149	8346.3
287.216	8362.66
287.284	8357.08
287.352	8356.84
287.419	8354.29
287.487	8367.28
287.555	8366.22
287.622	8363.58
287.69	8367.71
287.758	8377.43
287.825	8381.14
287.893	8370.12
287.96	8380.03
288.028	8389.94
288.096	8391.29
288.163	8394.9
288.231	8379.74
288.298	8381.86
288.366	8399.33
288.433	8400.77
288.501	8394.08
288.569	8396.97
288.636	8394.32
288.704	8406.88
288.771	8416.27
288.839	8402.84
288.906	8399.72
288.974	8414.88
289.041	8409.34
289.109	8403.23
289.176	8408.09
289.244	8407.56
289.311	8424.55
289.379	8430.71
289.446	8435.33
289.514	8442.74
289.581	8444.62
289.649	8453.85
289.716	8456.84
289.783	8444.23
289.851	8469.3
289.918	8466.75
289.986	8475.41
290.053	8479.45
290.121	8477.57
290.188	8479.69
290.255	8517.37
290.323	8513.67
290.39	8503.8
290.458	8510.87
290.525	8524.97
290.592	8520.25
290.66	8527.86
290.727	8517.65
290.794	8528.87
290.862	8525.64
290.929	8525.93
290.996	8524.54
291.064	8535.12
291.131	8544.51
291.198	8556.54
291.266	8550.52
291.333	8555.05
291.4	8565.83
291.468	8584.45
291.535	8580.75
291.602	8582.38
291.669	8576.22
291.737	8581.03
291.804	8581.71
291.871	8601.44
291.938	8608.76
292.006	8634.89
292.073	8639.94
292.14	8651.16
292.207	8645.19
292.275	8648.51
292.342	8657.75
292.409	8685.81
292.476	8705.6
292.543	8697.9
292.611	8697.85
292.678	8716.62
292.745	8740.63
292.812	8749.83
292.879	8736.98
292.946	8740.15
293.014	8754.78
293.081	8762.97
293.148	8774.47
293.215	8790.93
293.282	8786.02
293.349	8800.08
293.416	8785.92
293.484	8807.97
293.551	8820.53
293.618	8841.13
293.685	8868.19
293.752	8863.9
293.819	8852.73
293.886	8847.34
293.953	8853.45
294.02	8873.09
294.087	8875.12
294.154	8866.89
294.221	8886.29
294.288	8891.2
294.356	8913.15
294.423	8920.32
294.49	8913.05
294.557	8930.67
294.624	8928.6
294.691	8949.97
294.758	8950.5
294.825	8952.72
294.892	8942.61
294.959	8940.01
295.026	8944.82
295.093	8930.57
295.16	8927.44
295.226	8934.95
295.293	8957.49
295.36	8962.88
295.427	8967.21
295.494	8981.7
295.561	8994.65
295.628	9011.79
295.695	9033.31
295.762	9029.08
295.829	9041.26
295.896	9060.03
295.963	9063.02
296.03	9067.06
296.096	9066.96
296.163	9078.86
296.23	9104.37
296.297	9114.77
296.364	9119.2
296.431	9124.88
296.498	9130.32
296.564	9161.52
296.631	9164.36
296.698	9149.14
296.765	9174.32
296.832	9163.83
296.899	9152.7
296.965	9163.3
297.032	9140.85
297.099	9152.89
297.166	9166.61
297.233	9152.75
297.299	9143.94
297.366	9142.83
297.433	9151.54
297.5	9161.85
297.566	9153.23
297.633	9145.19
297.7	9149.86
297.767	9146.87
297.833	9150.24
297.9	9152.75
297.967	9133.2
298.033	9148.37
298.1	9178.08
298.167	9165.61
298.234	9169.65
298.3	9181.54
298.367	9184.34
298.434	9194.59
298.5	9179.04
298.567	9175.76
298.634	9174.61
298.7	9189.77
298.767	9200.37
298.834	9209.42
298.9	9209.23
298.967	9209.95
299.033	9218.62
299.1	9234.75
299.167	9247.31
299.233	9246.16
299.3	9261.13
299.366	9285.64
299.433	9300.9
299.5	9274.37
299.566	9278.9
299.633	9297.72
299.699	9310.53
299.766	9304.66
299.832	9309.47
299.899	9325.46
299.965	9337.35
300.032	9341.06
300.099	9348.86
300.165	9354.88
300.232	9352.33
300.298	9351.27
300.365	9358.73
300.431	9363.98
300.498	9359.41
300.564	9363.59
300.631	9378.96
300.697	9381.07
300.763	9378.28
300.83	9373.08
300.896	9388.92
300.963	9402.07
301.029	9405.63
301.096	9404.76
301.162	9417.33
301.229	9410.59
301.295	9398.84
301.361	9401.2
301.428	9407.6
301.494	9393.35
301.561	9391.71
301.627	9398.7
301.693	9396.24
301.76	9404.33
301.826	9394.51
301.892	9404.67
301.959	9418.73
302.025	9412.37
302.092	9414.2
302.158	9416.85
302.224	9420.17
302.291	9411.7
302.357	9404.04
302.423	9398.46
302.49	9389.45
302.556	9404.04
302.622	9404.48
302.688	9415.7
302.755	9429.47
302.821	9438.04
302.887	9450.46
302.954	9448.59
303.02	9453.35
303.086	9472.33
303.152	9468.28
303.219	9469.34
303.285	9476.13
303.351	9482.2
303.417	9485.86
303.483	9481.67
303.55	9476.76
303.616	9476.13
303.682	9476.23
303.748	9468.67
303.815	9487.16
303.881	9499.39
303.947	9477.34
304.013	9484.56
304.079	9475.51
304.145	9454.46
304.212	9447.39
304.278	9437.95
304.344	9437.37
304.41	9425.28
304.476	9408.28
304.542	9404.82
304.608	9409.58
304.674	9387.91
304.741	9381.03
304.807	9380.69
304.873	9385.99
304.939	9406.69
305.005	9384.54
305.071	9382.18
305.137	9383.97
305.203	9356.37
305.269	9353.34
305.335	9376.65
305.401	9371.4
305.467	9376.6
305.533	9388.25
305.599	9399.09
305.666	9408.72
305.732	9402.89
305.798	9414.49
305.864	9440.5
305.93	9450.9
305.996	9454.22
306.062	9455.33
306.128	9449.26
306.194	9439.49
306.259	9432.36
306.325	9417
306.391	9429.23
306.457	9435.3
306.523	9445.79
306.589	9475.12
306.655	9468.91
306.721	9445.12
306.787	9425.47
306.853	9433.47
306.919	9415.12
306.985	9408.33
307.051	9401.98
307.117	9399.57
307.183	9393.36
307.248	9364.32
307.314	9366.34
307.38	9358.54
307.446	9375.59
307.512	9362.59
307.578	9363.16
307.644	9362.1
307.709	9364.85
307.775	9363.07
307.841	9361.38
307.907	9353.2
307.973	9327.91
308.039	9326.18
308.104	9332.54
308.17	9338.89
308.236	9321.22
308.302	9328.44
308.368	9313.95
308.433	9315.59
308.499	9308.75
308.565	9298.64
308.631	9298.68
308.696	9274.75
308.762	9267.72
308.828	9256.55
308.894	9245.72
308.959	9228.92
309.025	9221.6
309.091	9213.03
309.156	9200.84
309.222	9201.33
309.288	9194.78
309.354	9170.75
309.419	9168.49
309.485	9153.71
309.551	9161.7
309.616	9154.14
309.682	9149.43
309.748	9145.09
309.813	9136.19
309.879	9129.25
309.945	9123.72
310.01	9119.05
310.076	9123.72
310.141	9122.46
310.207	9104.99
310.273	9106.67
310.338	9110.86
310.404	9092.76
310.469	9085.39
310.535	9077.21
310.601	9055.21
310.666	9058.58
310.732	9073.55
310.797	9057.85
310.863	9050.25
310.928	9037.44
310.994	9044.08
311.059	9039.51
311.125	9035.75
311.191	9048.66
311.256	9042.79
311.322	9046.35
311.387	9024.78
311.453	9405.71
311.518	9371.68
311.584	9372.89
311.649	9379.14
311.715	9367.54
311.78	9374.38
311.846	9358.68
311.911	9370.82
311.976	9377.22
312.042	9359.46
312.107	9348.91
312.173	9343.76
312.238	9336.69
312.304	9331.39
312.369	9315.79
312.434	9303.18
312.5	9297.11
312.565	9265.97
312.631	9266.06
312.696	9252.15
312.761	9260.48
312.827	8867.8
312.892	8913.15
312.958	8907.13
313.023	8902.17
313.088	8899.91
313.154	8884.36
313.219	8877.43
313.284	8862.46
313.35	8855.04
313.415	8847.87
313.48	8836.61
313.546	8844.7
313.611	8858.08
313.676	8851.87
313.741	8849.85
313.807	8856.97
313.872	8860.58
313.937	8867.61
314.003	8881.76
314.068	8885.28
314.133	8892.59
314.198	8882.87
314.264	8861.45
314.329	8856.63
314.394	8852.01
314.459	8852.4
314.525	8873.48
314.59	8873.81
314.655	8862.31
314.72	8868.47
314.785	8874.83
314.851	8870.25
314.916	8851.72
314.981	8823.66
315.046	8813.55
315.111	8801.81
315.176	8791.85
315.242	8798.87
315.307	8789.87
315.372	8769.75
315.437	8762.29
315.502	8750.26
315.567	8761.76
315.632	8747.03
315.698	8744.29
315.763	8735.96
315.828	8727.83
315.893	8721.71
315.958	8716.76
316.023	8706.12
316.088	8682.78
316.153	8657.71
316.218	8650.39
316.283	8632.54
316.348	8625.13
316.413	8625.37
316.479	8610.16
316.544	8576.96
316.609	8545.73
316.674	8517.14
316.739	8483.61
316.804	8447.47
316.869	8411.48
316.934	8370.77
316.999	8345.32
317.064	8293.79
317.129	8257.32
317.194	8216
317.259	8165.62
317.324	8119.1
317.389	8083.99
317.454	8052.77
317.518	8020.01
317.583	7997.89
317.648	7972.58
317.713	7941.75
317.778	7885.38
317.843	7855.85
317.908	7816.47
317.973	7778.91
318.038	7747.75
318.103	7714.42
318.168	7688.65
318.233	7659.66
318.297	7616.29
318.362	7571.33
318.427	7540.28
318.492	7514.84
318.557	7471.01
318.622	7442.94
318.687	7419.87
318.751	7381.03
318.816	7347
318.881	7316.04
318.946	7264.76
319.011	7218.43
319.075	7175.27
319.14	7138.66
319.205	7095.7
319.27	7066.01
319.335	7018.92
319.399	6981.25
319.464	6949.45
319.529	6895.41
319.594	6857.64
319.658	6828.87
319.723	6790.59
319.788	6762.97
319.853	6705.24
319.917	6676.72
319.982	6626.05
320.047	6587.25
320.112	6556.04
320.176	6502.98
320.241	6468.17
320.306	6438.54
320.37	6400.86
320.435	6374.4
320.5	6347.28
320.564	6309.51
320.629	6269.43
320.694	6241.4
320.758	6199.46
320.823	6159.72
320.888	6132.18
320.952	6084.54
321.017	6043.27
321.082	6008.72
321.146	5971.78
321.211	5944.44
321.275	5907.84
321.34	5867.17
321.405	5822.28
321.469	5779.17
321.534	5741.2
321.598	5691.18
321.663	5662.16
321.727	5633.39
321.792	5583.09
321.857	5542.91
321.921	5506.19
321.986	5466.03
322.05	5406.42
322.115	5369.85
322.179	5326.77
322.244	5273.54
322.308	5242.01
322.373	5189.41
322.437	5149.88
322.502	5122.9
322.566	5078.68
322.631	5041.08
322.695	5002.87
322.76	4964.42
322.824	4931.28
322.889	4892.31
322.953	4849.23
323.018	4780.09
323.082	4717.01
323.146	4665.57
323.211	4611.82
323.275	4567.35
323.34	4522.81
323.404	4491.05
323.468	4449.18
323.533	4408.57
323.597	4365.44
323.662	4314.93
323.726	4281.07
323.79	4234.25
323.855	4170.2
323.919	4119.57
323.983	4079.93
324.048	4014.71
324.112	4159.06
324.177	4030.82
324.241	3821.05
324.305	3618.63
324.37	3419.8
324.434	3226.71
324.498	3185.58
324.562	3136.36
324.627	3076.21
324.691	3020.79
324.755	2957.5
324.82	2879.35
324.884	2796.56
324.948	2725.19
325.012	2630.81
325.077	2514.25
