Data from 20250703_urea_0.1M_MAYP1162681_18-31-05-604.txt Node
Date: Thu Jul 03 18:31:05 BST 2025
User: adleo
Spectrometer: MAYP116268
Trigger mode: 0
Integration Time (sec): 1.000000E0
Scans to average: 1
Electric dark correction enabled: true
Nonlinearity correction enabled: true
Boxcar width: 10
XAxis mode: Wavelengths
Number of Pixels in Spectrum: 2068
>>>>>Begin Spectral Data<<<<<
179.565	1354.06
179.642	1416.36
179.718	1464.47
179.795	1510.92
179.871	1547.24
179.948	1570.41
180.024	1597.79
180.101	1623.56
180.177	1641.05
180.254	1666.33
180.33	1689.83
180.407	1753.47
180.483	1863.6
180.56	1964.67
180.636	2059.26
180.712	2046.17
180.789	2056.87
180.865	2072.94
180.942	2080.98
181.018	2089.54
181.095	2105.05
181.171	2109.29
181.248	2112.42
181.324	2130.41
181.4	2138.17
181.477	2152.11
181.553	2164.19
181.63	2184.32
181.706	2203.83
181.782	2211.2
181.859	2211.91
181.935	2220.43
182.011	2217.72
182.088	2232.95
182.164	2254.13
182.24	2267.88
182.317	2278.2
182.393	2276.58
182.469	2291.52
182.546	2309.04
182.622	2315.6
182.698	2310.65
182.775	2321.74
182.851	2337.97
182.927	2330.69
183.003	2324.98
183.08	2316.94
183.156	2327.93
183.232	2320.7
183.308	2305.32
183.385	2311.6
183.461	2330.45
183.537	2330.55
183.613	2345.78
183.69	2335.02
183.766	2326.02
183.842	2335.16
183.918	2341.16
183.995	2358.01
184.071	2362.86
184.147	2354.72
184.223	2343.5
184.299	2357.63
184.375	2345.5
184.452	2351.79
184.528	2404.88
184.604	2415.11
184.68	2427.01
184.756	2434.43
184.832	2443.67
184.908	2449.62
184.985	2452.52
185.061	2430.29
185.137	2439.91
185.213	2429.72
185.289	2431.58
185.365	2424.58
185.441	2422.53
185.517	2432.58
185.593	2428.82
185.669	2424.49
185.745	2437.1
185.822	2452.05
185.898	2441.62
185.974	2454.37
186.05	2444.23
186.126	2407.28
186.202	2399.38
186.278	2397.9
186.354	2386.95
186.43	2392.38
186.506	2394.1
186.582	2393.19
186.658	2404.42
186.734	2382.34
186.81	2382.48
186.886	2384.48
186.962	2395.86
187.038	2392.81
187.114	2387.19
187.19	2392.81
187.266	2382.72
187.341	2381.1
187.417	2375.29
187.493	2377.86
187.569	2379.58
187.645	2375.67
187.721	2362.72
187.797	2372.57
187.873	2373.76
187.949	2368.34
188.025	2362.05
188.101	2362.72
188.176	2370.43
188.252	2368.19
188.328	2377.04
188.404	2375.47
188.48	2374.19
188.556	2365.67
188.632	2364.09
188.707	2366.86
188.783	2363.86
188.859	2358.29
188.935	2346.44
189.011	2355.81
189.086	2347.82
189.162	2338.63
189.238	2332.78
189.314	2331.97
189.39	2322.69
189.465	2318.02
189.541	2335.35
189.617	2319.6
189.693	2313.41
189.768	2313.46
189.844	2339.7
189.92	2330
189.996	2344.18
190.071	2355.89
190.147	2356.13
190.223	2367.75
190.298	2359.03
190.374	2345.94
190.45	2357.89
190.526	2368.03
190.601	2360.22
190.677	2362.03
190.753	2394.94
190.828	2398.94
190.904	2415.18
190.98	2436.22
191.055	2445.31
191.131	2437.27
191.207	2461.02
191.282	2474.3
191.358	2467.59
191.433	2451.11
191.509	2467.47
191.585	2461.28
191.66	2460.43
191.736	2467.81
191.811	2458.24
191.887	2475.71
191.963	2501.9
192.038	2509.9
192.114	2510.47
192.189	2515.09
192.265	2509.9
192.34	2482.99
192.416	2483.56
192.491	2477.7
192.567	2478.51
192.642	2483.32
192.718	2482.79
192.793	2468.18
192.869	2458.23
192.944	2460.46
193.02	2467.42
193.095	2469.32
193.171	2474.56
193.246	2474.85
193.322	2472.61
193.397	2473.04
193.473	2457.6
193.548	2435.94
193.624	2443.13
193.699	2441.13
193.775	2461.94
193.85	2467.32
193.925	2477.13
194.001	2475.04
194.076	2466.51
194.152	2456.42
194.227	2448.85
194.302	2437.66
194.378	2440.95
194.453	2443.37
194.529	2456.71
194.604	2440.66
194.679	2434.95
194.755	2416.43
194.83	2430.01
194.905	2427.92
194.981	2438.82
195.056	2430.3
195.131	2439.16
195.207	2436.92
195.282	2428.35
195.357	2403.06
195.433	2418.05
195.508	2406.25
195.583	2416.2
195.659	2430.05
195.734	2437.81
195.809	2436.43
195.884	2446.76
195.96	2447.81
196.035	2463.62
196.11	2456.61
196.185	2471.42
196.261	2478.04
196.336	2509.18
196.411	2491.84
196.486	2498.03
196.561	2490.74
196.637	2502.55
196.712	2519.65
196.787	2521.79
196.862	2538.46
196.937	2550.74
197.013	2558.46
197.088	2570.12
197.163	2592.8
197.238	2612.44
197.313	2611.1
197.388	2626.11
197.464	2657.36
197.539	2667.89
197.614	2658.36
197.689	2673.41
197.764	2692.62
197.839	2712.91
197.914	2707.48
197.989	2734.21
198.065	2749.41
198.14	2803
198.215	2831.31
198.29	2844.75
198.365	2862.91
198.44	2872.3
198.515	2904
198.59	2920.73
198.665	2948.66
198.74	2957.58
198.815	2962.2
198.89	2988.28
198.965	3023.28
199.04	3022.09
199.115	3040.73
199.19	3089.11
199.265	3092.26
199.34	3100.51
199.415	3137.96
199.49	3160.51
199.565	3170
199.64	3192.51
199.715	3189.89
199.79	3197.37
199.865	3204.48
199.94	3200.29
200.015	3236.88
200.09	3244.22
200.165	3253.14
200.24	3258.92
200.315	3303.61
200.39	3317.93
200.464	3327.23
200.539	3327.09
200.614	3347.55
200.689	3372.89
200.764	3377.81
200.839	3399.98
200.914	3407.19
200.989	3395.35
201.063	3411.24
201.138	3395.12
201.213	3400.32
201.288	3384
201.363	3391.21
201.438	3390.25
201.512	3407.8
201.587	3389.38
201.662	3391.19
201.737	3402.51
201.812	3414.92
201.886	3378.14
201.961	3391.22
202.036	3375.82
202.111	3374.34
202.186	3342.05
202.26	3327.97
202.335	3305.02
202.41	3299.01
202.485	3282.03
202.559	3263.61
202.634	3238.28
202.709	3249.77
202.784	3230.78
202.858	3229.78
202.933	3213.89
203.008	3213.32
203.082	3193.1
203.157	3197.25
203.232	3156.72
203.306	3145.37
203.381	3118.74
203.456	3104.38
203.53	3086.96
203.605	3076.85
203.68	3060.82
203.754	3068.3
203.829	3064.92
203.904	3063.63
203.978	3067.68
204.053	3090.44
204.127	3095.49
204.202	3113.62
204.277	3114.33
204.351	3129.88
204.426	3147.3
204.5	3162.71
204.575	3152.03
204.65	3194.5
204.724	3220.62
204.799	3268.16
204.873	3295.28
204.948	3333.03
205.022	3362.62
205.097	3401.69
205.171	3461.59
205.246	3518.09
205.32	3563.05
205.395	3616.88
205.469	3659.99
205.544	3724.07
205.618	3765.79
205.693	3843.83
205.767	3899.78
205.842	3992.75
205.916	4059.67
205.991	4126.56
206.065	4213.46
206.14	4313.83
206.214	4400.13
206.289	4479.77
206.363	4583.14
206.438	4680.86
206.512	4788.31
206.586	4910.93
206.661	5023.02
206.735	5110.8
206.81	5222.72
206.884	5357.06
206.958	5458.13
207.033	5600.09
207.107	5726.44
207.181	5879.4
207.256	5997.85
207.33	6145.95
207.405	6291.67
207.479	6441.27
207.553	6582.92
207.628	6698.8
207.702	6850.26
207.776	6976.07
207.851	7119.91
207.925	7276.92
207.999	7415.29
208.073	7563.12
208.148	7709.72
208.222	7838.9
208.296	8016.8
208.371	8189.62
208.445	8352.04
208.519	8532.88
208.593	8694.19
208.668	8848.31
208.742	9010.5
208.816	9170.69
208.89	9342.01
208.965	9499.15
209.039	9672.57
209.113	9853.41
209.187	10040.1
209.261	10186.47
209.336	10371.24
209.41	10559.18
209.484	10723.62
209.558	10911
209.632	11078.34
209.707	11249.99
209.781	11440.23
209.855	11627.51
209.929	11800.4
210.003	11968.8
210.077	12129.93
210.151	12347.74
210.226	12547.35
210.3	12736.54
210.374	12920.19
210.448	13076.61
210.522	13242.82
210.596	13405.51
210.67	13562.08
210.744	13767.04
210.818	13957.64
210.892	14137.63
210.966	14279.12
211.041	14443.35
211.115	14593.07
211.189	14774.03
211.263	14941.2
211.337	15094.77
211.411	15249.98
211.485	15380.13
211.559	15534.42
211.633	15683.95
211.707	15781.26
211.781	15926.77
211.855	16028.95
211.929	16154.22
212.003	16281.9
212.077	16431.41
212.151	16575.81
212.225	16722.37
212.299	16840.79
212.373	16961.71
212.447	17074.77
212.52	17240.47
212.594	17373.62
212.668	17514.25
212.742	17617.87
212.816	17730.11
212.89	17843.6
212.964	17959.36
213.038	18089.38
213.112	18221.03
213.186	18355.73
213.26	18447.39
213.333	18509.07
213.407	18632.44
213.481	18754.36
213.555	18877.64
213.629	18970.31
213.703	19058.54
213.777	19167.79
213.85	19261.33
213.924	19404.45
213.998	19513.12
214.072	19596.98
214.146	19679.09
214.219	19771.76
214.293	19867.04
214.367	19971.13
214.441	20070.98
214.515	20156.96
214.588	20227.8
214.662	20282.11
214.736	20346.35
214.81	20450.4
214.883	20546.3
214.957	20611.65
215.031	20664.08
215.105	20722.06
215.178	20791.7
215.252	20861.24
215.326	20914.5
215.4	20963.95
215.473	20991.47
215.547	21047.57
215.621	21106.95
215.694	21187.25
215.768	21227.11
215.842	21275.64
215.915	21326.06
215.989	21366.79
216.063	21416.15
216.136	21474.08
216.21	21531.39
216.284	21593.23
216.357	21657.34
216.431	21714.65
216.504	21789.17
216.578	21885.29
216.652	21949.98
216.725	22008.64
216.799	22084.76
216.873	22143.23
216.946	22197.27
217.02	22245.14
217.093	22292.48
217.167	22317.64
217.24	22348.4
217.314	22404.46
217.387	22448.86
217.461	22485.6
217.535	22556.13
217.608	22591.71
217.682	22640.59
217.755	22705.2
217.829	22741.31
217.902	22787.4
217.976	22835.18
218.049	22864.74
218.123	22898.35
218.196	22943.04
218.27	22972.79
218.343	23001.87
218.417	23039.96
218.49	23091.02
218.563	23142.32
218.637	23192.76
218.71	23264.9
218.784	23313.99
218.857	23360.09
218.931	23415.01
219.004	23463.81
219.077	23499.4
219.151	23551.09
219.224	23585.62
219.298	23613.21
219.371	23679.38
219.444	23702.04
219.518	23728.66
219.591	23763.62
219.665	23808.82
219.738	23853.77
219.811	23881.59
219.885	23922.11
219.958	23962.38
220.031	23986.93
220.105	24026
220.178	24061.45
220.251	24082.77
220.325	24131.15
220.398	24168
220.471	24196.46
220.544	24232.4
220.618	24253.86
220.691	24278.61
220.764	24314.69
220.838	24353.13
220.911	24357.38
220.984	24404.65
221.057	24444.69
221.131	24472.43
221.204	24465.67
221.277	24495.05
221.35	24555.74
221.424	24572
221.497	24598.58
221.57	24617.83
221.643	24650.1
221.716	24685.33
221.79	24698.21
221.863	24701.68
221.936	24712.44
222.009	24724.93
222.082	24741.96
222.155	24745.05
222.229	24771.73
222.302	24787.46
222.375	24800.68
222.448	24827.46
222.521	24831.37
222.594	24837.16
222.667	24834.74
222.74	24853.03
222.814	24862.58
222.887	24862.1
222.96	24882.27
223.033	24902.63
223.106	24924.24
223.179	24929.17
223.252	24918.26
223.325	24921.78
223.398	24923.86
223.471	24936.01
223.544	24951.55
223.617	24951.31
223.69	24970.46
223.763	24960.86
223.837	24969.11
223.91	24973.94
223.983	24957.48
224.056	24932.3
224.129	24937.03
224.202	24949.81
224.275	24959.37
224.348	24947.98
224.42	24925.4
224.493	24910.06
224.566	24878.64
224.639	24875.75
224.712	24864.26
224.785	24862.87
224.858	24862.14
224.931	24854.23
225.004	24817.23
225.077	24798.41
225.15	24767.34
225.223	24762.03
225.296	24784.18
225.369	24752.05
225.442	24730.19
225.514	24726.09
225.587	24734.73
225.66	24731.25
225.733	24728.5
225.806	24724.31
225.879	24717.74
225.952	24697.82
226.025	24697.92
226.097	24714.61
226.17	24697.19
226.243	24662.6
226.316	24639.45
226.389	24631.05
226.461	24623.28
226.534	24633.9
226.607	24615.85
226.68	24631.77
226.753	24606.64
226.825	24565.72
226.898	24570.6
226.971	24556.27
227.044	24553.18
227.117	24547.01
227.189	24534.99
227.262	24518.98
227.335	24503.25
227.407	24474.36
227.48	24466.88
227.553	24447.15
227.626	24419.89
227.698	24411.4
227.771	24401.08
227.844	24373.19
227.916	24344.98
227.989	24311.55
228.062	24279.62
228.134	24291.72
228.207	24275.76
228.28	24258.87
228.352	24243.49
228.425	24228.44
228.498	24225.16
228.57	24182.37
228.643	24175.04
228.716	24142.05
228.788	24121.5
228.861	24087.35
228.934	24083.73
229.006	24068.2
229.079	24038.59
229.151	24003.81
229.224	23953.84
229.296	23930.6
229.369	23939.71
229.442	23940.34
229.514	23909.81
229.587	23908.99
229.659	23862.79
229.732	23844.6
229.804	23842.19
229.877	23843.45
229.949	23832.69
230.022	23822.71
230.094	23809.59
230.167	23784.51
230.239	23755.04
230.312	23730.83
230.384	23739.42
230.457	23719.74
230.529	23695.1
230.602	23677.21
230.674	23661.2
230.747	23664.43
230.819	23665.54
230.892	23618.9
230.964	23603.23
231.037	23606.46
231.109	23584.95
231.181	23574.39
231.254	23539.28
231.326	23510.06
231.399	23467.95
231.471	23431.69
231.544	23384.38
231.616	23367.45
231.688	23345.27
231.761	23317.74
231.833	23288.95
231.905	23227.81
231.978	23202.35
232.05	23175.44
232.122	23157.36
232.195	23138.7
232.267	23124.72
232.339	23090.82
232.412	23076.55
232.484	23033.44
232.556	22983.83
232.629	22983.2
232.701	22967.09
232.773	22936.14
232.846	22894.87
232.918	22877.94
232.99	22843.81
233.062	22832.43
233.135	22814.69
233.207	22771.78
233.279	22771.25
233.351	22748.44
233.424	22725.78
233.496	22683.41
233.568	22676.46
233.64	22629.7
233.713	22592.43
233.785	22551.5
233.857	22521.71
233.929	22472.63
234.001	22461.16
234.074	22456.58
234.146	22398.91
234.218	22364.88
234.29	22334.94
234.362	22294.21
234.434	22237.66
234.507	22197.84
234.579	22137.68
234.651	22091.4
234.723	22059.35
234.795	22019.91
234.867	21984
234.939	21973.88
235.012	21945.54
235.084	21919.7
235.156	21900.75
235.228	21865.85
235.3	21831
235.372	21798.9
235.444	21776.1
235.516	21720.76
235.588	21688.9
235.66	21651.69
235.732	21597.37
235.804	21621.23
235.876	21605.8
235.948	21595.97
236.02	21570.14
236.092	21537.94
236.164	21502.32
236.236	21463.62
236.308	21413.83
236.38	21388.33
236.452	21339.7
236.524	21311.31
236.596	21291.6
236.668	21262.87
236.74	21227.78
236.812	21197.66
236.884	21167.49
236.956	21139.2
237.028	21087.19
237.1	21033.21
237.172	21016.15
237.244	21010.51
237.316	20930.36
237.388	20886.16
237.46	20834.16
237.532	20800.04
237.604	20759.99
237.675	20740.52
237.747	20712.86
237.819	20680.33
237.891	20634.01
237.963	20590.01
238.035	20544.52
238.107	20458.73
238.178	20440.18
238.25	20401.04
238.322	20385.33
238.394	20331.5
238.466	20287.65
238.538	20267.26
238.609	20238.2
238.681	20169.53
238.753	20113.33
238.825	20081.96
238.897	20046.16
238.968	20042.11
239.04	20004.42
239.112	19996.13
239.184	19943.27
239.255	19898.93
239.327	19861.01
239.399	19829.63
239.471	19795.9
239.542	19766.89
239.614	19743.32
239.686	19668.77
239.758	19645.88
239.829	19591.43
239.901	19573.55
239.973	19540.97
240.044	19511.96
240.116	19472.06
240.188	19443.68
240.259	19412.5
240.331	19366.38
240.403	19340.6
240.474	19275.3
240.546	19227.35
240.618	19162.39
240.689	19131.31
240.761	19104.8
240.833	19088.23
240.904	19048.04
240.976	19019.36
241.048	18984.76
241.119	18970.64
241.191	18946.79
241.262	18926.69
241.334	18880.58
241.405	18836.15
241.477	18789.06
241.549	18748.1
241.62	18713.31
241.692	18678.57
241.763	18650.52
241.835	18606.62
241.906	18567.87
241.978	18518.91
242.049	18505.23
242.121	18486.29
242.192	18455.06
242.264	18396.03
242.335	18335.16
242.407	18318.01
242.478	18267.26
242.55	18231.65
242.621	18172.09
242.693	18126.59
242.764	18081.44
242.836	18049.83
242.907	18021.88
242.979	17987.85
243.05	17950.84
243.122	17929.54
243.193	17896.58
243.264	17834.84
243.336	17805.3
243.407	17780.82
243.479	17771.67
243.55	17733.98
243.622	17702.37
243.693	17663.23
243.764	17655.91
243.836	17616.44
243.907	17564.1
243.978	17525.45
244.05	17487.38
244.121	17436.2
244.192	17410.56
244.264	17352.78
244.335	17313.93
244.407	17255.28
244.478	17229.59
244.549	17194.65
244.62	17139.57
244.692	17102.46
244.763	17075.57
244.834	17033.54
244.906	16980.34
244.977	16936.48
245.048	16914.7
245.119	16864.57
245.191	16830.6
245.262	16763.8
245.333	16748.9
245.405	16715.89
245.476	16695.12
245.547	16668.51
245.618	16650.54
245.689	16622.1
245.761	16590.1
245.832	16555.16
245.903	16534.1
245.974	16497.42
246.045	16456.64
246.117	16445.8
246.188	16394.32
246.259	16353.45
246.33	16320.53
246.401	16291.23
246.473	16246.89
246.544	16195.56
246.615	16175.46
246.686	16133.62
246.757	16125.48
246.828	16075.98
246.899	16061.81
246.97	16012.5
247.042	15970.57
247.113	15940.15
247.184	15927.28
247.255	15897.5
247.326	15874.51
247.397	15844.67
247.468	15823.56
247.539	15797.15
247.61	15742.92
247.681	15726.92
247.752	15710.72
247.823	15668.45
247.894	15642.33
247.965	15602.42
248.037	15574.27
248.108	15528.09
248.179	15494.93
248.25	15469.19
248.321	15448.36
248.392	15403.1
248.463	15394.81
248.534	15361.02
248.605	15343.33
248.675	15306.99
248.746	15280.91
248.817	15253.49
248.888	15224.86
248.959	15172.41
249.03	15144.12
249.101	15116.11
249.172	15082.7
249.243	15030.84
249.314	15027.99
249.385	14993
249.456	14971.07
249.527	14944.7
249.598	14923.97
249.669	14899.77
249.739	14867.48
249.81	14844.92
249.881	14798.64
249.952	14773.48
250.023	14742.39
250.094	14695.77
250.165	14653.21
250.235	14623.47
250.306	14593.05
250.377	14550.82
250.448	14530.91
250.519	14487.48
250.59	14480.4
250.66	14445.45
250.731	14439.81
250.802	14396.57
250.873	14371.07
250.944	14347.35
251.014	14307.92
251.085	14306.62
251.156	14283.96
251.227	14268.58
251.297	14248.67
251.368	14237.1
251.439	14221.1
251.51	14216.91
251.58	14180.61
251.651	14152.65
251.722	14136.83
251.792	14087.86
251.863	14063.85
251.934	14053.05
252.005	14057.39
252.075	14032.81
252.146	14019.89
252.217	14001.95
252.287	13995.21
252.358	13977.56
252.429	13979.15
252.499	13952.35
252.57	13929.16
252.641	13914.22
252.711	13882.84
252.782	13842.29
252.852	13840.9
252.923	13808.07
252.994	13779.96
253.064	13774.47
253.135	13740.72
253.205	13710.02
253.276	13718.36
253.347	13718.6
253.417	13688.61
253.488	13657.91
253.558	13625.27
253.629	13605.79
253.699	13584.39
253.77	13563.81
253.841	13529
253.911	13504.46
253.982	13486.96
254.052	13468.94
254.123	13445.8
254.193	13433.84
254.264	13456.45
254.334	13423.81
254.405	13390.74
254.475	13355.46
254.546	13333.57
254.616	13329.04
254.687	13318.48
254.757	13299.44
254.827	13267.77
254.898	13253.16
254.968	13228.96
255.039	13194.69
255.109	13179.89
255.18	13149.28
255.25	13102.66
255.321	13092.3
255.391	13054.22
255.461	13049.15
255.532	12998.73
255.602	12970.29
255.673	12922.13
255.743	12888.58
255.813	12835.84
255.884	12821.48
255.954	12814.73
256.024	12807.84
256.095	12783.3
256.165	12743.96
256.235	12726.03
256.306	12700.53
256.376	12685.73
256.446	12680.19
256.517	12670.74
256.587	12669.29
256.657	12655.7
256.728	12647.46
256.798	12626.39
256.868	12601.32
256.938	12572.26
257.009	12568.4
257.079	12556.25
257.149	12556.49
257.219	12510.27
257.29	12504.34
257.36	12471.8
257.43	12457.53
257.5	12414.2
257.571	12384.36
257.641	12374.91
257.711	12341.12
257.781	12326.85
257.852	12313.69
257.922	12265.63
257.992	12246.59
258.062	12215.11
258.132	12197.91
258.202	12176.21
258.273	12153.17
258.343	12152.74
258.413	12129.65
258.483	12103.43
258.553	12074.89
258.623	12052.86
258.693	12040.38
258.764	12038.11
258.834	12034.4
258.904	12012.13
258.974	11987.41
259.044	11976.08
259.114	11964.99
259.184	11950.73
259.254	11932.51
259.324	11890.33
259.394	11884.5
259.464	11881.37
259.535	11854.81
259.605	11832.2
259.675	11803.72
259.745	11794.61
259.815	11763.81
259.885	11738.36
259.955	11754.12
260.025	11729.97
260.095	11710.98
260.165	11698.16
260.235	11698.06
260.305	11671.07
260.375	11645.48
260.445	11649.1
260.515	11643.5
260.585	11639.89
260.655	11617.19
260.725	11608.03
260.795	11598.49
260.865	11601.43
260.934	11576.27
261.004	11568.03
261.074	11550.87
261.144	11552.07
261.214	11548.65
261.284	11526.87
261.354	11526.34
261.424	11491.34
261.494	11491.58
261.564	11474.86
261.634	11467.77
261.703	11426.33
261.773	11416.3
261.843	11404.25
261.913	11385.65
261.983	11345.17
262.053	11328.92
262.123	11312.39
262.192	11278.27
262.262	11273.41
262.332	11238.8
262.402	11231.19
262.472	11219.91
262.541	11183
262.611	11177.84
262.681	11143.96
262.751	11141.41
262.821	11122.27
262.89	11093.45
262.96	11084.54
263.03	11099.33
263.1	11084.54
263.169	11070.08
263.239	11064.78
263.309	11074.13
263.379	11064.44
263.448	11059.24
263.518	11043
263.588	11027.05
263.657	11029.94
263.727	11026.76
263.797	11014.9
263.867	10989.27
263.936	10952.6
264.006	10956.69
264.076	10937.85
264.145	10921.18
264.215	10898.29
264.285	10889.61
264.354	10862.15
264.424	10830.39
264.494	10787.89
264.563	10767.7
264.633	10778.54
264.702	10763.07
264.772	10724.76
264.842	10708.96
264.911	10700.72
264.981	10675.56
265.05	10666.5
265.12	10649.06
265.19	10633.69
265.259	10627.81
265.329	10629.3
265.398	10621.4
265.468	10631.09
265.537	10610.51
265.607	10610.61
265.676	10606.51
265.746	10590.13
265.815	10587.72
265.885	10580.01
265.955	10562.33
266.024	10541.23
266.094	10497.82
266.163	10501.82
266.232	10504.03
266.302	10486.78
266.371	10470.69
266.441	10453.54
266.51	10446.02
266.58	10428.54
266.649	10397.65
266.719	10393.56
266.788	10382.81
266.858	10395.05
266.927	10359.15
266.996	10346.53
267.066	10335.11
267.135	10310.11
267.205	10312.76
267.274	10297.58
267.343	10296.04
267.413	10282.02
267.482	10287.37
267.552	10300.14
267.621	10265.16
267.69	10227.58
267.76	10216.41
267.829	10208.84
267.898	10195.16
267.968	10172.81
268.037	10177.44
268.106	10180.13
268.176	10159.42
268.245	10144.91
268.314	10119.96
268.384	10121.12
268.453	10112.64
268.522	10099.87
268.592	10095.05
268.661	10072.12
268.73	10070.72
268.799	10049.77
268.869	10051.7
268.938	10023.37
269.007	9996.01
269.076	9986.28
269.146	9991.39
269.215	9986.33
269.284	9992.93
269.353	9980.69
269.422	9965.71
269.492	9941.53
269.561	9899.77
269.63	9894.91
269.699	9873.47
269.768	9866.87
269.838	9854.06
269.907	9851.12
269.976	9824.15
270.045	9796.65
270.114	9790.34
270.183	9772.18
270.253	9771.17
270.322	9742.95
270.391	9728.45
270.46	9737.79
270.529	9740.73
270.598	9739.05
270.667	9724.93
270.736	9698.97
270.806	9702.25
270.875	9704.85
270.944	9694.69
271.013	9720.6
271.082	9707.78
271.151	9703.55
271.22	9667.57
271.289	9654.66
271.358	9638.39
271.427	9633.96
271.496	9625
271.565	9607.37
271.634	9601.79
271.703	9626.88
271.772	9630.3
271.841	9626.93
271.91	9602.95
271.979	9592.83
272.048	9565.81
272.117	9569.57
272.186	9562.97
272.255	9554.06
272.324	9554.21
272.393	9546.26
272.462	9529.6
272.531	9522.52
272.6	9511.68
272.669	9523.43
272.738	9513.85
272.807	9512.16
272.876	9488.62
272.945	9527.19
273.013	9530.42
273.082	9537.5
273.151	9486.93
273.22	9481.19
273.289	9467.18
273.358	9473.54
273.427	9463.23
273.496	9462.9
273.564	9451.96
273.633	9451.53
273.702	9428.32
273.771	9417.49
273.84	9417.44
273.909	9412.86
273.977	9411.08
274.046	9399.52
274.115	9403.52
274.184	9383.49
274.253	9373.53
274.322	9387.87
274.39	9345.35
274.459	9331.67
274.528	9301.48
274.597	9294.16
274.665	9290.31
274.734	9302.97
274.803	9286.02
274.872	9277.69
274.94	9262.53
275.009	9321.54
275.078	9308.44
275.147	9308.87
275.215	9307.09
275.284	9315.76
275.353	9304.15
275.421	9276.61
275.49	9295.83
275.559	9283.98
275.627	9281.81
275.696	9268.19
275.765	9271.75
275.833	9259.33
275.902	9257.55
275.971	9265.01
276.039	9283.12
276.108	9287.93
276.177	9282.11
276.245	9278.16
276.314	9268.82
276.383	9273.63
276.451	9207.11
276.52	9205.57
276.588	9216.93
276.657	9213.71
276.725	9195.8
276.794	9195.99
276.863	9203.74
276.931	9176.53
277	9185.59
277.068	9194.97
277.137	9216.54
277.205	9213.61
277.274	9240.33
277.342	9244.61
277.411	9221.02
277.48	9205.76
277.548	9195.46
277.617	9191.22
277.685	9176.54
277.754	9180.48
277.822	9173.94
277.89	9188.57
277.959	9178.46
278.027	9161.52
278.096	9157.09
278.164	9187.14
278.233	9176.3
278.301	9167.4
278.37	9175
278.438	9160.22
278.507	9163.64
278.575	9138.65
278.643	9130.66
278.712	9105.82
278.78	9094.45
278.849	9108.03
278.917	9115.3
278.985	9112.46
279.054	9116.94
279.122	9136.34
279.191	9137.16
279.259	9136.87
279.327	9113.27
279.396	9130.17
279.464	9123.38
279.532	9127.86
279.601	9127.38
279.669	9127.52
279.737	9140.23
279.806	9144.38
279.874	9155.02
279.942	9155.83
280.011	9142.55
280.079	9153.58
280.147	9176.97
280.215	9187.13
280.284	9183.09
280.352	9169.03
280.42	9173.94
280.488	9167.68
280.557	9154.3
280.625	9154.1
280.693	9153.24
280.761	9156.17
280.83	9141.78
280.898	9157.38
280.966	9135.91
281.034	9094.11
281.102	9075.43
281.171	9071.68
281.239	9076.06
281.307	9064.46
281.375	9050.74
281.443	9086.89
281.512	9079.67
281.58	9084.58
281.648	9061.38
281.716	9063.4
281.784	9064.65
281.852	9051.75
281.92	9042.6
281.989	9054.83
282.057	9035.24
282.125	9089.12
282.193	9083.59
282.261	9085.22
282.329	9079.01
282.397	9083.73
282.465	9086.72
282.533	9103.13
282.601	9089.55
282.67	9066.88
282.738	9058.21
282.806	9070.82
282.874	9056.62
282.942	9061.77
283.01	9053.3
283.078	9064.9
283.146	9059.36
283.214	9063.55
283.282	9073.81
283.35	9089.36
283.418	9080.79
283.486	9089.6
283.554	9036.43
283.622	9040.86
283.69	9039.9
283.758	9035.8
283.826	9041.44
283.894	9053.23
283.962	9071.96
284.03	9090.01
284.098	9091.26
284.165	9089.82
284.233	9085.58
284.301	9080
284.369	9063.34
284.437	9050.44
284.505	9045.29
284.573	9063.15
284.641	9055.64
284.709	9058
284.777	9039.75
284.845	9043.26
284.912	9051.59
284.98	9050.63
285.048	9044.23
285.116	9047.84
285.184	9059.87
285.252	9060.31
285.319	9044.71
285.387	9041.87
285.455	9015.87
285.523	9023.77
285.591	9021.07
285.659	9017.61
285.726	9027.19
285.794	9017.18
285.862	9017.18
285.93	9019.2
285.997	9013.28
286.065	9009.96
286.133	9005.53
286.201	8999.56
286.269	8993.25
286.336	8982.42
286.404	8976.93
286.472	8985.89
286.539	8964.51
286.607	8948.96
286.675	8944.53
286.743	8952.76
286.81	8942.8
286.878	8965.28
286.946	8953.97
287.013	8947.13
287.081	8954.11
287.149	8939.38
287.216	8960.61
287.284	8961.86
287.352	8959.65
287.419	8955.84
287.487	8972.31
287.555	8975.49
287.622	8981.89
287.69	8987.91
287.758	8999.89
287.825	9004.27
287.893	8989.4
287.96	8997.34
288.028	9005.86
288.096	9014.81
288.163	9017.41
288.231	9004.61
288.298	8999.02
288.366	9012.26
288.433	9014.96
288.501	9003.26
288.569	9007.54
288.636	8999.89
288.704	9011.16
288.771	9016.31
288.839	9005.24
288.906	8995.51
288.974	9002.11
289.041	8996.19
289.109	8980.73
289.176	8987.91
289.244	8983.57
289.311	9000.76
289.379	9005.48
289.446	9005.72
289.514	8999.32
289.581	9000.62
289.649	9006.35
289.716	9009.28
289.783	9005.19
289.851	9021.22
289.918	9022.76
289.986	9026.85
290.053	9036.14
290.121	9029.5
290.188	9036.53
290.255	9072.97
290.323	9070.66
290.39	9063.39
290.458	9068.98
290.525	9086.4
290.592	9077.64
290.66	9084.67
290.727	9078.6
290.794	9095.07
290.862	9097.43
290.929	9103.2
290.996	9099.69
291.064	9106.14
291.131	9116.97
291.198	9131.27
291.266	9128.1
291.333	9132.48
291.4	9139.55
291.468	9153.95
291.535	9149.14
291.602	9148.08
291.669	9137.34
291.737	9147.16
291.804	9151.25
291.871	9167.82
291.938	9174.46
292.006	9205.52
292.073	9216.98
292.14	9225.02
292.207	9217.85
292.275	9217.22
292.342	9231.95
292.409	9256.46
292.476	9286.32
292.543	9280.59
292.611	9273.03
292.678	9297.92
292.745	9324.21
292.812	9340.87
292.879	9332.59
292.946	9344.48
293.014	9361.53
293.081	9372.27
293.148	9380.11
293.215	9396.15
293.282	9388.35
293.349	9395.14
293.416	9372.89
293.484	9392.39
293.551	9405.01
293.618	9423.02
293.685	9451.58
293.752	9444.88
293.819	9446.52
293.886	9429.9
293.953	9440.21
294.02	9454.41
294.087	9458.7
294.154	9443.39
294.221	9453.4
294.288	9461.49
294.356	9480.61
294.423	9489.67
294.49	9479.7
294.557	9494.24
294.624	9478.88
294.691	9505.85
294.758	9508.35
294.825	9524.87
294.892	9509.27
294.959	9510.9
295.026	9524.82
295.093	9510.95
295.16	9511.29
295.226	9511.24
295.293	9540.33
295.36	9545.58
295.427	9559.59
295.494	9572.6
295.561	9586.95
295.628	9612.96
295.695	9624.95
295.762	9622.21
295.829	9625.05
295.896	9646.14
295.963	9656.35
296.03	9676.82
296.096	9679.71
296.163	9686.16
296.23	9696.47
296.297	9722.67
296.364	9716.26
296.431	9720.21
296.498	9725.9
296.564	9746.36
296.631	9746.36
296.698	9729.12
296.765	9745.69
296.832	9733.21
296.899	9714.62
296.965	9741.5
297.032	9716.11
297.099	9738.27
297.166	9750.75
297.233	9747.71
297.299	9733.12
297.366	9735.05
297.433	9733.31
297.5	9745.45
297.566	9759.47
297.633	9758.79
297.7	9752.87
297.767	9756.43
297.833	9764.04
297.9	9765.25
297.967	9748.82
298.033	9767.37
298.1	9802.1
298.167	9795.07
298.234	9803.11
298.3	9816.06
298.367	9806.38
298.434	9823.24
298.5	9813.08
298.567	9805.56
298.634	9809.7
298.7	9832.29
298.767	9834.89
298.834	9845.25
298.9	9840.91
298.967	9829.35
299.033	9838.99
299.1	9859.46
299.167	9873.28
299.233	9863.74
299.3	9879.59
299.366	9901.99
299.433	9920.05
299.5	9894.38
299.566	9900.54
299.633	9916.63
299.699	9931.37
299.766	9931.27
299.832	9928.86
299.899	9936.38
299.965	9949.62
300.032	9941.15
300.099	9948.57
300.165	9955.84
300.232	9960.75
300.298	9959.21
300.365	9974.77
300.431	9977.51
300.498	9964.46
300.564	9973.13
300.631	9984.26
300.697	9997.12
300.763	10001.41
300.83	9992.2
300.896	10005.45
300.963	10020.24
301.029	10028.28
301.096	10032.28
301.162	10040.91
301.229	10037.24
301.295	10018.55
301.361	10022.02
301.428	10028.62
301.494	10014.12
301.561	10017.11
301.627	10023.37
301.693	10023.47
301.76	10028.48
301.826	10017.11
301.892	10034.93
301.959	10045.53
302.025	10042.74
302.092	10044.47
302.158	10044.13
302.224	10048.37
302.291	10030.94
302.357	10024.67
302.423	10019.18
302.49	10010.8
302.556	10018.8
302.622	10019.91
302.688	10040.14
302.755	10052.76
302.821	10062.1
302.887	10071.93
302.954	10070.53
303.02	10069.42
303.086	10085.56
303.152	10079.97
303.219	10081.08
303.285	10083.73
303.351	10086.38
303.417	10094.09
303.483	10080.65
303.55	10074.82
303.616	10072.51
303.682	10078.05
303.748	10067.84
303.815	10082.63
303.881	10096.31
303.947	10092.21
304.013	10093.42
304.079	10083.16
304.145	10062.87
304.212	10060.08
304.278	10053.91
304.344	10047.32
304.41	10039.66
304.476	10027.28
304.542	10023.18
304.608	10031.37
304.674	10010.61
304.741	10007.48
304.807	10007.19
304.873	10014.12
304.939	10025.83
305.005	10009.5
305.071	10009.69
305.137	10014.94
305.203	9985.7
305.269	9982.71
305.335	9983.2
305.401	9986.71
305.467	9984.3
305.533	9992.69
305.599	10004.87
305.666	10014.8
305.732	10009.21
305.798	10017.11
305.864	10039.36
305.93	10041.77
305.996	10043.17
306.062	10048.66
306.128	10044.66
306.194	10030.31
306.259	10025.59
306.325	10014.8
306.391	10028.19
306.457	10034.21
306.523	10042.83
306.589	10069.42
306.655	10056.95
306.721	10048.56
306.787	10028.24
306.853	10047.94
306.919	10030.36
306.985	10021.93
307.051	10010.13
307.117	10005.99
307.183	10000.11
307.248	9973.61
307.314	9981.61
307.38	9983.92
307.446	9992.11
307.512	9980.31
307.578	9986.33
307.644	9987.29
307.709	9997.46
307.775	9993.07
307.841	9995.29
307.907	9995
307.973	9977.9
308.039	9975.49
308.104	9977.56
308.17	9976.07
308.236	9955.84
308.302	9965.81
308.368	9953.04
308.433	9957.67
308.499	9956.41
308.565	9948.27
308.631	9957.76
308.696	9927.95
308.762	9909.21
308.828	9900.35
308.894	9885.32
308.959	9859.99
309.025	9847.51
309.091	9845.87
309.156	9834.89
309.222	9836.77
309.288	9821.07
309.354	9793.18
309.419	9792.99
309.485	9773.58
309.551	9787.35
309.616	9770.25
309.682	9763.46
309.748	9754.26
309.813	9747.66
309.879	9736.64
309.945	9724.84
310.01	9710.63
310.076	9720.26
310.141	9719.92
310.207	9701.04
310.273	9704.94
310.338	9708.84
310.404	9695.36
310.469	9675.51
310.535	9670.99
310.601	9644.93
310.666	9653.36
310.732	9664.82
310.797	9653.21
310.863	9651.14
310.928	9641.12
310.994	9646.37
311.059	9643.58
311.125	9645.36
311.191	9661.83
311.256	9652.15
311.322	9659.28
311.387	9637.08
311.453	9914.31
311.518	9886.53
311.584	9889.75
311.649	9889.08
311.715	9881.28
311.78	9879.79
311.846	9874.49
311.911	9877.23
311.976	9870.49
312.042	9847.86
312.107	9834.08
312.173	9825.56
312.238	9816.7
312.304	9807.11
312.369	9796.86
312.434	9783.71
312.5	9772.44
312.565	9729.43
312.631	9734.63
312.696	9721.15
312.761	9730.73
312.827	9438.67
312.892	9479.89
312.958	9477
313.023	9474.69
313.088	9472.14
313.154	9457.45
313.219	9444.11
313.284	9431.06
313.35	9434.62
313.415	9427.16
313.48	9423.45
313.546	9424.85
313.611	9433.08
313.676	9425.48
313.741	9416.76
313.807	9423.16
313.872	9429.33
313.937	9438.38
314.003	9449.31
314.068	9452.44
314.133	9454.61
314.198	9450.04
314.264	9426.58
314.329	9417.53
314.394	9415.6
314.459	9413.63
314.525	9435.92
314.59	9429.08
314.655	9415.65
314.72	9424.65
314.785	9424.8
314.851	9420.66
314.916	9402.84
314.981	9384.69
315.046	9375.73
315.111	9366.92
315.176	9353.73
315.242	9353.63
315.307	9353.2
315.372	9329.26
315.437	9319.2
315.502	9307.45
315.567	9319.25
315.632	9300.61
315.698	9301.91
315.763	9296.52
315.828	9292.57
315.893	9285.88
315.958	9286.02
316.023	9276.92
316.088	9254.34
316.153	9233.54
316.218	9227.14
316.283	9215.05
316.348	9196.66
316.413	9196.38
316.479	9186.36
316.544	9154.93
316.609	9127.39
316.674	9090.32
316.739	9056.91
316.804	9027.07
316.869	8998.09
316.934	8951.87
316.999	8922.94
317.064	8869.22
317.129	8824.26
317.194	8779.64
317.259	8724.24
317.324	8669
317.389	8628.76
317.454	8584.77
317.518	8548.83
317.583	8523.8
317.648	8493.38
317.713	8463.5
317.778	8398.15
317.843	8360.86
317.908	8320.21
317.973	8278.49
318.038	8246.97
318.103	8210.85
318.168	8176.93
318.233	8139.59
318.297	8091.63
318.362	8053.49
318.427	8012.61
318.492	7982.73
318.557	7935.32
318.622	7910.83
318.687	7894.48
318.751	7850.92
318.816	7822.88
318.881	7787.78
318.946	7728.52
319.011	7687.17
319.075	7642.21
319.14	7608.13
319.205	7565.86
319.27	7533.85
319.335	7481.98
319.399	7444.48
319.464	7415.69
319.529	7359.21
319.594	7318.98
319.658	7286.1
319.723	7245.01
319.788	7216.56
319.853	7162.83
319.917	7135.45
319.982	7076.87
320.047	7039.58
320.112	7013.58
320.176	6960.35
320.241	6929.16
320.306	6894.91
320.37	6850.38
320.435	6819.63
320.5	6794.08
320.564	6757.62
320.629	6717.09
320.694	6689.91
320.758	6641.7
320.823	6599.72
320.888	6577.88
320.952	6526.94
321.017	6486.47
321.082	6441.48
321.146	6408.31
321.211	6373.8
321.275	6334.77
321.34	6294.32
321.405	6245.8
321.469	6195.07
321.534	6146.66
321.598	6087.79
321.663	6057.94
321.727	6025.64
321.792	5976.27
321.857	5932.08
321.921	5887.13
321.986	5841.24
322.05	5782.97
322.115	5746.96
322.179	5698.95
322.244	5635.91
322.308	5603.26
322.373	5555.46
322.437	5515.29
322.502	5480.57
322.566	5435.17
322.631	5397.5
322.695	5353.61
322.76	5302.63
322.824	5266.07
322.889	5228.08
322.953	5185.6
323.018	5115.75
323.082	5047.31
323.146	4993.19
323.211	4932.61
323.275	4889.36
323.34	4843.79
323.404	4808.17
323.468	4761.58
323.533	4713.48
323.597	4668.27
323.662	4618.58
323.726	4587.9
323.79	4541.53
323.855	4478.29
323.919	4427.87
323.983	4375.67
324.048	4313.09
324.112	4486.2
324.177	4353.79
324.241	4129.13
324.305	3909.93
324.37	3697.23
324.434	3492.52
324.498	3447.4
324.562	3398.38
324.627	3333.92
324.691	3275.06
324.755	3207.64
324.82	3127.42
324.884	3050.3
324.948	2976.69
325.012	2871.56
325.077	2732.44
