Data from 20250703_urea_0.1M_MAYP1162681_09-01-05-409.txt Node
Date: Fri Jul 04 09:01:05 BST 2025
User: adleo
Spectrometer: MAYP116268
Trigger mode: 0
Integration Time (sec): 1.000000E0
Scans to average: 1
Electric dark correction enabled: true
Nonlinearity correction enabled: true
Boxcar width: 10
XAxis mode: Wavelengths
Number of Pixels in Spectrum: 2068
>>>>>Begin Spectral Data<<<<<
179.565	1213.91
179.642	1270.6
179.718	1318.57
179.795	1357.04
179.871	1390.06
179.948	1407.03
180.024	1428.7
180.101	1451.4
180.177	1465.56
180.254	1489.94
180.33	1512.28
180.407	1566.02
180.483	1662.08
180.56	1753.35
180.636	1837.05
180.712	1822.6
180.789	1834.15
180.865	1845.65
180.942	1854.11
181.018	1866.75
181.095	1876.36
181.171	1883.01
181.248	1884.15
181.324	1898.52
181.4	1905.22
181.477	1919.15
181.553	1932.32
181.63	1952.29
181.706	1970.79
181.782	1980.39
181.859	1977.92
181.935	1984.43
182.011	1980.67
182.088	1996.32
182.164	2016.78
182.24	2032.23
182.317	2044.87
182.393	2045.11
182.469	2060.57
182.546	2076.64
182.622	2082.78
182.698	2081.83
182.775	2091.96
182.851	2106.65
182.927	2096.33
183.003	2093.05
183.08	2085.58
183.156	2095.62
183.232	2092
183.308	2077.54
183.385	2084.15
183.461	2104.51
183.537	2102.42
183.613	2116.59
183.69	2109.65
183.766	2097.9
183.842	2103.03
183.918	2107.36
183.995	2117.63
184.071	2120.73
184.147	2112.88
184.223	2098.8
184.299	2109.84
184.375	2100.19
184.452	2107.18
184.528	2160.28
184.604	2170.03
184.68	2179.88
184.756	2186.39
184.832	2191.63
184.908	2196.1
184.985	2196
185.061	2177.97
185.137	2191.06
185.213	2180.35
185.289	2180.07
185.365	2171.79
185.441	2173.13
185.517	2184.83
185.593	2184.98
185.669	2181.22
185.745	2194.73
185.822	2211.18
185.898	2201.9
185.974	2212.46
186.05	2204.51
186.126	2171.64
186.202	2167.59
186.278	2167.07
186.354	2160.6
186.43	2168.22
186.506	2169.97
186.582	2170.97
186.658	2179.15
186.734	2157.18
186.81	2156.66
186.886	2159.65
186.962	2173.78
187.038	2171.07
187.114	2168.88
187.19	2172.45
187.266	2163.17
187.341	2161.84
187.417	2154.94
187.493	2154.47
187.569	2155.23
187.645	2147.09
187.721	2133.58
187.797	2138.48
187.873	2140.24
187.949	2132.72
188.025	2125.87
188.101	2127.58
188.176	2131.67
188.252	2124.21
188.328	2132.53
188.404	2135.57
188.48	2132.57
188.556	2126.67
188.632	2122.2
188.707	2117.82
188.783	2116.83
188.859	2113.12
188.935	2100.56
189.011	2109.69
189.086	2106.22
189.162	2096.23
189.238	2093.8
189.314	2091.09
189.39	2087.24
189.465	2080.63
189.541	2097.04
189.617	2079.82
189.693	2075.5
189.768	2078.87
189.844	2106.66
189.92	2097.96
189.996	2104.86
190.071	2114.8
190.147	2113.99
190.223	2124.89
190.298	2117.7
190.374	2105.43
190.45	2116.18
190.526	2126.74
190.601	2119.03
190.677	2119.13
190.753	2148.3
190.828	2153.53
190.904	2167.71
190.98	2180.65
191.055	2188.98
191.131	2179.08
191.207	2202.15
191.282	2210.38
191.358	2202.15
191.433	2183.49
191.509	2197.33
191.585	2193.29
191.66	2196
191.736	2201
191.811	2193.67
191.887	2208.75
191.963	2231.93
192.038	2236.92
192.114	2236.87
192.189	2241.77
192.265	2240.58
192.34	2219.26
192.416	2219.5
192.491	2216.83
192.567	2220.59
192.642	2225.21
192.718	2226.87
192.793	2214.26
192.869	2210.41
192.944	2212.74
193.02	2220.5
193.095	2224.49
193.171	2234.25
193.246	2231.68
193.322	2228.68
193.397	2228.68
193.473	2215.64
193.548	2196.42
193.624	2202.41
193.699	2201.51
193.775	2217.93
193.85	2215.84
193.925	2224.26
194.001	2222.79
194.076	2213.84
194.152	2202.51
194.227	2192.47
194.302	2181.49
194.378	2186.86
194.453	2185.63
194.529	2196.81
194.604	2187.05
194.679	2180.3
194.755	2161.75
194.83	2173.41
194.905	2171.51
194.981	2180.07
195.056	2173.08
195.131	2180.21
195.207	2179.07
195.282	2169.6
195.357	2149.24
195.433	2165.36
195.508	2154.37
195.583	2160.17
195.659	2172.93
195.734	2182.21
195.809	2184.35
195.884	2195.9
195.96	2195.71
196.035	2209.7
196.11	2205.61
196.185	2215.32
196.261	2220.6
196.336	2248.77
196.411	2235.77
196.486	2242.62
196.561	2237.77
196.637	2247.95
196.712	2265.37
196.787	2269.94
196.862	2284.45
196.937	2295.44
197.013	2302.11
197.088	2311.1
197.163	2334.14
197.238	2353.96
197.313	2354.19
197.388	2368.76
197.464	2397.57
197.539	2405.85
197.614	2401.28
197.689	2413.18
197.764	2429.7
197.839	2448.12
197.914	2443.31
197.989	2465.64
198.065	2479.64
198.14	2528.86
198.215	2555.9
198.29	2565.15
198.365	2575.77
198.44	2587.43
198.515	2615.49
198.59	2629.11
198.665	2657.35
198.74	2664.5
198.815	2663.69
198.89	2684.41
198.965	2713
199.04	2708.57
199.115	2723.52
199.19	2766.21
199.265	2770.02
199.34	2779.17
199.415	2814.31
199.49	2838.22
199.565	2846.51
199.64	2870.05
199.715	2866.05
199.79	2871.15
199.865	2877.68
199.94	2880.06
200.015	2910.52
200.09	2916.38
200.165	2924.29
200.24	2927.63
200.315	2969.95
200.39	2987.88
200.464	2996.12
200.539	2997.03
200.614	3014.66
200.689	3042.7
200.764	3046.23
200.839	3066.05
200.914	3073.25
200.989	3062.42
201.063	3072.34
201.138	3055.29
201.213	3055.95
201.288	3039.27
201.363	3046.04
201.438	3049.04
201.512	3062.62
201.587	3046.93
201.662	3051.27
201.737	3065.1
201.812	3074.4
201.886	3039.61
201.961	3051.16
202.036	3038.53
202.111	3038
202.186	3011.22
202.26	2993.67
202.335	2972.79
202.41	2965.16
202.485	2949.43
202.559	2927.56
202.634	2906.39
202.709	2918.73
202.784	2904.19
202.858	2905.33
202.933	2887.65
203.008	2883.84
203.082	2866.92
203.157	2865.58
203.232	2827.33
203.306	2810.83
203.381	2785.47
203.456	2766.65
203.53	2744.85
203.605	2729.13
203.68	2711.97
203.754	2709.02
203.829	2702.78
203.904	2691.68
203.978	2688.91
204.053	2702.49
204.127	2705.4
204.202	2713.07
204.277	2709.02
204.351	2715.07
204.426	2722.65
204.5	2728.56
204.575	2710.89
204.65	2737.1
204.724	2748.78
204.799	2774.36
204.873	2789.28
204.948	2808.59
205.022	2823.4
205.097	2841.77
205.171	2887.72
205.246	2924.49
205.32	2955.98
205.395	2986.08
205.469	3010.1
205.544	3052.56
205.618	3073.64
205.693	3124.35
205.767	3151.2
205.842	3216.2
205.916	3251.26
205.991	3286.24
206.065	3336.78
206.14	3397.11
206.214	3438.99
206.289	3488.85
206.363	3555.26
206.438	3613.68
206.512	3677.63
206.586	3754.9
206.661	3817.99
206.735	3853.43
206.81	3915.53
206.884	3990.21
206.958	4041.29
207.033	4121.52
207.107	4190.54
207.181	4290.95
207.256	4355.68
207.33	4444.06
207.405	4526.51
207.479	4617.62
207.553	4698.73
207.628	4767.15
207.702	4858.2
207.776	4933.31
207.851	5012.86
207.925	5104.61
207.999	5181.84
208.073	5263.19
208.148	5349.94
208.222	5423.75
208.296	5541.39
208.371	5642.45
208.445	5738.73
208.519	5854.57
208.593	5956.1
208.668	6045.2
208.742	6131.08
208.816	6220.37
208.89	6329.96
208.965	6419.96
209.039	6519.83
209.113	6625.65
209.187	6735.39
209.261	6821.54
209.336	6929.7
209.41	7042.36
209.484	7136.25
209.558	7246.48
209.632	7350.95
209.707	7453.19
209.781	7570.81
209.855	7681.11
209.929	7796.03
210.003	7898.31
210.077	7990.7
210.151	8135.8
210.226	8260.99
210.3	8386.16
210.374	8501.32
210.448	8591.12
210.522	8683.71
210.596	8786.37
210.67	8886.09
210.744	9025.02
210.818	9147.46
210.892	9265.12
210.966	9348.31
211.041	9451.64
211.115	9539.94
211.189	9652.47
211.263	9758.81
211.337	9850.5
211.411	9947.8
211.485	10027.91
211.559	10121.64
211.633	10204.34
211.707	10260.03
211.781	10357.51
211.855	10400.53
211.929	10480.99
212.003	10555.61
212.077	10657.85
212.151	10751.77
212.225	10848.47
212.299	10910.16
212.373	10978.29
212.447	11056.46
212.52	11162.77
212.594	11249.03
212.668	11340.02
212.742	11405.42
212.816	11478.53
212.89	11554.15
212.964	11625.72
213.038	11703.37
213.112	11804.44
213.186	11904.16
213.26	11958.53
213.333	11985.57
213.407	12070.74
213.481	12147.14
213.555	12228.01
213.629	12287.02
213.703	12347.99
213.777	12425.02
213.85	12489.18
213.924	12602.41
213.998	12675.49
214.072	12742.07
214.146	12800.3
214.219	12869.23
214.293	12937.25
214.367	13007.87
214.441	13083.41
214.515	13151.96
214.588	13197.27
214.662	13226.19
214.736	13262.35
214.81	13331.19
214.883	13406.77
214.957	13457.82
215.031	13507.57
215.105	13540.02
215.178	13589.96
215.252	13639.47
215.326	13666.32
215.4	13700.98
215.473	13704.69
215.547	13740.17
215.621	13784.18
215.694	13844.44
215.768	13880.79
215.842	13915.3
215.915	13952.57
215.989	13987.37
216.063	14029.74
216.136	14078.43
216.21	14124.08
216.284	14196.29
216.357	14248.84
216.431	14296.37
216.504	14355.9
216.578	14428.64
216.652	14505.05
216.725	14555.04
216.799	14617.99
216.873	14674.92
216.946	14736.77
217.02	14783.82
217.093	14834.91
217.167	14859.11
217.24	14891.89
217.314	14939.95
217.387	14986.51
217.461	15030.48
217.535	15089.91
217.608	15131.65
217.682	15178.89
217.755	15236.64
217.829	15278.14
217.902	15324.8
217.976	15373.97
218.049	15416.91
218.123	15450.08
218.196	15497.65
218.27	15544.65
218.343	15576.27
218.417	15628.71
218.49	15674.79
218.563	15744.15
218.637	15795.77
218.71	15876.89
218.784	15933.57
218.857	15985.14
218.931	16040.33
219.004	16094.32
219.077	16140.83
219.151	16190.42
219.224	16241.71
219.298	16297.23
219.371	16351.06
219.444	16395.07
219.518	16444.28
219.591	16488.19
219.665	16567.61
219.738	16619.76
219.811	16658.9
219.885	16722.71
219.958	16776.83
220.031	16824.21
220.105	16874.91
220.178	16921.03
220.251	16952.4
220.325	17006.82
220.398	17058.14
220.471	17111.74
220.544	17166.82
220.618	17203.16
220.691	17248.99
220.764	17291.4
220.838	17341.43
220.911	17386.01
220.984	17454.68
221.057	17511.74
221.131	17565.48
221.204	17574.78
221.277	17633.91
221.35	17710.63
221.424	17743.64
221.497	17786.39
221.57	17832.27
221.643	17880.79
221.716	17938.82
221.79	17977.51
221.863	18015.15
221.936	18053.85
222.009	18091.39
222.082	18131.44
222.155	18173.36
222.229	18231.43
222.302	18279.96
222.375	18313.98
222.448	18354.94
222.521	18379.96
222.594	18406.75
222.667	18429.59
222.74	18478.22
222.814	18501.97
222.887	18535.61
222.96	18576.14
223.033	18617.1
223.106	18654.54
223.179	18682.88
223.252	18714.73
223.325	18744.47
223.398	18776.9
223.471	18809.38
223.544	18848.12
223.617	18890.77
223.69	18931.54
223.763	18943.87
223.837	18983.92
223.91	19027.34
223.983	19038.37
224.056	19051.29
224.129	19081.31
224.202	19128.73
224.275	19146.37
224.348	19166.13
224.42	19168.78
224.493	19176.78
224.566	19194.22
224.639	19215.86
224.712	19237.11
224.785	19248.19
224.858	19278.07
224.931	19294.84
225.004	19309.54
225.077	19326.45
225.15	19311.42
225.223	19318.12
225.296	19358.64
225.369	19359.17
225.442	19352.81
225.514	19375.22
225.587	19401.92
225.66	19423.41
225.733	19439.31
225.806	19468.32
225.879	19488.13
225.952	19503.12
226.025	19542.01
226.097	19566.25
226.17	19581.76
226.243	19570.82
226.316	19585.28
226.389	19598.49
226.461	19610.34
226.534	19633.23
226.607	19645.09
226.68	19684.84
226.753	19706.14
226.825	19701.81
226.898	19727.3
226.971	19747.2
227.044	19769.37
227.117	19794.09
227.189	19810.67
227.262	19826.72
227.335	19838.62
227.407	19844.4
227.48	19855.49
227.553	19867.82
227.626	19869.65
227.698	19883.05
227.771	19909.6
227.844	19914.57
227.916	19928.69
227.989	19932.3
228.062	19941.94
228.134	19979.72
228.207	19987.48
228.28	19986.81
228.352	19995
228.425	20000.68
228.498	20022.61
228.57	20015.77
228.643	20027.82
228.716	20030.85
228.788	20031
228.861	20025.12
228.934	20043.96
229.006	20050.71
229.079	20051.43
229.151	20058.76
229.224	20049.94
229.296	20057.94
229.369	20085.07
229.442	20102.85
229.514	20101.21
229.587	20110.03
229.659	20088.54
229.732	20097.69
229.804	20112.87
229.877	20142.18
229.949	20152.39
230.022	20175.33
230.094	20180.78
230.167	20190.99
230.239	20189.89
230.312	20197.31
230.384	20224.83
230.457	20225.79
230.529	20232.34
230.602	20234.03
230.674	20233.74
230.747	20254.13
230.819	20273.02
230.892	20253.88
230.964	20263.91
231.037	20275.04
231.109	20277.88
231.181	20287.18
231.254	20269.98
231.326	20260.39
231.399	20253.16
231.471	20249.26
231.544	20214.56
231.616	20221.88
231.688	20208.92
231.761	20191.57
231.833	20176.97
231.905	20146.99
231.978	20148.39
232.05	20143.09
232.122	20138.71
232.195	20133.79
232.267	20137.16
232.339	20112.06
232.412	20112.92
232.484	20091.24
232.556	20082.9
232.629	20089.02
232.701	20089.36
232.773	20086.47
232.846	20089.74
232.918	20074.32
232.99	20061.26
233.062	20069.55
233.135	20060.49
233.207	20046.95
233.279	20042.66
233.351	20037.45
233.424	20029.45
233.496	20006.95
233.568	20011.29
233.64	19985.07
233.713	19974.32
233.785	19956.98
233.857	19948.69
233.929	19915.15
234.001	19922.57
234.074	19921.12
234.146	19882.52
234.218	19867.49
234.29	19845.94
234.362	19817.13
234.434	19788.89
234.507	19766.43
234.579	19724.02
234.651	19703.11
234.723	19690.48
234.795	19691.98
234.867	19672.36
234.939	19677.95
235.012	19660.31
235.084	19645.66
235.156	19637.86
235.228	19610.77
235.3	19587.26
235.372	19566.63
235.444	19562.01
235.516	19518.88
235.588	19498.3
235.66	19492.18
235.732	19457.72
235.804	19501.48
235.876	19493.87
235.948	19483.79
236.02	19465.72
236.092	19453.87
236.164	19446.35
236.236	19419.75
236.308	19383.08
236.38	19367.56
236.452	19328.91
236.524	19313.92
236.596	19304.53
236.668	19297.35
236.74	19277.69
236.812	19257.98
236.884	19249.78
236.956	19228.29
237.028	19196.39
237.1	19169.6
237.172	19166.08
237.244	19161.21
237.316	19096.06
237.388	19070.13
237.46	19036.83
237.532	19023.53
237.604	18976.55
237.675	18953.46
237.747	18940.16
237.819	18910.72
237.891	18884.46
237.963	18841.04
238.035	18797.33
238.107	18733.33
238.178	18710.2
238.25	18675.5
238.322	18666.11
238.394	18621.19
238.466	18592.28
238.538	18568.48
238.609	18535.08
238.681	18476.53
238.753	18440.24
238.825	18410.94
238.897	18375.28
238.968	18370.65
239.04	18330.99
239.112	18336.63
239.184	18294.47
239.255	18258.76
239.327	18233.51
239.399	18207.39
239.471	18199.68
239.542	18186.57
239.614	18175.15
239.686	18121.8
239.758	18105.32
239.829	18070.62
239.901	18058.86
239.973	18035.2
240.044	18013.56
240.116	17985.85
240.188	17952.07
240.259	17920.46
240.331	17876.7
240.403	17856.17
240.474	17804.51
240.546	17765.28
240.618	17713.67
240.689	17679.64
240.761	17645.67
240.833	17629.57
240.904	17594.58
240.976	17556.8
241.048	17532.75
241.119	17508.03
241.191	17481.67
241.262	17465.28
241.334	17425.09
241.405	17380.9
241.477	17329.57
241.549	17295.16
241.62	17270.2
241.692	17255.31
241.763	17239.12
241.835	17215.93
241.906	17180.56
241.978	17139.21
242.049	17127.06
242.121	17113.14
242.192	17102.24
242.264	17053.81
242.335	17008.51
242.407	16985.08
242.478	16950.24
242.55	16913.08
242.621	16875.05
242.693	16834.96
242.764	16799
242.836	16751.96
242.907	16721.94
242.979	16702.61
243.05	16670.51
243.122	16649.21
243.193	16613.74
243.264	16549.11
243.336	16513.64
243.407	16496.62
243.479	16479.46
243.55	16447.32
243.622	16423.17
243.693	16383.84
243.764	16373.34
243.836	16340.85
243.907	16300.51
243.978	16267.06
244.05	16238.72
244.121	16186.81
244.192	16171.92
244.264	16131.09
244.335	16117.65
244.407	16078.56
244.478	16055.18
244.549	16014.11
244.62	15954.83
244.692	15915.16
244.763	15902.29
244.834	15864.26
244.906	15822.38
244.977	15801.8
245.048	15782.32
245.119	15740.25
245.191	15700.82
245.262	15651.65
245.333	15629.19
245.405	15602.01
245.476	15578.53
245.547	15546.48
245.618	15527.34
245.689	15498.47
245.761	15474.52
245.832	15437.69
245.903	15419.76
245.974	15388.09
246.045	15356.95
246.117	15354.4
246.188	15305.62
246.259	15262.43
246.33	15229.7
246.401	15195.67
246.473	15147.51
246.544	15112.23
246.615	15088.32
246.686	15054.53
246.757	15037.95
246.828	14996.01
246.899	14979.14
246.97	14932.67
247.042	14896.42
247.113	14870.05
247.184	14856.8
247.255	14805.75
247.326	14774.71
247.397	14737.4
247.468	14710.84
247.539	14692.18
247.61	14641.62
247.681	14633.08
247.752	14617.32
247.823	14585.02
247.894	14556.78
247.965	14515.56
248.037	14483.17
248.108	14440.84
248.179	14406.42
248.25	14375.52
248.321	14353.2
248.392	14312.42
248.463	14305.39
248.534	14276.85
248.605	14260.41
248.675	14225.94
248.746	14209.89
248.817	14197.41
248.888	14175.57
248.959	14127.65
249.03	14102.78
249.101	14083.35
249.172	14041.36
249.243	13981.06
249.314	13962.5
249.385	13938.01
249.456	13920.41
249.527	13885.27
249.598	13853.45
249.669	13837.55
249.739	13817.15
249.81	13790.4
249.881	13750.58
249.952	13723.63
250.023	13695.34
250.094	13653.93
250.165	13626.93
250.235	13602.73
250.306	13568.65
250.377	13531.19
250.448	13507.48
250.519	13457.49
250.59	13450.11
250.66	13429.96
250.731	13439.84
250.802	13414.49
250.873	13392.02
250.944	13367.29
251.014	13336.49
251.085	13338.37
251.156	13309.25
251.227	13292.23
251.297	13286.26
251.368	13275.89
251.439	13262.35
251.51	13254.73
251.58	13220.55
251.651	13187.39
251.722	13174.08
251.792	13130.36
251.863	13101.87
251.934	13105.05
252.005	13113.92
252.075	13083.07
252.146	13078.44
252.217	13062.43
252.287	13055.16
252.358	13032.98
252.429	13032.45
252.499	13003.53
252.57	12988.15
252.641	12982.89
252.711	12958.79
252.782	12917.38
252.852	12913.57
252.923	12888.7
252.994	12861.7
253.064	12852.93
253.135	12811.76
253.205	12778.79
253.276	12779.61
253.347	12782.99
253.417	12745.92
253.488	12720.51
253.558	12689.56
253.629	12660.88
253.699	12643.38
253.77	12632.54
253.841	12605.01
253.911	12588.14
253.982	12569.53
254.052	12553.14
254.123	12533.86
254.193	12514.05
254.264	12535.16
254.334	12499.2
254.405	12469.17
254.475	12436.15
254.546	12411.71
254.616	12412
254.687	12401.2
254.757	12377.97
254.827	12346.69
254.898	12329.04
254.968	12302.15
255.039	12276.6
255.109	12262.96
255.18	12227.77
255.25	12176.39
255.321	12165.49
255.391	12125.34
255.461	12135.17
255.532	12084.46
255.602	12050.67
255.673	12007.58
255.743	11972.2
255.813	11922.46
255.884	11907.52
255.954	11901.25
256.024	11906.26
256.095	11887.66
256.165	11850.83
256.235	11841.29
256.306	11817.53
256.376	11811.84
256.446	11809.77
256.517	11805.33
256.587	11795.6
256.657	11777.38
256.728	11760.41
256.798	11738.09
256.868	11719.78
256.938	11684.3
257.009	11679.29
257.079	11675.29
257.149	11688.59
257.219	11648.88
257.29	11647.77
257.36	11611.67
257.43	11601.55
257.5	11555.52
257.571	11527.47
257.641	11521.35
257.711	11495.27
257.781	11489.83
257.852	11468.47
257.922	11426.25
257.992	11400.13
258.062	11380.85
258.132	11370.06
258.202	11349.87
258.273	11338.01
258.343	11332.23
258.413	11309.38
258.483	11291.31
258.553	11259.89
258.623	11227.69
258.693	11216.94
258.764	11215.74
258.834	11214.58
258.904	11195.45
258.974	11168.9
259.044	11150.01
259.114	11127.5
259.184	11102.83
259.254	11078.83
259.324	11043.65
259.394	11034.15
259.464	11034.64
259.535	11009.77
259.605	10991.36
259.675	10969.53
259.745	10957.92
259.815	10930.11
259.885	10906.89
259.955	10920.48
260.025	10892.29
260.095	10876.05
260.165	10861.83
260.235	10862.31
260.305	10839.72
260.375	10809.5
260.445	10824.2
260.515	10824.68
260.585	10823.76
260.655	10810.13
260.725	10801.07
260.795	10793.31
260.865	10790.27
260.934	10764.06
261.004	10763.24
261.074	10745.12
261.144	10743.77
261.214	10734.04
261.284	10716.69
261.354	10706.38
261.424	10669.32
261.494	10675.44
261.564	10659.98
261.634	10651.21
261.703	10611.45
261.773	10605.38
261.843	10596.86
261.913	10572.96
261.983	10542.02
262.053	10526.46
262.123	10510.37
262.192	10483.63
262.262	10483.87
262.332	10452.31
262.402	10441.47
262.472	10418.24
262.541	10385.73
262.611	10388.76
262.681	10360.24
262.751	10352.87
262.821	10342.03
262.89	10320.01
262.96	10311.72
263.03	10315.96
263.1	10301.46
263.169	10293.13
263.239	10279.73
263.309	10283.73
263.379	10279.49
263.448	10263.31
263.518	10260.32
263.588	10244.81
263.657	10243.79
263.727	10233.39
263.797	10223.03
263.867	10211.57
263.936	10188.73
264.006	10186.18
264.076	10163.49
264.145	10151.54
264.215	10127.84
264.285	10119.65
264.354	10090.22
264.424	10061.37
264.494	10032.46
264.563	10012.52
264.633	10017.14
264.702	10004.23
264.772	9970.85
264.842	9944.16
264.911	9937.27
264.981	9904.95
265.05	9887.9
265.12	9872.05
265.19	9857.98
265.259	9855.62
265.329	9844.59
265.398	9835.97
265.468	9851.87
265.537	9832.02
265.607	9821.33
265.676	9818.2
265.746	9810.35
265.815	9811.36
265.885	9802.02
265.955	9774.85
266.024	9761.99
266.094	9719.27
266.163	9719.85
266.232	9721.97
266.302	9706.51
266.371	9698.9
266.441	9691.24
266.51	9690.52
266.58	9673.47
266.649	9649.2
266.719	9647.99
266.788	9642.5
266.858	9643.37
266.927	9604.89
266.996	9599.25
267.066	9594
267.135	9573.44
267.205	9569.92
267.274	9556.44
267.343	9555.28
267.413	9552.54
267.482	9552.63
267.552	9561.25
267.621	9529.23
267.69	9498.5
267.76	9496.72
267.829	9486.71
267.898	9467.88
267.968	9445.1
268.037	9440.96
268.106	9442.6
268.176	9415.39
268.245	9398.77
268.314	9385.38
268.384	9384.18
268.453	9368.1
268.522	9357.21
268.592	9361.11
268.661	9335.98
268.73	9327.84
268.799	9312.82
268.869	9320.62
268.938	9292.06
269.007	9267.6
269.076	9261.01
269.146	9261.78
269.215	9247.53
269.284	9261.78
269.353	9250.23
269.422	9244.5
269.492	9228.66
269.561	9188.89
269.63	9186.48
269.699	9169.68
269.768	9150.76
269.838	9142.71
269.907	9143.63
269.976	9120.04
270.045	9083.84
270.114	9079.41
270.183	9068.33
270.253	9060.44
270.322	9027.65
270.391	9017.35
270.46	9028.62
270.529	9028.14
270.598	9025.3
270.667	9016.68
270.736	8981.29
270.806	8977.77
270.875	8977.05
270.944	8968.29
271.013	8995.2
271.082	8987.83
271.151	8983.84
271.22	8961.79
271.289	8947.21
271.358	8934.11
271.427	8927.61
271.496	8924.73
271.565	8915.19
271.634	8906.48
271.703	8908.31
271.772	8913.12
271.841	8903.26
271.91	8880.15
271.979	8873.6
272.048	8850.31
272.117	8853.34
272.186	8846.79
272.255	8843.52
272.324	8840.53
272.393	8834.61
272.462	8813.29
272.531	8806.26
272.6	8801.15
272.669	8808.95
272.738	8801.83
272.807	8796.82
272.876	8781.47
272.945	8809.29
273.013	8806.74
273.082	8810.64
273.151	8789.7
273.22	8784.7
273.289	8783.3
273.358	8789.12
273.427	8780.56
273.496	8787.05
273.564	8778.34
273.633	8782.82
273.702	8764.72
273.771	8749.27
273.84	8745.71
273.909	8744.6
273.977	8737.82
274.046	8725.54
274.115	8726.22
274.184	8707.02
274.253	8699.12
274.322	8709.42
274.39	8677.36
274.459	8666.49
274.528	8639.97
274.597	8627.94
274.665	8625.2
274.734	8629.43
274.803	8618.79
274.872	8606.95
274.94	8584.62
275.009	8644.19
275.078	8626
275.147	8629.22
275.215	8629.9
275.284	8637.16
275.353	8628.69
275.421	8610.93
275.49	8620.46
275.559	8609.63
275.627	8609.15
275.696	8601.65
275.765	8596.98
275.833	8585.96
275.902	8581.1
275.971	8587.35
276.039	8607.61
276.108	8609.83
276.177	8601.55
276.245	8588.94
276.314	8584.85
276.383	8596.16
276.451	8528.17
276.52	8524.03
276.588	8532.94
276.657	8534.81
276.725	8518.89
276.794	8512.92
276.863	8518.4
276.931	8495.35
277	8506.18
277.068	8512.87
277.137	8533.18
277.205	8529.23
277.274	8552.19
277.342	8559.84
277.411	8545.89
277.48	8531.74
277.548	8520.52
277.617	8531.25
277.685	8529.09
277.754	8528.32
277.822	8514.51
277.89	8527.55
277.959	8532.65
278.027	8514.22
278.096	8504.69
278.164	8534.39
278.233	8533.09
278.301	8521.54
278.37	8526.6
278.438	8508.79
278.507	8515.62
278.575	8487.28
278.643	8488.77
278.712	8467.4
278.78	8458.6
278.849	8471.73
278.917	8479.14
278.985	8476.4
279.054	8472.36
279.122	8480.44
279.191	8483.81
279.259	8475.2
279.327	8454.55
279.396	8462.73
279.464	8463.79
279.532	8469.95
279.601	8461.81
279.669	8452.05
279.737	8468.7
279.806	8478.99
279.874	8487.27
279.942	8479.38
280.011	8476.01
280.079	8486.79
280.147	8502
280.215	8502.91
280.284	8496.51
280.352	8480.92
280.42	8486.02
280.488	8483.86
280.557	8479
280.625	8483.52
280.693	8494.73
280.761	8496.12
280.83	8478.37
280.898	8479.43
280.966	8459.75
281.034	8430.58
281.102	8419.71
281.171	8411.24
281.239	8415.43
281.307	8410.23
281.375	8402.97
281.443	8429.1
281.512	8415.33
281.58	8423.27
281.648	8412.16
281.716	8407.3
281.784	8406.24
281.852	8394.36
281.92	8389.06
281.989	8402.73
282.057	8380.12
282.125	8421.85
282.193	8414.29
282.261	8418.77
282.329	8424.54
282.397	8428.68
282.465	8435.37
282.533	8452.64
282.601	8441.43
282.67	8414.53
282.738	8409.57
282.806	8417.66
282.874	8396.53
282.942	8402.59
283.01	8391.09
283.078	8396.48
283.146	8395.23
283.214	8402.25
283.282	8417.55
283.35	8427.42
283.418	8419.05
283.486	8428.48
283.554	8387.61
283.622	8395.12
283.69	8388.77
283.758	8375.97
283.826	8381.5
283.894	8389.68
283.962	8404.21
284.03	8417.11
284.098	8417.3
284.165	8408.26
284.233	8409.6
284.301	8413.41
284.369	8405.9
284.437	8401.09
284.505	8393.77
284.573	8409.51
284.641	8406.23
284.709	8403.01
284.777	8382.37
284.845	8384.92
284.912	8387.32
284.98	8391.12
285.048	8380.3
285.116	8383.43
285.184	8399.55
285.252	8402.62
285.319	8386.31
285.387	8379.33
285.455	8363.55
285.523	8369.71
285.591	8367.79
285.659	8369.71
285.726	8375.39
285.794	8362.79
285.862	8360.91
285.93	8366.15
285.997	8360.91
286.065	8353.55
286.133	8351.09
286.201	8348.54
286.269	8335.55
286.336	8329.25
286.404	8323.28
286.472	8338.53
286.539	8317.32
286.607	8301.87
286.675	8298.99
286.743	8306.01
286.81	8300.29
286.878	8312.12
286.946	8316.26
287.013	8313.71
287.081	8312.27
287.149	8298.36
287.216	8316.31
287.284	8311.88
287.352	8308.99
287.419	8306.25
287.487	8322.66
287.555	8321.21
287.622	8324.44
287.69	8327.23
287.758	8339.4
287.825	8335.7
287.893	8323.43
287.96	8336.51
288.028	8348.73
288.096	8354.8
288.163	8361.87
288.231	8346.33
288.298	8343.3
288.366	8353.93
288.433	8353.4
288.501	8341.76
288.569	8349.94
288.636	8345.8
288.704	8360.86
288.771	8370.15
288.839	8361.25
288.906	8359.95
288.974	8367.41
289.041	8360.82
289.109	8358.17
289.176	8371.74
289.244	8375.11
289.311	8390.6
289.379	8402.83
289.446	8399.7
289.514	8399.55
289.581	8393.68
289.649	8399.07
289.716	8402.34
289.783	8392.91
289.851	8411.87
289.918	8412.88
289.986	8418.7
290.053	8420.96
290.121	8411.72
290.188	8409.17
290.255	8439.58
290.323	8431.16
290.39	8424.18
290.458	8430.58
290.525	8443.82
290.592	8431.59
290.66	8432.41
290.727	8422.5
290.794	8431.64
290.862	8430.53
290.929	8426.83
290.996	8428.66
291.064	8440.59
291.131	8456.66
291.198	8465.66
291.266	8469.37
291.333	8475.62
291.4	8477.4
291.468	8498.53
291.535	8504.83
291.602	8513.74
291.669	8506.81
291.737	8511.71
291.804	8512.77
291.871	8537.41
291.938	8545.06
292.006	8575.1
292.073	8590.59
292.14	8606.04
292.207	8600.22
292.275	8607.34
292.342	8619.95
292.409	8646.71
292.476	8678.24
292.543	8669.48
292.611	8674.05
292.678	8690.99
292.745	8710.48
292.812	8720.44
292.879	8710
292.946	8710.58
293.014	8719.67
293.081	8731.03
293.148	8736.47
293.215	8755.87
293.282	8751.39
293.349	8756.93
293.416	8736.27
293.484	8747.68
293.551	8753.7
293.618	8768.91
293.685	8793.79
293.752	8791.34
293.819	8784.02
293.886	8765.92
293.953	8772.85
294.02	8786.96
294.087	8790.18
294.154	8785.37
294.221	8803.66
294.288	8805.1
294.356	8821.52
294.423	8829.36
294.49	8822.87
294.557	8838.75
294.624	8828.11
294.691	8842.26
294.758	8840.96
294.825	8852.71
294.892	8847.27
294.959	8845.82
295.026	8853.67
295.093	8842.65
295.16	8842.02
295.226	8846.4
295.293	8873.12
295.36	8878.32
295.427	8882.99
295.494	8892.47
295.561	8898.63
295.628	8919.1
295.695	8933.35
295.762	8936.57
295.829	8952.6
295.896	8961.75
295.963	8969.55
296.03	8983.65
296.096	8992.37
296.163	9007.53
296.23	9013.89
296.297	9027.03
296.364	9027.51
296.431	9037.09
296.498	9038
296.564	9064.53
296.631	9071.12
296.698	9055.81
296.765	9075.98
296.832	9067.51
296.899	9056.68
296.965	9079.06
297.032	9055.23
297.099	9075.07
297.166	9083.88
297.233	9074.68
297.299	9072.66
297.366	9079.25
297.433	9080.12
297.5	9086.81
297.566	9085.66
297.633	9086.76
297.7	9088.06
297.767	9088.88
297.833	9091.63
297.9	9093.94
297.967	9075.45
298.033	9086.62
298.1	9107.66
298.167	9100.1
298.234	9098.23
298.3	9109.2
298.367	9105.83
298.434	9107.85
298.5	9097.74
298.567	9094.76
298.634	9094.23
298.7	9118.59
298.767	9114.21
298.834	9130.58
298.9	9122.68
298.967	9114.88
299.033	9126.97
299.1	9142.18
299.167	9158.41
299.233	9157.25
299.3	9172.95
299.366	9189.31
299.433	9202.8
299.5	9187.92
299.566	9188.74
299.633	9211.22
299.699	9222.1
299.766	9221.62
299.832	9235.97
299.899	9248.3
299.965	9254.85
300.032	9252.15
300.099	9256.24
300.165	9263.13
300.232	9258.84
300.298	9264.09
300.365	9287.06
300.431	9286.86
300.498	9284.17
300.564	9288.6
300.631	9298.81
300.697	9310.84
300.763	9315.23
300.83	9314.7
300.896	9326.2
300.963	9342.91
301.029	9345.85
301.096	9350.71
301.162	9357.6
301.229	9353.75
301.295	9343.3
301.361	9345.41
301.428	9355
301.494	9336.99
301.561	9340.6
301.627	9343.15
301.693	9349.27
301.76	9348.4
301.826	9347.53
301.892	9361.3
301.959	9370.7
302.025	9366.79
302.092	9361.64
302.158	9366.55
302.224	9370.74
302.291	9366.51
302.357	9365.54
302.423	9358.95
302.49	9349.99
302.556	9366.22
302.622	9364.97
302.688	9377.63
302.755	9399.69
302.821	9404.02
302.887	9413.17
302.954	9417.41
303.02	9423.09
303.086	9423.71
303.152	9422.75
303.219	9418.95
303.285	9418.71
303.351	9420.68
303.417	9424
303.483	9416.83
303.55	9411.63
303.616	9406.28
303.682	9402.72
303.748	9392.03
303.815	9410.62
303.881	9422.27
303.947	9407.01
304.013	9406.86
304.079	9394.44
304.145	9369.93
304.212	9370.36
304.278	9365.79
304.344	9366.6
304.41	9354.52
304.476	9349.56
304.542	9344.55
304.608	9347.82
304.674	9330.54
304.741	9331.4
304.807	9333.23
304.873	9336.22
304.939	9350.71
305.005	9338
305.071	9332.37
305.137	9333.72
305.203	9305.35
305.269	9297.17
305.335	9309.3
305.401	9306.85
305.467	9310.12
305.533	9324.42
305.599	9334.97
305.666	9343.92
305.732	9342.38
305.798	9357.94
305.864	9383.36
305.93	9389.57
305.996	9393.23
306.062	9393.91
306.128	9388.56
306.194	9373.01
306.259	9371.37
306.325	9365.35
306.391	9373.68
306.457	9386.11
306.523	9394.34
306.589	9422.37
306.655	9423.43
306.721	9411.05
306.787	9400.79
306.853	9413.84
306.919	9395.35
306.985	9381.58
307.051	9380.38
307.117	9366.66
307.183	9356.59
307.248	9327.75
307.314	9333.77
307.38	9332.85
307.446	9342.63
307.512	9328.71
307.578	9338.53
307.644	9338.34
307.709	9337.23
307.775	9331.41
307.841	9328.56
307.907	9320.23
307.973	9302.95
308.039	9300.54
308.104	9302.75
308.17	9304.2
308.236	9284.17
308.302	9291
308.368	9281.57
308.433	9274.78
308.499	9279.64
308.565	9271.79
308.631	9274.87
308.696	9248.34
308.762	9237.89
308.828	9235.49
308.894	9222.58
308.959	9199.81
309.025	9184.26
309.091	9179.3
309.156	9171.16
309.222	9174.34
309.288	9167.07
309.354	9140.93
309.419	9136.26
309.485	9122.54
309.551	9132.07
309.616	9120.56
309.682	9110.5
309.748	9102.56
309.813	9096.16
309.879	9082.15
309.945	9067.75
310.01	9059.09
310.076	9061.06
310.141	9057.54
310.207	9034.58
310.273	9034.67
310.338	9035.35
310.404	9022.45
310.469	9011.86
310.535	9002.66
310.601	8976.95
310.666	8978.16
310.732	8990.19
310.797	8978.97
310.863	8965.64
310.928	8951
310.994	8952.01
311.059	8953.65
311.125	8952.88
311.191	8966.99
311.256	8957.89
311.322	8967.13
311.387	8947.44
311.453	9331.26
311.518	9304.3
311.584	9310.23
311.649	9313.79
311.715	9307.19
311.78	9313.59
311.846	9300.6
311.911	9304.06
311.976	9310.47
312.042	9294.2
312.107	9279.75
312.173	9275.42
312.238	9272.73
312.304	9270.18
312.369	9261.13
312.434	9248.18
312.5	9244.47
312.565	9207.88
312.631	9211.11
312.696	9201.43
312.761	9210
312.827	8817.42
312.892	8856.13
312.958	8851.46
313.023	8857.04
313.088	8857.28
313.154	8844.09
313.219	8839.33
313.284	8831.19
313.35	8820.94
313.415	8814.59
313.48	8812.13
313.546	8813.34
313.611	8824.5
313.676	8813.48
313.741	8804.29
313.807	8811.51
313.872	8811.56
313.937	8817.24
314.003	8830.47
314.068	8831.73
314.133	8830.86
314.198	8821.23
314.264	8805.35
314.329	8794.66
314.394	8783.88
314.459	8781.23
314.525	8804.19
314.59	8798.75
314.655	8790.66
314.72	8797.84
314.785	8803.08
314.851	8795.57
314.916	8772.23
314.981	8758.51
315.046	8750.48
315.111	8742.92
315.176	8724.97
315.242	8728.96
315.307	8727.37
315.372	8703.55
315.437	8693.25
315.502	8687.9
315.567	8699.46
315.632	8677.75
315.698	8682.61
315.763	8673.08
315.828	8664.99
315.893	8653.2
315.958	8650.6
316.023	8636.12
316.088	8620.19
316.153	8592.95
316.218	8586.45
316.283	8573.37
316.348	8554.12
316.413	8552.82
316.479	8534.49
316.544	8507.93
316.609	8475.21
316.674	8443.21
316.739	8409.34
316.804	8380.71
316.869	8342.61
316.934	8306.76
316.999	8281.16
317.064	8225.98
317.129	8189.27
317.194	8153.81
317.259	8108.59
317.324	8059.24
317.389	8022.83
317.454	7984.49
317.518	7954.05
317.583	7931.82
317.648	7913.35
317.713	7873.39
317.778	7816.73
317.843	7791.72
317.908	7756.96
317.973	7718.73
318.038	7685.6
318.103	7650.6
318.168	7621.99
318.233	7591.61
318.297	7540.74
318.362	7497.37
318.427	7458.92
318.492	7435.84
318.557	7389.37
318.622	7362.64
318.687	7335.01
318.751	7295.07
318.816	7260.32
318.881	7232.97
318.946	7173.62
319.011	7129.35
319.075	7096.2
319.14	7059.35
319.205	7019.32
319.27	6985.22
319.335	6944.38
319.399	6906.38
319.464	6883.56
319.529	6832.64
319.594	6799.49
319.658	6772.74
319.723	6733.17
319.788	6704.45
319.853	6650.7
319.917	6626.02
319.982	6573.34
320.047	6541.51
320.112	6515.29
320.176	6464.35
320.241	6426.42
320.306	6403.38
320.37	6362.81
320.435	6329.21
320.5	6305.98
320.564	6263.89
320.629	6223.34
320.694	6190.47
320.758	6155.29
320.823	6109.94
320.888	6081.2
320.952	6032.4
321.017	5986.87
321.082	5956.84
321.146	5924.85
321.211	5893.9
321.275	5850.12
321.34	5809.21
321.405	5769.69
321.469	5722.94
321.534	5684.06
321.598	5637.02
321.663	5605.94
321.727	5573.05
321.792	5527.45
321.857	5486.13
321.921	5453.34
321.986	5414.29
322.05	5357.13
322.115	5317.73
322.179	5273.65
322.244	5218.65
322.308	5187.22
322.373	5140.43
322.437	5096.5
322.502	5072.92
322.566	5027.75
322.631	4991.11
322.695	4952.09
322.76	4903.25
322.824	4869.3
322.889	4828.71
322.953	4786.02
323.018	4722.58
323.082	4661.37
323.146	4609.6
323.211	4554.71
323.275	4508.81
323.34	4463.46
323.404	4434.19
323.468	4387.02
323.533	4346.41
323.597	4300.52
323.662	4248.87
323.726	4222.66
323.79	4177.14
323.855	4113.14
323.919	4064.37
323.983	4022.25
324.048	3957.72
324.112	4115.3
324.177	3990.93
324.241	3786.23
324.305	3583.34
324.37	3383.88
324.434	3192.32
324.498	3152.27
324.562	3105.57
324.627	3047.88
324.691	2995.15
324.755	2930.75
324.82	2861.18
324.884	2784.46
324.948	2719.94
325.012	2629.71
325.077	2503.27
