Data from 20250703_urea_0.1M_MAYP1162681_01-01-05-724.txt Node
Date: Fri Jul 04 01:01:05 BST 2025
User: adleo
Spectrometer: MAYP116268
Trigger mode: 0
Integration Time (sec): 1.000000E0
Scans to average: 1
Electric dark correction enabled: true
Nonlinearity correction enabled: true
Boxcar width: 10
XAxis mode: Wavelengths
Number of Pixels in Spectrum: 2068
>>>>>Begin Spectral Data<<<<<
179.565	1337.28
179.642	1401.64
179.718	1453.94
179.795	1498.56
179.871	1536.96
179.948	1558.33
180.024	1580.76
180.101	1604.92
180.177	1620.71
180.254	1645.2
180.33	1672.12
180.407	1735.37
180.483	1843.89
180.56	1945.2
180.636	2038.36
180.712	2022.04
180.789	2034.74
180.865	2048.1
180.942	2057.04
181.018	2068.12
181.095	2082.96
181.171	2088.62
181.248	2086.1
181.324	2102.52
181.4	2109.32
181.477	2119.27
181.553	2134.48
181.63	2155.56
181.706	2172.16
181.782	2180.91
181.859	2180.2
181.935	2183.48
182.011	2179.96
182.088	2196.05
182.164	2215.66
182.24	2230.98
182.317	2245.86
182.393	2243.11
182.469	2259.9
182.546	2274.03
182.622	2278.46
182.698	2272.99
182.775	2281.98
182.851	2302.2
182.927	2291.97
183.003	2288.12
183.08	2283.46
183.156	2291.74
183.232	2290.97
183.308	2280.93
183.385	2291.5
183.461	2310.68
183.537	2312.48
183.613	2328.38
183.69	2316.96
183.766	2306.24
183.842	2314.15
183.918	2318.38
183.995	2333.51
184.071	2338.75
184.147	2331.99
184.223	2321.38
184.299	2336.05
184.375	2327.29
184.452	2334.53
184.528	2389.28
184.604	2403.61
184.68	2413.98
184.756	2421.74
184.832	2426.69
184.908	2430.07
184.985	2428.69
185.061	2412.41
185.137	2422.36
185.213	2407.42
185.289	2409.66
185.365	2402.52
185.441	2396.76
185.517	2411.42
185.593	2408.57
185.669	2402.81
185.745	2418.56
185.822	2435.12
185.898	2423.7
185.974	2433.55
186.05	2421.26
186.126	2383.08
186.202	2374.08
186.278	2370.75
186.354	2363.08
186.43	2370.56
186.506	2368.47
186.582	2366.85
186.658	2374.89
186.734	2352.28
186.81	2357.47
186.886	2359.23
186.962	2373.13
187.038	2374.22
187.114	2367.46
187.19	2374.84
187.266	2365.85
187.341	2363.85
187.417	2357.37
187.493	2357.23
187.569	2360.13
187.645	2353.42
187.721	2340.81
187.797	2347.95
187.873	2355.47
187.949	2348.28
188.025	2340.76
188.101	2344.85
188.176	2351.23
188.252	2349.42
188.328	2358.41
188.404	2359.5
188.48	2358.65
188.556	2349.75
188.632	2347.51
188.707	2347.75
188.783	2344.03
188.859	2340.8
188.935	2327.56
189.011	2337.42
189.086	2332.52
189.162	2322.85
189.238	2319.57
189.314	2314.48
189.39	2308.53
189.465	2298.01
189.541	2313.81
189.617	2298.11
189.693	2291.3
189.768	2294.97
189.844	2320.5
189.92	2312.36
189.996	2322.36
190.071	2332.5
190.147	2335.07
190.223	2345.4
190.298	2337.92
190.374	2325.69
190.45	2337.26
190.526	2348.39
190.601	2339.59
190.677	2341.78
190.753	2374.07
190.828	2381.59
190.904	2401.91
190.98	2417.72
191.055	2428.29
191.131	2419.72
191.207	2442.95
191.282	2455.56
191.358	2444.51
191.433	2427.08
191.509	2442.97
191.585	2438.02
191.66	2440.26
191.736	2444.78
191.811	2434.78
191.887	2452.6
191.963	2479.07
192.038	2482.59
192.114	2485.36
192.189	2491.21
192.265	2488.07
192.34	2463.96
192.416	2460.39
192.491	2457.82
192.567	2458.54
192.642	2463.06
192.718	2463.49
192.793	2447.4
192.869	2442.69
192.944	2447.3
193.02	2455.16
193.095	2458.06
193.171	2461.78
193.246	2459.92
193.322	2460.06
193.397	2462.06
193.473	2446.15
193.548	2422.15
193.624	2429.63
193.699	2425.39
193.775	2443.06
193.85	2444.97
193.925	2454.97
194.001	2454.54
194.076	2444.49
194.152	2435.21
194.227	2425.92
194.302	2415.88
194.378	2421.26
194.453	2416.79
194.529	2430.36
194.604	2413.12
194.679	2404.32
194.755	2385.37
194.83	2398.09
194.905	2395.43
194.981	2403.95
195.056	2397.9
195.131	2408.09
195.207	2404.8
195.282	2398.33
195.357	2376.71
195.433	2393.61
195.508	2377.23
195.583	2386.42
195.659	2400.94
195.734	2408.03
195.809	2408.41
195.884	2419.17
195.96	2417.98
196.035	2437.83
196.11	2431.4
196.185	2443.73
196.261	2450.16
196.336	2484.34
196.411	2468.77
196.486	2472.91
196.561	2466.86
196.637	2473.19
196.712	2491.96
196.787	2495.53
196.862	2511.1
196.937	2522.15
197.013	2528.39
197.088	2540.15
197.163	2564.73
197.238	2585.65
197.313	2585.56
197.388	2600.94
197.464	2633.2
197.539	2645.01
197.614	2637.72
197.689	2653.49
197.764	2671.55
197.839	2690.79
197.914	2681.31
197.989	2707.08
198.065	2724.61
198.14	2779.82
198.215	2807.12
198.29	2815.27
198.365	2833.34
198.44	2844.01
198.515	2873.37
198.59	2890.05
198.665	2921.8
198.74	2932.14
198.815	2934.34
198.89	2959.41
198.965	2989.73
199.04	2985.44
199.115	3002.84
199.19	3048.55
199.265	3051.22
199.34	3063.19
199.415	3101.69
199.49	3128.86
199.565	3139.02
199.64	3163.34
199.715	3160.67
199.79	3170.25
199.865	3178.03
199.94	3175.5
200.015	3208.18
200.09	3213.04
200.165	3218.62
200.24	3221.91
200.315	3263.26
200.39	3275.96
200.464	3283.59
200.539	3286.88
200.614	3304.29
200.689	3333.21
200.764	3340.32
200.839	3359.3
200.914	3367.17
200.989	3357.14
201.063	3373.56
201.138	3350.25
201.213	3352.11
201.288	3332.83
201.363	3340.13
201.438	3339.32
201.512	3355.82
201.587	3337.93
201.662	3342.51
201.737	3360.36
201.812	3372.48
201.886	3338.38
201.961	3351.13
202.036	3339.25
202.111	3336.53
202.186	3306.63
202.26	3287.45
202.335	3263.3
202.41	3259.34
202.485	3241.36
202.559	3223.09
202.634	3193.99
202.709	3212.01
202.784	3192.41
202.858	3195.51
202.933	3178
203.008	3177.81
203.082	3157.06
203.157	3158.92
203.232	3121.26
203.306	3101.07
203.381	3073.93
203.456	3054.42
203.53	3036.09
203.605	3020.12
203.68	3004.48
203.754	3002.67
203.829	3000.81
203.904	2991.84
203.978	2991.32
204.053	3008.73
204.127	3007.82
204.202	3021.75
204.277	3018.36
204.351	3025.18
204.426	3029.66
204.5	3040.78
204.575	3024.76
204.65	3063.35
204.724	3082.44
204.799	3112.09
204.873	3137.25
204.948	3167.69
205.022	3187.05
205.097	3215.65
205.171	3269.51
205.246	3317.44
205.32	3359.42
205.395	3398.81
205.469	3430.48
205.544	3482.44
205.618	3513.91
205.693	3578.53
205.767	3618.07
205.842	3698.86
205.916	3752.87
205.991	3804.65
206.065	3872.84
206.14	3955.37
206.214	4012.61
206.289	4073.25
206.363	4164.32
206.438	4237.27
206.512	4319.46
206.586	4418.17
206.661	4500.7
206.735	4553.17
206.81	4628.52
206.884	4731.27
206.958	4799.76
207.033	4915.26
207.107	5012.14
207.181	5136.19
207.256	5221.09
207.33	5340.01
207.405	5445.28
207.479	5563.53
207.553	5674.64
207.628	5759.25
207.702	5873.09
207.776	5973.39
207.851	6084.98
207.925	6207.06
207.999	6313.99
208.073	6418.16
208.148	6532.92
208.222	6636.46
208.296	6791.62
208.371	6932.06
208.445	7055.82
208.519	7205.75
208.593	7327.33
208.668	7445.39
208.742	7569.75
208.816	7695.07
208.89	7829.63
208.965	7946.04
209.039	8082.27
209.113	8223.45
209.187	8372.59
209.261	8488.86
209.336	8634.46
209.41	8777.01
209.484	8900.68
209.558	9045.13
209.632	9186.51
209.707	9323.87
209.781	9470.14
209.855	9603.39
209.929	9746.06
210.003	9874.4
210.077	9994.81
210.151	10171.32
210.226	10325.39
210.3	10477.5
210.374	10624.96
210.448	10745.13
210.522	10884.19
210.596	11015.5
210.67	11146.04
210.744	11312.39
210.818	11469.96
210.892	11605.82
210.966	11716.62
211.041	11850.65
211.115	11969.89
211.189	12113.04
211.263	12242.7
211.337	12358.33
211.411	12488.96
211.485	12594.96
211.559	12729.98
211.633	12852.7
211.707	12939.66
211.781	13064.37
211.855	13140.39
211.929	13242.54
212.003	13339.91
212.077	13460.81
212.151	13581.13
212.225	13701.41
212.299	13790.93
212.373	13880.59
212.447	13981.24
212.52	14123.88
212.594	14229.36
212.668	14341.72
212.742	14423.62
212.816	14519.65
212.89	14617.89
212.964	14723.5
213.038	14823.48
213.112	14928.95
213.186	15041.45
213.26	15112.99
213.333	15159.94
213.407	15261.16
213.481	15355.59
213.555	15463.28
213.629	15536.64
213.703	15607.25
213.777	15689.24
213.85	15770.02
213.924	15895.87
213.998	15989.43
214.072	16064.52
214.146	16136.33
214.219	16213.02
214.293	16296.93
214.367	16382
214.441	16474.54
214.515	16542.16
214.588	16601.92
214.662	16646.94
214.736	16698.17
214.81	16776.44
214.883	16859.19
214.957	16919.49
215.031	16986.24
215.105	17029.86
215.178	17091.01
215.252	17152.46
215.326	17197.67
215.4	17238.68
215.473	17257.38
215.547	17290.68
215.621	17337.96
215.694	17404.37
215.768	17437.81
215.842	17482.58
215.915	17530.34
215.989	17573.86
216.063	17620.85
216.136	17677.47
216.21	17742.39
216.284	17814.53
216.357	17883.3
216.431	17945.22
216.504	18008.21
216.578	18087.1
216.652	18153.6
216.725	18207.53
216.799	18270.99
216.873	18322.51
216.946	18385.5
217.02	18431.66
217.093	18492.38
217.167	18523.27
217.24	18557.44
217.314	18610.35
217.387	18659.17
217.461	18702.97
217.535	18758.73
217.608	18792.13
217.682	18839.93
217.755	18890.43
217.829	18917.8
217.902	18952.4
217.976	18987.78
218.049	19024.45
218.123	19048.78
218.196	19102.76
218.27	19147.48
218.343	19180.1
218.417	19234.03
218.49	19275.85
218.563	19347.08
218.637	19393.82
218.71	19464.71
218.784	19524.13
218.857	19585.43
218.931	19634.82
219.004	19679.59
219.077	19733.18
219.151	19791.25
219.224	19829.71
219.298	19874.81
219.371	19939.58
219.444	19967.97
219.518	20022.23
219.591	20064.25
219.665	20141.6
219.738	20182.03
219.811	20215.67
219.885	20260.06
219.958	20311.72
220.031	20354.08
220.105	20399.57
220.178	20445.36
220.251	20477.55
220.325	20518.8
220.398	20563.82
220.471	20602.66
220.544	20650.66
220.618	20676.25
220.691	20716.3
220.764	20761.41
220.838	20804.35
220.911	20832.93
220.984	20897.8
221.057	20930.43
221.131	20977.52
221.204	20976.41
221.277	21033.42
221.35	21095.12
221.424	21122.83
221.497	21155.02
221.57	21183.6
221.643	21204.38
221.716	21247.56
221.79	21268.91
221.863	21299.95
221.936	21329.74
222.009	21364.54
222.082	21395.92
222.155	21422.18
222.229	21461.08
222.302	21495.64
222.375	21518.49
222.448	21548.61
222.521	21579.27
222.594	21606.93
222.667	21614.5
222.74	21655.47
222.814	21674.85
222.887	21681.02
222.96	21726.52
223.033	21758.14
223.106	21797.33
223.179	21829.05
223.252	21844.86
223.325	21875.42
223.398	21891.66
223.471	21913.26
223.544	21935.14
223.617	21962.18
223.69	21981.37
223.763	21982.72
223.837	21999.73
223.91	22025.33
223.983	22031.98
224.056	22038.35
224.129	22057.58
224.202	22079.75
224.275	22073.34
224.348	22068.13
224.42	22086.74
224.493	22075.8
224.566	22074.79
224.639	22083.71
224.712	22092.14
224.785	22103.9
224.858	22106.94
224.931	22120.63
225.004	22118.65
225.077	22133.21
225.15	22117.35
225.223	22124.92
225.296	22158.96
225.369	22145.22
225.442	22136.73
225.514	22139
225.587	22145.94
225.66	22152.88
225.733	22175.54
225.806	22190.68
225.879	22198.29
225.952	22181.57
226.025	22202.73
226.097	22231.94
226.17	22236.09
226.243	22209.09
226.316	22208.9
226.389	22218.3
226.461	22226.11
226.534	22237.49
226.607	22226.59
226.68	22246.16
226.753	22250.74
226.825	22229.63
226.898	22246.84
226.971	22251.76
227.044	22260.53
227.117	22261.54
227.189	22260.77
227.262	22266.41
227.335	22278.7
227.407	22275.96
227.48	22281.88
227.553	22278.8
227.626	22256.81
227.698	22252.19
227.771	22262.31
227.844	22248.43
227.916	22249.34
227.989	22223.74
228.062	22210.2
228.134	22226.69
228.207	22217.77
228.28	22203.02
228.352	22198.39
228.425	22187.69
228.498	22201.52
228.57	22183.93
228.643	22192.41
228.716	22184.17
228.788	22166.14
228.861	22150.18
228.934	22147.87
229.006	22146.23
229.079	22126.42
229.151	22108.58
229.224	22083.71
229.296	22084.14
229.369	22100.44
229.442	22095.9
229.514	22083.66
229.587	22086.02
229.659	22063.66
229.732	22055.36
229.804	22062.35
229.877	22074.65
229.949	22089.93
230.022	22097.01
230.094	22091.23
230.167	22082.17
230.239	22060.86
230.312	22049.97
230.384	22063.95
230.457	22064.43
230.529	22065.15
230.602	22072.82
230.674	22065.39
230.747	22078.84
230.819	22079.71
230.892	22043.32
230.964	22042.45
231.037	22037.43
231.109	22018.88
231.181	22003.64
231.254	21979.35
231.326	21961.42
231.399	21947.58
231.471	21921.22
231.544	21876.48
231.616	21875.71
231.688	21849.53
231.761	21831.75
231.833	21809.43
231.905	21767.06
231.978	21749.75
232.05	21717.7
232.122	21697.79
232.195	21687
232.267	21675.52
232.339	21654.94
232.412	21646.84
232.484	21619.95
232.556	21590.16
232.629	21596.09
232.701	21603.7
232.773	21592.86
232.846	21563.22
232.918	21546.73
232.99	21530.05
233.062	21531.64
233.135	21527.16
233.207	21503.45
233.279	21499.98
233.351	21488.46
233.424	21463.06
233.496	21429.46
233.568	21428.11
233.64	21390.13
233.713	21371.34
233.785	21350.27
233.857	21330.95
233.929	21302.03
234.001	21296.73
234.074	21300
234.146	21261.44
234.218	21227.08
234.29	21204.47
234.362	21180.23
234.434	21133.82
234.507	21102.01
234.579	21048.27
234.651	21010.48
234.723	20985.52
234.795	20960.74
234.867	20931.1
234.939	20914.72
235.012	20888.11
235.084	20879.34
235.156	20875
235.228	20843.05
235.3	20807.19
235.372	20780.4
235.444	20757.36
235.516	20705.12
235.588	20688.58
235.66	20661.45
235.732	20625.35
235.804	20663.53
235.876	20647.43
235.948	20642.42
236.02	20619.77
236.092	20593.89
236.164	20564.78
236.236	20537.74
236.308	20506.56
236.38	20485.84
236.452	20458.47
236.524	20443.38
236.596	20429.69
236.668	20406.03
236.74	20376.54
236.812	20357.02
236.884	20332.92
236.956	20316.88
237.028	20281.89
237.1	20237.02
237.172	20219.48
237.244	20209.7
237.316	20135.91
237.388	20093.17
237.46	20048.88
237.532	20029.5
237.604	19993.99
237.675	19982.13
237.747	19958.42
237.819	19920.79
237.891	19888.74
237.963	19856.89
238.035	19816.84
238.107	19740.99
238.178	19719.59
238.25	19682.05
238.322	19669.86
238.394	19617.67
238.466	19572.95
238.538	19550.25
238.609	19525.48
238.681	19478.2
238.753	19431.12
238.825	19397.05
238.897	19377.1
238.968	19361.2
239.04	19313.92
239.112	19312
239.184	19274.75
239.255	19235.86
239.327	19213.45
239.399	19182.27
239.471	19149.98
239.542	19116.88
239.614	19102.8
239.686	19044.4
239.758	19022.52
239.829	18973.17
239.901	18959.2
239.973	18929.56
240.044	18897.13
240.116	18851.64
240.188	18823.93
240.259	18792.46
240.331	18748.61
240.403	18717.96
240.474	18669.77
240.546	18632.62
240.618	18574.69
240.689	18527.66
240.761	18496.43
240.833	18472
240.904	18428.82
240.976	18391.96
241.048	18360.97
241.119	18330.8
241.191	18293.94
241.262	18268.88
241.334	18217.84
241.405	18177.32
241.477	18140.06
241.549	18097.51
241.62	18072.31
241.692	18032.45
241.763	18013.9
241.835	17977.37
241.906	17948.12
241.978	17893.42
242.049	17867.01
242.121	17842.97
242.192	17819.26
242.264	17770.05
242.335	17718.05
242.407	17697.47
242.478	17656.85
242.55	17636.37
242.621	17592.51
242.693	17560.18
242.764	17530.59
242.836	17503.79
242.907	17483.98
242.979	17449
243.05	17423.89
243.122	17394.25
243.193	17360.71
243.264	17293.09
243.336	17260.56
243.407	17227.74
243.479	17216.8
243.55	17186.97
243.622	17157.67
243.693	17117.43
243.764	17107.21
243.836	17054.77
243.907	17013.85
243.978	16981.8
244.05	16944.02
244.121	16892.89
244.192	16869.13
244.264	16812.35
244.335	16779.63
244.407	16715.43
244.478	16685.5
244.549	16645.07
244.62	16596.39
244.692	16573.49
244.763	16556.38
244.834	16515.61
244.906	16476.52
244.977	16447.94
245.048	16434.06
245.119	16396.61
245.191	16358.73
245.262	16302.34
245.333	16299.5
245.405	16269.04
245.476	16245.13
245.547	16215.34
245.618	16195.25
245.689	16158.95
245.761	16136.83
245.832	16099.04
245.903	16084.53
245.974	16066.17
246.045	16032.82
246.117	16012.57
246.188	15954.44
246.259	15910.24
246.33	15873.61
246.401	15838.38
246.473	15785.65
246.544	15734.17
246.615	15710.84
246.686	15667.51
246.757	15651.12
246.828	15603.55
246.899	15591.06
246.97	15533.32
247.042	15491.53
247.113	15467.43
247.184	15459.67
247.255	15422.41
247.326	15392.72
247.397	15359.02
247.468	15313.86
247.539	15283.44
247.61	15243.77
247.681	15232.3
247.752	15217.6
247.823	15181.93
247.894	15160.24
247.965	15125.92
248.037	15093.77
248.108	15045.9
248.179	15024.06
248.25	14995.19
248.321	14969.02
248.392	14923.13
248.463	14921.49
248.534	14897.63
248.605	14872.13
248.675	14826.19
248.746	14803.92
248.817	14782.42
248.888	14754.66
248.959	14709.49
249.03	14689.82
249.101	14656.46
249.172	14619.2
249.243	14559.76
249.314	14552.53
249.385	14520
249.456	14497.92
249.527	14466.34
249.598	14440.75
249.669	14409.65
249.739	14381.21
249.81	14362.65
249.881	14312.13
249.952	14282.39
250.023	14251.25
250.094	14210.57
250.165	14181.45
250.235	14144.86
250.306	14117.72
250.377	14083.83
250.448	14064.02
250.519	14018.22
250.59	14013.36
250.66	13981.01
250.731	13984.58
250.802	13951.41
250.873	13932.8
250.944	13907.88
251.014	13877.27
251.085	13880.26
251.156	13866.76
251.227	13860.11
251.297	13857.89
251.368	13855.48
251.439	13844.25
251.51	13828.73
251.58	13796.28
251.651	13766.49
251.722	13764.03
251.792	13724.17
251.863	13690.71
251.934	13690.71
252.005	13698.66
252.075	13670.75
252.146	13660.19
252.217	13648.63
252.287	13642.17
252.358	13606.06
252.429	13609.24
252.499	13574.58
252.57	13552.69
252.641	13537.46
252.711	13509.5
252.782	13466.4
252.852	13466.02
252.923	13440.42
252.994	13416.51
253.064	13404.12
253.135	13373.17
253.205	13340.92
253.276	13339.62
253.347	13345.94
253.417	13313.06
253.488	13279.41
253.558	13249.52
253.629	13227.73
253.699	13205.46
253.77	13182.37
253.841	13162.66
253.911	13135.85
253.982	13122.74
254.052	13105.53
254.123	13076.37
254.193	13051.06
254.264	13067.11
254.334	13028.69
254.405	12993.79
254.475	12961.49
254.546	12940.81
254.616	12941.2
254.687	12923.89
254.757	12908.03
254.827	12873.42
254.898	12852.06
254.968	12836.35
255.039	12810.66
255.109	12794.84
255.18	12760.76
255.25	12717.86
255.321	12707.35
255.391	12672.74
255.461	12681.66
255.532	12627.57
255.602	12604.72
255.673	12563.89
255.743	12529.81
255.813	12478.62
255.884	12470.67
255.954	12459.29
256.024	12460.74
256.095	12438.47
256.165	12399.9
256.235	12385.88
256.306	12361.92
256.376	12353.43
256.446	12333.67
256.517	12322.63
256.587	12313.81
256.657	12296.31
256.728	12282.58
256.798	12265.17
256.868	12242.76
256.938	12206.75
257.009	12197.93
257.079	12190.31
257.149	12200.34
257.219	12152.81
257.29	12143.27
257.36	12098.39
257.43	12090.2
257.5	12038.86
257.571	12013.61
257.641	12006.57
257.711	11970.22
257.781	11958.99
257.852	11948.53
257.922	11910.79
257.992	11894.41
258.062	11873.29
258.132	11865.24
258.202	11847.6
258.273	11822.06
258.343	11823.02
258.413	11794.2
258.483	11774.15
258.553	11738.62
258.623	11709.17
258.693	11698.42
258.764	11699.44
258.834	11704.35
258.904	11684.78
258.974	11661.7
259.044	11641.65
259.114	11630.27
259.184	11618.22
259.254	11600.49
259.324	11557.01
259.394	11551.85
259.464	11551.18
259.535	11530.31
259.605	11507.99
259.675	11472.72
259.745	11468.04
259.815	11429.73
259.885	11406.45
259.955	11425.97
260.025	11402.11
260.095	11382.55
260.165	11369.87
260.235	11367.9
260.305	11346.35
260.375	11320.33
260.445	11332.76
260.515	11327.46
260.585	11322.69
260.655	11294.83
260.725	11280.95
260.795	11275.7
260.865	11278.93
260.934	11250.49
261.004	11241.91
261.074	11229.05
261.144	11234.54
261.214	11219.31
261.284	11208.23
261.354	11212.42
261.424	11179.4
261.494	11186.78
261.564	11167.07
261.634	11158.58
261.703	11116.08
261.773	11106.92
261.843	11097.38
261.913	11070.35
261.983	11037.91
262.053	11023.31
262.123	11012.66
262.192	10986.83
262.262	10981.87
262.332	10948.09
262.402	10940.28
262.472	10921.92
262.541	10880.77
262.611	10881.78
262.681	10860.43
262.751	10855.95
262.821	10833.5
262.89	10800.1
262.96	10788.73
263.03	10798.37
263.1	10783.48
263.169	10778.85
263.239	10767.96
263.309	10771.09
263.379	10769.07
263.448	10754.71
263.518	10745.46
263.588	10727.68
263.657	10726.09
263.727	10717.22
263.797	10705.66
263.867	10688.21
263.936	10660.32
264.006	10661.71
264.076	10640.17
264.145	10624.85
264.215	10593.92
264.285	10589.2
264.354	10561.16
264.424	10539.86
264.494	10506.86
264.563	10485.03
264.633	10485.61
264.702	10472.65
264.772	10433.38
264.842	10413.91
264.911	10403.31
264.981	10371.9
265.05	10355.9
265.12	10345.45
265.19	10333.21
265.259	10326.8
265.329	10317.21
265.398	10308.64
265.468	10321.26
265.537	10298.71
265.607	10286.33
265.676	10291.87
265.746	10274.58
265.815	10278.62
265.885	10266.48
265.955	10244.18
266.024	10231.46
266.094	10197.5
266.163	10195.67
266.232	10204
266.302	10184.44
266.371	10183.19
266.441	10174.23
266.51	10178.85
266.58	10155.15
266.649	10128.27
266.719	10127.5
266.788	10119.65
266.858	10123.65
266.927	10082.65
266.996	10075.62
267.066	10067.52
267.135	10043.2
267.205	10040.69
267.274	10024.8
267.343	10023.93
267.413	10013.53
267.482	10007.36
267.552	10012.18
267.621	9981.06
267.69	9940.07
267.76	9933.08
267.829	9917.81
267.898	9904.08
267.968	9872.63
268.037	9873.36
268.106	9874.03
268.176	9847.49
268.245	9829.09
268.314	9809.91
268.384	9804.66
268.453	9793.97
268.522	9785.45
268.592	9786.22
268.661	9773.36
268.73	9769.12
268.799	9747.59
268.869	9752.55
268.938	9725.67
269.007	9705.4
269.076	9694.51
269.146	9703.52
269.215	9695.72
269.284	9702.36
269.353	9686.28
269.422	9680.16
269.492	9659.26
269.561	9615.92
269.63	9609.95
269.699	9597.47
269.768	9589.77
269.838	9587.31
269.907	9584.85
269.976	9556.92
270.045	9519.65
270.114	9509.49
270.183	9492.83
270.253	9481.12
270.322	9453.34
270.391	9443.66
270.46	9445.73
270.529	9446.36
270.598	9439.52
270.667	9427.86
270.736	9407.2
270.806	9399.83
270.875	9406.62
270.944	9398.44
271.013	9425.12
271.082	9411.73
271.151	9404.26
271.22	9374.65
271.289	9363.67
271.358	9350.62
271.427	9349.51
271.496	9347.78
271.565	9336.7
271.634	9325.05
271.703	9327.65
271.772	9329.53
271.841	9321.92
271.91	9289.95
271.979	9282.58
272.048	9259.18
272.117	9254.51
272.186	9235.64
272.255	9236.02
272.324	9229.71
272.393	9226.3
272.462	9201.45
272.531	9198.85
272.6	9193.5
272.669	9199.47
272.738	9186.18
272.807	9175.83
272.876	9158.07
272.945	9186.04
273.013	9183.44
273.082	9191.92
273.151	9168.52
273.22	9165.72
273.289	9156.67
273.358	9178.44
273.427	9164.67
273.496	9166.5
273.564	9166.83
273.633	9169.38
273.702	9148.3
273.771	9137.85
273.84	9128.12
273.909	9132.65
273.977	9126.2
274.046	9109.73
274.115	9115.08
274.184	9095.29
274.253	9093.99
274.322	9101.55
274.39	9067.8
274.459	9054.56
274.528	9024.95
274.597	9018.74
274.665	9015.28
274.734	9028.13
274.803	9017.44
274.872	9012.34
274.94	8996.45
275.009	9025.16
275.078	9015.05
275.147	9014.18
275.215	9009.32
275.284	9021.69
275.353	9007.97
275.421	8983.18
275.49	9002.53
275.559	8991.89
275.627	8992.47
275.696	8987.66
275.765	8991.94
275.833	8982.94
275.902	8982.03
275.971	8992.66
276.039	9008.6
276.108	9016.88
276.177	9010.23
276.245	8994.01
276.314	8985.97
276.383	8994.35
276.451	8956.88
276.52	8958.42
276.588	8975.51
276.657	8976.57
276.725	8962.08
276.794	8965.55
276.863	8976.38
276.931	8945.04
277	8950.14
277.068	8959.19
277.137	8971.56
277.205	8966.75
277.274	8982.97
277.342	8993.47
277.411	8976.33
277.48	8957.94
277.548	8936.37
277.617	8942.44
277.685	8937.72
277.754	8945.52
277.822	8935.61
277.89	8946.05
277.959	8937.82
278.027	8919.48
278.096	8908.46
278.164	8938.64
278.233	8928.73
278.301	8921.75
278.37	8934.94
278.438	8921.8
278.507	8918.28
278.575	8892.77
278.643	8888.96
278.712	8872.6
278.78	8851.18
278.849	8855.99
278.917	8873.13
278.985	8875.58
279.054	8872.69
279.122	8883.76
279.191	8883.19
279.259	8884.73
279.327	8859.74
279.396	8875.48
279.464	8864.08
279.532	8877.02
279.601	8871.39
279.669	8871.63
279.737	8883.38
279.806	8881.21
279.874	8890.55
279.942	8892.81
280.011	8885.01
280.079	8888.62
280.147	8905.71
280.215	8917.22
280.284	8917.84
280.352	8897.77
280.42	8903.11
280.488	8893.48
280.557	8883.38
280.625	8883.38
280.693	8880.92
280.761	8883.04
280.83	8863.3
280.898	8880.58
280.966	8863.21
281.034	8820.8
281.102	8802.46
281.171	8791.15
281.239	8800.82
281.307	8790.28
281.375	8775.07
281.443	8799.48
281.512	8799.28
281.58	8803.71
281.648	8788.7
281.716	8788.21
281.784	8791.25
281.852	8781.86
281.92	8783.06
281.989	8792.93
282.057	8775.12
282.125	8816.24
282.193	8814.31
282.261	8817.63
282.329	8812.87
282.397	8809.16
282.465	8818.98
282.533	8836.98
282.601	8825.72
282.67	8804.49
282.738	8797.8
282.806	8809.69
282.874	8802.46
282.942	8800.49
283.01	8790.09
283.078	8794.14
283.146	8791.06
283.214	8805.5
283.282	8812.48
283.35	8820.85
283.418	8820.13
283.486	8829.85
283.554	8789.8
283.622	8789.22
283.69	8786.76
283.758	8781.9
283.826	8787.05
283.894	8800.1
283.962	8821.47
284.03	8842.46
284.098	8839.38
284.165	8826.14
284.233	8830.43
284.301	8820.65
284.369	8812.04
284.437	8810.79
284.505	8807.42
284.573	8824.5
284.641	8806.6
284.709	8811.89
284.777	8793.89
284.845	8795.58
284.912	8795.91
284.98	8797.45
285.048	8795.38
285.116	8801.01
285.184	8813.05
285.252	8808.91
285.319	8791.58
285.387	8776.75
285.455	8762.17
285.523	8769.87
285.591	8777.38
285.659	8776.8
285.726	8792.2
285.794	8775.36
285.862	8774.06
285.93	8768.38
285.997	8759.23
286.065	8753.22
286.133	8741.52
286.201	8740.75
286.269	8725.06
286.336	8714.52
286.404	8711.82
286.472	8722.9
286.539	8699.27
286.607	8677.12
286.675	8679.72
286.743	8685.64
286.81	8682.76
286.878	8696.18
286.946	8690.02
287.013	8687.62
287.081	8688
287.149	8669.52
287.216	8694.45
287.284	8678.42
287.352	8680.2
287.419	8674.14
287.487	8690.46
287.555	8698.3
287.622	8697
287.69	8706.77
287.758	8721.64
287.825	8715.2
287.893	8699.7
287.96	8711.58
288.028	8726.94
288.096	8731.03
288.163	8731.46
288.231	8717.02
288.298	8712.5
288.366	8725.3
288.433	8720.97
288.501	8710.86
288.569	8712.55
288.636	8703.35
288.704	8724.72
288.771	8730.4
288.839	8722.75
288.906	8713.46
288.974	8721.21
289.041	8710.72
289.109	8698.01
289.176	8712.79
289.244	8713.03
289.311	8731.9
289.379	8735.95
289.446	8742.54
289.514	8741
289.581	8741.91
289.649	8744.99
289.716	8746.58
289.783	8734.79
289.851	8755.82
289.918	8748.94
289.986	8754.33
290.053	8764.2
290.121	8758.95
290.188	8766.08
290.255	8795.24
290.323	8791.1
290.39	8781.43
290.458	8799.23
290.525	8815.5
290.592	8796.01
290.66	8799.47
290.727	8785.9
290.794	8803.03
290.862	8794.8
290.929	8797.4
290.996	8797.3
291.064	8809.77
291.131	8821.71
291.198	8836.63
291.266	8837.11
291.333	8844.43
291.4	8849.87
291.468	8864.65
291.535	8864.98
291.602	8873.26
291.669	8870.47
291.737	8876.78
291.804	8878.27
291.871	8890.3
291.938	8899.21
292.006	8937.49
292.073	8952.99
292.14	8971.18
292.207	8958.47
292.275	8963.96
292.342	8973.78
292.409	9004.02
292.476	9033.43
292.543	9022.55
292.611	9028.57
292.678	9045.81
292.745	9077
292.812	9092.36
292.879	9084.66
292.946	9088.36
293.014	9098.86
293.081	9104.68
293.148	9117.39
293.215	9132.56
293.282	9127.98
293.349	9132.7
293.416	9107.81
293.484	9122.44
293.551	9125.04
293.618	9146.75
293.685	9167.22
293.752	9164.04
293.819	9158.69
293.886	9142.23
293.953	9150.03
294.02	9157.92
294.087	9161.44
294.154	9151.33
294.221	9159.08
294.288	9161
294.356	9177.85
294.423	9182.09
294.49	9175.78
294.557	9196.87
294.624	9188.59
294.691	9204.05
294.758	9207.32
294.825	9217.29
294.892	9205.2
294.959	9204.19
295.026	9214.01
295.093	9211.32
295.16	9208.43
295.226	9207.37
295.293	9231.98
295.36	9236.84
295.427	9249.46
295.494	9262.65
295.561	9269.34
295.628	9302.91
295.695	9323.09
295.762	9328.29
295.829	9341.87
295.896	9359.49
295.963	9364.89
296.03	9372.35
296.096	9381.79
296.163	9394.5
296.23	9411.55
296.297	9429.65
296.364	9435.04
296.431	9442.12
296.498	9438.32
296.564	9467.25
296.631	9470
296.698	9455.26
296.765	9478.42
296.832	9467.06
296.899	9456.27
296.965	9473.95
297.032	9447.26
297.099	9465.08
297.166	9476.74
297.233	9467.3
297.299	9458.58
297.366	9455.6
297.433	9465.76
297.5	9478.52
297.566	9476.21
297.633	9468.89
297.7	9475.19
297.767	9475.48
297.833	9478.33
297.9	9484.87
297.967	9465.28
298.033	9485.7
298.1	9518.93
298.167	9506.26
298.234	9513.39
298.3	9523.45
298.367	9526.34
298.434	9535.25
298.5	9512.81
298.567	9504
298.634	9501.69
298.7	9517.24
298.767	9524.37
298.834	9529.95
298.9	9518.88
298.967	9514.64
299.033	9531.21
299.1	9547.24
299.167	9563.76
299.233	9557.26
299.3	9567.61
299.366	9589.14
299.433	9603.44
299.5	9571.66
299.566	9577.72
299.633	9597.66
299.699	9608.4
299.766	9603.68
299.832	9602.48
299.899	9617.99
299.965	9631.57
300.032	9628.44
300.099	9646.55
300.165	9648.81
300.232	9653.48
300.298	9655.6
300.365	9668.8
300.431	9669.71
300.498	9658.3
300.564	9662.29
300.631	9674.19
300.697	9691.53
300.763	9697.21
300.83	9687.58
300.896	9705.88
300.963	9716.52
301.029	9721.48
301.096	9721.68
301.162	9736.46
301.229	9736.41
301.295	9729.48
301.361	9734.44
301.428	9746.38
301.494	9724.8
301.561	9726.92
301.627	9731.26
301.693	9734.73
301.76	9736.6
301.826	9728.46
301.892	9743.4
301.959	9754.76
302.025	9756.35
302.092	9750.52
302.158	9750.24
302.224	9758.13
302.291	9749.47
302.357	9749.03
302.423	9736.8
302.49	9729
302.556	9733.23
302.622	9731.79
302.688	9743.01
302.755	9754.91
302.821	9764.45
302.887	9775.96
302.954	9777.02
303.02	9778.03
303.086	9790.16
303.152	9787.85
303.219	9788.29
303.285	9793.58
303.351	9798.5
303.417	9793.68
303.483	9784.1
303.55	9783.57
303.616	9780.39
303.682	9777.64
303.748	9772.63
303.815	9789.73
303.881	9803.89
303.947	9794.55
304.013	9800.86
304.079	9787.9
304.145	9769.84
304.212	9762.28
304.278	9757.94
304.344	9753.47
304.41	9739.21
304.476	9727.22
304.542	9720.91
304.608	9720.04
304.674	9699.14
304.741	9693.6
304.807	9704.43
304.873	9707.66
304.939	9720.95
305.005	9704.05
305.071	9700.73
305.137	9701.98
305.203	9672.07
305.269	9662.15
305.335	9674.67
305.401	9673.71
305.467	9674.96
305.533	9680.64
305.599	9689.12
305.666	9692.87
305.732	9696.15
305.798	9714.4
305.864	9744.12
305.93	9761.03
305.996	9762.71
306.062	9763.53
306.128	9759.34
306.194	9744.89
306.259	9746.29
306.325	9735.6
306.391	9744.84
306.457	9758.67
306.523	9760.06
306.589	9794.31
306.655	9793.83
306.721	9779.52
306.787	9765.65
306.853	9779.81
306.919	9764.21
306.985	9757.03
307.051	9747.4
307.117	9734.59
307.183	9730.35
307.248	9695.72
307.314	9696.34
307.38	9696.1
307.446	9706.55
307.512	9692.78
307.578	9694.85
307.644	9685.99
307.709	9689.99
307.775	9685.12
307.841	9675.3
307.907	9674.24
307.973	9650.49
308.039	9644.76
308.104	9640.04
308.17	9640.18
308.236	9622.8
308.302	9627.32
308.368	9615.38
308.433	9620.1
308.499	9613.55
308.565	9596.74
308.631	9598.77
308.696	9574.93
308.762	9569.44
308.828	9565.15
308.894	9547.91
308.959	9526.53
309.025	9522.44
309.091	9510.64
309.156	9498.89
309.222	9505.29
309.288	9493.69
309.354	9469.03
309.419	9471.87
309.485	9458.72
309.551	9467.1
309.616	9460.99
309.682	9458.15
309.748	9453.91
309.813	9446.35
309.879	9438.4
309.945	9432.1
310.01	9429.83
310.076	9431.66
310.141	9421.31
310.207	9401.56
310.273	9400.5
310.338	9406.09
310.404	9386.64
310.469	9379.7
310.535	9372.77
310.601	9349.41
310.666	9353.03
310.732	9363.67
310.797	9347.78
310.863	9341.18
310.928	9330.25
310.994	9333.23
311.059	9330.54
311.125	9327.16
311.191	9337.66
311.256	9332.27
311.322	9336.8
311.387	9315.32
311.453	9579.77
311.518	9556.08
311.584	9553.67
311.649	9556.27
311.715	9541.83
311.78	9546.84
311.846	9536.92
311.911	9546.79
311.976	9546.12
312.042	9534.41
312.107	9517.42
312.173	9512.6
312.238	9502.83
312.304	9498.5
312.369	9482.51
312.434	9469.17
312.5	9461.47
312.565	9429.3
312.631	9433.2
312.696	9419.48
312.761	9420.44
312.827	9145.98
312.892	9184.65
312.958	9186.76
313.023	9188.26
313.088	9191.63
313.154	9180.07
313.219	9169.34
313.284	9158.36
313.35	9156.29
313.415	9145.12
313.48	9143.77
313.546	9145.94
313.611	9158.02
313.676	9148.58
313.741	9138.91
313.807	9144.35
313.872	9149.11
313.937	9155.61
314.003	9171.41
314.068	9176.17
314.133	9185.51
314.198	9171.79
314.264	9152.58
314.329	9132.94
314.394	9136.11
314.459	9137.56
314.525	9153.3
314.59	9155.9
314.655	9147.72
314.72	9149.64
314.785	9159.03
314.851	9156.09
314.916	9133.71
314.981	9115.32
315.046	9105.01
315.111	9098.52
315.176	9089.13
315.242	9093.99
315.307	9087.78
315.372	9065.78
315.437	9058.84
315.502	9046.47
315.567	9058.99
315.632	9040.55
315.698	9049.55
315.763	9040.59
315.828	9031.4
315.893	9029.04
315.958	9021.96
316.023	9007.86
316.088	8995.68
316.153	8968.14
316.218	8960.54
316.283	8947.21
316.348	8936.38
316.413	8930.5
316.479	8916.26
316.544	8881.08
316.609	8845.65
316.674	8817.88
316.739	8777.21
316.804	8742.17
316.869	8709.4
316.934	8669.69
316.999	8642.69
317.064	8590.67
317.129	8549.08
317.194	8510.83
317.259	8462.55
317.324	8409.77
317.389	8364.4
317.454	8326.34
317.518	8293.62
317.583	8267.54
317.648	8242.04
317.713	8202.4
317.778	8146.21
317.843	8118.59
317.908	8081.56
317.973	8048.03
318.038	8014.35
318.103	7976.94
318.168	7943.9
318.233	7920.67
318.297	7873.49
318.362	7837.8
318.427	7800.58
318.492	7779.23
318.557	7732.16
318.622	7702.77
318.687	7681.86
318.751	7644.27
318.816	7608.35
318.881	7576.57
318.946	7523.82
319.011	7484.4
319.075	7447.24
319.14	7415.13
319.205	7368.03
319.27	7338.47
319.335	7292.09
319.399	7255.56
319.464	7231.82
319.529	7181.22
319.594	7133.11
319.658	7107.6
319.723	7059.6
319.788	7034.66
319.853	6972.67
319.917	6945.34
319.982	6894.89
320.047	6855.45
320.112	6831.15
320.176	6784.84
320.241	6744.4
320.306	6714.9
320.37	6673.55
320.435	6642.67
320.5	6614.53
320.564	6584.23
320.629	6540.83
320.694	6508.71
320.758	6467.13
320.823	6423.4
320.888	6398.97
320.952	6355.04
321.017	6312.61
321.082	6273.83
321.146	6236.25
321.211	6202.95
321.275	6164.32
321.34	6116.96
321.405	6078.24
321.469	6029.74
321.534	5980.14
321.598	5933.51
321.663	5904.1
321.727	5871.33
321.792	5823.22
321.857	5781.59
321.921	5738.03
321.986	5696.61
322.05	5640.23
322.115	5601.49
322.179	5557.68
322.244	5503.56
322.308	5469.48
322.373	5422.93
322.437	5385.94
322.502	5366.23
322.566	5325.01
322.631	5288.69
322.695	5251.56
322.76	5204.32
322.824	5173.71
322.889	5137.84
322.953	5092.3
323.018	5020.3
323.082	4953.13
323.146	4900.66
323.211	4847.55
323.275	4799.15
323.34	4753.58
323.404	4717.12
323.468	4669.06
323.533	4625.18
323.597	4579.88
323.662	4526.14
323.726	4488.96
323.79	4442.98
323.855	4367.83
323.919	4317.17
323.983	4270.67
324.048	4201.61
324.112	4345.95
324.177	4212.88
324.241	3992.82
324.305	3780.16
324.37	3572.11
324.434	3373.37
324.498	3329.54
324.562	3274.27
324.627	3213.7
324.691	3155.39
324.755	3088.79
324.82	3012.65
324.884	2933.44
324.948	2855.56
325.012	2756.25
325.077	2626.38
