Data from 20250703_urea_0.1M_MAYP1162681_18-41-05-556.txt Node
Date: Thu Jul 03 18:41:05 BST 2025
User: adleo
Spectrometer: MAYP116268
Trigger mode: 0
Integration Time (sec): 1.000000E0
Scans to average: 1
Electric dark correction enabled: true
Nonlinearity correction enabled: true
Boxcar width: 10
XAxis mode: Wavelengths
Number of Pixels in Spectrum: 2068
>>>>>Begin Spectral Data<<<<<
179.565	1356.25
179.642	1419.95
179.718	1473.31
179.795	1517.13
179.871	1549.18
179.948	1568.73
180.024	1593.62
180.101	1621.85
180.177	1637.8
180.254	1665.14
180.33	1692.26
180.407	1758.99
180.483	1865.18
180.56	1967.34
180.636	2063.92
180.712	2050.12
180.789	2064.44
180.865	2082.65
180.942	2089.5
181.018	2098.39
181.095	2113.38
181.171	2118.9
181.248	2120.14
181.324	2135.08
181.4	2144.55
181.477	2162.67
181.553	2178.18
181.63	2199.64
181.706	2216.82
181.782	2227.8
181.859	2224.8
181.935	2230.52
182.011	2224.81
182.088	2241.6
182.164	2264.12
182.24	2279.58
182.317	2288.81
182.393	2287.1
182.469	2301
182.546	2316.99
182.622	2323.51
182.698	2322.32
182.775	2332.93
182.851	2347.63
182.927	2340.35
183.003	2332.98
183.08	2324.32
183.156	2333.31
183.232	2331.74
183.308	2318.36
183.385	2326.03
183.461	2348.83
183.537	2347.4
183.613	2361.58
183.69	2354.87
183.766	2343.25
183.842	2350.96
183.918	2356.77
183.995	2371.48
184.071	2373.19
184.147	2368.05
184.223	2355.58
184.299	2368.25
184.375	2357.16
184.452	2363.49
184.528	2417.11
184.604	2429.67
184.68	2441.24
184.756	2448.19
184.832	2450.71
184.908	2455.9
184.985	2457.85
185.061	2436.81
185.137	2448.62
185.213	2436.77
185.289	2437.2
185.365	2426.25
185.441	2424.34
185.517	2440.59
185.593	2433.63
185.669	2433.02
185.745	2443.2
185.822	2463.33
185.898	2450.29
185.974	2460.14
186.05	2455.61
186.126	2419.28
186.202	2410.76
186.278	2408.95
186.354	2401.29
186.43	2407.19
186.506	2402.62
186.582	2399.91
186.658	2408.43
186.734	2384.82
186.81	2387.68
186.886	2392.34
186.962	2407.76
187.038	2403.48
187.114	2395.1
187.19	2405.9
187.266	2391.53
187.341	2389.91
187.417	2379.39
187.493	2381.34
187.569	2385.67
187.645	2376.3
187.721	2361.39
187.797	2372.58
187.873	2375.43
187.949	2368.3
188.025	2366.49
188.101	2372.15
188.176	2379.05
188.252	2373.34
188.328	2383.43
188.404	2384.43
188.48	2377.81
188.556	2372.48
188.632	2372.14
188.707	2373.43
188.783	2371.81
188.859	2368.53
188.935	2359.15
189.011	2369.58
189.086	2363.82
189.162	2351.49
189.238	2349.44
189.314	2350.35
189.39	2341.87
189.465	2331.88
189.541	2350.82
189.617	2330.6
189.693	2323.22
189.768	2326.84
189.844	2356.98
189.92	2347.94
189.996	2355.66
190.071	2368.98
190.147	2365.32
190.223	2373.94
190.298	2365.51
190.374	2350.7
190.45	2362.74
190.526	2371.5
190.601	2363.89
190.677	2362.27
190.753	2392.6
190.828	2396.74
190.904	2411.03
190.98	2429.6
191.055	2445.88
191.131	2437.93
191.207	2461.01
191.282	2473.91
191.358	2463.82
191.433	2443.53
191.509	2457.99
191.585	2456.94
191.66	2454.85
191.736	2465.51
191.811	2456.23
191.887	2471.33
191.963	2494.32
192.038	2499.75
192.114	2500.18
192.189	2507.03
192.265	2506.99
192.34	2485.69
192.416	2485.36
192.491	2480.22
192.567	2479.69
192.642	2479.22
192.718	2477.64
192.793	2465.98
192.869	2460.22
192.944	2463.22
193.02	2474.36
193.095	2479.41
193.171	2483.36
193.246	2487.69
193.322	2483.74
193.397	2485.79
193.473	2470.12
193.548	2452.5
193.624	2462.31
193.699	2460.69
193.775	2475.6
193.85	2479.17
193.925	2487.89
194.001	2487.22
194.076	2481.08
194.152	2470.46
194.227	2463.41
194.302	2452.56
194.378	2456.8
194.453	2455.42
194.529	2467.61
194.604	2450.85
194.679	2442.89
194.755	2423.33
194.83	2432.96
194.905	2432.39
194.981	2440.43
195.056	2435.72
195.131	2441.77
195.207	2439.67
195.282	2430.62
195.357	2408.53
195.433	2422.33
195.508	2410.43
195.583	2415.95
195.659	2428.72
195.734	2437.24
195.809	2437.81
195.884	2447.85
195.96	2445.52
196.035	2461.99
196.11	2455.33
196.185	2467.18
196.261	2471.7
196.336	2508.13
196.411	2495.03
196.486	2499.27
196.561	2493.84
196.637	2501.55
196.712	2521.8
196.787	2526.18
196.862	2542.56
196.937	2555.79
197.013	2562.18
197.088	2573.27
197.163	2596.42
197.238	2617.35
197.313	2618.11
197.388	2633.16
197.464	2668.95
197.539	2683.71
197.614	2677
197.689	2695.39
197.764	2714.92
197.839	2736.31
197.914	2726.64
197.989	2752.42
198.065	2764.71
198.14	2819.4
198.215	2851.14
198.29	2862.72
198.365	2874.69
198.44	2887.84
198.515	2918.25
198.59	2936.13
198.665	2968.92
198.74	2984.14
198.815	2987
198.89	3013.83
198.965	3046.22
199.04	3039.83
199.115	3056.99
199.19	3101.61
199.265	3100.51
199.34	3110.29
199.415	3149.22
199.49	3173.25
199.565	3181.17
199.64	3210.5
199.715	3202.86
199.79	3208.34
199.865	3214.73
199.94	3214.45
200.015	3250.76
200.09	3258.15
200.165	3265.12
200.24	3271.04
200.315	3315.26
200.39	3328
200.464	3334.68
200.539	3337.83
200.614	3353.24
200.689	3379.58
200.764	3388.13
200.839	3409.44
200.914	3416.36
200.989	3403.71
201.063	3419.98
201.138	3402.34
201.213	3401.24
201.288	3386.59
201.363	3396.85
201.438	3398.62
201.512	3417.03
201.587	3397.36
201.662	3403
201.737	3416.6
201.812	3420.99
201.886	3379.67
201.961	3392.47
202.036	3380.26
202.111	3375.91
202.186	3349.07
202.26	3331.45
202.335	3306.02
202.41	3301.2
202.485	3286.75
202.559	3269.72
202.634	3242
202.709	3256.49
202.784	3241.13
202.858	3240.23
202.933	3219.9
203.008	3213.99
203.082	3195.43
203.157	3199.87
203.232	3158.38
203.306	3140.82
203.381	3119.83
203.456	3104.71
203.53	3088.24
203.605	3073.51
203.68	3060.19
203.754	3065.68
203.829	3062.53
203.904	3060.91
203.978	3066.49
204.053	3085.81
204.127	3089.05
204.202	3109.04
204.277	3111.23
204.351	3128.21
204.426	3146.78
204.5	3162.28
204.575	3155.03
204.65	3196.6
204.724	3222.58
204.799	3267.74
204.873	3300.06
204.948	3335.28
205.022	3364.05
205.097	3399.45
205.171	3463.55
205.246	3519
205.32	3568.11
205.395	3621.65
205.469	3667.15
205.544	3732.67
205.618	3776.96
205.693	3855.15
205.767	3908.09
205.842	4003.95
205.916	4071.69
205.991	4138.53
206.065	4224.22
206.14	4327.86
206.214	4405.87
206.289	4483.84
206.363	4583.9
206.438	4678.69
206.512	4782.78
206.586	4907.22
206.661	5016.94
206.735	5103
206.81	5216.11
206.884	5343.03
206.958	5444.63
207.033	5583.85
207.107	5707.09
207.181	5858.95
207.256	5976.34
207.33	6125.68
207.405	6262.48
207.479	6410.41
207.553	6548.84
207.628	6662.98
207.702	6807.43
207.776	6935.23
207.851	7077.68
207.925	7238.2
207.999	7376.07
208.073	7520.47
208.148	7665.63
208.222	7802
208.296	7976.39
208.371	8139.68
208.445	8301.46
208.519	8484.37
208.593	8644.37
208.668	8796.41
208.742	8956.2
208.816	9109.35
208.89	9281.39
208.965	9436.55
209.039	9599.76
209.113	9775.38
209.187	9958.74
209.261	10109.48
209.336	10294.15
209.41	10470.42
209.484	10627.78
209.558	10822.09
209.632	11001.72
209.707	11174.28
209.781	11358.36
209.855	11540.09
209.929	11722.52
210.003	11889.52
210.077	12043.36
210.151	12248.84
210.226	12436.97
210.3	12630.45
210.374	12811.54
210.448	12978.52
210.522	13147.42
210.596	13314.69
210.67	13478.93
210.744	13692.27
210.818	13885.33
210.892	14064.85
210.966	14209.51
211.041	14373.65
211.115	14516.48
211.189	14681.96
211.263	14847.59
211.337	15008.59
211.411	15167.17
211.485	15302.09
211.559	15464.1
211.633	15609.72
211.707	15718.45
211.781	15874.38
211.855	15971.74
211.929	16099.81
212.003	16210.96
212.077	16358.39
212.151	16499.32
212.225	16644.92
212.299	16763.58
212.373	16885.46
212.447	17003.83
212.52	17165.76
212.594	17300.23
212.668	17433.19
212.742	17547.8
212.816	17662.11
212.89	17770.3
212.964	17885.04
213.038	18007.21
213.112	18133.66
213.186	18263.73
213.26	18360.07
213.333	18418.43
213.407	18538.08
213.481	18661.65
213.555	18781.45
213.629	18873.2
213.703	18963.42
213.777	19071.51
213.85	19146.15
213.924	19275.79
213.998	19381.32
214.072	19472.26
214.146	19564.98
214.219	19660.88
214.293	19755.04
214.367	19852.48
214.441	19953.35
214.515	20039.85
214.588	20099.75
214.662	20146.93
214.736	20209.15
214.81	20307.22
214.883	20393.72
214.957	20458.4
215.031	20529.62
215.105	20583.41
215.178	20647.74
215.252	20731.26
215.326	20779.31
215.4	20841.05
215.473	20858.79
215.547	20906.98
215.621	20964.15
215.694	21029.07
215.768	21070.95
215.842	21115.63
215.915	21170.33
215.989	21210.29
216.063	21270.3
216.136	21343.18
216.21	21415.33
216.284	21499.63
216.357	21566.25
216.431	21636.62
216.504	21705.06
216.578	21788.89
216.652	21858.25
216.725	21920.58
216.799	21986.28
216.873	22043.16
216.946	22099.85
217.02	22155.18
217.093	22209.32
217.167	22249.81
217.24	22287.08
217.314	22337.02
217.387	22389.56
217.461	22428.76
217.535	22501.07
217.608	22530.24
217.682	22567.79
217.755	22620.92
217.829	22652.98
217.902	22696.62
217.976	22742.32
218.049	22778.43
218.123	22799.51
218.196	22850.18
218.27	22888.8
218.343	22902.97
218.417	22955.72
218.49	22996.46
218.563	23063.29
218.637	23102.44
218.71	23158.48
218.784	23211.57
218.857	23262.82
218.931	23297.35
219.004	23335.97
219.077	23366.79
219.151	23404.54
219.224	23438.49
219.298	23470.27
219.371	23519.7
219.444	23534.31
219.518	23572.99
219.591	23616.05
219.665	23676.44
219.738	23716.08
219.811	23740.87
219.885	23791.17
219.958	23824.83
220.031	23863.03
220.105	23898.19
220.178	23939.23
220.251	23954.76
220.325	23988.87
220.398	24020.17
220.471	24065.07
220.544	24116.34
220.618	24137.42
220.691	24172.2
220.764	24205.24
220.838	24246.43
220.911	24265.97
220.984	24328.77
221.057	24355.3
221.131	24381.25
221.204	24378.94
221.277	24411.84
221.35	24464.76
221.424	24484.44
221.497	24495
221.57	24515.7
221.643	24546.19
221.716	24567.95
221.79	24591.39
221.863	24605.14
221.936	24620.53
222.009	24630.03
222.082	24644.99
222.155	24660.09
222.229	24694.54
222.302	24714.65
222.375	24724.3
222.448	24746.69
222.521	24737.81
222.594	24747.46
222.667	24740.46
222.74	24764.3
222.814	24784.37
222.887	24783.41
222.96	24809.51
223.033	24840.29
223.106	24852.06
223.179	24865.48
223.252	24877.2
223.325	24895.63
223.398	24901.9
223.471	24916.57
223.544	24940.84
223.617	24950.78
223.69	24961.15
223.763	24945.47
223.837	24953.38
223.91	24962.55
223.983	24946.82
224.056	24940.89
224.129	24947.31
224.202	24968.29
224.275	24953.82
224.348	24932.25
224.42	24920.14
224.493	24896.93
224.566	24883.42
224.639	24887.86
224.712	24868.75
224.785	24858.28
224.858	24843.42
224.931	24835.22
225.004	24820.07
225.077	24796.77
225.15	24755.32
225.223	24751.7
225.296	24776.7
225.369	24748.48
225.442	24723.19
225.514	24716.68
225.587	24723.39
225.66	24720.64
225.733	24714.85
225.806	24720.4
225.879	24715.28
225.952	24697.38
226.025	24701.53
226.097	24702.4
226.17	24690.34
226.243	24660.48
226.316	24648.66
226.389	24630.57
226.461	24622.65
226.534	24615.9
226.607	24607.99
226.68	24622.51
226.753	24600.8
226.825	24551.59
226.898	24559.98
226.971	24552.5
227.044	24543.48
227.117	24521.05
227.189	24508.22
227.262	24499.44
227.335	24486.51
227.407	24457.18
227.48	24443.34
227.553	24421.82
227.626	24399.92
227.698	24376.67
227.771	24365.72
227.844	24331.32
227.916	24329.4
227.989	24292.45
228.062	24264.76
228.134	24262.59
228.207	24245.08
228.28	24219.95
228.352	24209.67
228.425	24187.39
228.498	24169.69
228.57	24142.67
228.643	24138.67
228.716	24110.02
228.788	24089.66
228.861	24064.63
228.934	24062.12
229.006	24045.43
229.079	24014.37
229.151	23990.3
229.224	23960.3
229.296	23944.48
229.369	23969.08
229.442	23953.79
229.514	23935.32
229.587	23936.91
229.659	23901.22
229.732	23885.45
229.804	23880.72
229.877	23880.58
229.949	23871.7
230.022	23881.64
230.094	23868.18
230.167	23848.84
230.239	23813.83
230.312	23789.67
230.384	23790.2
230.457	23771.39
230.529	23753.93
230.602	23747.91
230.674	23731.94
230.747	23716.46
230.819	23703.88
230.892	23648.12
230.964	23633.22
231.037	23617.45
231.109	23586.15
231.181	23574.92
231.254	23534.46
231.326	23502.34
231.399	23469.31
231.471	23438.35
231.544	23387.23
231.616	23375.07
231.688	23347.35
231.761	23332.06
231.833	23296.96
231.905	23239.72
231.978	23217.49
232.05	23192.46
232.122	23166.81
232.195	23133.39
232.267	23126.84
232.339	23090.62
232.412	23078.71
232.484	23036.86
232.556	23007.55
232.629	23008.08
232.701	22974.61
232.773	22945.35
232.846	22914.44
232.918	22891.78
232.99	22859.38
233.062	22840.38
233.135	22803.4
233.207	22767.2
233.279	22739.43
233.351	22721.92
233.424	22690.44
233.496	22646.81
233.568	22641.61
233.64	22586.65
233.713	22553.86
233.785	22525.37
233.857	22500.45
233.929	22451.42
234.001	22442.01
234.074	22438.74
234.146	22382.67
234.218	22358.71
234.29	22338.56
234.362	22295.75
234.434	22249.42
234.507	22209.89
234.579	22149.83
234.651	22115.12
234.723	22084.32
234.795	22060.46
234.867	22019.48
234.939	22006.37
235.012	21985.84
235.084	21959.37
235.156	21943.7
235.228	21906.59
235.3	21860.75
235.372	21830.76
235.444	21808.01
235.516	21743.81
235.588	21696.37
235.66	21666.1
235.732	21628.12
235.804	21648.03
235.876	21640.46
235.948	21626.19
236.02	21589.42
236.092	21569.56
236.164	21541.36
236.236	21498.61
236.308	21450.56
236.38	21419.13
236.452	21376.38
236.524	21337.87
236.596	21312.23
236.668	21285.96
236.74	21254
236.812	21231.3
236.884	21207.49
236.956	21178.91
237.028	21139.01
237.1	21087.53
237.172	21066.28
237.244	21046.47
237.316	20969.44
237.388	20923.8
237.46	20871.22
237.532	20852.43
237.604	20799.22
237.675	20775.27
237.747	20755.6
237.819	20724.23
237.891	20687.46
237.963	20640.04
238.035	20603.94
238.107	20523.84
238.178	20501.81
238.25	20461.24
238.322	20440.56
238.394	20380.08
238.466	20324.95
238.538	20305.33
238.609	20281.67
238.681	20218.11
238.753	20172.13
238.825	20137.72
238.897	20102.06
238.968	20089.91
239.04	20046.97
239.112	20043.02
239.184	19993.39
239.255	19948.42
239.327	19914.93
239.399	19876.96
239.471	19855.9
239.542	19820.24
239.614	19804.53
239.686	19739.23
239.758	19713.25
239.829	19660.72
239.901	19636.87
239.973	19611.71
240.044	19581.16
240.116	19543.77
240.188	19503.43
240.259	19463.63
240.331	19416.4
240.403	19391.73
240.474	19339.49
240.546	19291.25
240.618	19225.47
240.689	19185.47
240.761	19156.03
240.833	19141.33
240.904	19101.48
240.976	19056.37
241.048	19020.28
241.119	18986.45
241.191	18952.24
241.262	18938.74
241.334	18898.84
241.405	18863.04
241.477	18818.75
241.549	18773.69
241.62	18735.77
241.692	18708.39
241.763	18678.9
241.835	18647.96
241.906	18605.41
241.978	18539.73
242.049	18523.78
242.121	18509.51
242.192	18487.3
242.264	18428.7
242.335	18368.37
242.407	18343.69
242.478	18299.55
242.55	18268.03
242.621	18221.82
242.693	18181.58
242.764	18123.36
242.836	18092.04
242.907	18059.51
242.979	18022.84
243.05	17987.03
243.122	17960.05
243.193	17922.31
243.264	17854.46
243.336	17813.59
243.407	17780.73
243.479	17769.79
243.55	17733.69
243.622	17703.14
243.693	17666.8
243.764	17661.74
243.836	17607.57
243.907	17566.7
243.978	17533.16
244.05	17492.25
244.121	17421.98
244.192	17401.79
244.264	17358.75
244.335	17311.67
244.407	17255.67
244.478	17239.14
244.549	17198.46
244.62	17146.03
244.692	17109.83
244.763	17095.47
244.834	17055.52
244.906	17013.06
244.977	16981.49
245.048	16965.78
245.119	16908.43
245.191	16858.4
245.262	16796.47
245.333	16788.28
245.405	16756.81
245.476	16723.84
245.547	16686.59
245.618	16684.23
245.689	16642.87
245.761	16610.73
245.832	16575.88
245.903	16554.29
245.974	16517.13
246.045	16485.03
246.117	16465.51
246.188	16421.46
246.259	16373.74
246.33	16332.73
246.401	16296.92
246.473	16251.03
246.544	16200.86
246.615	16182.02
246.686	16139.7
246.757	16118.49
246.828	16068.41
246.899	16051.49
246.97	16005.46
247.042	15965.41
247.113	15935.48
247.184	15929.26
247.255	15892.77
247.326	15868.91
247.397	15833.97
247.468	15799.51
247.539	15768.18
247.61	15719.98
247.681	15703.2
247.752	15688.45
247.823	15652.01
247.894	15623.91
247.965	15587.47
248.037	15557.06
248.108	15506.25
248.179	15476.13
248.25	15446.2
248.321	15433.71
248.392	15386.33
248.463	15388.21
248.534	15368.35
248.605	15352.49
248.675	15320.05
248.746	15292.53
248.817	15266.31
248.888	15244.18
248.959	15197.23
249.03	15181.04
249.101	15162.19
249.172	15126.52
249.243	15072.1
249.314	15059.81
249.385	15037.2
249.456	15019.17
249.527	14984.08
249.598	14975.6
249.669	14953.37
249.739	14927.63
249.81	14888.78
249.881	14850.51
249.952	14816.33
250.023	14778.68
250.094	14727.54
250.165	14683.43
250.235	14650.22
250.306	14622.6
250.377	14580.57
250.448	14558.92
250.519	14503.34
250.59	14489.6
250.66	14455.67
250.731	14447.33
250.802	14417.97
250.873	14388.23
250.944	14357.91
251.014	14318.38
251.085	14309.7
251.156	14289.94
251.227	14281.74
251.297	14280.01
251.368	14266.46
251.439	14252.48
251.51	14246.07
251.58	14216.66
251.651	14187.26
251.722	14180.75
251.792	14133.65
251.863	14104.54
251.934	14102.99
252.005	14112.92
252.075	14079.61
252.146	14068
252.217	14056.43
252.287	14041.97
252.358	14018.25
252.429	14013.23
252.499	13991.98
252.57	13969.41
252.641	13952.88
252.711	13920.05
252.782	13880.86
252.852	13883.22
252.923	13854.49
252.994	13822.48
253.064	13811.15
253.135	13775.67
253.205	13749.4
253.276	13743.81
253.347	13741.01
253.417	13702.3
253.488	13669.86
253.558	13642.62
253.629	13617.41
253.699	13597.36
253.77	13573.88
253.841	13547.42
253.911	13522.88
253.982	13497.71
254.052	13479.01
254.123	13454.47
254.193	13431
254.264	13441.6
254.334	13392.24
254.405	13359.99
254.475	13333.57
254.546	13309.47
254.616	13302.38
254.687	13277.31
254.757	13267.34
254.827	13242.75
254.898	13225.15
254.968	13200.76
255.039	13175.41
255.109	13162.97
255.18	13123.49
255.25	13076.1
255.321	13062.27
255.391	13025.97
255.461	13032.57
255.532	12985.38
255.602	12960.12
255.673	12919.29
255.743	12885.78
255.813	12848.33
255.884	12833.72
255.954	12822.06
256.024	12817.67
256.095	12802.73
256.165	12768.84
256.235	12749.65
256.306	12724.73
256.376	12711.33
256.446	12705.49
256.517	12689.01
256.587	12679.46
256.657	12668.47
256.728	12657.87
256.798	12639.12
256.868	12616.17
256.938	12582.52
257.009	12575.68
257.079	12561.8
257.149	12571.49
257.219	12523.86
257.29	12513.4
257.36	12469.1
257.43	12453.82
257.5	12414.44
257.571	12382.43
257.641	12371.97
257.711	12336.1
257.781	12319.04
257.852	12308.58
257.922	12255.99
257.992	12243.02
258.062	12218.97
258.132	12208.08
258.202	12191.88
258.273	12177.66
258.343	12183.06
258.413	12151.34
258.483	12132.3
258.553	12106.71
258.623	12079.95
258.693	12074.8
258.764	12074.12
258.834	12074.75
258.904	12059.61
258.974	12028.72
259.044	12013.49
259.114	12006.98
259.184	11987.26
259.254	11967.98
259.324	11921.08
259.394	11916.07
259.464	11913.28
259.535	11894.81
259.605	11869.8
259.675	11837.75
259.745	11821.79
259.815	11786.41
259.885	11769.4
259.955	11777.79
260.025	11750.89
260.095	11730.41
260.165	11719.51
260.235	11717.73
260.305	11688.14
260.375	11660.28
260.445	11670.88
260.515	11670.59
260.585	11665.15
260.655	11654.54
260.725	11642.69
260.795	11632.61
260.865	11635.51
260.934	11605.33
261.004	11591.55
261.074	11575.02
261.144	11579.5
261.214	11570.87
261.284	11552.12
261.354	11547.59
261.424	11516.21
261.494	11514.14
261.564	11493.03
261.634	11481.03
261.703	11433.99
261.773	11431.24
261.843	11423.92
261.913	11405.55
261.983	11373.07
262.053	11356.2
262.123	11336.39
262.192	11308.2
262.262	11307.19
262.332	11278.46
262.402	11266.9
262.472	11256.15
262.541	11222.8
262.611	11221.41
262.681	11193.84
262.751	11190.37
262.821	11169.55
262.89	11141.64
262.96	11136.87
263.03	11139.62
263.1	11130.51
263.169	11121.79
263.239	11112.97
263.309	11112.2
263.379	11099.24
263.448	11086.56
263.518	11077.36
263.588	11065.16
263.657	11074.9
263.727	11071.86
263.797	11053.5
263.867	11038.61
263.936	11003.87
264.006	11005.12
264.076	10981.84
264.145	10961.7
264.215	10934.72
264.285	10933.85
264.354	10900.41
264.424	10874.24
264.494	10848.51
264.563	10827.5
264.633	10836.8
264.702	10822.82
264.772	10791.07
264.842	10769.24
264.911	10755.65
264.981	10719.08
265.05	10697.83
265.12	10672.43
265.19	10658.55
265.259	10656.39
265.329	10649.11
265.398	10637.93
265.468	10649.01
265.537	10624.83
265.607	10616.73
265.676	10615.33
265.746	10600.01
265.815	10599.63
265.885	10582.23
265.955	10554.24
266.024	10530.78
266.094	10481.92
266.163	10488.04
266.232	10490.35
266.302	10478.93
266.371	10466.84
266.441	10459.95
266.51	10462.5
266.58	10447.18
266.649	10423.72
266.719	10422.13
266.788	10411.43
266.858	10422.37
266.927	10378.91
266.996	10373.9
267.066	10366.43
267.135	10339.55
267.205	10335.6
267.274	10323.99
267.343	10324.9
267.413	10314.69
267.482	10319.56
267.552	10332.56
267.621	10301.63
267.69	10267.28
267.76	10253.36
267.829	10249.07
267.898	10236.06
267.968	10207.98
268.037	10206.68
268.106	10202.24
268.176	10172.18
268.245	10156.57
268.314	10136.39
268.384	10140.91
268.453	10130.8
268.522	10122.32
268.592	10120.87
268.661	10099.24
268.73	10089.56
268.799	10070.29
268.869	10078.53
268.938	10043.6
269.007	10021.49
269.076	10006.51
269.146	10009.5
269.215	10003.81
269.284	10009.93
269.353	9996.35
269.422	9989.99
269.492	9967.69
269.561	9929.15
269.63	9929.54
269.699	9910.71
269.768	9897.89
269.838	9889.56
269.907	9886.38
269.976	9858.01
270.045	9830.89
270.114	9830.32
270.183	9821.21
270.253	9810.52
270.322	9780.71
270.391	9770.69
270.46	9776.57
270.529	9775.7
270.598	9768.18
270.667	9750.12
270.736	9724.88
270.806	9714.77
270.875	9714.48
270.944	9701.91
271.013	9725.17
271.082	9711.93
271.151	9711.59
271.22	9679.52
271.289	9668
271.358	9653.7
271.427	9651.15
271.496	9642.33
271.565	9624.61
271.634	9613.34
271.703	9617.05
271.772	9615.46
271.841	9611.51
271.91	9584.2
271.979	9573.8
272.048	9546.06
272.117	9551.5
272.186	9534.55
272.255	9537.25
272.324	9529.16
272.393	9525.64
272.462	9504.06
272.531	9496.41
272.6	9480.9
272.669	9485.62
272.738	9472.18
272.807	9465.92
272.876	9446.08
272.945	9475.84
273.013	9474.78
273.082	9479.79
273.151	9465.49
273.22	9465.15
273.289	9449.6
273.358	9459.18
273.427	9448.3
273.496	9452.06
273.564	9446.18
273.633	9452.59
273.702	9429.76
273.771	9424.85
273.84	9421.91
273.909	9420.51
273.977	9418.11
274.046	9410.06
274.115	9423.11
274.184	9402.6
274.253	9391.24
274.322	9399.09
274.39	9361.86
274.459	9350.74
274.528	9319.73
274.597	9303.31
274.665	9301.15
274.734	9314.05
274.803	9301.48
274.872	9295.95
274.94	9276.25
275.009	9340.42
275.078	9316.1
275.147	9316.54
275.215	9312.49
275.284	9319.91
275.353	9307.39
275.421	9283.22
275.49	9298.29
275.559	9283.12
275.627	9280.81
275.696	9271.47
275.765	9272.29
275.833	9269.83
275.902	9263.82
275.971	9274.07
276.039	9295.59
276.108	9302.82
276.177	9297.76
276.245	9287.41
276.314	9279.99
276.383	9293.86
276.451	9220.88
276.52	9222.28
276.588	9234.89
276.657	9237.68
276.725	9223.82
276.794	9221.51
276.863	9231.57
276.931	9210.04
277	9213.51
277.068	9217.75
277.137	9242.54
277.205	9238.02
277.274	9254.29
277.342	9268.64
277.411	9253.09
277.48	9236.58
277.548	9217.12
277.617	9215.25
277.685	9201.67
277.754	9210.29
277.822	9198.06
277.89	9210.87
277.959	9205.62
278.027	9181.31
278.096	9167.54
278.164	9194.5
278.233	9191.42
278.301	9178.42
278.37	9178.81
278.438	9165.33
278.507	9173.66
278.575	9143.75
278.643	9140.05
278.712	9119.34
278.78	9102.73
278.849	9111.45
278.917	9125.22
278.985	9116.6
279.054	9118.86
279.122	9138.36
279.191	9135.28
279.259	9131.86
279.327	9106.97
279.396	9130.46
279.464	9129.5
279.532	9137.59
279.601	9136.09
279.669	9126.03
279.737	9142.35
279.806	9148.37
279.874	9156.7
279.942	9157.38
280.011	9150.93
280.079	9157.09
280.147	9175.48
280.215	9181.93
280.284	9178.71
280.352	9160.7
280.42	9177.36
280.488	9168.55
280.557	9164.69
280.625	9165.95
280.693	9163.15
280.761	9167.44
280.83	9148.18
280.898	9159.88
280.966	9138.69
281.034	9104.75
281.102	9090.79
281.171	9083.81
281.239	9089.44
281.307	9080.29
281.375	9066.43
281.443	9097.68
281.512	9093.15
281.58	9100.37
281.648	9080.73
281.716	9082.7
281.784	9080.15
281.852	9070.38
281.92	9067.78
281.989	9079.24
282.057	9058.15
282.125	9115.94
282.193	9113.96
282.261	9117.53
282.329	9109.97
282.397	9116.27
282.465	9112.95
282.533	9130.09
282.601	9115.36
282.67	9091.81
282.738	9089.55
282.806	9103.75
282.874	9086.28
282.942	9087.09
283.01	9079.63
283.078	9087.43
283.146	9078.52
283.214	9092.15
283.282	9095.33
283.35	9108.95
283.418	9094.31
283.486	9101.49
283.554	9046.83
283.622	9047.36
283.69	9043.94
283.758	9038.45
283.826	9043.84
283.894	9060.41
283.962	9084.24
284.03	9103.79
284.098	9104.6
284.165	9097.67
284.233	9091.27
284.301	9085.35
284.369	9080.53
284.437	9072.01
284.505	9069.41
284.573	9091.32
284.641	9071.67
284.709	9076.15
284.777	9054.1
284.845	9059.3
284.912	9061.42
284.98	9067.68
285.048	9053.67
285.116	9056.41
285.184	9076.05
285.252	9075.24
285.319	9051.31
285.387	9036.96
285.455	9017.61
285.523	9029.11
285.591	9027.91
285.659	9028.25
285.726	9041.87
285.794	9025.03
285.862	9017.56
285.93	9016.99
285.997	9012.7
286.065	9013.86
286.133	9004.47
286.201	9006.68
286.269	9002.16
286.336	8998.88
286.404	8994.21
286.472	9012.51
286.539	8989.06
286.607	8965.76
286.675	8961.57
286.743	8972.98
286.81	8969.66
286.878	8982.71
286.946	8971.3
287.013	8970.53
287.081	8971.88
287.149	8950.64
287.216	8971.15
287.284	8970.96
287.352	8974.71
287.419	8968.41
287.487	8979.43
287.555	8981.98
287.622	8978.71
287.69	8981.84
287.758	8994.93
287.825	8992
287.893	8976.59
287.96	8991.18
288.028	9003.45
288.096	9008.89
288.163	9010.43
288.231	8999.07
288.298	8995.7
288.366	9010
288.433	9006.53
288.501	9003.5
288.569	9012.45
288.636	9008.89
288.704	9019.34
288.771	9023.57
288.839	9014.91
288.906	9015.49
288.974	9029.16
289.041	9030.46
289.109	9020.64
289.176	9027.04
289.244	9029.21
289.311	9046.83
289.379	9053.38
289.446	9056.07
289.514	9053.09
289.581	9055.88
289.649	9062.91
289.716	9070.13
289.783	9058.58
289.851	9077.25
289.918	9069.31
289.986	9072.06
290.053	9081.54
290.121	9082.46
290.188	9083.03
290.255	9115.34
290.323	9102.25
290.39	9096.71
290.458	9102.44
290.525	9113.75
290.592	9111.01
290.66	9112.69
290.727	9104.89
290.794	9116.98
290.862	9115.24
290.929	9120.06
290.996	9122.95
291.064	9133.01
291.131	9142.73
291.198	9158.09
291.266	9158.86
291.333	9164.49
291.4	9179.04
291.468	9190.35
291.535	9183.23
291.602	9187.85
291.669	9176
291.737	9185.34
291.804	9182.21
291.871	9204.17
291.938	9208.26
292.006	9238.65
292.073	9250.2
292.14	9258.63
292.207	9249.48
292.275	9252.42
292.342	9264.74
292.409	9291.66
292.476	9313.77
292.543	9306.11
292.611	9311.36
292.678	9329.75
292.745	9362.4
292.812	9372.95
292.879	9372.75
292.946	9383.11
293.014	9401.21
293.081	9411.85
293.148	9427.55
293.215	9445.99
293.282	9431.98
293.349	9445.61
293.416	9419.07
293.484	9431.64
293.551	9445.03
293.618	9465.2
293.685	9491.83
293.752	9478.93
293.819	9471.85
293.886	9460
293.953	9468.91
294.02	9479.79
294.087	9485.28
294.154	9472.95
294.221	9485.81
294.288	9483.07
294.356	9502.96
294.423	9510.28
294.49	9497.08
294.557	9513.22
294.624	9502
294.691	9527.86
294.758	9524.49
294.825	9533.73
294.892	9522.9
294.959	9522.13
295.026	9533.78
295.093	9529.59
295.16	9536.48
295.226	9539.46
295.293	9569.18
295.36	9571.11
295.427	9584.78
295.494	9602.75
295.561	9612.96
295.628	9637.96
295.695	9652.84
295.762	9653.23
295.829	9656.36
295.896	9674.8
295.963	9678.7
296.03	9694.16
296.096	9692.81
296.163	9706.25
296.23	9719.88
296.297	9741.74
296.364	9744.92
296.431	9750.8
296.498	9745.93
296.564	9772.37
296.631	9775.65
296.698	9753.49
296.765	9774.06
296.832	9761.58
296.899	9742.22
296.965	9759.51
297.032	9737.25
297.099	9757.15
297.166	9764.76
297.233	9759.51
297.299	9752.24
297.366	9755.17
297.433	9751.71
297.5	9768.37
297.566	9771.02
297.633	9770.78
297.7	9772.08
297.767	9770.49
297.833	9773.96
297.9	9775.5
297.967	9755.37
298.033	9769.82
298.1	9802.72
298.167	9797.71
298.234	9802.58
298.3	9812.06
298.367	9804.89
298.434	9816.4
298.5	9806.72
298.567	9804.02
298.634	9802.86
298.7	9829.21
298.767	9832.05
298.834	9851.7
298.9	9841.83
298.967	9838.31
299.033	9853.24
299.1	9869.28
299.167	9884.5
299.233	9879.98
299.3	9901.27
299.366	9925.44
299.433	9941.82
299.5	9915.04
299.566	9920.72
299.633	9943.99
299.699	9959.69
299.766	9959.84
299.832	9960.8
299.899	9969.95
299.965	9983.78
300.032	9985.08
300.099	9993.56
300.165	10000.59
300.232	9999.43
300.298	10003.86
300.365	10020.34
300.431	10019.95
300.498	10013.16
300.564	10021.16
300.631	10030.26
300.697	10042.02
300.763	10044.28
300.83	10042.55
300.896	10056.27
300.963	10067.4
301.029	10063.5
301.096	10068.32
301.162	10073.85
301.229	10070.53
301.295	10061.14
301.361	10066.58
301.428	10070.67
301.494	10048.57
301.561	10052.23
301.627	10049.19
301.693	10049.14
301.76	10045.24
301.826	10037.2
301.892	10057.67
301.959	10069.14
302.025	10066.73
302.092	10060.32
302.158	10065.52
302.224	10066.82
302.291	10052.81
302.357	10046.59
302.423	10043.41
302.49	10031.71
302.556	10051.07
302.622	10048.71
302.688	10061.43
302.755	10069.33
302.821	10080.27
302.887	10090.72
302.954	10083.44
303.02	10095.15
303.086	10105.55
303.152	10110.42
303.219	10111.91
303.285	10105.89
303.351	10113.5
303.417	10115.43
303.483	10100.83
303.55	10091.49
303.616	10090.09
303.682	10094.09
303.748	10090.43
303.815	10105.27
303.881	10118.47
303.947	10104.21
304.013	10106.57
304.079	10094.38
304.145	10077.33
304.212	10076.27
304.278	10068.37
304.344	10065.19
304.41	10051.89
304.476	10043.27
304.542	10042.35
304.608	10044.28
304.674	10035.03
304.741	10022.17
304.807	10023.52
304.873	10037.1
304.939	10057.38
305.005	10037.25
305.071	10039.94
305.137	10042.01
305.203	10018.17
305.269	10013.54
305.335	10020.53
305.401	10018.75
305.467	10021.44
305.533	10033.54
305.599	10038.93
305.666	10049.72
305.732	10056.32
305.798	10070
305.864	10093.37
305.93	10093.27
305.996	10095.44
306.062	10089.7
306.128	10089.7
306.194	10076.89
306.259	10073.71
306.325	10063.84
306.391	10073.18
306.457	10083.97
306.523	10085.56
306.589	10108.2
306.655	10097.41
306.721	10079.4
306.787	10060.42
306.853	10079.21
306.919	10054.88
306.985	10046.45
307.051	10043.13
307.117	10033.88
307.183	10026.56
307.248	9993.32
307.314	9995.58
307.38	9996.11
307.446	10005.74
307.512	9991.92
307.578	9997.6
307.644	9995
307.709	9994.28
307.775	9990.86
307.841	9982.53
307.907	9981.61
307.973	9964.89
308.039	9964.6
308.104	9973.47
308.17	9976.84
308.236	9954.44
308.302	9960.17
308.368	9949.91
308.433	9953.86
308.499	9951.79
308.565	9936.38
308.631	9946.63
308.696	9923.08
308.762	9911.91
308.828	9904.68
308.894	9882.57
308.959	9866.29
309.025	9848.28
309.091	9845.58
309.156	9833.25
309.222	9837.25
309.288	9826.51
309.354	9799.83
309.419	9801.56
309.485	9788.65
309.551	9796.07
309.616	9783.4
309.682	9781.09
309.748	9774.88
309.813	9765.58
309.879	9753.68
309.945	9747.33
310.01	9734.13
310.076	9735.57
310.141	9731.77
310.207	9720.4
310.273	9723.63
310.338	9728.64
310.404	9717.32
310.469	9700.22
310.535	9693.96
310.601	9670.07
310.666	9675.08
310.732	9688.47
310.797	9672.86
310.863	9662.22
310.928	9655.43
310.994	9660.29
311.059	9656.39
311.125	9653.07
311.191	9660.73
311.256	9653.93
311.322	9658.61
311.387	9647.39
311.453	10093.49
311.518	10067.34
311.584	10062.43
311.649	10075.38
311.715	10063.39
311.78	10067.82
311.846	10061.08
311.911	10073.31
311.976	10079.52
312.042	10062.19
312.107	10047.3
312.173	10038.2
312.238	10031.36
312.304	10026.74
312.369	10010.56
312.434	10002.56
312.5	9996.4
312.565	9963.89
312.631	9961
312.696	9951.75
312.761	9955.08
312.827	9500.69
312.892	9537.2
312.958	9532.09
313.023	9529.06
313.088	9526.79
313.154	9507.87
313.219	9495.21
313.284	9481.29
313.35	9471.32
313.415	9458.75
313.48	9450.71
313.546	9457.64
313.611	9468.14
313.676	9458.08
313.741	9452.11
313.807	9459.57
313.872	9462.94
313.937	9471.03
314.003	9485.87
314.068	9489.57
314.133	9491.36
314.198	9483.51
314.264	9459.95
314.329	9458.27
314.394	9450.08
314.459	9443.87
314.525	9470.26
314.59	9466.93
314.655	9448.54
314.72	9453.36
314.785	9454.66
314.851	9449.36
314.916	9426.78
314.981	9406.36
315.046	9392.25
315.111	9382.14
315.176	9362.39
315.242	9362.59
315.307	9357.05
315.372	9334.61
315.437	9319.05
315.502	9304.22
315.567	9313.37
315.632	9300.23
315.698	9300.28
315.763	9299.12
315.828	9291.66
315.893	9284.34
315.958	9283.81
316.023	9281.83
316.088	9266.38
316.153	9245.92
316.218	9241.63
316.283	9222.13
316.348	9210.05
316.413	9211.88
316.479	9195.75
316.544	9166.2
316.609	9137.07
316.674	9101.25
316.739	9064.86
316.804	9030.54
316.869	8995.98
316.934	8956.93
316.999	8930.02
317.064	8868.46
317.129	8817.62
317.194	8776.67
317.259	8727.9
317.324	8674.05
317.389	8624.09
317.454	8583.47
317.518	8553.35
317.583	8527.21
317.648	8508.35
317.713	8473.41
317.778	8412.44
317.843	8385.49
317.908	8346.85
317.973	8306.67
318.038	8273.14
318.103	8240.24
318.168	8210.84
318.233	8186.45
318.297	8136.47
318.362	8093.31
318.427	8056.33
318.492	8033.38
318.557	7990.1
318.622	7957.68
318.687	7936.91
318.751	7895.6
318.816	7857.27
318.881	7821.68
318.946	7762.77
319.011	7713.67
319.075	7666.31
319.14	7630.11
319.205	7582.55
319.27	7544.09
319.335	7495.16
319.399	7456.6
319.464	7424.78
319.529	7371.57
319.594	7325.08
319.658	7291.2
319.723	7249
319.788	7217.19
319.853	7157.54
319.917	7125.69
319.982	7072.25
320.047	7029.82
320.112	7003.35
320.176	6953.52
320.241	6918.54
320.306	6893.03
320.37	6849.22
320.435	6824.1
320.5	6798.74
320.564	6761.51
320.629	6722.18
320.694	6688.42
320.758	6646.55
320.823	6600.4
320.888	6573.7
320.952	6523.44
321.017	6482.53
321.082	6441.63
321.146	6410.37
321.211	6373.56
321.275	6333.72
321.34	6289.91
321.405	6239.52
321.469	6195.61
321.534	6149.41
321.598	6093.03
321.663	6054.53
321.727	6024.45
321.792	5968.36
321.857	5921.43
321.921	5875.23
321.986	5829.05
322.05	5771.13
322.115	5733.05
322.179	5689.99
322.244	5631.93
322.308	5603.88
322.373	5556.27
322.437	5514.7
322.502	5487.46
322.566	5444.08
322.631	5403.82
322.695	5363.33
322.76	5324.23
322.824	5286.33
322.889	5245.23
322.953	5199.82
323.018	5133.99
323.082	5066.84
323.146	5014.94
323.211	4958.95
323.275	4916.85
323.34	4870.85
323.404	4837.53
323.468	4783.86
323.533	4739.92
323.597	4693.32
323.662	4635.82
323.726	4601.07
323.79	4553.36
323.855	4485
323.919	4434.95
323.983	4392.27
324.048	4325.05
324.112	4497.47
324.177	4362.9
324.241	4140.78
324.305	3923.05
324.37	3706.15
324.434	3499.72
324.498	3455.16
324.562	3402.32
324.627	3338.19
324.691	3282.47
324.755	3214.77
324.82	3143.19
324.884	3060.6
324.948	2986.7
325.012	2887.09
325.077	2753.21
