Data from 20250703_urea_0.1M_MAYP1162681_02-31-05-299.txt Node
Date: Fri Jul 04 02:31:05 BST 2025
User: adleo
Spectrometer: MAYP116268
Trigger mode: 0
Integration Time (sec): 1.000000E0
Scans to average: 1
Electric dark correction enabled: true
Nonlinearity correction enabled: true
Boxcar width: 10
XAxis mode: Wavelengths
Number of Pixels in Spectrum: 2068
>>>>>Begin Spectral Data<<<<<
179.565	1330.58
179.642	1389.74
179.718	1436.87
179.795	1480.77
179.871	1515.75
179.948	1534.76
180.024	1556.69
180.101	1580.18
180.177	1596.63
180.254	1620.62
180.33	1645.32
180.407	1710.1
180.483	1813.96
180.56	1913.93
180.636	2004.47
180.712	1990.72
180.789	2000.38
180.865	2011.22
180.942	2020.01
181.018	2030.14
181.095	2042.32
181.171	2050.5
181.248	2052.03
181.324	2066.44
181.4	2072.96
181.477	2084.61
181.553	2099.02
181.63	2119.81
181.706	2137.46
181.782	2145.63
181.859	2144.35
181.935	2150.63
182.011	2144.11
182.088	2161.91
182.164	2180.76
182.24	2196.69
182.317	2204.39
182.393	2205.68
182.469	2220.85
182.546	2238.03
182.622	2241.93
182.698	2236.51
182.775	2245.55
182.851	2261.92
182.927	2253.88
183.003	2250.5
183.08	2243.41
183.156	2250.36
183.232	2248.12
183.308	2236.89
183.385	2244.84
183.461	2264.82
183.537	2263.77
183.613	2279.72
183.69	2268.87
183.766	2257.82
183.842	2267.63
183.918	2274.29
183.995	2286.14
184.071	2290.47
184.147	2282.33
184.223	2268.54
184.299	2281.96
184.375	2272.73
184.452	2277.06
184.528	2333.04
184.604	2341.8
184.68	2355.46
184.756	2366.45
184.832	2374.02
184.908	2380.25
184.985	2378.21
185.061	2360.46
185.137	2373.12
185.213	2361.31
185.289	2365.55
185.365	2358.51
185.441	2355.37
185.517	2368.36
185.593	2367.51
185.669	2363.65
185.745	2375.07
185.822	2396.29
185.898	2385.77
185.974	2394.43
186.05	2387.72
186.126	2349.49
186.202	2344.07
186.278	2338.88
186.354	2326.5
186.43	2330.07
186.506	2326.74
186.582	2330.41
186.658	2336.31
186.734	2313.99
186.81	2314.51
186.886	2316.56
186.962	2329.41
187.038	2327.69
187.114	2319.12
187.19	2324.5
187.266	2317.6
187.341	2317.98
187.417	2306.7
187.493	2306.8
187.569	2310.37
187.645	2304.61
187.721	2291.47
187.797	2303.75
187.873	2309.99
187.949	2306.18
188.025	2298.8
188.101	2301.51
188.176	2305.22
188.252	2304.32
188.328	2313.12
188.404	2313.79
188.48	2308.12
188.556	2301.27
188.632	2299.75
188.707	2298.79
188.783	2294.22
188.859	2287.18
188.935	2276.33
189.011	2285.37
189.086	2280.85
189.162	2269.86
189.238	2267.58
189.314	2268.05
189.39	2256.2
189.465	2249.35
189.541	2266.2
189.617	2251.64
189.693	2248.21
189.768	2251.35
189.844	2278.06
189.92	2267.98
189.996	2276.21
190.071	2288.68
190.147	2287.11
190.223	2293.92
190.298	2287.06
190.374	2274.12
190.45	2285.35
190.526	2294.63
190.601	2288.68
190.677	2292.39
190.753	2325.68
190.828	2331.01
190.904	2346.05
190.98	2363.24
191.055	2373.95
191.131	2363
191.207	2385.46
191.282	2393.6
191.358	2382.46
191.433	2365.31
191.509	2379.06
191.585	2373.26
191.66	2374.45
191.736	2382.68
191.811	2375.78
191.887	2396.87
191.963	2421.86
192.038	2426.39
192.114	2427.72
192.189	2432.34
192.265	2426.29
192.34	2402.19
192.416	2397.62
192.491	2394.15
192.567	2397.24
192.642	2400.48
192.718	2402.91
192.793	2387.72
192.869	2385.63
192.944	2389.86
193.02	2397.24
193.095	2403.67
193.171	2412.29
193.246	2414.19
193.322	2410.14
193.397	2410
193.473	2392.19
193.548	2374.19
193.624	2383.05
193.699	2380.29
193.775	2397.57
193.85	2398.24
193.925	2408.29
194.001	2410.29
194.076	2403.62
194.152	2390.62
194.227	2379.91
194.302	2369.25
194.378	2373.72
194.453	2370.63
194.529	2383.82
194.604	2367.97
194.679	2361.35
194.755	2342.46
194.83	2354.75
194.905	2355.32
194.981	2366.27
195.056	2360.03
195.131	2365.94
195.207	2364.46
195.282	2353.94
195.357	2333.09
195.433	2351.65
195.508	2334.75
195.583	2341.65
195.659	2352.84
195.734	2362.08
195.809	2361.98
195.884	2373.4
195.96	2376.07
196.035	2390.96
196.11	2386.01
196.185	2399.05
196.261	2401.72
196.336	2435.28
196.411	2415.9
196.486	2421.9
196.561	2413.9
196.637	2425.7
196.712	2442.09
196.787	2447.18
196.862	2464.37
196.937	2476.7
197.013	2482.6
197.088	2496.55
197.163	2517.32
197.238	2538.05
197.313	2537.71
197.388	2552.28
197.464	2584.01
197.539	2596.44
197.614	2591.3
197.689	2606.16
197.764	2622.69
197.839	2646.17
197.914	2637.64
197.989	2660.36
198.065	2674.36
198.14	2728.13
198.215	2753.58
198.29	2765.78
198.365	2775.26
198.44	2785.31
198.515	2814.67
198.59	2830.06
198.665	2858.08
198.74	2868.57
198.815	2869.86
198.89	2894.45
198.965	2929.4
199.04	2925.78
199.115	2941.6
199.19	2984.49
199.265	2986.21
199.34	2996.22
199.415	3031.57
199.49	3055.88
199.565	3069.56
199.64	3092.92
199.715	3086.67
199.79	3096.16
199.865	3103.27
199.94	3105.17
200.015	3140.32
200.09	3145.91
200.165	3154.01
200.24	3161.45
200.315	3205.23
200.39	3219.78
200.464	3226.22
200.539	3228.08
200.614	3245.49
200.689	3270.72
200.764	3281.03
200.839	3299.68
200.914	3308.79
200.989	3296.76
201.063	3309.88
201.138	3292.48
201.213	3297.44
201.288	3278.26
201.363	3281.94
201.438	3286.47
201.512	3301.49
201.587	3285.36
201.662	3294.14
201.737	3308.46
201.812	3318.43
201.886	3285.96
201.961	3298.13
202.036	3289.16
202.111	3286.02
202.186	3255.31
202.26	3238.32
202.335	3214.32
202.41	3210.89
202.485	3192.72
202.559	3174.17
202.634	3150.27
202.709	3160.28
202.784	3140.44
202.858	3148.64
202.933	3130.47
203.008	3125.23
203.082	3110.16
203.157	3106.72
203.232	3061.15
203.306	3043.83
203.381	3014.02
203.456	2993.75
203.53	2975.95
203.605	2959.36
203.68	2940.52
203.754	2943.76
203.829	2936.46
203.904	2926.6
203.978	2927.46
204.053	2945.77
204.127	2943.62
204.202	2956.73
204.277	2955.59
204.351	2966.7
204.426	2973.62
204.5	2983.77
204.575	2963.37
204.65	2993.14
204.724	3012.17
204.799	3046.35
204.873	3066.96
204.948	3094.67
205.022	3114.17
205.097	3135.08
205.171	3182.59
205.246	3227.02
205.32	3260.69
205.395	3301.97
205.469	3334.17
205.544	3380.3
205.618	3406.27
205.693	3468.91
205.767	3505.48
205.842	3579.46
205.916	3625.78
205.991	3673.74
206.065	3739.09
206.14	3822.64
206.214	3881.87
206.289	3938.28
206.363	4021.26
206.438	4088
206.512	4163.6
206.586	4251.72
206.661	4334.06
206.735	4389.82
206.81	4471.81
206.884	4568.54
206.958	4633.27
207.033	4737.25
207.107	4827.53
207.181	4946.11
207.256	5029.03
207.33	5143.12
207.405	5249.65
207.479	5363.21
207.553	5464.42
207.628	5544.4
207.702	5652.74
207.776	5751.63
207.851	5853.82
207.925	5972.06
207.999	6078.61
208.073	6181.14
208.148	6289.61
208.222	6383.79
208.296	6525.22
208.371	6649.3
208.445	6773.54
208.519	6916.07
208.593	7037.8
208.668	7149.91
208.742	7269.75
208.816	7383.59
208.89	7508.63
208.965	7619.58
209.039	7738.02
209.113	7873.09
209.187	8013.95
209.261	8125.14
209.336	8257.43
209.41	8398.44
209.484	8514.66
209.558	8657.83
209.632	8793.63
209.707	8920.88
209.781	9061.9
209.855	9199.65
209.929	9335.55
210.003	9457.08
210.077	9570.23
210.151	9731.39
210.226	9890
210.3	10036.36
210.374	10172.56
210.448	10286.39
210.522	10416.32
210.596	10546.54
210.67	10669.93
210.744	10826.76
210.818	10975.01
210.892	11112.98
210.966	11220.72
211.041	11344.72
211.115	11447.85
211.189	11577
211.263	11707.47
211.337	11824
211.411	11943.58
211.485	12042.01
211.559	12168.77
211.633	12283.44
211.707	12370.3
211.781	12482.14
211.855	12543.02
211.929	12652.15
212.003	12742
212.077	12854.65
212.151	12965.09
212.225	13078.08
212.299	13170.64
212.373	13247.86
212.447	13342.69
212.52	13476.12
212.594	13586.32
212.668	13696.27
212.742	13785.94
212.816	13877.96
212.89	13964.06
212.964	14053.67
213.038	14154.33
213.112	14254.74
213.186	14356.4
213.26	14417.14
213.333	14452.14
213.407	14552.02
213.481	14634.55
213.555	14727.87
213.629	14801.53
213.703	14875.42
213.777	14952.89
213.85	15014.54
213.924	15150.47
213.998	15230.87
214.072	15302.69
214.146	15364.48
214.219	15443.53
214.293	15522
214.367	15598.79
214.441	15687.86
214.515	15755.78
214.588	15808.85
214.662	15842.2
214.736	15900.86
214.81	15977.98
214.883	16062.67
214.957	16117.52
215.031	16177.67
215.105	16238.31
215.178	16291.66
215.252	16349.02
215.326	16388.3
215.4	16435.78
215.473	16447.44
215.547	16487.63
215.621	16544.41
215.694	16611.93
215.768	16645.33
215.842	16681.19
215.915	16725.67
215.989	16760.03
216.063	16809.96
216.136	16871.41
216.21	16932.72
216.284	16998.74
216.357	17062.79
216.431	17116.29
216.504	17183.42
216.578	17268.43
216.652	17326.22
216.725	17379.81
216.799	17450.27
216.873	17522.17
216.946	17587.62
217.02	17628.53
217.093	17684.48
217.167	17705.83
217.24	17742.07
217.314	17799.37
217.387	17850.89
217.461	17897.35
217.535	17965.39
217.608	18001.68
217.682	18047.51
217.755	18106.84
217.829	18147.89
217.902	18202.25
217.976	18249.48
218.049	18292.75
218.123	18319.64
218.196	18372.22
218.27	18419.88
218.343	18450.29
218.417	18489.47
218.49	18525.71
218.563	18593.61
218.637	18644.49
218.71	18710.9
218.784	18770.08
218.857	18819.95
218.931	18871.42
219.004	18916.58
219.077	18966.11
219.151	19019.65
219.224	19062.69
219.298	19111.26
219.371	19167.88
219.444	19192.61
219.518	19237.33
219.591	19286.29
219.665	19359.97
219.738	19408.64
219.811	19446.04
219.885	19502.61
219.958	19557.6
220.031	19612.05
220.105	19652.15
220.178	19693.93
220.251	19734.31
220.325	19784.05
220.398	19829.44
220.471	19871.03
220.544	19931.36
220.618	19969.92
220.691	20012.42
220.764	20063.41
220.838	20104.42
220.911	20131.84
220.984	20195.55
221.057	20244.42
221.131	20285.09
221.204	20292.41
221.277	20351.21
221.35	20422.3
221.424	20447.79
221.497	20482.25
221.57	20516.75
221.643	20560.22
221.716	20606.68
221.79	20629.57
221.863	20652.23
221.936	20685.43
222.009	20717.72
222.082	20745.34
222.155	20771.79
222.229	20819.55
222.302	20847.99
222.375	20875.12
222.448	20916.57
222.521	20932.72
222.594	20955.61
222.667	20958.07
222.74	20979.27
222.814	20993.06
222.887	21005.54
222.96	21049.06
223.033	21074.8
223.106	21100.34
223.179	21134.9
223.252	21154.33
223.325	21188.4
223.398	21210.28
223.471	21235.68
223.544	21263.83
223.617	21285.71
223.69	21302.58
223.763	21298.39
223.837	21320.08
223.91	21345.91
223.983	21338.82
224.056	21350.58
224.129	21369.19
224.202	21407.7
224.275	21436.57
224.348	21448.76
224.42	21452.52
224.493	21438.83
224.566	21446.59
224.639	21466.36
224.712	21473.06
224.785	21476.29
224.858	21481.83
224.931	21484.72
225.004	21480.67
225.077	21499.37
225.15	21487.37
225.223	21501.83
225.296	21547.77
225.369	21532.25
225.442	21526.08
225.514	21545.98
225.587	21559.24
225.66	21576.78
225.733	21592.55
225.806	21593.41
225.879	21594.28
225.952	21589.61
226.025	21617.42
226.097	21647.11
226.17	21652.61
226.243	21625.42
226.316	21630.1
226.389	21643.21
226.461	21665.38
226.534	21675.36
226.607	21668.03
226.68	21698.88
226.753	21700.81
226.825	21678.54
226.898	21703.5
226.971	21715.17
227.044	21718.4
227.117	21724.66
227.189	21729.48
227.262	21744.14
227.335	21760.91
227.407	21761.49
227.48	21770.07
227.553	21774.22
227.626	21777.93
227.698	21774.36
227.771	21795.28
227.844	21786.12
227.916	21780.24
227.989	21754.16
228.062	21747.13
228.134	21766.41
228.207	21758.94
228.28	21751.75
228.352	21746.65
228.425	21744.62
228.498	21748.67
228.57	21747.51
228.643	21756.91
228.716	21745.63
228.788	21720.28
228.861	21701.91
228.934	21717.19
229.006	21710.2
229.079	21691.12
229.151	21664.17
229.224	21638
229.296	21640.22
229.369	21664.85
229.442	21672.03
229.514	21664.03
229.587	21672.27
229.659	21643.69
229.732	21644.84
229.804	21648.8
229.877	21672.13
229.949	21679.5
230.022	21691.84
230.094	21684.08
230.167	21674.92
230.239	21656.22
230.312	21650.15
230.384	21670.01
230.457	21657.57
230.529	21653.47
230.602	21663.64
230.674	21666.92
230.747	21685.58
230.819	21686.06
230.892	21648.56
230.964	21643.54
231.037	21646.92
231.109	21639.78
231.181	21636.99
231.254	21600.45
231.326	21586.19
231.399	21556.59
231.471	21529.5
231.544	21491.71
231.616	21487.37
231.688	21476.43
231.761	21461.39
231.833	21447.75
231.905	21403.51
231.978	21404.66
232.05	21389.96
232.122	21371.02
232.195	21346.54
232.267	21349.23
232.339	21316.7
232.412	21316.99
232.484	21293.71
232.556	21270.82
232.629	21279.35
232.701	21274.86
232.773	21279.35
232.846	21262.24
232.918	21253.08
232.99	21241.46
233.062	21243.68
233.135	21233.9
233.207	21203.58
233.279	21197.94
233.351	21192.35
233.424	21176.16
233.496	21131.67
233.568	21146.85
233.64	21107.86
233.713	21082.56
233.785	21042.65
233.857	21032.1
233.929	20992.48
234.001	20989.3
234.074	20982.31
234.146	20941.83
234.218	20920.04
234.29	20894.26
234.362	20872.14
234.434	20831.56
234.507	20792.76
234.579	20745.43
234.651	20707.99
234.723	20696.37
234.795	20673.96
234.867	20634.78
234.939	20630.83
235.012	20620.18
235.084	20584.99
235.156	20569.96
235.228	20544.7
235.3	20525.43
235.372	20505.81
235.444	20504.41
235.516	20457.62
235.588	20433.71
235.66	20402.05
235.732	20366.05
235.804	20391.88
235.876	20370.15
235.948	20360.41
236.02	20347.35
236.092	20322.63
236.164	20297.33
236.236	20267.74
236.308	20244.9
236.38	20230.49
236.452	20186.88
236.524	20158.68
236.596	20147.36
236.668	20127.7
236.74	20098.83
236.812	20072.81
236.884	20054.2
236.956	20022.64
237.028	19987.7
237.1	19953.82
237.172	19942.64
237.244	19934.5
237.316	19862.5
237.388	19821.44
237.46	19787.75
237.532	19764.53
237.604	19728.62
237.675	19713.06
237.747	19688.48
237.819	19650.51
237.891	19613.02
237.963	19576.3
238.035	19539.04
238.107	19464.4
238.178	19453.27
238.25	19424.06
238.322	19418.09
238.394	19365.32
238.466	19330.38
238.538	19304.89
238.609	19284.41
238.681	19227.88
238.753	19187.64
238.825	19163.35
238.897	19133.19
238.968	19123.6
239.04	19081.87
239.112	19085.87
239.184	19044.37
239.255	19009.39
239.327	18983.17
239.399	18952.96
239.471	18929.63
239.542	18901.49
239.614	18887.71
239.686	18829.69
239.758	18807.71
239.829	18753.65
239.901	18723.72
239.973	18690.18
240.044	18666.95
240.116	18630.62
240.188	18610.04
240.259	18580.93
240.331	18539.06
240.403	18525.23
240.474	18468.7
240.546	18426.63
240.618	18368.13
240.689	18331.93
240.761	18306.1
240.833	18289.33
240.904	18255.07
240.976	18218.83
241.048	18186.16
241.119	18158.69
241.191	18125.24
241.262	18107.66
241.334	18074.93
241.405	18048.72
241.477	18006.21
241.549	17963.03
241.62	17926.31
241.692	17901.35
241.763	17875.33
241.835	17838.27
241.906	17789.98
241.978	17739.33
242.049	17729.45
242.121	17699.33
242.192	17676.34
242.264	17621.79
242.335	17553.88
242.407	17536.15
242.478	17501.98
242.55	17467.57
242.621	17424.3
242.693	17394.32
242.764	17353.12
242.836	17313.4
242.907	17281.79
242.979	17261.74
243.05	17233.79
243.122	17199.04
243.193	17158.75
243.264	17095.57
243.336	17065.83
243.407	17047.09
243.479	17038.36
243.55	17004.63
243.622	16972.82
243.693	16941.54
243.764	16922.79
243.836	16887.56
243.907	16847.08
243.978	16809.63
244.05	16781.39
244.121	16734.64
244.192	16707.31
244.264	16666.25
244.335	16638.54
244.407	16585.37
244.478	16553.76
244.549	16521.23
244.62	16483.58
244.692	16444.88
244.763	16425.41
244.834	16393.31
244.906	16359.04
244.977	16326.75
245.048	16303.67
245.119	16260.67
245.191	16218.79
245.262	16161.34
245.333	16150.35
245.405	16114.25
245.476	16090.77
245.547	16061.57
245.618	16041.8
245.689	16011.92
245.761	15979.58
245.832	15937.26
245.903	15921.21
245.974	15891.95
246.045	15852.38
246.117	15837.39
246.188	15787.07
246.259	15739.98
246.33	15698.96
246.401	15656.25
246.473	15609.45
246.544	15567.33
246.615	15553.35
246.686	15514.79
246.757	15501.92
246.828	15452.99
246.899	15444.65
246.97	15394.72
247.042	15354.56
247.113	15329.31
247.184	15317.55
247.255	15279.37
247.326	15253.82
247.397	15215.07
247.468	15180.56
247.539	15149.85
247.61	15095.38
247.681	15079.47
247.752	15073.21
247.823	15036.38
247.894	15012.09
247.965	14975.88
248.037	14945.61
248.108	14896.11
248.179	14870.61
248.25	14833.49
248.321	14817.78
248.392	14769.72
248.463	14769.91
248.534	14735.59
248.605	14715.01
248.675	14680.54
248.746	14656.58
248.817	14632.53
248.888	14616.96
248.959	14571.36
249.03	14554
249.101	14531.4
249.172	14503.44
249.243	14453.45
249.314	14446.6
249.385	14423.9
249.456	14403.03
249.527	14368.99
249.598	14350.67
249.669	14321.51
249.739	14305.31
249.81	14285.89
249.881	14243.27
249.952	14206.97
250.023	14178.72
250.094	14134.09
250.165	14089.5
250.235	14058.26
250.306	14037.96
250.377	13996.8
250.448	13983.49
250.519	13929.79
250.59	13928.78
250.66	13897.44
250.731	13885.54
250.802	13848.75
250.873	13813.76
250.944	13792.88
251.014	13760.34
251.085	13756.97
251.156	13740.15
251.227	13727.8
251.297	13712.09
251.368	13696.52
251.439	13684.76
251.51	13676.13
251.58	13639.3
251.651	13611.39
251.722	13600.73
251.792	13555.56
251.863	13529.24
251.934	13522.88
252.005	13536.62
252.075	13506.05
252.146	13498.97
252.217	13485.47
252.287	13469.03
252.358	13454.23
252.429	13452.64
252.499	13429.7
252.57	13409.11
252.641	13387.51
252.711	13369.05
252.782	13326.1
252.852	13334.49
252.923	13312.07
252.994	13284.98
253.064	13282.33
253.135	13247.09
253.205	13215.8
253.276	13212.86
253.347	13213.2
253.417	13175.55
253.488	13140.55
253.558	13107.72
253.629	13079.28
253.699	13062.07
253.77	13055.47
253.841	13025.77
253.911	12992.17
253.982	12967.78
254.052	12950.52
254.123	12938.52
254.193	12907.04
254.264	12928.54
254.334	12886.22
254.405	12842.21
254.475	12809.52
254.546	12775.63
254.616	12774.33
254.687	12760.5
254.757	12743.34
254.827	12711.91
254.898	12700.77
254.968	12681.92
255.039	12654.93
255.109	12648.47
255.18	12614.15
255.25	12567.39
255.321	12557.6
255.391	12532.3
255.461	12534.22
255.532	12478.45
255.602	12452.13
255.673	12411.74
255.743	12377.99
255.813	12333.65
255.884	12336.88
255.954	12331
256.024	12336.83
256.095	12320.05
256.165	12287.47
256.235	12271.99
256.306	12245.53
256.376	12237.77
256.446	12225.38
256.517	12212.46
256.587	12198.1
256.657	12181.81
256.728	12163.68
256.798	12144.4
256.868	12119.05
256.938	12092.73
257.009	12095.43
257.079	12081.3
257.149	12095.09
257.219	12053.97
257.29	12042.26
257.36	11999.07
257.43	11990.74
257.5	11947.55
257.571	11921.18
257.641	11910.05
257.711	11880.36
257.781	11874.52
257.852	11849.89
257.922	11812.34
257.992	11794.56
258.062	11769.11
258.132	11758.5
258.202	11744.62
258.273	11723.95
258.343	11724.19
258.413	11692.09
258.483	11661.91
258.553	11632.37
258.623	11605.33
258.693	11590.82
258.764	11593.42
258.834	11591.16
258.904	11567.11
258.974	11540.07
259.044	11519.54
259.114	11503.34
259.184	11485.85
259.254	11460.45
259.324	11422.13
259.394	11408.16
259.464	11407
259.535	11389.7
259.605	11366.23
259.675	11333.84
259.745	11325.84
259.815	11295.77
259.885	11275.67
259.955	11297.46
260.025	11274.18
260.095	11252.2
260.165	11246.13
260.235	11243.62
260.305	11219.91
260.375	11197.89
260.445	11209.02
260.515	11210.8
260.585	11206.95
260.655	11194.18
260.725	11188.73
260.795	11181.12
260.865	11189.36
260.934	11165.45
261.004	11156.92
261.074	11145.7
261.144	11151.96
261.214	11142.66
261.284	11123.91
261.354	11122.76
261.424	11096.97
261.494	11105.16
261.564	11088.49
261.634	11074.66
261.703	11037.94
261.773	11032.49
261.843	11019.38
261.913	10995.67
261.983	10958.09
262.053	10942.14
262.123	10917.51
262.192	10891.92
262.262	10886.77
262.332	10860.02
262.402	10849.95
262.472	10835.88
262.541	10796.27
262.611	10792.56
262.681	10760.95
262.751	10752.09
262.821	10731.37
262.89	10692.62
262.96	10673.97
263.03	10675.42
263.1	10665.93
263.169	10653.3
263.239	10641.02
263.309	10646.36
263.379	10637.26
263.448	10632.68
263.518	10625.02
263.588	10615.67
263.657	10618.13
263.727	10614.47
263.797	10597.41
263.867	10581.03
263.936	10548.31
264.006	10548.84
264.076	10526.73
264.145	10511.21
264.215	10489.97
264.285	10485.48
264.354	10452.53
264.424	10433.7
264.494	10402.23
264.563	10380.84
264.633	10385.71
264.702	10376.79
264.772	10346.77
264.842	10332.23
264.911	10318.25
264.981	10290.26
265.05	10277.21
265.12	10253.6
265.19	10236.35
265.259	10229.84
265.329	10224.3
265.398	10215.25
265.468	10229.65
265.537	10211.35
265.607	10205.9
265.676	10209.66
265.746	10193.38
265.815	10198
265.885	10181.82
265.955	10162.11
266.024	10143.9
266.094	10104.59
266.163	10106.33
266.232	10099.1
266.302	10085.04
266.371	10077.52
266.441	10066.15
266.51	10065
266.58	10050.79
266.649	10031.23
266.719	10033.97
266.788	10016.1
266.858	10021.79
266.927	9972.89
266.996	9965.33
267.066	9954.59
267.135	9923.86
267.205	9925.11
267.274	9921.11
267.343	9922.85
267.413	9916.2
267.482	9913.7
267.552	9921.26
267.621	9888.6
267.69	9861.62
267.76	9849.78
267.829	9838.07
267.898	9829.74
267.968	9797.04
268.037	9796.6
268.106	9794.29
268.176	9756.62
268.245	9748.67
268.314	9727.1
268.384	9737.16
268.453	9726.08
268.522	9723.68
268.592	9725.17
268.661	9705.85
268.73	9697.43
268.799	9674.02
268.869	9678.93
268.938	9649.89
269.007	9630.05
269.076	9615.74
269.146	9619.12
269.215	9614.44
269.284	9622.68
269.353	9600.91
269.422	9596.34
269.492	9572.16
269.561	9526.37
269.63	9525.26
269.699	9504.36
269.768	9487.94
269.838	9478.64
269.907	9478.06
269.976	9450.28
270.045	9417.39
270.114	9406.94
270.183	9386.81
270.253	9374.39
270.322	9339.96
270.391	9331.29
270.46	9332.88
270.529	9336.74
270.598	9332.55
270.667	9316.46
270.736	9288.34
270.806	9285.79
270.875	9283.76
270.944	9270.52
271.013	9302.45
271.082	9293.11
271.151	9292.58
271.22	9270.14
271.289	9259.69
271.358	9239.08
271.427	9234.89
271.496	9234.84
271.565	9226.27
271.634	9224.93
271.703	9262.25
271.772	9272.17
271.841	9264.46
271.91	9239.33
271.979	9231.05
272.048	9208.66
272.117	9207.45
272.186	9194.89
272.255	9193.54
272.324	9194.12
272.393	9195.85
272.462	9176.06
272.531	9169.37
272.6	9158.58
272.669	9164.98
272.738	9156.56
272.807	9159.93
272.876	9139.52
272.945	9162.92
273.013	9161.76
273.082	9154.39
273.151	9104.99
273.22	9097.43
273.289	9087.85
273.358	9098.68
273.427	9084.43
273.496	9085.06
273.564	9086.98
273.633	9091.17
273.702	9071.29
273.771	9056.03
273.84	9052.99
273.909	9048.85
273.977	9050.11
274.046	9034.36
274.115	9042.79
274.184	9023.29
274.253	9010.63
274.322	9022.23
274.39	8986.27
274.459	8972.16
274.528	8956.09
274.597	8951.56
274.665	8948.24
274.734	8956.86
274.803	8946.99
274.872	8939.81
274.94	8918.25
275.009	8974.84
275.078	8960.69
275.147	8957.95
275.215	8957.51
275.284	8956.41
275.353	8942.54
275.421	8914
275.49	8934.84
275.559	8920.16
275.627	8911.78
275.696	8900.62
275.765	8899.41
275.833	8892.19
275.902	8896.62
275.971	8901.29
276.039	8912.17
276.108	8916.89
276.177	8912.85
276.245	8899.51
276.314	8894.75
276.383	8906.2
276.451	8837
276.52	8842.72
276.588	8857.36
276.657	8863.52
276.725	8855.29
276.794	8856.11
276.863	8867.99
276.931	8837.57
277	8851.1
277.068	8862.22
277.137	8880.7
277.205	8873.82
277.274	8892.59
277.342	8899.43
277.411	8879.74
277.48	8865.78
277.548	8855.48
277.617	8853.84
277.685	8843.74
277.754	8851.68
277.822	8841.52
277.89	8857.41
277.959	8845.09
278.027	8825.79
278.096	8812.84
278.164	8840.57
278.233	8831.71
278.301	8819.29
278.37	8825.55
278.438	8803.5
278.507	8808.7
278.575	8780.88
278.643	8781.36
278.712	8765.05
278.78	8743.77
278.849	8752.24
278.917	8764.42
278.985	8759.22
279.054	8762.92
279.122	8782.9
279.191	8777.7
279.259	8776.88
279.327	8753.82
279.396	8768.36
279.464	8763.55
279.532	8772.79
279.601	8768.6
279.669	8767.3
279.737	8787.03
279.806	8792.91
279.874	8807.49
279.942	8801.86
280.011	8803.59
280.079	8807.78
280.147	8826.07
280.215	8833.48
280.284	8831.17
280.352	8811.87
280.42	8816.06
280.488	8808.79
280.557	8798.44
280.625	8796.76
280.693	8796.61
280.761	8795.84
280.83	8778.85
280.898	8789.82
280.966	8767.83
281.034	8735
281.102	8718.2
281.171	8707.47
281.239	8716.42
281.307	8703.86
281.375	8688.7
281.443	8716.28
281.512	8711.13
281.58	8719.08
281.648	8701.89
281.716	8706.32
281.784	8708.87
281.852	8701.84
281.92	8703
281.989	8713.73
282.057	8697.13
282.125	8739.83
282.193	8740.32
282.261	8740.32
282.329	8732.42
282.397	8735.93
282.465	8737.67
282.533	8751.38
282.601	8739.06
282.67	8715.28
282.738	8709.36
282.806	8724.19
282.874	8701.8
282.942	8701.85
283.01	8688.52
283.078	8698
283.146	8690.3
283.214	8698.86
283.282	8705.07
283.35	8715.9
283.418	8712.05
283.486	8722.11
283.554	8678.01
283.622	8680.85
283.69	8679.36
283.758	8677.77
283.826	8681.28
283.894	8691.73
283.962	8718.83
284.03	8734.28
284.098	8737.07
284.165	8727.64
284.233	8722.29
284.301	8722.58
284.369	8714.88
284.437	8712.86
284.505	8709.64
284.573	8730.48
284.641	8724.46
284.709	8728.26
284.777	8709.54
284.845	8710.89
284.912	8711.61
284.98	8718.83
285.048	8706.12
285.116	8711.37
285.184	8722.92
285.252	8718.2
285.319	8699.72
285.387	8685.9
285.455	8670.46
285.523	8680.56
285.591	8681.14
285.659	8685.57
285.726	8693.41
285.794	8682.59
285.862	8671.66
285.93	8668.87
285.997	8666.75
286.065	8658.81
286.133	8646.54
286.201	8642.01
286.269	8629.64
286.336	8623.72
286.404	8613.71
286.472	8624.73
286.539	8601.25
286.607	8585.27
286.675	8588.64
286.743	8602.6
286.81	8597.16
286.878	8606.88
286.946	8597.64
287.013	8598.7
287.081	8601.54
287.149	8588.4
287.216	8608.66
287.284	8606.69
287.352	8606.54
287.419	8600.09
287.487	8616.31
287.555	8629.98
287.622	8627
287.69	8634.84
287.758	8644.9
287.825	8640.04
287.893	8629.93
287.96	8640.86
288.028	8653.03
288.096	8656.07
288.163	8657.46
288.231	8645.14
288.298	8651.4
288.366	8665.02
288.433	8661.51
288.501	8658.23
288.569	8663.72
288.636	8656.4
288.704	8672.09
288.771	8680.23
288.839	8665.74
288.906	8659.34
288.974	8664.68
289.041	8667.52
289.109	8649.67
289.176	8655.35
289.244	8658.57
289.311	8669.74
289.379	8674.94
289.446	8679.6
289.514	8683.26
289.581	8682.4
289.649	8686.34
289.716	8684.42
289.783	8671.33
289.851	8695.97
289.918	8685.96
289.986	8691.3
290.053	8700.35
290.121	8694.28
290.188	8698.08
290.255	8731.1
290.323	8722.05
290.39	8711.61
290.458	8715.84
290.525	8732.35
290.592	8727.68
290.66	8732.45
290.727	8728.6
290.794	8743.47
290.862	8739.57
290.929	8744.53
290.996	8741.98
291.064	8754.06
291.131	8763.35
291.198	8777.88
291.266	8772.93
291.333	8776.77
291.4	8784.38
291.468	8800.27
291.535	8798.1
291.602	8800.7
291.669	8790.69
291.737	8797.38
291.804	8795.16
291.871	8811.86
291.938	8818.12
292.006	8851.78
292.073	8872.81
292.14	8885.52
292.207	8881.23
292.275	8884.36
292.342	8889.8
292.409	8916.23
292.476	8941.27
292.543	8935.59
292.611	8938.91
292.678	8958.45
292.745	8985.6
292.812	8996.67
292.879	8983.92
292.946	8985.55
293.014	9000.43
293.081	9014.73
293.148	9028.78
293.215	9048.76
293.282	9045.49
293.349	9056.99
293.416	9032.68
293.484	9043.22
293.551	9049.43
293.618	9071.58
293.685	9099.26
293.752	9095.07
293.819	9097.19
293.886	9081.83
293.953	9086.26
294.02	9096.95
294.087	9101.43
294.154	9093.34
294.221	9107.83
294.288	9110.62
294.356	9135.75
294.423	9144.23
294.49	9129.4
294.557	9148.37
294.624	9141.39
294.691	9162.57
294.758	9168.69
294.825	9174.03
294.892	9163.05
294.959	9163.2
295.026	9163.58
295.093	9150.97
295.16	9155.78
295.226	9148.22
295.293	9175.14
295.36	9177.88
295.427	9192.71
295.494	9206.87
295.561	9223.87
295.628	9247.47
295.695	9267.21
295.762	9269.04
295.829	9275.78
295.896	9297.88
295.963	9301.59
296.03	9311.21
296.096	9313.43
296.163	9325.18
296.23	9346.94
296.297	9355.46
296.364	9354.89
296.431	9363.27
296.498	9365.58
296.564	9387
296.631	9395.24
296.698	9385.41
296.765	9411.32
296.832	9397.64
296.899	9383.29
296.965	9396.15
297.032	9376.16
297.099	9392.73
297.166	9392.25
297.233	9382.47
297.299	9372.75
297.366	9371.35
297.433	9374.96
297.5	9383
297.566	9378.67
297.633	9380.26
297.7	9385.99
297.767	9387.43
297.833	9397.3
297.9	9401.49
297.967	9381.41
298.033	9394.99
298.1	9421
298.167	9411.37
298.234	9420.18
298.3	9426.92
298.367	9422.06
298.434	9423.36
298.5	9411.75
298.567	9417.58
298.634	9422.92
298.7	9448.64
298.767	9458.7
298.834	9465.59
298.9	9462.94
298.967	9457.45
299.033	9463.23
299.1	9477.92
299.167	9500.74
299.233	9491.79
299.3	9500.94
299.366	9526.99
299.433	9540.81
299.5	9516.63
299.566	9521.35
299.633	9535.36
299.699	9550.39
299.766	9544.37
299.832	9546.83
299.899	9558.63
299.965	9569.41
300.032	9566.04
300.099	9565.08
300.165	9569.13
300.232	9572.69
300.298	9578.28
300.365	9593.44
300.431	9597.73
300.498	9592.87
300.564	9591.71
300.631	9601.73
300.697	9615.16
300.763	9613.43
300.83	9610.16
300.896	9615.79
300.963	9627.78
301.029	9628.02
301.096	9629.8
301.162	9645.12
301.229	9643.14
301.295	9627.11
301.361	9630.09
301.428	9636.59
301.494	9625.61
301.561	9626.96
301.627	9625.37
301.693	9627.88
301.76	9634.57
301.826	9624.6
301.892	9636.93
301.959	9647.87
302.025	9645.79
302.092	9641.65
302.158	9647.67
302.224	9647.09
302.291	9646.66
302.357	9638.52
302.423	9634.81
302.49	9627.69
302.556	9637.37
302.622	9643.77
302.688	9665.2
302.755	9681.73
302.821	9691.89
302.887	9698.29
302.954	9691.69
303.02	9703.16
303.086	9707.88
303.152	9700.65
303.219	9701.47
303.285	9710.48
303.351	9716.26
303.417	9715.49
303.483	9713.46
303.55	9705.76
303.616	9708.79
303.682	9707.2
303.748	9706.63
303.815	9724.93
303.881	9737.89
303.947	9731.29
304.013	9724.45
304.079	9706.1
304.145	9681.73
304.212	9675.8
304.278	9667.62
304.344	9669.78
304.41	9651
304.476	9636.94
304.542	9635.93
304.608	9643.39
304.674	9624.99
304.741	9614.16
304.807	9621.62
304.873	9620.08
304.939	9636.26
305.005	9615.22
305.071	9613.48
305.137	9609.68
305.203	9583.67
305.269	9579.24
305.335	9578.71
305.401	9580.35
305.467	9585.4
305.533	9599.22
305.599	9604.62
305.666	9621.76
305.732	9618.97
305.798	9634.04
305.864	9665.69
305.93	9673.68
305.996	9669.35
306.062	9668.19
306.128	9664.15
306.194	9651.67
306.259	9655.67
306.325	9645.36
306.391	9657.64
306.457	9665.49
306.523	9669.88
306.589	9699.5
306.655	9688.47
306.721	9676.28
306.787	9666.03
306.853	9682.69
306.919	9665.06
306.985	9663.72
307.051	9651.39
307.117	9647.2
307.183	9644.07
307.248	9609.87
307.314	9610.3
307.38	9608.81
307.446	9617.82
307.512	9608.43
307.578	9611.22
307.644	9601.44
307.709	9604.04
307.775	9599.32
307.841	9599.42
307.907	9603.37
307.973	9574.18
308.039	9576.93
308.104	9588.19
308.17	9583.86
308.236	9566.81
308.302	9567.15
308.368	9556.75
308.433	9556.46
308.499	9549.04
308.565	9538.93
308.631	9545.72
308.696	9518.51
308.762	9518.41
308.828	9510.51
308.894	9494.77
308.959	9477.82
309.025	9468.86
309.091	9462.84
309.156	9452.83
309.222	9450.71
309.288	9434.29
309.354	9417.91
309.419	9415.89
309.485	9392.54
309.551	9399.28
309.616	9384.54
309.682	9380.5
309.748	9365.47
309.813	9357.82
309.879	9347.08
309.945	9334.08
310.01	9326.9
310.076	9334.27
310.141	9321.85
310.207	9302.15
310.273	9304.37
310.338	9307.69
310.404	9291.8
310.469	9276.34
310.535	9270.95
310.601	9247.6
310.666	9261.71
310.732	9267.29
310.797	9252.8
310.863	9242.4
310.928	9241.68
310.994	9246.97
311.059	9243.46
311.125	9250.29
311.191	9266.43
311.256	9258.77
311.322	9264.93
311.387	9241.25
311.453	9644.98
311.518	9616.96
311.584	9619.9
311.649	9622.74
311.715	9609.35
311.78	9613.49
311.846	9609.11
311.911	9616.53
311.976	9614.99
312.042	9594.86
312.107	9578.83
312.173	9570.98
312.238	9575.51
312.304	9563.8
312.369	9553.64
312.434	9544.74
312.5	9530.78
312.565	9497.41
312.631	9505.3
312.696	9499.48
312.761	9502.46
312.827	9082.36
312.892	9121.6
312.958	9119.53
313.023	9116.69
313.088	9119.96
313.154	9104.46
313.219	9093.68
313.284	9077.45
313.35	9077.16
313.415	9059.88
313.48	9059.45
313.546	9058.15
313.611	9060.79
313.676	9052.8
313.741	9044.42
313.807	9052.22
313.872	9055.5
313.937	9059.59
314.003	9070.28
314.068	9069.08
314.133	9083.71
314.198	9081.11
314.264	9056.41
314.329	9043.41
314.394	9044.47
314.459	9037.44
314.525	9066.04
314.59	9062.77
314.655	9057.04
314.72	9065.7
314.785	9075.28
314.851	9070.08
314.916	9053.96
314.981	9038.6
315.046	9029.74
315.111	9017.08
315.176	9005.77
315.242	9012.6
315.307	9007.98
315.372	8983.86
315.437	8972.55
315.502	8955.7
315.567	8968.55
315.632	8954.93
315.698	8957.63
315.763	8952.86
315.828	8944.97
315.893	8931.15
315.958	8930.04
316.023	8918.49
316.088	8898.7
316.153	8877.62
316.218	8873.34
316.283	8859.38
316.348	8842.58
316.413	8846.15
316.479	8832.62
316.544	8796.53
316.609	8767.02
316.674	8728.47
316.739	8695.12
316.804	8668.99
316.869	8633.72
316.934	8597.71
316.999	8574.61
317.064	8521.3
317.129	8473.8
317.194	8438.43
317.259	8393.1
317.324	8335.47
317.389	8288.51
317.454	8248.96
317.518	8211.15
317.583	8183.57
317.648	8160.82
317.713	8128.54
317.778	8062.73
317.843	8036.22
317.908	7999.53
317.973	7958.59
318.038	7939.35
318.103	7905.78
318.168	7867.69
318.233	7841.91
318.297	7785.45
318.362	7745.68
318.427	7706.79
318.492	7684.67
318.557	7637.65
318.622	7614.66
318.687	7596.54
318.751	7561.74
318.816	7528.18
318.881	7500.54
318.946	7446.21
319.011	7404.29
319.075	7365.31
319.14	7334.36
319.205	7290.18
319.27	7257.94
319.335	7213.2
319.399	7171
319.464	7142.02
319.529	7092.34
319.594	7050.49
319.658	7018.68
319.723	6974.87
319.788	6947.87
319.853	6890.36
319.917	6863.28
319.982	6806.68
320.047	6770.99
320.112	6740.64
320.176	6689.54
320.241	6656.1
320.306	6626.23
320.37	6582.34
320.435	6550.41
320.5	6527.5
320.564	6482.37
320.629	6444.83
320.694	6414.11
320.758	6371.57
320.823	6326.07
320.888	6300.87
320.952	6253.21
321.017	6212.95
321.082	6176.43
321.146	6145.09
321.211	6113.91
321.275	6073.27
321.34	6031.77
321.405	5987.92
321.469	5945.52
321.534	5906.77
321.598	5855.44
321.663	5825.21
321.727	5796.19
321.792	5746.7
321.857	5694.32
321.921	5661.04
321.986	5618.37
322.05	5558.89
322.115	5524.28
322.179	5484.01
322.244	5423.73
322.308	5391.48
322.373	5348.11
322.437	5308.09
322.502	5282.49
322.566	5239.51
322.631	5204.72
322.695	5166.07
322.76	5124.39
322.824	5088.94
322.889	5047.62
322.953	5002.65
323.018	4931.82
323.082	4864.84
323.146	4814.58
323.211	4763.41
323.275	4717.98
323.34	4674.42
323.404	4645.81
323.468	4599.86
323.533	4554.69
323.597	4517.53
323.662	4468
323.726	4433.75
323.79	4385.67
323.855	4317.53
323.919	4270.23
323.983	4225.41
324.048	4158.93
324.112	4317.26
324.177	4191.13
324.241	3974.95
324.305	3763.2
324.37	3560.26
324.434	3362.87
324.498	3320.17
324.562	3272.56
324.627	3212.8
324.691	3153.5
324.755	3085.79
324.82	3007.85
324.884	2930.39
324.948	2856.38
325.012	2757.74
325.077	2632.04
