Data from 20250703_urea_0.1M_MAYP1162681_21-01-04-876.txt Node
Date: Thu Jul 03 21:01:04 BST 2025
User: adleo
Spectrometer: MAYP116268
Trigger mode: 0
Integration Time (sec): 1.000000E0
Scans to average: 1
Electric dark correction enabled: true
Nonlinearity correction enabled: true
Boxcar width: 10
XAxis mode: Wavelengths
Number of Pixels in Spectrum: 2068
>>>>>Begin Spectral Data<<<<<
179.565	1397.61
179.642	1459.24
179.718	1508.77
179.795	1553.23
179.871	1590.23
179.948	1611.37
180.024	1639.65
180.101	1664.13
180.177	1681.61
180.254	1711.09
180.33	1734.61
180.407	1802.53
180.483	1911.62
180.56	2018.54
180.636	2116.07
180.712	2099.75
180.789	2111.5
180.865	2122.68
180.942	2131.43
181.018	2140.75
181.095	2153.79
181.171	2158.64
181.248	2162.93
181.324	2182.44
181.4	2192.43
181.477	2204.28
181.553	2217.98
181.63	2237.39
181.706	2254.72
181.782	2261.61
181.859	2258.71
181.935	2268.18
182.011	2265.33
182.088	2283.36
182.164	2305.41
182.24	2321.49
182.317	2334.39
182.393	2332.39
182.469	2351.24
182.546	2367.61
182.622	2374.84
182.698	2371.89
182.775	2386.65
182.851	2399.02
182.927	2389.31
183.003	2383.12
183.08	2379.13
183.156	2388.22
183.232	2382.65
183.308	2370.89
183.385	2381.74
183.461	2401.26
183.537	2401.54
183.613	2415.49
183.69	2407.4
183.766	2393.11
183.842	2398.54
183.918	2403.11
183.995	2417.72
184.071	2421.29
184.147	2413.72
184.223	2402.4
184.299	2415.21
184.375	2400.5
184.452	2409.17
184.528	2460.35
184.604	2472.11
184.68	2484.01
184.756	2495.68
184.832	2501.54
184.908	2507.72
184.985	2507.67
185.061	2489.06
185.137	2502.39
185.213	2489.64
185.289	2489.44
185.365	2482.07
185.441	2483.69
185.517	2499.69
185.593	2496.26
185.669	2493.02
185.745	2504.02
185.822	2522.49
185.898	2510.96
185.974	2520.77
186.05	2512.63
186.126	2476.87
186.202	2466.92
186.278	2462.87
186.354	2450.3
186.43	2458.2
186.506	2457.73
186.582	2456.78
186.658	2465.25
186.734	2439.11
186.81	2442.4
186.886	2445.4
186.962	2458.34
187.038	2453.92
187.114	2445.91
187.19	2455.06
187.266	2443.01
187.341	2441.77
187.417	2433.78
187.493	2434.92
187.569	2439.35
187.645	2431.63
187.721	2418.54
187.797	2430.3
187.873	2435.96
187.949	2428.16
188.025	2420.3
188.101	2423.11
188.176	2429.15
188.252	2423.87
188.328	2432.15
188.404	2434.91
188.48	2431.58
188.556	2423.82
188.632	2422.63
188.707	2422.01
188.783	2416.91
188.859	2411.49
188.935	2402.06
189.011	2407.44
189.086	2399.63
189.162	2392.97
189.238	2392.02
189.314	2390.49
189.39	2385.54
189.465	2378.83
189.541	2400.16
189.617	2385.97
189.693	2380.69
189.768	2383.69
189.844	2411.7
189.92	2405.27
189.996	2412.03
190.071	2423.17
190.147	2422.03
190.223	2433.17
190.298	2423.94
190.374	2409.94
190.45	2424.36
190.526	2434.31
190.601	2429.36
190.677	2430.6
190.753	2456.51
190.828	2458.08
190.904	2477.66
190.98	2491.04
191.055	2498.37
191.131	2487.56
191.207	2508.89
191.282	2519.98
191.358	2509.22
191.433	2488.83
191.509	2501.92
191.585	2499.54
191.66	2499.73
191.736	2509.16
191.811	2499.11
191.887	2518.68
191.963	2544.21
192.038	2548.87
192.114	2548.64
192.189	2551.59
192.265	2548.54
192.34	2526.48
192.416	2529.05
192.491	2523.19
192.567	2524.77
192.642	2531.15
192.718	2532.24
192.793	2518.72
192.869	2514.25
192.944	2519.77
193.02	2528.2
193.095	2533.67
193.171	2539.2
193.246	2540.58
193.322	2537.34
193.397	2536.34
193.473	2518.1
193.548	2499.66
193.624	2504.24
193.699	2503.24
193.775	2521.34
193.85	2521.81
193.925	2532.2
194.001	2528.82
194.076	2520.1
194.152	2511.24
194.227	2500.1
194.302	2489.29
194.378	2496.15
194.453	2493.62
194.529	2505.86
194.604	2494.25
194.679	2484.68
194.755	2463.63
194.83	2478.02
194.905	2476.4
194.981	2487.88
195.056	2481.65
195.131	2488.17
195.207	2487.98
195.282	2477.41
195.357	2455.36
195.433	2472.93
195.508	2457.83
195.583	2466.73
195.659	2479.73
195.734	2490.21
195.809	2492.12
195.884	2502.3
195.96	2502.4
196.035	2517.73
196.11	2510.68
196.185	2523.73
196.261	2528.97
196.336	2561.25
196.411	2544.67
196.486	2550.96
196.561	2545.1
196.637	2556.77
196.712	2576.11
196.787	2577.16
196.862	2595.01
196.937	2610.39
197.013	2618.45
197.088	2631.4
197.163	2656.51
197.238	2676.58
197.313	2674.67
197.388	2687.87
197.464	2721.42
197.539	2732.18
197.614	2725.94
197.689	2744.38
197.764	2763.31
197.839	2787.61
197.914	2781.36
197.989	2806.67
198.065	2822.01
198.14	2872.32
198.215	2900.87
198.29	2913.93
198.365	2932.86
198.44	2945.68
198.515	2976.05
198.59	2991.06
198.665	3021.48
198.74	3030.11
198.815	3032.45
198.89	3056.43
198.965	3092.78
199.04	3087.01
199.115	3107.7
199.19	3157
199.265	3156.1
199.34	3163.44
199.415	3200.62
199.49	3228.99
199.565	3238.39
199.64	3264.86
199.715	3259.75
199.79	3268.72
199.865	3273.3
199.94	3272.21
200.015	3304.13
200.09	3306.46
200.165	3316.01
200.24	3321.35
200.315	3364.62
200.39	3382.28
200.464	3390.91
200.539	3388.95
200.614	3410.57
200.689	3432.67
200.764	3438.44
200.839	3462.24
200.914	3475.42
200.989	3461.66
201.063	3476.32
201.138	3460.06
201.213	3458.29
201.288	3443.64
201.363	3449.08
201.438	3450.66
201.512	3466.02
201.587	3450.5
201.662	3458.19
201.737	3471.79
201.812	3480.77
201.886	3443.84
201.961	3455.02
202.036	3442.14
202.111	3439.08
202.186	3406.89
202.26	3391.99
202.335	3367.89
202.41	3358.92
202.485	3335.44
202.559	3317.03
202.634	3286.97
202.709	3296.65
202.784	3278.75
202.858	3278.04
202.933	3259.29
203.008	3257.05
203.082	3241.92
203.157	3244.36
203.232	3202.01
203.306	3184.64
203.381	3157.2
203.456	3142.65
203.53	3124.75
203.605	3113.5
203.68	3102.14
203.754	3106.76
203.829	3101.37
203.904	3094.6
203.978	3099.99
204.053	3121.5
204.127	3122.08
204.202	3140.35
204.277	3142.49
204.351	3159.52
204.426	3178.56
204.5	3191.97
204.575	3178.57
204.65	3216.94
204.724	3240.34
204.799	3279.11
204.873	3307.23
204.948	3345.12
205.022	3367.07
205.097	3397.45
205.171	3452.19
205.246	3503.44
205.32	3548.97
205.395	3597.64
205.469	3638.12
205.544	3695.18
205.618	3728.95
205.693	3805.5
205.767	3855
205.842	3945.59
205.916	4000.65
205.991	4057.39
206.065	4134.75
206.14	4226.21
206.214	4303.26
206.289	4374.32
206.363	4476.76
206.438	4566.7
206.512	4657.55
206.586	4766.76
206.661	4865.91
206.735	4934.02
206.81	5031.73
206.884	5148.12
206.958	5238.37
207.033	5361.87
207.107	5477.87
207.181	5623
207.256	5722.94
207.33	5851.65
207.405	5974.19
207.479	6116.63
207.553	6250.26
207.628	6350.19
207.702	6482.99
207.776	6589.88
207.851	6719.24
207.925	6857.27
207.999	6984.97
208.073	7117.63
208.148	7255.74
208.222	7377.92
208.296	7554.82
208.371	7712.42
208.445	7861.16
208.519	8028.21
208.593	8180.54
208.668	8312.85
208.742	8455.49
208.816	8595.29
208.89	8754.31
208.965	8905.29
209.039	9052.79
209.113	9208.34
209.187	9377.66
209.261	9522.96
209.336	9693.94
209.41	9856.1
209.484	10004.79
209.558	10171.7
209.632	10327.23
209.707	10489.06
209.781	10662.49
209.855	10829.31
209.929	10988.29
210.003	11135.69
210.077	11280.21
210.151	11474.48
210.226	11659.36
210.3	11835.28
210.374	12011.57
210.448	12157.52
210.522	12303.33
210.596	12452.6
210.67	12605.12
210.744	12795.99
210.818	12968.36
210.892	13131.82
210.966	13273.74
211.041	13428.52
211.115	13556.22
211.189	13712.16
211.263	13860.1
211.337	14000.33
211.411	14132.99
211.485	14259.43
211.559	14413.06
211.633	14539.89
211.707	14631.77
211.781	14765.24
211.855	14848.54
211.929	14966.11
212.003	15073.7
212.077	15206.69
212.151	15343.82
212.225	15475.31
212.299	15590.99
212.373	15702.92
212.447	15808.91
212.52	15948.97
212.594	16066
212.668	16195.32
212.742	16302.27
212.816	16409.46
212.89	16505.81
212.964	16622.39
213.038	16733.34
213.112	16847.46
213.186	16975.62
213.26	17060.78
213.333	17119.53
213.407	17236.55
213.481	17342.19
213.555	17459.11
213.629	17544.46
213.703	17631.78
213.777	17728.55
213.85	17812.98
213.924	17944.93
213.998	18053.84
214.072	18146.61
214.146	18218.03
214.219	18308.48
214.293	18400.05
214.367	18501.87
214.441	18606.98
214.515	18688.13
214.588	18749.52
214.662	18805.86
214.736	18866.09
214.81	18957.46
214.883	19034.09
214.957	19105.65
215.031	19170.61
215.105	19225.88
215.178	19296.38
215.252	19367.27
215.326	19418.01
215.4	19460.52
215.473	19476.04
215.547	19517.77
215.621	19573.86
215.694	19661.09
215.768	19702
215.842	19742.39
215.915	19783.88
215.989	19827.49
216.063	19867.1
216.136	19935.68
216.21	19981.17
216.284	20061.17
216.357	20122.33
216.431	20191.58
216.504	20256.83
216.578	20336.11
216.652	20404.64
216.725	20457.55
216.799	20518.04
216.873	20568.11
216.946	20633.02
217.02	20687.77
217.093	20743.92
217.167	20770.67
217.24	20804.98
217.314	20861.9
217.387	20910.77
217.461	20948.02
217.535	21014.92
217.608	21053.62
217.682	21100.66
217.755	21175.32
217.829	21216.82
217.902	21278.56
217.976	21326.85
218.049	21361.65
218.123	21391.29
218.196	21438.05
218.27	21479.21
218.343	21512.13
218.417	21562.64
218.49	21609.45
218.563	21672.2
218.637	21718.96
218.71	21786.2
218.784	21842.41
218.857	21888.15
218.931	21943.54
219.004	21998.92
219.077	22028.91
219.151	22082.27
219.224	22125.36
219.298	22157.76
219.371	22200.61
219.444	22218.16
219.518	22254.6
219.591	22297.46
219.665	22364.9
219.738	22403.86
219.811	22430.85
219.885	22477.9
219.958	22521.39
220.031	22552.1
220.105	22589.7
220.178	22629.09
220.251	22663.95
220.325	22700.89
220.398	22738.73
220.471	22775.9
220.544	22815.29
220.618	22845.28
220.691	22887.23
220.764	22910.9
220.838	22946.39
220.911	22977.83
220.984	23028.93
221.057	23069.24
221.131	23100.44
221.204	23097.5
221.277	23149.33
221.35	23207.82
221.424	23222.29
221.497	23257.78
221.57	23285.65
221.643	23308.6
221.716	23331.79
221.79	23343.99
221.863	23360
221.936	23394.19
222.009	23416.76
222.082	23436.53
222.155	23463.15
222.229	23498.31
222.302	23529.51
222.375	23541.03
222.448	23564.42
222.521	23588.05
222.594	23599.58
222.667	23606.38
222.74	23637.92
222.814	23646.07
222.887	23655.66
222.96	23689.18
223.033	23706.5
223.106	23734.9
223.179	23772.91
223.252	23797.26
223.325	23807.78
223.398	23819.45
223.471	23827.55
223.544	23832.13
223.617	23839.85
223.69	23843.08
223.763	23843.51
223.837	23852.58
223.91	23874.14
223.983	23862.71
224.056	23850.36
224.129	23866.28
224.202	23883.44
224.275	23880.74
224.348	23875.49
224.42	23870.62
224.493	23853.45
224.566	23845.25
224.639	23842.26
224.712	23817.08
224.785	23800
224.858	23807.87
224.931	23796.05
225.004	23785.49
225.077	23780.47
225.15	23754.19
225.223	23749.99
225.296	23767.79
225.369	23740.11
225.442	23724.92
225.514	23719.23
225.587	23725.35
225.66	23717.25
225.733	23714.26
225.806	23714.12
225.879	23699.41
225.952	23684.02
226.025	23692.85
226.097	23707.08
226.17	23697.91
226.243	23671.78
226.316	23667.77
226.389	23659.67
226.461	23661.5
226.534	23663.82
226.607	23664.35
226.68	23686.63
226.753	23693.09
226.825	23657.54
226.898	23673.26
226.971	23665.98
227.044	23666.46
227.117	23649.63
227.189	23648.38
227.262	23648.67
227.335	23645.68
227.407	23645.82
227.48	23632.8
227.553	23633.43
227.626	23620.75
227.698	23615.2
227.771	23617.18
227.844	23594.46
227.916	23580.09
227.989	23550.53
228.062	23522.23
228.134	23531.24
228.207	23512.29
228.28	23487.75
228.352	23474.1
228.425	23460.84
228.498	23459.54
228.57	23427.57
228.643	23429.78
228.716	23400.95
228.788	23374.91
228.861	23353.35
228.934	23337.63
229.006	23325.91
229.079	23300.55
229.151	23270.84
229.224	23231.98
229.296	23223.2
229.369	23247.89
229.442	23250.11
229.514	23240.37
229.587	23242.64
229.659	23202.18
229.732	23191.67
229.804	23184.34
229.877	23186.17
229.949	23183.37
230.022	23189.88
230.094	23188.1
230.167	23172.81
230.239	23158.25
230.312	23146.29
230.384	23158.49
230.457	23158.98
230.529	23147.65
230.602	23130.53
230.674	23117.17
230.747	23120.07
230.819	23121.17
230.892	23053.77
230.964	23035.73
231.037	23023.15
231.109	22997.4
231.181	22992.24
231.254	22965.1
231.326	22943.35
231.399	22918.18
231.471	22885.45
231.544	22835.49
231.616	22829.32
231.688	22812.93
231.761	22782.7
231.833	22755.12
231.905	22688.88
231.978	22655.75
232.05	22636.61
232.122	22611.35
232.195	22578.62
232.267	22578.95
232.339	22538.45
232.412	22546.22
232.484	22508.18
232.556	22476.99
232.629	22480.07
232.701	22464.02
232.773	22439.87
232.846	22406.55
232.918	22379.36
232.99	22356.99
233.062	22342.44
233.135	22313.75
233.207	22276
233.279	22262.55
233.351	22247.71
233.424	22239.03
233.496	22210.15
233.568	22206.3
233.64	22171.2
233.713	22160.07
233.785	22118.85
233.857	22099.47
233.929	22057.29
234.001	22058.31
234.074	22045.05
234.146	21990.14
234.218	21960.16
234.29	21938.81
234.362	21908.2
234.434	21875.61
234.507	21834.21
234.579	21791.79
234.651	21759.93
234.723	21734.67
234.795	21707.05
234.867	21673.79
234.939	21659.72
235.012	21628.1
235.084	21600.38
235.156	21584.52
235.228	21541.72
235.3	21507.64
235.372	21481.18
235.444	21470.14
235.516	21406.13
235.588	21379
235.66	21355.24
235.732	21310.89
235.804	21325.59
235.876	21303.52
235.948	21279.71
236.02	21251.95
236.092	21209.87
236.164	21172.19
236.236	21132.09
236.308	21096.9
236.38	21070.88
236.452	21029.14
236.524	21004.08
236.596	20979.69
236.668	20955.59
236.74	20924.02
236.812	20900.26
236.884	20868.89
236.956	20835.15
237.028	20802.67
237.1	20761.32
237.172	20746.71
237.244	20738.37
237.316	20669.4
237.388	20631.77
237.46	20595.48
237.532	20571.91
237.604	20536.05
237.675	20534.22
237.747	20502.27
237.819	20468.54
237.891	20426.66
237.963	20379.53
238.035	20339.86
238.107	20266.66
238.178	20242.8
238.25	20197.07
238.322	20178.32
238.394	20126.52
238.466	20079.19
238.538	20053.89
238.609	20023.15
238.681	19963.92
238.753	19913.03
238.825	19880.64
238.897	19845.7
238.968	19826.91
239.04	19783.3
239.112	19787.63
239.184	19726.29
239.255	19693.71
239.327	19652.85
239.399	19628.22
239.471	19608.75
239.542	19579.98
239.614	19568.71
239.686	19507.94
239.758	19483.75
239.829	19432.47
239.901	19410.3
239.973	19373.97
240.044	19341.3
240.116	19309.54
240.188	19270.55
240.259	19233.54
240.331	19188.29
240.403	19158.66
240.474	19100.93
240.546	19052.83
240.618	18985.61
240.689	18946.09
240.761	18912.12
240.833	18895.4
240.904	18847.59
240.976	18806.34
241.048	18768.9
241.119	18732.47
241.191	18703.99
241.262	18687.55
241.334	18643.8
241.405	18599.27
241.477	18560.86
241.549	18524.19
241.62	18482.41
241.692	18465.73
241.763	18440.48
241.835	18404.44
241.906	18373.74
241.978	18320.54
242.049	18310.56
242.121	18290.32
242.192	18274.66
242.264	18223.29
242.335	18165.65
242.407	18132.11
242.478	18080.4
242.55	18046.38
242.621	18006.04
242.693	17961.9
242.764	17918.72
242.836	17891.98
242.907	17871.11
242.979	17840.7
243.05	17804.6
243.122	17782.29
243.193	17733.62
243.264	17674.1
243.336	17638.82
243.407	17610.15
243.479	17602.2
243.55	17564.95
243.622	17528.75
243.693	17479.12
243.764	17465
243.836	17423.6
243.907	17385.67
243.978	17354.87
244.05	17320.56
244.121	17262.49
244.192	17239.88
244.264	17188.41
244.335	17148.27
244.407	17087.5
244.478	17055.59
244.549	17016.79
244.62	16966.96
244.692	16934.04
244.763	16914.86
244.834	16878.81
244.906	16835.97
244.977	16802.81
245.048	16780.64
245.119	16744.35
245.191	16712.06
245.262	16652.15
245.333	16643.28
245.405	16612.87
245.476	16589.5
245.547	16556.48
245.618	16542.17
245.689	16500.38
245.761	16473.83
245.832	16424.38
245.903	16402.2
245.974	16378.01
246.045	16340.51
246.117	16314.34
246.188	16265.85
246.259	16220.4
246.33	16174.95
246.401	16135.04
246.473	16083.62
246.544	16041.2
246.615	16012.28
246.686	15965.29
246.757	15953.29
246.828	15905.43
246.899	15896.46
246.97	15851.59
247.042	15813.61
247.113	15792.4
247.184	15788.25
247.255	15750.32
247.326	15732.24
247.397	15700.53
247.468	15661.87
247.539	15636.95
247.61	15603.5
247.681	15583.69
247.752	15567.83
247.823	15535.44
247.894	15515.68
247.965	15478.27
248.037	15444.87
248.108	15402.94
248.179	15377.73
248.25	15344.56
248.321	15321.28
248.392	15271.06
248.463	15259.39
248.534	15227.62
248.605	15192.29
248.675	15159.23
248.746	15133.44
248.817	15105.29
248.888	15082.15
248.959	15032.16
249.03	15007.58
249.101	14976.1
249.172	14943.71
249.243	14892.9
249.314	14884.47
249.385	14847.16
249.456	14826.67
249.527	14798.95
249.598	14777.26
249.669	14751.91
249.739	14721.88
249.81	14697.44
249.881	14649.04
249.952	14620.69
250.023	14594.47
250.094	14554.94
250.165	14512.67
250.235	14490.88
250.306	14467.98
250.377	14419.54
250.448	14407.05
250.519	14357.26
250.59	14344.24
250.66	14310.88
250.731	14295.26
250.802	14256.94
250.873	14250.48
250.944	14223.82
251.014	14184.82
251.085	14179.28
251.156	14156.86
251.227	14160.77
251.297	14149.97
251.368	14148.43
251.439	14131.94
251.51	14114.64
251.58	14080.07
251.651	14050.33
251.722	14033.26
251.792	13983.32
251.863	13960.67
251.934	13954.45
252.005	13955.65
252.075	13929.91
252.146	13923.26
252.217	13918.29
252.287	13906.92
252.358	13869.46
252.429	13867
252.499	13841.93
252.57	13818.79
252.641	13806.02
252.711	13771.75
252.782	13728.12
252.852	13723.25
252.923	13702.57
252.994	13684.93
253.064	13673.07
253.135	13638.89
253.205	13614.4
253.276	13623.37
253.347	13628.67
253.417	13596.42
253.488	13569.61
253.558	13542.81
253.629	13514.51
253.699	13491.42
253.77	13483.71
253.841	13452.67
253.911	13437.53
253.982	13415.4
254.052	13400.12
254.123	13378.72
254.193	13353.65
254.264	13373.61
254.334	13336.2
254.405	13294.31
254.475	13259.26
254.546	13244.65
254.616	13241.76
254.687	13217.23
254.757	13191.82
254.827	13158.85
254.898	13131.37
254.968	13111.56
255.039	13085.19
255.109	13073.67
255.18	13044.89
255.25	12993.69
255.321	12987.23
255.391	12945.82
255.461	12957.1
255.532	12904.7
255.602	12874.38
255.673	12826.8
255.743	12799.86
255.813	12754.88
255.884	12751.31
255.954	12738.59
256.024	12728.13
256.095	12701.33
256.165	12669.61
256.235	12655.34
256.306	12622.03
256.376	12619.04
256.446	12610.22
256.517	12597.06
256.587	12589.15
256.657	12569.92
256.728	12561
256.798	12536.42
256.868	12508.36
256.938	12469.22
257.009	12465.32
257.079	12456.35
257.149	12474.23
257.219	12422.85
257.29	12414.17
257.36	12370.69
257.43	12364.71
257.5	12318.49
257.571	12298.19
257.641	12289.85
257.711	12259.15
257.781	12260.59
257.852	12240.93
257.922	12196.44
257.992	12173.78
258.062	12148.76
258.132	12142.01
258.202	12111.94
258.273	12103.07
258.343	12107.12
258.413	12084.7
258.483	12068.94
258.553	12036.02
258.623	12000.78
258.693	11989.41
258.764	11985.26
258.834	11980.25
258.904	11957.4
258.974	11937.3
259.044	11914.89
259.114	11897.54
259.184	11880.67
259.254	11848.9
259.324	11808.85
259.394	11798.87
259.464	11796.46
259.535	11772.22
259.605	11745.51
259.675	11721.66
259.745	11702.14
259.815	11667.67
259.885	11638.95
259.955	11648.59
260.025	11620.93
260.095	11602.66
260.165	11594.66
260.235	11601.89
260.305	11583.19
260.375	11553.16
260.445	11562.75
260.515	11567.33
260.585	11561.35
260.655	11541.21
260.725	11541.78
260.795	11537.16
260.865	11545.45
260.934	11518.7
261.004	11517.44
261.074	11498.17
261.144	11502.41
261.214	11490.89
261.284	11479.03
261.354	11474.41
261.424	11442.88
261.494	11451.12
261.564	11430.3
261.634	11413.72
261.703	11357.14
261.773	11344.61
261.843	11333.62
261.913	11314.01
261.983	11271.6
262.053	11271.6
262.123	11260.85
262.192	11225.48
262.262	11217.09
262.332	11185.53
262.402	11172.95
262.472	11155.98
262.541	11116.85
262.611	11112.08
262.681	11089.63
262.751	11084.42
262.821	11069.82
262.89	11031.89
262.96	11021.24
263.03	11033.92
263.1	11023.55
263.169	11022.54
263.239	11008.76
263.309	11012.95
263.379	11006.98
263.448	10996.81
263.518	10972.95
263.588	10948.52
263.657	10955.12
263.727	10954.55
263.797	10933.97
263.867	10923.32
263.936	10888.43
264.006	10893.97
264.076	10871.08
264.145	10858.84
264.215	10831.09
264.285	10828.15
264.354	10802.37
264.424	10776.21
264.494	10742.76
264.563	10726.14
264.633	10737.61
264.702	10724.74
264.772	10692.65
264.842	10665.18
264.911	10662.58
264.981	10633.23
265.05	10625.53
265.12	10605.82
265.19	10590.73
265.259	10594.25
265.329	10582.01
265.398	10571.37
265.468	10584.71
265.537	10566.4
265.607	10553.59
265.676	10556.48
265.746	10541.06
265.815	10541.73
265.885	10524.87
265.955	10499.53
266.024	10478.43
266.094	10431.11
266.163	10437.71
266.232	10441.81
266.302	10426.2
266.371	10415.94
266.441	10405.24
266.51	10401.05
266.58	10385.78
266.649	10357.45
266.719	10349.59
266.788	10341.31
266.858	10345.26
266.927	10303
266.996	10293.66
267.066	10284.36
267.135	10253.62
267.205	10256.95
267.274	10240.47
267.343	10237.82
267.413	10225.49
267.482	10228.53
267.552	10234.02
267.621	10202.32
267.69	10167.63
267.76	10159.34
267.829	10151.59
267.898	10143.59
267.968	10121.48
268.037	10116.37
268.106	10112.28
268.176	10084.91
268.245	10065.45
268.314	10049.75
268.384	10051.48
268.453	10041.03
268.522	10035.39
268.592	10040.79
268.661	10012.32
268.73	10004.56
268.799	9989.05
268.869	10000.56
268.938	9968.29
269.007	9947.38
269.076	9938.91
269.146	9940.4
269.215	9936.74
269.284	9938.86
269.353	9919.98
269.422	9907.5
269.492	9886.79
269.561	9849.17
269.63	9841.03
269.699	9828.41
269.768	9819.02
269.838	9808.23
269.907	9810.98
269.976	9779.77
270.045	9741.04
270.114	9736.28
270.183	9720.24
270.253	9716.43
270.322	9684.36
270.391	9672.08
270.46	9685.52
270.529	9684.46
270.598	9683.11
270.667	9668.32
270.736	9637.73
270.806	9629.69
270.875	9637.59
270.944	9625.21
271.013	9655.07
271.082	9652.33
271.151	9645.78
271.22	9611.4
271.289	9603.26
271.358	9586.74
271.427	9587.6
271.496	9583.08
271.565	9567.62
271.634	9563.72
271.703	9590.88
271.772	9591.56
271.841	9587.95
271.91	9555.68
271.979	9542.39
272.048	9517.78
272.117	9516.19
272.186	9502.51
272.255	9504.97
272.324	9498.71
272.393	9495.87
272.462	9475.2
272.531	9465.76
272.6	9458.3
272.669	9471.01
272.738	9453.72
272.807	9447.94
272.876	9426.85
272.945	9455.07
273.013	9464.22
273.082	9468.17
273.151	9417.89
273.22	9421.21
273.289	9411.97
273.358	9421.69
273.427	9411.25
273.496	9405.27
273.564	9406.82
273.633	9408.89
273.702	9384.76
273.771	9372.63
273.84	9368.39
273.909	9361.21
273.977	9356.25
274.046	9348.26
274.115	9348.26
274.184	9339.59
274.253	9332.37
274.322	9341.09
274.39	9309.11
274.459	9288.84
274.528	9258.51
274.597	9251.62
274.665	9244.64
274.734	9252.73
274.803	9243.77
274.872	9236.12
274.94	9227.93
275.009	9286.75
275.078	9276.93
275.147	9281.21
275.215	9274.86
275.284	9277.46
275.353	9268.94
275.421	9243.76
275.49	9259.5
275.559	9245.59
275.627	9243.32
275.696	9230.28
275.765	9229.51
275.833	9219.3
275.902	9221.23
275.971	9237.5
276.039	9249.78
276.108	9249.92
276.177	9250.16
276.245	9234.47
276.314	9230.66
276.383	9237.35
276.451	9165.29
276.52	9164.57
276.588	9173.77
276.657	9176.32
276.725	9168.13
276.794	9163.8
276.863	9175.84
276.931	9148.77
277	9161.29
277.068	9164.76
277.137	9188.21
277.205	9186.81
277.274	9205.92
277.342	9212.67
277.411	9191.58
277.48	9177.86
277.548	9169.14
277.617	9162.02
277.685	9157.97
277.754	9162.11
277.822	9150.03
277.89	9161.59
277.959	9156.92
278.027	9130.34
278.096	9123.94
278.164	9150.42
278.233	9145.46
278.301	9134.63
278.37	9138.34
278.438	9120.33
278.507	9123.99
278.575	9094.52
278.643	9081.72
278.712	9061.69
278.78	9041.52
278.849	9057.02
278.917	9065.88
278.985	9063.47
279.054	9069.49
279.122	9083.55
279.191	9086.34
279.259	9082.92
279.327	9057.4
279.396	9071.7
279.464	9077.43
279.532	9081.23
279.601	9078.92
279.669	9071.22
279.737	9084.02
279.806	9087.44
279.874	9098.61
279.942	9090.38
280.011	9082.2
280.079	9097.6
280.147	9120.18
280.215	9126.06
280.284	9116.86
280.352	9104.49
280.42	9105.21
280.488	9094.86
280.557	9088.89
280.625	9088.55
280.693	9090.86
280.761	9092.55
280.83	9075.94
280.898	9086.29
280.966	9058.17
281.034	9020.33
281.102	9008.35
281.171	9000.21
281.239	9008.01
281.307	8998.09
281.375	8988.13
281.443	9012.78
281.512	8998.24
281.58	9001.65
281.648	8987.69
281.716	8986.54
281.784	8985.67
281.852	8979.08
281.92	8973.49
281.989	8978.64
282.057	8959.82
282.125	9003.74
282.193	9006.72
282.261	9004.22
282.329	9001.62
282.397	9010.38
282.465	9017.7
282.533	9033.1
282.601	9026.41
282.67	8997.47
282.738	8993.86
282.806	9005.32
282.874	8992.51
282.942	9004.45
283.01	8997.61
283.078	9005.56
283.146	9002.67
283.214	9015.43
283.282	9014.95
283.35	9030.98
283.418	9022.94
283.486	9028.04
283.554	8984.46
283.622	8985.18
283.69	8987.3
283.758	8980.75
283.826	8984.99
283.894	8993.9
283.962	9022.06
284.03	9034.82
284.098	9047.43
284.165	9037.76
284.233	9042.19
284.301	9040.69
284.369	9027.89
284.437	9016.05
284.505	9005.21
284.573	9018.93
284.641	9001.51
284.709	9015.28
284.777	8995.44
284.845	9004.49
284.912	9010.51
284.98	9012.15
285.048	9004.2
285.116	9006.61
285.184	9018.21
285.252	9019.85
285.319	8999.34
285.387	8984.66
285.455	8964.82
285.523	8963.23
285.591	8963.76
285.659	8965.59
285.726	8976.47
285.794	8963.62
285.862	8965.07
285.93	8973.59
285.997	8969.73
286.065	8966.32
286.133	8954.76
286.201	8952.11
286.269	8931.17
286.336	8925.2
286.404	8918.37
286.472	8929.1
286.539	8906.34
286.607	8886.17
286.675	8883.04
286.743	8892.95
286.81	8884.72
286.878	8898.25
286.946	8893.96
287.013	8893.91
287.081	8889.73
287.149	8875.62
287.216	8898.1
287.284	8884.67
287.352	8880.82
287.419	8876.78
287.487	8899.64
287.555	8901.14
287.622	8898.2
287.69	8909.9
287.758	8917.65
287.825	8919
287.893	8899.26
287.96	8910.18
288.028	8920.87
288.096	8927.66
288.163	8929.97
288.231	8915.24
288.298	8921.98
288.366	8926.7
288.433	8921.79
288.501	8916.49
288.569	8921.59
288.636	8914.57
288.704	8933.92
288.771	8942.05
288.839	8932.47
288.906	8918.03
288.974	8924.82
289.041	8919.33
289.109	8909.85
289.176	8923.43
289.244	8921.6
289.311	8938.69
289.379	8949.52
289.446	8949.85
289.514	8951.83
289.581	8953.56
289.649	8954.67
289.716	8945.66
289.783	8940.66
289.851	8961.5
289.918	8956.16
289.986	8964.68
290.053	8974.69
290.121	8972.57
290.188	8971.61
290.255	9002.23
290.323	8999.53
290.39	9001.12
290.458	9015.47
290.525	9028.99
290.592	9015.99
290.66	9021.87
290.727	9018.88
290.794	9035.4
290.862	9038.24
290.929	9034.1
290.996	9032.99
291.064	9051.76
291.131	9069.96
291.198	9084.74
291.266	9081.95
291.333	9086.23
291.4	9091.48
291.468	9104.43
291.535	9101.98
291.602	9106.31
291.669	9100.1
291.737	9100.63
291.804	9096.39
291.871	9114.35
291.938	9122.06
292.006	9154.32
292.073	9169.19
292.14	9175.98
292.207	9158.46
292.275	9163.08
292.342	9180.12
292.409	9209.16
292.476	9227.99
292.543	9219.9
292.611	9223.94
292.678	9245.99
292.745	9269.54
292.812	9277.48
292.879	9273.97
292.946	9282.87
293.014	9299.25
293.081	9308.83
293.148	9324.96
293.215	9346.77
293.282	9337.23
293.349	9343.4
293.416	9318.21
293.484	9328.18
293.551	9346.57
293.618	9366.89
293.685	9393.43
293.752	9381.53
293.819	9377.63
293.886	9364.01
293.953	9368.92
294.02	9382.5
294.087	9388.8
294.154	9385.67
294.221	9400.07
294.288	9401.04
294.356	9418.23
294.423	9425.11
294.49	9413.51
294.557	9426.75
294.624	9407.44
294.691	9430.51
294.758	9434.22
294.825	9442.4
294.892	9435.8
294.959	9429.11
295.026	9434.31
295.093	9422.42
295.16	9426.08
295.226	9425.06
295.293	9453.67
295.36	9462.39
295.427	9469.08
295.494	9482.08
295.561	9492.05
295.628	9519.7
295.695	9528.42
295.762	9529.62
295.829	9541.86
295.896	9565.74
295.963	9575.42
296.03	9590.2
296.096	9597.38
296.163	9612.7
296.23	9629.7
296.297	9641.74
296.364	9639.62
296.431	9656.57
296.498	9652.62
296.564	9681.71
296.631	9684.02
296.698	9667.4
296.765	9685.61
296.832	9678.43
296.899	9662.35
296.965	9676.89
297.032	9646.35
297.099	9667.59
297.166	9676.65
297.233	9666.15
297.299	9650.11
297.366	9651.27
297.433	9657.86
297.5	9671.11
297.566	9664.08
297.633	9667.45
297.7	9668.22
297.767	9668.6
297.833	9664.7
297.9	9669.95
297.967	9651.99
298.033	9668.89
298.1	9703.96
298.167	9691.49
298.234	9696.25
298.3	9702.51
298.367	9702.42
298.434	9712.34
298.5	9698.56
298.567	9690.76
298.634	9691.1
298.7	9710.36
298.767	9712.34
298.834	9727.07
298.9	9714.6
298.967	9710.79
299.033	9719.27
299.1	9740.9
299.167	9759.2
299.233	9759.05
299.3	9773.41
299.366	9791.85
299.433	9811.27
299.5	9784.92
299.566	9792.04
299.633	9808.9
299.699	9820.8
299.766	9816.37
299.832	9826.87
299.899	9843.1
299.965	9856.25
300.032	9850.23
300.099	9866.71
300.165	9872.87
300.232	9869.31
300.298	9873.88
300.365	9891.94
300.431	9896.23
300.498	9886.12
300.564	9892.09
300.631	9904.18
300.697	9927.49
300.763	9923.45
300.83	9914.44
300.896	9923.54
300.963	9933.56
301.029	9935.92
301.096	9946.81
301.162	9955.14
301.229	9946.32
301.295	9928.17
301.361	9935.25
301.428	9947.09
301.494	9926.48
301.561	9937.61
301.627	9937.56
301.693	9940.06
301.76	9943.68
301.826	9931.39
301.892	9950.52
301.959	9963.81
302.025	9961.88
302.092	9949.99
302.158	9958.99
302.224	9961.74
302.291	9953.79
302.357	9951.91
302.423	9941.65
302.49	9929.03
302.556	9939.68
302.622	9942.71
302.688	9965.11
302.755	9978.36
302.821	9988.81
302.887	9996.9
302.954	9990.78
303.02	9999.55
303.086	10000.85
303.152	9999.79
303.219	9998.97
303.285	9996.08
303.351	10005.86
303.417	10014.2
303.483	10004.13
303.55	10001.96
303.616	10001.48
303.682	10004.76
303.748	9999.75
303.815	10022.53
303.881	10035.3
303.947	10028.99
304.013	10031.64
304.079	10012.42
304.145	9981.3
304.212	9971.13
304.278	9968.24
304.344	9962.13
304.41	9950.23
304.476	9942.86
304.542	9932.94
304.608	9939.3
304.674	9917.48
304.741	9910.44
304.807	9902.88
304.873	9911.16
304.939	9924.51
305.005	9903.99
305.071	9900.09
305.137	9903.79
305.203	9876.63
305.269	9876.53
305.335	9884.48
305.401	9879.13
305.467	9883.9
305.533	9903.36
305.599	9914.73
305.666	9922.38
305.732	9924.79
305.798	9937.94
305.864	9969.26
305.93	9979.66
305.996	9980.29
306.062	9985.49
306.128	9973.88
306.194	9963.76
306.259	9961.45
306.325	9950.76
306.391	9962.89
306.457	9973.78
306.523	9970.31
306.589	9995.84
306.655	9977.63
306.721	9959.47
306.787	9945.84
306.853	9960.49
306.919	9948.4
306.985	9944.54
307.051	9938.52
307.117	9923.93
307.183	9913.76
307.248	9880.91
307.314	9883.95
307.38	9883.08
307.446	9898.98
307.512	9889.15
307.578	9893.39
307.644	9887.85
307.709	9889.68
307.775	9882.6
307.841	9877.68
307.907	9885.1
307.973	9858.42
308.039	9865.01
308.104	9870.84
308.17	9870.22
308.236	9851.91
308.302	9855.86
308.368	9836.07
308.433	9841.17
308.499	9845.36
308.565	9834.14
308.631	9837.8
308.696	9808.23
308.762	9797.49
308.828	9793.1
308.894	9774.18
308.959	9748.6
309.025	9737.91
309.091	9728.47
309.156	9721.01
309.222	9725.68
309.288	9710.02
309.354	9693.75
309.419	9690.04
309.485	9670.82
309.551	9681.9
309.616	9671.45
309.682	9663.11
309.748	9666.77
309.813	9653.63
309.879	9636.87
309.945	9625.93
310.01	9619.53
310.076	9623
310.141	9618.66
310.207	9594.19
310.273	9598.24
310.338	9606.81
310.404	9591.16
310.469	9581.48
310.535	9578.3
310.601	9551.76
310.666	9554.99
310.732	9575.02
310.797	9562.65
310.863	9557.01
310.928	9549.69
310.994	9552.92
311.059	9545.89
311.125	9539
311.191	9551.72
311.256	9544.69
311.322	9551.76
311.387	9527.06
311.453	9821.3
311.518	9793.28
311.584	9794.62
311.649	9801.61
311.715	9789.62
311.78	9792.12
311.846	9786.63
311.911	9788.8
311.976	9792.99
312.042	9777.82
312.107	9752.49
312.173	9746.42
312.238	9740.01
312.304	9735.1
312.369	9720.94
312.434	9711.99
312.5	9703.17
312.565	9668.02
312.631	9676.16
312.696	9667.78
312.761	9669.95
312.827	9366.6
312.892	9407.3
312.958	9401.47
313.023	9398.82
313.088	9402.72
313.154	9394.73
313.219	9378.02
313.284	9366.99
313.35	9364.29
313.415	9354.95
313.48	9343.25
313.546	9346.67
313.611	9356.88
313.676	9339.98
313.741	9332.95
313.807	9341.52
313.872	9350.04
313.937	9358.33
314.003	9365.31
314.068	9368.63
314.133	9382.64
314.198	9373.83
314.264	9352.5
314.329	9346.14
314.394	9341.85
314.459	9333.38
314.525	9350.76
314.59	9346.62
314.655	9335.69
314.72	9342.58
314.785	9345.66
314.851	9352.3
314.916	9331.21
314.981	9313.11
315.046	9307.62
315.111	9296.98
315.176	9284.61
315.242	9283.64
315.307	9278.97
315.372	9261.01
315.437	9247.43
315.502	9232.94
315.567	9246.28
315.632	9232.5
315.698	9233.61
315.763	9233.66
315.828	9228.89
315.893	9226.05
315.958	9230.72
316.023	9223.26
316.088	9198.32
316.153	9174.59
316.218	9164.48
316.283	9145.61
316.348	9128.37
316.413	9128.37
316.479	9111.57
316.544	9072.87
316.609	9045.19
316.674	9011.49
316.739	8971.69
316.804	8943.91
316.869	8908.39
316.934	8865.88
316.999	8835.61
317.064	8780.98
317.129	8729.04
317.194	8692.51
317.259	8636.48
317.324	8579.89
317.389	8534.79
317.454	8497.4
317.518	8467.37
317.583	8438.02
317.648	8415.59
317.713	8385.57
317.778	8319.64
317.843	8290.25
317.908	8257.97
317.973	8215.43
318.038	8190.46
318.103	8153.23
318.168	8121.05
318.233	8094.49
318.297	8045.82
318.362	8004.11
318.427	7969.92
318.492	7947.69
318.557	7898.26
318.622	7871.27
318.687	7850.45
318.751	7809.3
318.816	7775.49
318.881	7738.65
318.946	7687.25
319.011	7644.69
319.075	7599.59
319.14	7571.18
319.205	7530.31
319.27	7493.49
319.335	7450.42
319.399	7413.88
319.464	7389.08
319.529	7332.12
319.594	7284.97
319.658	7260.65
319.723	7224.85
319.788	7197.36
319.853	7136.56
319.917	7108.99
319.982	7055.84
320.047	7018.07
320.112	6991.6
320.176	6936.74
320.241	6902.05
320.306	6874.14
320.37	6829.95
320.435	6799.01
320.5	6770.24
320.564	6731.77
320.629	6691.96
320.694	6659.49
320.758	6609.93
320.823	6566.28
320.888	6542.86
320.952	6500.51
321.017	6452.4
321.082	6405.26
321.146	6365.03
321.211	6336.28
321.275	6294.57
321.34	6250.62
321.405	6204.83
321.469	6159.82
321.534	6124.32
321.598	6071.35
321.663	6035.88
321.727	6007.09
321.792	5958.59
321.857	5909.74
321.921	5868.83
321.986	5825.62
322.05	5762.13
322.115	5723.76
322.179	5681.81
322.244	5623.56
322.308	5589.08
322.373	5545.08
322.437	5511.42
322.502	5484.61
322.566	5436.44
322.631	5399.77
322.695	5364.5
322.76	5320.85
322.824	5287.11
322.889	5243.23
322.953	5202.09
323.018	5134.25
323.082	5068.05
323.146	5015.04
323.211	4959.3
323.275	4916.63
323.34	4870.1
323.404	4837.5
323.468	4788.62
323.533	4740.42
323.597	4696.31
323.662	4640.64
323.726	4605.08
323.79	4554.78
323.855	4487.57
323.919	4436.95
323.983	4389.87
324.048	4317.62
324.112	4496.19
324.177	4360.27
324.241	4135.42
324.305	3915.26
324.37	3700.74
324.434	3491.87
324.498	3447.75
324.562	3399.57
324.627	3334.31
324.691	3276.2
324.755	3210.02
324.82	3133.95
324.884	3056.4
324.948	2980.97
325.012	2885.87
325.077	2755.22
