Data from 20250703_urea_0.1M_MAYP1162681_02-41-05-249.txt Node
Date: Fri Jul 04 02:41:05 BST 2025
User: adleo
Spectrometer: MAYP116268
Trigger mode: 0
Integration Time (sec): 1.000000E0
Scans to average: 1
Electric dark correction enabled: true
Nonlinearity correction enabled: true
Boxcar width: 10
XAxis mode: Wavelengths
Number of Pixels in Spectrum: 2068
>>>>>Begin Spectral Data<<<<<
179.565	1317.72
179.642	1377.01
179.718	1425.25
179.795	1471.38
179.871	1509.96
179.948	1526.87
180.024	1551.6
180.101	1574.02
180.177	1589.36
180.254	1613.3
180.33	1637.33
180.407	1701.3
180.483	1804.4
180.56	1903.42
180.636	1996.01
180.712	1981.22
180.789	1993.29
180.865	2006.41
180.942	2016.11
181.018	2028.57
181.095	2040.56
181.171	2048.93
181.248	2052.36
181.324	2070.68
181.4	2077.53
181.477	2087.33
181.553	2103.92
181.63	2125.33
181.706	2145.21
181.782	2154.58
181.859	2156.06
181.935	2160.96
182.011	2155.34
182.088	2175.28
182.164	2195.7
182.24	2209.54
182.317	2220.76
182.393	2217.81
182.469	2233.8
182.546	2248.84
182.622	2251.88
182.698	2248.03
182.775	2256.97
182.851	2274.06
182.927	2265.44
183.003	2259.21
183.08	2254.02
183.156	2259.07
183.232	2251.6
183.308	2238.13
183.385	2246.64
183.461	2266.82
183.537	2268.63
183.613	2281.81
183.69	2270.77
183.766	2260.11
183.842	2267.68
183.918	2274.86
183.995	2288.8
184.071	2292.18
184.147	2286
184.223	2274.77
184.299	2287.95
184.375	2278.2
184.452	2282.39
184.528	2330.56
184.604	2341.17
184.68	2350.83
184.756	2362.87
184.832	2370.25
184.908	2376.19
184.985	2375.1
185.061	2358.2
185.137	2371.34
185.213	2361.2
185.289	2361.44
185.365	2352.93
185.441	2350.02
185.517	2361.93
185.593	2358.97
185.669	2357.97
185.745	2368.83
185.822	2386.24
185.898	2376.82
185.974	2386.76
186.05	2379.05
186.126	2347.3
186.202	2342.97
186.278	2342.07
186.354	2331.74
186.43	2338.31
186.506	2335.5
186.582	2336.55
186.658	2340.93
186.734	2313.52
186.81	2314.9
186.886	2320.04
186.962	2335.46
187.038	2333.41
187.114	2326.12
187.19	2334.26
187.266	2322.41
187.341	2324.03
187.417	2317.13
187.493	2317.75
187.569	2319.13
187.645	2315.9
187.721	2303.42
187.797	2310.04
187.873	2310.61
187.949	2303.47
188.025	2296.04
188.101	2299.23
188.176	2301.9
188.252	2296.81
188.328	2308.13
188.404	2306.84
188.48	2300.42
188.556	2291.52
188.632	2291.42
188.707	2290.47
188.783	2286.09
188.859	2280
188.935	2267.67
189.011	2275.05
189.086	2267.67
189.162	2258.15
189.238	2247.5
189.314	2245.26
189.39	2236.93
189.465	2232.32
189.541	2250.69
189.617	2237.27
189.693	2233.75
189.768	2238.79
189.844	2265.36
189.92	2256.56
189.996	2268.17
190.071	2282.4
190.147	2282.07
190.223	2287.97
190.298	2281.78
190.374	2268.74
190.45	2282.92
190.526	2292.92
190.601	2287.63
190.677	2289.01
190.753	2317.15
190.828	2326.95
190.904	2338.47
190.98	2354.09
191.055	2365.89
191.131	2354.8
191.207	2377.55
191.282	2387.3
191.358	2375.93
191.433	2357.12
191.509	2373.11
191.585	2368.3
191.66	2369.49
191.736	2377.39
191.811	2369.11
191.887	2386.11
191.963	2410.01
192.038	2415.29
192.114	2412
192.189	2417.95
192.265	2415.91
192.34	2394.91
192.416	2392.1
192.491	2388.1
192.567	2391.96
192.642	2394.19
192.718	2396
192.793	2381.96
192.869	2377.87
192.944	2384.1
193.02	2395.57
193.095	2398.62
193.171	2405.52
193.246	2405.71
193.322	2402.86
193.397	2404.57
193.473	2389.05
193.548	2371.1
193.624	2379.71
193.699	2378.91
193.775	2396.91
193.85	2399.67
193.925	2409.67
194.001	2407.76
194.076	2402.76
194.152	2392.53
194.227	2384.67
194.302	2375.11
194.378	2380.68
194.453	2379.68
194.529	2392.87
194.604	2377.44
194.679	2369.64
194.755	2349.79
194.83	2362.46
194.905	2360.51
194.981	2371.94
195.056	2365.23
195.131	2371.7
195.207	2367.7
195.282	2360.8
195.357	2338.32
195.433	2353.55
195.508	2340.6
195.583	2347.6
195.659	2364.83
195.734	2376.41
195.809	2375.6
195.884	2382.92
195.96	2382.64
196.035	2397.35
196.11	2391.59
196.185	2403.82
196.261	2407.34
196.336	2439.85
196.411	2425.71
196.486	2431.51
196.561	2425.13
196.637	2433.32
196.712	2451.23
196.787	2456.42
196.862	2468.7
196.937	2479.56
197.013	2486.6
197.088	2496.6
197.163	2523.27
197.238	2541.1
197.313	2536.67
197.388	2551.81
197.464	2585.44
197.539	2597.58
197.614	2588.44
197.689	2602.45
197.764	2620.22
197.839	2641.12
197.914	2634.12
197.989	2655.41
198.065	2670.85
198.14	2723.04
198.215	2751.87
198.29	2761.49
198.365	2774.65
198.44	2789.22
198.515	2820.92
198.59	2835.36
198.665	2863.76
198.74	2871.67
198.815	2871.63
198.89	2894.26
198.965	2927.97
199.04	2923.35
199.115	2939.5
199.19	2985.49
199.265	2990.21
199.34	2999.75
199.415	3040.58
199.49	3068.99
199.565	3079.33
199.64	3100.89
199.715	3098.4
199.79	3107.7
199.865	3113.62
199.94	3108.94
200.015	3140.42
200.09	3144.19
200.165	3148.96
200.24	3157.36
200.315	3201.47
200.39	3222.18
200.464	3232.24
200.539	3231.33
200.614	3250.93
200.689	3278.32
200.764	3290.63
200.839	3309.56
200.914	3317.34
200.989	3303.92
201.063	3317.48
201.138	3298.93
201.213	3304.23
201.288	3281.81
201.363	3287.2
201.438	3291.44
201.512	3311.04
201.587	3295.34
201.662	3295.92
201.737	3313.57
201.812	3320.68
201.886	3288.35
201.961	3295.94
202.036	3282.35
202.111	3278.05
202.186	3246.92
202.26	3226.16
202.335	3198.25
202.41	3188.9
202.485	3173.17
202.559	3154.09
202.634	3124.9
202.709	3136.1
202.784	3114.35
202.858	3121.69
202.933	3107.81
203.008	3103.66
203.082	3084.21
203.157	3086.02
203.232	3050.03
203.306	3033.67
203.381	3005.63
203.456	2981.02
203.53	2963.22
203.605	2950.02
203.68	2935.14
203.754	2938.61
203.829	2933.89
203.904	2926.07
203.978	2927.51
204.053	2944.15
204.127	2943.05
204.202	2958.02
204.277	2958.21
204.351	2971.28
204.426	2978
204.5	2984.35
204.575	2970.95
204.65	3006.01
204.724	3020.09
204.799	3054.74
204.873	3075.73
204.948	3103.11
205.022	3124.9
205.097	3147.34
205.171	3196.75
205.246	3242.38
205.32	3275.57
205.395	3308.98
205.469	3342.27
205.544	3389.83
205.618	3414.32
205.693	3477.63
205.767	3511.52
205.842	3583.17
205.916	3629.11
205.991	3677.44
206.065	3740.17
206.14	3816.85
206.214	3874.7
206.289	3931.73
206.363	4011.03
206.438	4079.36
206.512	4161.18
206.586	4251.97
206.661	4330.97
206.735	4385.29
206.81	4458.47
206.884	4553.61
206.958	4627.86
207.033	4729.79
207.107	4822.42
207.181	4941.9
207.256	5017.43
207.33	5132.14
207.405	5236.17
207.479	5348.67
207.553	5452.8
207.628	5529.9
207.702	5635.93
207.776	5729.06
207.851	5829.62
207.925	5944.2
207.999	6043.02
208.073	6138.84
208.148	6243.47
208.222	6337.36
208.296	6476.44
208.371	6609.39
208.445	6734.87
208.519	6877.32
208.593	6998.66
208.668	7103.75
208.742	7214.64
208.816	7334.85
208.89	7459.51
208.965	7575.17
209.039	7696.68
209.113	7826.75
209.187	7965.72
209.261	8072.14
209.336	8207.11
209.41	8349.75
209.484	8468.23
209.558	8610.8
209.632	8741.49
209.707	8871.58
209.781	9020.55
209.855	9149.33
209.929	9286.68
210.003	9404.59
210.077	9515.25
210.151	9684.07
210.226	9841.95
210.3	9994.41
210.374	10130.22
210.448	10246.22
210.522	10367.09
210.596	10494.95
210.67	10620.17
210.744	10784.13
210.818	10937.33
210.892	11072.5
210.966	11178.17
211.041	11306.07
211.115	11413.68
211.189	11547.94
211.263	11670.35
211.337	11779.32
211.411	11907.05
211.485	12004.7
211.559	12125.05
211.633	12233.45
211.707	12301.85
211.781	12416.72
211.855	12481.27
211.929	12575.36
212.003	12662.94
212.077	12772.61
212.151	12889.99
212.225	12997.68
212.299	13085.65
212.373	13170.64
212.447	13264.54
212.52	13390.75
212.594	13487.11
212.668	13601.21
212.742	13684.8
212.816	13782.23
212.89	13861.62
212.964	13956.15
213.038	14050.39
213.112	14163
213.186	14279.18
213.26	14342.33
213.333	14380.26
213.407	14484.82
213.481	14576.8
213.555	14676
213.629	14759.01
213.703	14826.59
213.777	14909.21
213.85	14980.8
213.924	15100.77
213.998	15184.74
214.072	15257.43
214.146	15321.25
214.219	15386.8
214.293	15465.61
214.367	15539.02
214.441	15637.35
214.515	15695.39
214.588	15748.6
214.662	15791.88
214.736	15837.43
214.81	15915.42
214.883	15996.59
214.957	16051.78
215.031	16118.54
215.105	16168.08
215.178	16225.44
215.252	16285.45
215.326	16325.35
215.4	16358.61
215.473	16372.97
215.547	16412.16
215.621	16455.53
215.694	16528.84
215.768	16573.04
215.842	16619.3
215.915	16672.46
215.989	16702.15
216.063	16759.26
216.136	16816.28
216.21	16868.18
216.284	16942.93
216.357	17005.39
216.431	17066.65
216.504	17130.17
216.578	17207.23
216.652	17275.04
216.725	17330.65
216.799	17389.11
216.873	17449.69
216.946	17518.65
217.02	17569.84
217.093	17617.93
217.167	17653.02
217.24	17685.06
217.314	17727.14
217.387	17769.69
217.461	17808.1
217.535	17880.05
217.608	17918.12
217.682	17960.77
217.755	18017.54
217.829	18054.31
217.902	18107.7
217.976	18147.36
218.049	18187.17
218.123	18219.31
218.196	18269.57
218.27	18312.85
218.343	18345.96
218.417	18395.06
218.49	18443.64
218.563	18511.06
218.637	18572.35
218.71	18652.35
218.784	18711.53
218.857	18780.1
218.931	18830.07
219.004	18883.28
219.077	18922.17
219.151	18970.98
219.224	19020.62
219.298	19062.64
219.371	19124.76
219.444	19161.57
219.518	19202.29
219.591	19247.54
219.665	19318.77
219.738	19359.68
219.811	19386.67
219.885	19433.41
219.958	19483.14
220.031	19518.37
220.105	19570.42
220.178	19605.4
220.251	19635.81
220.325	19682.41
220.398	19726.31
220.471	19775.32
220.544	19821.15
220.618	19859.32
220.691	19911.94
220.764	19952.33
220.838	19996.37
220.911	20016.52
220.984	20068.08
221.057	20127.6
221.131	20168.9
221.204	20167.69
221.277	20228.8
221.35	20300.61
221.424	20344.8
221.497	20380.22
221.57	20421.62
221.643	20449.23
221.716	20504.46
221.79	20531.4
221.863	20563.07
221.936	20597.48
222.009	20628.61
222.082	20661.96
222.155	20687.79
222.229	20731.31
222.302	20770.88
222.375	20798.54
222.448	20826.88
222.521	20855.75
222.594	20870.01
222.667	20885.82
222.74	20936.86
222.814	20955.66
222.887	20978.07
222.96	21017.83
223.033	21053.5
223.106	21080.78
223.179	21111.24
223.252	21128.68
223.325	21150.9
223.398	21180.01
223.471	21193.22
223.544	21224.31
223.617	21256.31
223.69	21283.64
223.763	21280.26
223.837	21300.89
223.91	21335.11
223.983	21347.26
224.056	21353.77
224.129	21383.31
224.202	21410.64
224.275	21411.99
224.348	21414.25
224.42	21410.78
224.493	21401.62
224.566	21402.06
224.639	21423.65
224.712	21437.49
224.785	21446.11
224.858	21459.56
224.931	21458.5
225.004	21462.36
225.077	21467.42
225.15	21454.16
225.223	21466.74
225.296	21509.45
225.369	21507.42
225.442	21498.75
225.514	21515.28
225.587	21534.61
225.66	21531.96
225.733	21547.82
225.806	21561.84
225.879	21576.2
225.952	21576.45
226.025	21601.08
226.097	21630.24
226.17	21633.76
226.243	21619.78
226.316	21618.72
226.389	21629.27
226.461	21646.1
226.534	21658.53
226.607	21669.86
226.68	21685.04
226.753	21685.48
226.825	21658.43
226.898	21679.69
226.971	21678.78
227.044	21686.34
227.117	21678.39
227.189	21690.54
227.262	21705.58
227.335	21714.06
227.407	21709.87
227.48	21714.97
227.553	21707.79
227.626	21693.48
227.698	21695.5
227.771	21697.81
227.844	21696.66
227.916	21688.22
227.989	21665.57
228.062	21668.51
228.134	21684.27
228.207	21687.84
228.28	21676.56
228.352	21670.77
228.425	21656.02
228.498	21672.75
228.57	21659.16
228.643	21681.38
228.716	21671.83
228.788	21648.17
228.861	21637.8
228.934	21649.85
229.006	21645.42
229.079	21646
229.151	21632.31
229.224	21612.93
229.296	21608.35
229.369	21628.26
229.442	21640.75
229.514	21644.65
229.587	21647.88
229.659	21614.57
229.732	21610.57
229.804	21617.95
229.877	21640.84
229.949	21651.11
230.022	21657.09
230.094	21656.17
230.167	21656.65
230.239	21644.65
230.312	21644.8
230.384	21665.14
230.457	21653.62
230.529	21661.09
230.602	21656.22
230.674	21663.64
230.747	21667.84
230.819	21681.77
230.892	21637.86
230.964	21630.77
231.037	21630.63
231.109	21616.5
231.181	21618.24
231.254	21591.2
231.326	21584.16
231.399	21560.4
231.471	21542.42
231.544	21515.04
231.616	21522.9
231.688	21509.11
231.761	21490.89
231.833	21470.84
231.905	21429.24
231.978	21420.09
232.05	21391.02
232.122	21375.84
232.195	21352.17
232.267	21355.02
232.339	21327.4
232.412	21333.38
232.484	21316.07
232.556	21288.41
232.629	21294.14
232.701	21293.71
232.773	21285.61
232.846	21259.35
232.918	21249.8
232.99	21242.52
233.062	21237.51
233.135	21215.48
233.207	21180.06
233.279	21177.5
233.351	21178.18
233.424	21154.8
233.496	21120.1
233.568	21126.27
233.64	21099.04
233.713	21081.11
233.785	21049.45
233.857	21031.62
233.929	20983.57
234.001	20985.88
234.074	20975.23
234.146	20920.57
234.218	20894.45
234.29	20873
234.362	20852.43
234.434	20810.35
234.507	20761.58
234.579	20709.82
234.651	20682.35
234.723	20662.78
234.795	20636.71
234.867	20601.09
234.939	20595.89
235.012	20578.34
235.084	20556.75
235.156	20534.92
235.228	20508.51
235.3	20484.85
235.372	20464.12
235.444	20461.81
235.516	20413.18
235.588	20388.27
235.66	20384.51
235.732	20344.41
235.804	20383.93
235.876	20359.07
235.948	20354.49
236.02	20330.05
236.092	20306.68
236.164	20278.83
236.236	20251.45
236.308	20219.84
236.38	20190.78
236.452	20156.03
236.524	20140.56
236.596	20133.43
236.668	20116.23
236.74	20085.24
236.812	20058.69
236.884	20036.91
236.956	20006.01
237.028	19958.79
237.1	19924.09
237.172	19910.16
237.244	19902.4
237.316	19835.61
237.388	19802.69
237.46	19767.8
237.532	19756.53
237.604	19717.3
237.675	19710.65
237.747	19695.86
237.819	19666.56
237.891	19638.75
237.963	19594.37
238.035	19546.85
238.107	19472.98
238.178	19454.28
238.25	19423.29
238.322	19413.03
238.394	19363.87
238.466	19331.59
238.538	19310.82
238.609	19285.08
238.681	19229.62
238.753	19187.45
238.825	19154.01
238.897	19125.48
238.968	19111.36
239.04	19074.69
239.112	19085.91
239.184	19023.6
239.255	18972.09
239.327	18936.57
239.399	18907.32
239.471	18893.78
239.542	18869.11
239.614	18860.77
239.686	18798.56
239.758	18771.19
239.829	18727.62
239.901	18708.11
239.973	18684.06
240.044	18661.07
240.116	18625.94
240.188	18589.51
240.259	18560.45
240.331	18519.44
240.403	18501.32
240.474	18442.19
240.546	18400.32
240.618	18335.93
240.689	18309.57
240.761	18287.31
240.833	18279.5
240.904	18236.81
240.976	18195.7
241.048	18168.04
241.119	18137.2
241.191	18113.53
241.262	18103.27
241.334	18064.24
241.405	18021.88
241.477	17975.8
241.549	17943.66
241.62	17913.54
241.692	17888.72
241.763	17866.03
241.835	17822.8
241.906	17778.56
241.978	17735.91
242.049	17712.29
242.121	17695.43
242.192	17666.61
242.264	17620.39
242.335	17569.21
242.407	17543.14
242.478	17504.39
242.55	17474.03
242.621	17427.09
242.693	17390.9
242.764	17345.21
242.836	17308.59
242.907	17287.28
242.979	17262.71
243.05	17226.75
243.122	17203.43
243.193	17166.13
243.264	17105.88
243.336	17080.53
243.407	17062.8
243.479	17043.95
243.55	17021.54
243.622	16987.66
243.693	16961.49
243.764	16938.41
243.836	16893.15
243.907	16863.61
243.978	16836.09
244.05	16806.16
244.121	16749.72
244.192	16729.38
244.264	16681.19
244.335	16651.11
244.407	16601.71
244.478	16566.82
244.549	16525.08
244.62	16463.68
244.692	16433.22
244.763	16412.69
244.834	16373.55
244.906	16332.29
244.977	16311.09
245.048	16282.41
245.119	16242.6
245.191	16195.12
245.262	16146.73
245.333	16137.67
245.405	16109.96
245.476	16077.38
245.547	16046.48
245.618	16037.28
245.689	16010.81
245.761	15991.97
245.832	15960.21
245.903	15937.7
245.974	15910.03
246.045	15886.12
246.117	15879.47
246.188	15829.78
246.259	15785.43
246.33	15748.32
246.401	15705.71
246.473	15657.03
246.544	15626.23
246.615	15602.8
246.686	15577.35
246.757	15558.94
246.828	15503.94
246.899	15477.29
246.97	15426.38
247.042	15380.98
247.113	15356.2
247.184	15325.4
247.255	15283.13
247.326	15244.86
247.397	15215.12
247.468	15188.56
247.539	15156.36
247.61	15119.58
247.681	15102.85
247.752	15085.26
247.823	15046.79
247.894	15033.15
247.965	14986.59
248.037	14946.24
248.108	14907.24
248.179	14870.22
248.25	14835.52
248.321	14821.49
248.392	14787.41
248.463	14790.49
248.534	14760.66
248.605	14736.6
248.675	14707.97
248.746	14691.1
248.817	14676.49
248.888	14653.45
248.959	14607.27
249.03	14583.55
249.101	14554.78
249.172	14520.36
249.243	14468.73
249.314	14460.05
249.385	14425.44
249.456	14410.98
249.527	14376.51
249.598	14350.96
249.669	14324.93
249.739	14309.46
249.81	14289.69
249.881	14240.52
249.952	14213.1
250.023	14181.42
250.094	14129.6
250.165	14092.53
250.235	14052.52
250.306	14029.34
250.377	13989.04
250.448	13966.86
250.519	13919.14
250.59	13896.91
250.66	13869.1
250.731	13865.87
250.802	13837.04
250.873	13809.71
250.944	13785.12
251.014	13752.73
251.085	13752.97
251.156	13729.35
251.227	13718.4
251.297	13706.02
251.368	13696.18
251.439	13677.96
251.51	13668.99
251.58	13638.24
251.651	13610.13
251.722	13603.43
251.792	13553.97
251.863	13526.01
251.934	13521.19
252.005	13527.94
252.075	13509.62
252.146	13500.94
252.217	13488.56
252.287	13473.03
252.358	13449.07
252.429	13443.48
252.499	13413.98
252.57	13386.98
252.641	13370.16
252.711	13339.36
252.782	13295.63
252.852	13292.5
252.923	13265.7
252.994	13248.29
253.064	13244.82
253.135	13212.04
253.205	13185.58
253.276	13185.19
253.347	13182.93
253.417	13149.04
253.488	13121.17
253.558	13095
253.629	13071.71
253.699	13050.46
253.77	13033.49
253.841	13010.88
253.911	12990.34
253.982	12975.01
254.052	12961.9
254.123	12945.75
254.193	12924.59
254.264	12940.5
254.334	12909.16
254.405	12878.31
254.475	12845.39
254.546	12820.85
254.616	12823.98
254.687	12805.76
254.757	12786.58
254.827	12757.32
254.898	12747.77
254.968	12723.48
255.039	12693.93
255.109	12677.3
255.18	12645.62
255.25	12600.31
255.321	12589.13
255.391	12558.76
255.461	12568.98
255.532	12518.65
255.602	12493.54
255.673	12447.99
255.743	12419.45
255.813	12375.82
255.884	12361.7
255.954	12347.77
256.024	12346.13
256.095	12320.97
256.165	12283.95
256.235	12270.89
256.306	12245.53
256.376	12230.73
256.446	12221.38
256.517	12209.57
256.587	12200.7
256.657	12183.83
256.728	12166.48
256.798	12138.47
256.868	12118.71
256.938	12078.7
257.009	12071.52
257.079	12062.6
257.149	12080.68
257.219	12037.49
257.29	12019.61
257.36	11981.34
257.43	11968.13
257.5	11925.95
257.571	11894
257.641	11885.51
257.711	11855.39
257.781	11855.97
257.852	11839.34
257.922	11799.52
257.992	11777.21
258.062	11751.32
258.132	11743.32
258.202	11728.67
258.273	11711.9
258.343	11706.16
258.413	11685.53
258.483	11665.19
258.553	11632.08
258.623	11595.4
258.693	11586.77
258.764	11593.38
258.834	11596.41
258.904	11579.93
258.974	11555.06
259.044	11541.28
259.114	11532.07
259.184	11512.26
259.254	11479.25
259.324	11442.52
259.394	11434.33
259.464	11439.34
259.535	11421.99
259.605	11400.44
259.675	11372.16
259.745	11365.94
259.815	11335.14
259.885	11303.96
259.955	11317.75
260.025	11288.35
260.095	11271.1
260.165	11252.2
260.235	11246.76
260.305	11210.71
260.375	11183.72
260.445	11192.78
260.515	11195.63
260.585	11185.99
260.655	11171.48
260.725	11163.1
260.795	11155.1
260.865	11158.85
260.934	11125.07
261.004	11117.75
261.074	11099.91
261.144	11101.5
261.214	11091.82
261.284	11075.14
261.354	11078.76
261.424	11041.5
261.494	11045.98
261.564	11032.44
261.634	11020.11
261.703	10977.65
261.773	10978.66
261.843	10970.42
261.913	10950.81
261.983	10916.4
262.053	10911.78
262.123	10901.51
262.192	10869.95
262.262	10857.28
262.332	10822.97
262.402	10819.26
262.472	10801.28
262.541	10761.72
262.611	10758.35
262.681	10735.32
262.751	10723.13
262.821	10702.12
262.89	10684.14
262.96	10674.65
263.03	10676.82
263.1	10672.96
263.169	10662.22
263.239	10642.13
263.309	10647.62
263.379	10634.03
263.448	10621.75
263.518	10604.01
263.588	10581.22
263.657	10589.17
263.727	10593.32
263.797	10579.06
263.867	10559.64
263.936	10531.5
264.006	10532.7
264.076	10511.07
264.145	10489.73
264.215	10475.71
264.285	10476.33
264.354	10441.4
264.424	10420.54
264.494	10388.21
264.563	10368.26
264.633	10376.36
264.702	10378.09
264.772	10341.23
264.842	10326.35
264.911	10310.11
264.981	10281.3
265.05	10265.79
265.12	10246.8
265.19	10224.79
265.259	10216.26
265.329	10205.71
265.398	10190.48
265.468	10204.75
265.537	10183.21
265.607	10182.1
265.676	10177.67
265.746	10163.41
265.815	10163.7
265.885	10147.52
265.955	10124.3
266.024	10095.39
266.094	10064.9
266.163	10057.82
266.232	10059.89
266.302	10047.03
266.371	10045.63
266.441	10031.18
266.51	10031.66
266.58	10014.03
266.649	9995.05
266.719	10001.17
266.788	9996.78
266.858	10005.65
266.927	9964.51
266.996	9952.95
267.066	9942.64
267.135	9920.77
267.205	9916.44
267.274	9906.76
267.343	9911.77
267.413	9904.64
267.482	9917.93
267.552	9919.38
267.621	9892.6
267.69	9858.73
267.76	9846.12
267.829	9834.8
267.898	9820.64
267.968	9792.17
268.037	9788.99
268.106	9786.58
268.176	9760.38
268.245	9745.06
268.314	9723
268.384	9728.06
268.453	9721.22
268.522	9711.54
268.592	9711.06
268.661	9684.42
268.73	9671.85
268.799	9651.14
268.869	9655.04
268.938	9623.45
269.007	9601.92
269.076	9592.05
269.146	9594.5
269.215	9582.22
269.284	9582.99
269.353	9570.52
269.422	9559.35
269.492	9540.52
269.561	9499.01
269.63	9495.35
269.699	9478.83
269.768	9471.13
269.838	9460.92
269.907	9465.78
269.976	9443.19
270.045	9405.54
270.114	9406.22
270.183	9394.9
270.253	9385.65
270.322	9358.54
270.391	9346.89
270.46	9347.61
270.529	9346.46
270.598	9343.52
270.667	9337.41
270.736	9317.28
270.806	9315.64
270.875	9322.14
270.944	9306.88
271.013	9327.15
271.082	9312.94
271.151	9313.71
271.22	9287.76
271.289	9276.83
271.358	9258.92
271.427	9254.92
271.496	9250.83
271.565	9233.74
271.634	9227.14
271.703	9256.61
271.772	9257.67
271.841	9246.65
271.91	9228.54
271.979	9217.81
272.048	9194.07
272.117	9191.71
272.186	9177.75
272.255	9180.15
272.324	9172.26
272.393	9172.02
272.462	9155.21
272.531	9145.01
272.6	9124.49
272.669	9137.83
272.738	9124.83
272.807	9122.76
272.876	9097.01
272.945	9124.35
273.013	9126.76
273.082	9127.14
273.151	9079.33
273.22	9077.31
273.289	9070.08
273.358	9077.5
273.427	9066.81
273.496	9065.56
273.564	9060.07
273.633	9062.86
273.702	9037.4
273.771	9032.48
273.84	9028.01
273.909	9028.73
273.977	9025.89
274.046	9025.07
274.115	9017.03
274.184	9002.78
274.253	8991.76
274.322	9003.17
274.39	8971.49
274.459	8958.83
274.528	8926.67
274.597	8916.85
274.665	8912.96
274.734	8924.99
274.803	8909.05
274.872	8902.27
274.94	8891.68
275.009	8925.29
275.078	8906.56
275.147	8904.93
275.215	8901.37
275.284	8909.12
275.353	8897.61
275.421	8874.94
275.49	8885.68
275.559	8877.88
275.627	8872.15
275.696	8864.83
275.765	8869.89
275.833	8864.45
275.902	8864.88
275.971	8884.37
276.039	8898.19
276.108	8897.76
276.177	8889.57
276.245	8876.43
276.314	8873.79
276.383	8878.55
276.451	8840.7
276.52	8850.47
276.588	8861.64
276.657	8865.4
276.725	8861.26
276.794	8863.71
276.863	8877.72
276.931	8854.8
277	8859.42
277.068	8867.51
277.137	8889.17
277.205	8879.83
277.274	8900.92
277.342	8915.98
277.411	8897.98
277.48	8883.25
277.548	8872.95
277.617	8871.27
277.685	8875.99
277.754	8877.33
277.822	8869.3
277.89	8877.29
277.959	8863.71
278.027	8840.32
278.096	8825.83
278.164	8843.94
278.233	8836.28
278.301	8824.06
278.37	8828.92
278.438	8817.99
278.507	8823.38
278.575	8796.57
278.643	8791.27
278.712	8767.74
278.78	8742.18
278.849	8750.93
278.917	8763.59
278.985	8764.51
279.054	8771.06
279.122	8777.22
279.191	8775.44
279.259	8773.46
279.327	8745.45
279.396	8770.04
279.464	8774.28
279.532	8781.31
279.601	8777.98
279.669	8771.29
279.737	8785.83
279.806	8785.78
279.874	8795.02
279.942	8787.42
280.011	8780.58
280.079	8790.98
280.147	8804.41
280.215	8818.13
280.284	8815.96
280.352	8800.94
280.42	8808.02
280.488	8794.21
280.557	8790.69
280.625	8790.26
280.693	8784.53
280.761	8796.18
280.83	8771.68
280.898	8783.52
280.966	8763.02
281.034	8726.53
281.102	8712.14
281.171	8700.2
281.239	8708.96
281.307	8698.18
281.375	8688.32
281.443	8713.97
281.512	8705.31
281.58	8722.83
281.648	8704.25
281.716	8699.54
281.784	8706.23
281.852	8693.47
281.92	8696.79
281.989	8704.3
282.057	8694.58
282.125	8742.14
282.193	8737.86
282.261	8737.91
282.329	8728.38
282.397	8731.02
282.465	8736.03
282.533	8749.5
282.601	8744.16
282.67	8720.48
282.738	8708.45
282.806	8724.71
282.874	8709.74
282.942	8715.33
283.01	8697.13
283.078	8694.05
283.146	8690.82
283.214	8688.08
283.282	8697.27
283.35	8709.12
283.418	8702.62
283.486	8703.58
283.554	8654.38
283.622	8654.77
283.69	8653.27
283.758	8648.32
283.826	8656.5
283.894	8669.59
283.962	8698.23
284.03	8712.62
284.098	8714.88
284.165	8710.51
284.233	8707.33
284.301	8694.19
284.369	8687.31
284.437	8675.61
284.505	8673.45
284.573	8691.88
284.641	8690.92
284.709	8698.33
284.777	8681.63
284.845	8689.19
284.912	8693.66
284.98	8708.58
285.048	8703.58
285.116	8710.41
285.184	8725.04
285.252	8723.89
285.319	8701.55
285.387	8685.62
285.455	8665.5
285.523	8673.73
285.591	8679.07
285.659	8681.29
285.726	8704.77
285.794	8691.25
285.862	8696.26
285.93	8697.22
285.997	8696.4
286.065	8688.89
286.133	8677.24
286.201	8670.12
286.269	8652.99
286.336	8645.86
286.404	8634.7
286.472	8639.7
286.539	8616.37
286.607	8601.2
286.675	8600.72
286.743	8611.98
286.81	8607.07
286.878	8620.93
286.946	8610.54
287.013	8606.26
287.081	8598.8
287.149	8576.03
287.216	8593.16
287.284	8592.15
287.352	8594.99
287.419	8581.76
287.487	8598.07
287.555	8600.96
287.622	8599.81
287.69	8609.77
287.758	8621.46
287.825	8613.38
287.893	8607.12
287.96	8619.1
288.028	8631.86
288.096	8635.42
288.163	8637.49
288.231	8622.33
288.298	8627.86
288.366	8644.37
288.433	8646.83
288.501	8643.36
288.569	8649.76
288.636	8637.01
288.704	8642.98
288.771	8650.82
288.839	8646.11
288.906	8636.82
288.974	8648.32
289.041	8647.36
289.109	8634.46
289.176	8641.97
289.244	8651.74
289.311	8660.06
289.379	8668.39
289.446	8662.13
289.514	8660.98
289.581	8662.13
289.649	8670.79
289.716	8666.51
289.783	8655.2
289.851	8675.03
289.918	8675.22
289.986	8685.23
290.053	8693.46
290.121	8693.94
290.188	8697.6
290.255	8727.06
290.323	8720.17
290.39	8711.08
290.458	8717.77
290.525	8733.36
290.592	8729.7
290.66	8731.82
290.727	8727.92
290.794	8742.55
290.862	8746.64
290.929	8754.15
290.996	8753.19
291.064	8759.49
291.131	8767
291.198	8779.66
291.266	8775.86
291.333	8772.78
291.4	8770.47
291.468	8791.84
291.535	8789.53
291.602	8795.45
291.669	8792.42
291.737	8798.77
291.804	8798.87
291.871	8819.28
291.938	8820.82
292.006	8848.16
292.073	8861.59
292.14	8871.03
292.207	8865.3
292.275	8868.81
292.342	8873.82
292.409	8898.76
292.476	8926.82
292.543	8923.21
292.611	8924.27
292.678	8943.72
292.745	8970.43
292.812	8984.88
292.879	8981.79
292.946	8990.03
293.014	9001.34
293.081	9005.82
293.148	9027.19
293.215	9041.01
293.282	9034.36
293.349	9047.6
293.416	9028.01
293.484	9036.09
293.551	9050.2
293.618	9070.27
293.685	9090.49
293.752	9089
293.819	9091.41
293.886	9075.38
293.953	9082.12
294.02	9097.62
294.087	9100.03
294.154	9099.83
294.221	9122.66
294.288	9122.56
294.356	9137.97
294.423	9140.23
294.49	9129.54
294.557	9134.12
294.624	9125.45
294.691	9147.98
294.758	9147.89
294.825	9153.52
294.892	9151.21
294.959	9149.33
295.026	9151.64
295.093	9144.76
295.16	9138.5
295.226	9136.24
295.293	9163.97
295.36	9168.16
295.427	9177.79
295.494	9190.93
295.561	9204.03
295.628	9221.51
295.695	9239.14
295.762	9244.24
295.829	9252.62
295.896	9269.18
295.963	9281.7
296.03	9292.24
296.096	9291.09
296.163	9305.68
296.23	9319.69
296.297	9336.93
296.364	9336.93
296.431	9343.67
296.498	9342.85
296.564	9378.38
296.631	9384.06
296.698	9366.1
296.765	9393.31
296.832	9378.24
296.899	9361.29
296.965	9372.6
297.032	9351.32
297.099	9367.98
297.166	9370.39
297.233	9367.69
297.299	9360.08
297.366	9360.08
297.433	9367.5
297.5	9380.31
297.566	9374.91
297.633	9378.53
297.7	9378.04
297.767	9372.08
297.833	9372.32
297.9	9380.36
297.967	9359.17
298.033	9372.27
298.1	9402.27
298.167	9387.1
298.234	9396.35
298.3	9412.33
298.367	9405.2
298.434	9412.14
298.5	9399.47
298.567	9394.56
298.634	9396.05
298.7	9411.8
298.767	9416.23
298.834	9429.47
298.9	9419.94
298.967	9413.82
299.033	9426.44
299.1	9440.12
299.167	9461.69
299.233	9464.1
299.3	9474.3
299.366	9492.41
299.433	9510.38
299.5	9487.26
299.566	9496.75
299.633	9517.36
299.699	9529.35
299.766	9527.23
299.832	9535.76
299.899	9548.42
299.965	9563.98
300.032	9557.91
300.099	9571.68
300.165	9572.74
300.232	9565.37
300.298	9563.11
300.365	9579.63
300.431	9574.76
300.498	9568.6
300.564	9576.88
300.631	9589.55
300.697	9604.77
300.763	9599.37
300.83	9591.14
300.896	9603.56
300.963	9604.76
301.029	9603.42
301.096	9608.76
301.162	9620.75
301.229	9611.41
301.295	9597.3
301.361	9601.78
301.428	9608.9
301.494	9592.43
301.561	9597.97
301.627	9601.1
301.693	9614.64
301.76	9621.67
301.826	9618.34
301.892	9629.76
301.959	9637.37
302.025	9623.55
302.092	9619.5
302.158	9634.53
302.224	9638.33
302.291	9630.14
302.357	9634.43
302.423	9629.37
302.49	9619.74
302.556	9635.88
302.622	9640.55
302.688	9655.24
302.755	9667.47
302.821	9675.46
302.887	9690.06
302.954	9685.87
303.02	9699.11
303.086	9698.82
303.152	9692.95
303.219	9689.19
303.285	9698.29
303.351	9704.8
303.417	9714.14
303.483	9701.67
303.55	9693.86
303.616	9693.38
303.682	9694.68
303.748	9683.8
303.815	9696.22
303.881	9708.89
303.947	9688.81
304.013	9692.08
304.079	9684.33
304.145	9669.16
304.212	9674.21
304.278	9670.26
304.344	9667.28
304.41	9651
304.476	9646.09
304.542	9641.66
304.608	9646.57
304.674	9627.01
304.741	9619.93
304.807	9621.72
304.873	9628.84
304.939	9645.84
305.005	9622.58
305.071	9619.74
305.137	9627.64
305.203	9602.16
305.269	9595.9
305.335	9609.14
305.401	9601.1
305.467	9602.74
305.533	9609.24
305.599	9613.09
305.666	9615.45
305.732	9621.81
305.798	9630.29
305.864	9651.24
305.93	9656.97
305.996	9660.97
306.062	9667.47
306.128	9660.05
306.194	9650.28
306.259	9654.71
306.325	9646.13
306.391	9663.81
306.457	9667.76
306.523	9664.63
306.589	9691.93
306.655	9680.86
306.721	9661.35
306.787	9645.75
306.853	9653.21
306.919	9636.41
306.985	9627.3
307.051	9624.17
307.117	9613.82
307.183	9607.17
307.248	9576.4
307.314	9584.1
307.38	9588.73
307.446	9586.13
307.512	9574.23
307.578	9579.05
307.644	9568.55
307.709	9567.3
307.775	9555.59
307.841	9560.41
307.907	9564.6
307.973	9547.02
308.039	9546.1
308.104	9556.07
308.17	9563.68
308.236	9550
308.302	9557.42
308.368	9545.33
308.433	9542.92
308.499	9532.96
308.565	9525.3
308.631	9534.64
308.696	9509.5
308.762	9490.34
308.828	9489.71
308.894	9477.14
308.959	9457.21
309.025	9444.06
309.091	9439.1
309.156	9432.5
309.222	9439.1
309.288	9426.82
309.354	9406.36
309.419	9403.13
309.485	9380.55
309.551	9378.81
309.616	9363.12
309.682	9353
309.748	9345.88
309.813	9346.02
309.879	9340.34
309.945	9338.27
310.01	9329.22
310.076	9328.16
310.141	9324.4
310.207	9306.68
310.273	9311.78
310.338	9314.86
310.404	9302.06
310.469	9286.94
310.535	9278.9
310.601	9247.07
310.666	9248.61
310.732	9252.7
310.797	9240.81
310.863	9238.21
310.928	9233.78
310.994	9242.88
311.059	9240.76
311.125	9238.5
311.191	9242.54
311.256	9233.06
311.322	9229.83
311.387	9206.1
311.453	9510.25
311.518	9478.77
311.584	9477.03
311.649	9480.36
311.715	9470.68
311.78	9476.6
311.846	9463.41
311.911	9471.64
311.976	9474.48
312.042	9457.82
312.107	9446.8
312.173	9439.82
312.238	9432.21
312.304	9425.13
312.369	9414.73
312.434	9404.33
312.5	9397.83
312.565	9362.88
312.631	9365.04
312.696	9358.26
312.761	9372.55
312.827	9060.55
312.892	9105.86
312.958	9101.09
313.023	9100.37
313.088	9095.65
313.154	9080.63
313.219	9079.38
313.284	9067.58
313.35	9064.02
313.415	9056.22
313.48	9055.5
313.546	9058.63
313.611	9068.21
313.676	9060.12
313.741	9047.07
313.807	9056.56
313.872	9066.48
313.937	9080.39
314.003	9097.14
314.068	9096.08
314.133	9096.42
314.198	9086.89
314.264	9065.27
314.329	9056.84
314.394	9050.34
314.459	9054.29
314.525	9078.07
314.59	9067.15
314.655	9054.68
314.72	9063.2
314.785	9069.51
314.851	9062.19
314.916	9044.38
314.981	9024.54
315.046	9016.02
315.111	9007.07
315.176	8987.86
315.242	8988.05
315.307	8981.17
315.372	8957.92
315.437	8948.63
315.502	8938.95
315.567	8952.19
315.632	8931.44
315.698	8937.89
315.763	8935.72
315.828	8918.78
315.893	8911.27
315.958	8917.09
316.023	8914.45
316.088	8889.99
316.153	8868.38
316.218	8857.79
316.283	8841
316.348	8831.23
316.413	8831.03
316.479	8818.18
316.544	8790.9
316.609	8757.4
316.674	8717.4
316.739	8686.08
316.804	8653.35
316.869	8615.48
316.934	8576.3
316.999	8555.7
317.064	8501.13
317.129	8452.05
317.194	8420
317.259	8369.95
317.324	8311.21
317.389	8258.19
317.454	8219.8
317.518	8188.53
317.583	8169.62
317.648	8149.56
317.713	8114.92
317.778	8055.51
317.843	8024.91
317.908	7986.24
317.973	7951.61
318.038	7927.99
318.103	7886.35
318.168	7860.72
318.233	7831.04
318.297	7785.07
318.362	7748.42
318.427	7708.66
318.492	7683.99
318.557	7635.1
318.622	7605
318.687	7588.51
318.751	7556.11
318.816	7524.67
318.881	7487.99
318.946	7427.94
319.011	7381.99
319.075	7337.09
319.14	7305.18
319.205	7258.9
319.27	7232.76
319.335	7183.74
319.399	7141.78
319.464	7118
319.529	7063.46
319.594	7026.65
319.658	6998.79
319.723	6950.12
319.788	6924.27
319.853	6870.9
319.917	6846.4
319.982	6796.01
320.047	6757.68
320.112	6728.67
320.176	6678.82
320.241	6648.03
320.306	6621.91
320.37	6582.05
320.435	6560.35
320.5	6531.63
320.564	6501.19
320.629	6452.7
320.694	6424.96
320.758	6384.97
320.823	6340.85
320.888	6312.11
320.952	6261.33
321.017	6213.15
321.082	6178.26
321.146	6144.52
321.211	6110.31
321.275	6070.3
321.34	6029.57
321.405	5985.58
321.469	5940.48
321.534	5898.47
321.598	5846.91
321.663	5815.53
321.727	5782.48
321.792	5730.92
321.857	5690.25
321.921	5648.62
321.986	5607.25
322.05	5546.57
322.115	5508.27
322.179	5463.69
322.244	5410.88
322.308	5382.65
322.373	5338.76
322.437	5299.13
322.502	5270.94
322.566	5229.63
322.631	5193.55
322.695	5155.52
322.76	5113.7
322.824	5074.91
322.889	5036.26
322.953	4990.11
323.018	4924.11
323.082	4861.39
323.146	4812.28
323.211	4757.46
323.275	4713.27
323.34	4670.53
323.404	4637.42
323.468	4594.59
323.533	4550.57
323.597	4507.81
323.662	4458
323.726	4425.37
323.79	4378.78
323.855	4313.99
323.919	4265.58
323.983	4221.34
324.048	4154.48
324.112	4322.53
324.177	4198.6
324.241	3983.04
324.305	3773.83
324.37	3566.73
324.434	3369.14
324.498	3323.92
324.562	3273.56
324.627	3212.81
324.691	3156.49
324.755	3093.94
324.82	3018.24
324.884	2944.77
324.948	2872.82
325.012	2775.91
325.077	2650.34
