Data from 20250703_urea_0.1M_MAYP1162681_19-11-05-432.txt Node
Date: Thu Jul 03 19:11:05 BST 2025
User: adleo
Spectrometer: MAYP116268
Trigger mode: 0
Integration Time (sec): 1.000000E0
Scans to average: 1
Electric dark correction enabled: true
Nonlinearity correction enabled: true
Boxcar width: 10
XAxis mode: Wavelengths
Number of Pixels in Spectrum: 2068
>>>>>Begin Spectral Data<<<<<
179.565	1370.32
179.642	1432.93
179.718	1482.38
179.795	1527.26
179.871	1568.49
179.948	1587.71
180.024	1611.13
180.101	1637.77
180.177	1654.41
180.254	1680.72
180.33	1705.67
180.407	1771.12
180.483	1878.92
180.56	1985.13
180.636	2081.8
180.712	2066.53
180.789	2073.57
180.865	2088.02
180.942	2099.72
181.018	2108.19
181.095	2124.18
181.171	2126.56
181.248	2129.13
181.324	2146.55
181.4	2154.44
181.477	2163.72
181.553	2178.7
181.63	2203.73
181.706	2219.24
181.782	2228.19
181.859	2224.38
181.935	2230.99
182.011	2226.47
182.088	2245.13
182.164	2262.46
182.24	2277.83
182.317	2291.39
182.393	2292.38
182.469	2309.8
182.546	2323.18
182.622	2328.36
182.698	2321.22
182.775	2337.26
182.851	2353.92
182.927	2343.88
183.003	2338.45
183.08	2332.5
183.156	2342.26
183.232	2335.69
183.308	2324.84
183.385	2334.5
183.461	2359.58
183.537	2359.2
183.613	2373.24
183.69	2364.72
183.766	2355.01
183.842	2360.72
183.918	2365.1
183.995	2377.9
184.071	2381
184.147	2375
184.223	2365.63
184.299	2381.01
184.375	2369.2
184.452	2375.92
184.528	2427.19
184.604	2437.8
184.68	2450.51
184.756	2459.65
184.832	2468.08
184.908	2474.12
184.985	2474.55
185.061	2453.65
185.137	2466.03
185.213	2455.32
185.289	2456.66
185.365	2446.57
185.441	2446.23
185.517	2461.52
185.593	2460.14
185.669	2457.14
185.745	2471.85
185.822	2486.51
185.898	2475.75
185.974	2485.17
186.05	2476.12
186.126	2443.85
186.202	2439.04
186.278	2435.99
186.354	2425.9
186.43	2432.9
186.506	2431.47
186.582	2431
186.658	2437.66
186.734	2415.38
186.81	2418.47
186.886	2419.57
186.962	2436.18
187.038	2434.71
187.114	2425.56
187.19	2431.85
187.266	2421.47
187.341	2419.95
187.417	2412.42
187.493	2412.9
187.569	2415.38
187.645	2407.81
187.721	2395.24
187.797	2403.04
187.873	2406.09
187.949	2398.05
188.025	2390.19
188.101	2394
188.176	2396.76
188.252	2391.47
188.328	2399.13
188.404	2397.47
188.48	2392.09
188.556	2381.43
188.632	2378.62
188.707	2381.71
188.783	2379.19
188.859	2372.39
188.935	2358.58
189.011	2367.72
189.086	2357.58
189.162	2347.73
189.238	2345.25
189.314	2342.06
189.39	2336.11
189.465	2328.35
189.541	2346.82
189.617	2329.07
189.693	2323.6
189.768	2329.26
189.844	2358.26
189.92	2347.46
189.996	2357.75
190.071	2371.12
190.147	2370.65
190.223	2379.55
190.298	2370.03
190.374	2355.7
190.45	2368.83
190.526	2379.35
190.601	2375.12
190.677	2378.49
190.753	2411.12
190.828	2414.98
190.904	2429.16
190.98	2444.07
191.055	2457.35
191.131	2448.26
191.207	2471.34
191.282	2482.25
191.358	2471.77
191.433	2455.58
191.509	2471.71
191.585	2467.75
191.66	2469.09
191.736	2479.61
191.811	2470.75
191.887	2486.95
191.963	2513.18
192.038	2518.66
192.114	2519.71
192.189	2521.61
192.265	2518.99
192.34	2495.36
192.416	2492.98
192.491	2489.17
192.567	2491.27
192.642	2495.46
192.718	2497.17
192.793	2480.84
192.869	2474.61
192.944	2477.13
193.02	2483.03
193.095	2485.37
193.171	2494.37
193.246	2490.22
193.322	2486.6
193.397	2488.89
193.473	2473.74
193.548	2451.84
193.624	2458.32
193.699	2453.41
193.775	2471.37
193.85	2473.03
193.925	2482.46
194.001	2482.13
194.076	2476.8
194.152	2465.46
194.227	2455.89
194.302	2443.75
194.378	2451.27
194.453	2448.37
194.529	2460.85
194.604	2448.56
194.679	2443.28
194.755	2422.71
194.83	2440.29
194.905	2437.05
194.981	2445.67
195.056	2437.72
195.131	2446.82
195.207	2446.82
195.282	2441.58
195.357	2423.1
195.433	2443.48
195.508	2430.14
195.583	2437.71
195.659	2452.19
195.734	2460.43
195.809	2458.14
195.884	2471.76
195.96	2470.9
196.035	2488.9
196.11	2481.47
196.185	2492.37
196.261	2497.04
196.336	2531.08
196.411	2514.27
196.486	2523.79
196.561	2516.13
196.637	2529.55
196.712	2548.27
196.787	2551.46
196.862	2567.08
196.937	2577.13
197.013	2581.23
197.088	2589.8
197.163	2615.81
197.238	2635.5
197.313	2635.69
197.388	2651.55
197.464	2682.76
197.539	2695.39
197.614	2685.34
197.689	2704.25
197.764	2722.26
197.839	2745.8
197.914	2736.6
197.989	2760.04
198.065	2770.43
198.14	2824.87
198.215	2850.47
198.29	2862.48
198.365	2876.06
198.44	2888.46
198.515	2919.44
198.59	2935.98
198.665	2970.69
198.74	2980.56
198.815	2980.65
198.89	3003.25
198.965	3038.11
199.04	3034.92
199.115	3053.17
199.19	3102.42
199.265	3107.47
199.34	3116.87
199.415	3154.28
199.49	3181.02
199.565	3191.9
199.64	3217.55
199.715	3213.5
199.79	3223.27
199.865	3228.28
199.94	3228.86
200.015	3261.54
200.09	3264.54
200.165	3274.85
200.24	3279.57
200.315	3323.46
200.39	3344.07
200.464	3356.53
200.539	3355.33
200.614	3372.41
200.689	3399.66
200.764	3403.82
200.839	3423.13
200.914	3430.34
200.989	3415.73
201.063	3430.14
201.138	3412.97
201.213	3414.41
201.288	3396.56
201.363	3400.57
201.438	3401
201.512	3419.51
201.587	3401.75
201.662	3407.77
201.737	3415.4
201.812	3425.95
201.886	3386.41
201.961	3395.72
202.036	3380.41
202.111	3378.64
202.186	3349.69
202.26	3330.31
202.335	3308.03
202.41	3301.35
202.485	3284.13
202.559	3267.14
202.634	3239.47
202.709	3252.3
202.784	3239.27
202.858	3242.52
202.933	3226.15
203.008	3224.15
203.082	3205.98
203.157	3207.65
203.232	3166.45
203.306	3155.14
203.381	3124.94
203.456	3111.2
203.53	3093.2
203.605	3082.33
203.68	3068.88
203.754	3071.54
203.829	3068.4
203.904	3060.62
203.978	3065.63
204.053	3093.45
204.127	3093.92
204.202	3114.48
204.277	3118.25
204.351	3132.85
204.426	3150.08
204.5	3168.83
204.575	3162.82
204.65	3200.23
204.724	3226.3
204.799	3270.22
204.873	3296.76
204.948	3335.51
205.022	3361.76
205.097	3397.01
205.171	3458.87
205.246	3516.23
205.32	3564.82
205.395	3615.11
205.469	3663.32
205.544	3725.97
205.618	3764.58
205.693	3847.92
205.767	3897.66
205.842	3986
205.916	4047.57
205.991	4110.44
206.065	4194.18
206.14	4287.53
206.214	4367.4
206.289	4443.39
206.363	4544.4
206.438	4642.26
206.512	4747.97
206.586	4869.19
206.661	4978.95
206.735	5056.62
206.81	5162.02
206.884	5286.24
206.958	5386.81
207.033	5520.12
207.107	5644.46
207.181	5796.8
207.256	5906.5
207.33	6054.54
207.405	6194.05
207.479	6345.03
207.553	6484.75
207.628	6593.27
207.702	6741.2
207.776	6872.71
207.851	7015.75
207.925	7165.1
207.999	7302.98
208.073	7435.78
208.148	7577.02
208.222	7707.09
208.296	7886.11
208.371	8052.66
208.445	8213.18
208.519	8387.01
208.593	8545.11
208.668	8690.27
208.742	8846.68
208.816	9004.78
208.89	9169.19
208.965	9320.4
209.039	9476.37
209.113	9645.48
209.187	9827.81
209.261	9982.02
209.336	10162.84
209.41	10338.48
209.484	10500.88
209.558	10678.9
209.632	10852.97
209.707	11024.02
209.781	11205.44
209.855	11372.71
209.929	11549.21
210.003	11712.78
210.077	11867.48
210.151	12077.44
210.226	12270.38
210.3	12447.62
210.374	12616.9
210.448	12774.57
210.522	12939.57
210.596	13105.97
210.67	13273.43
210.744	13471.11
210.818	13648.5
210.892	13824.16
210.966	13969.35
211.041	14131.18
211.115	14272.37
211.189	14452.27
211.263	14616.4
211.337	14760.15
211.411	14927.99
211.485	15052.79
211.559	15203.86
211.633	15350.25
211.707	15456.2
211.781	15598.67
211.855	15697.39
211.929	15832.64
212.003	15932.8
212.077	16077.35
212.151	16221.85
212.225	16356.75
212.299	16473.49
212.373	16589.64
212.447	16693.26
212.52	16839.73
212.594	16966.43
212.668	17101.72
212.742	17197.67
212.816	17310.01
212.89	17415.07
212.964	17518.21
213.038	17648.57
213.112	17781.24
213.186	17913.29
213.26	17993.72
213.333	18050.15
213.407	18162.24
213.481	18264.36
213.555	18407.35
213.629	18499.39
213.703	18589.41
213.777	18683.62
213.85	18766.12
213.924	18915.28
213.998	19018.93
214.072	19116.47
214.146	19199.16
214.219	19291.5
214.293	19384.36
214.367	19481.46
214.441	19594.32
214.515	19687.91
214.588	19748.15
214.662	19804.82
214.736	19867.86
214.81	19973.83
214.883	20076.52
214.957	20154.59
215.031	20230.06
215.105	20265.67
215.178	20321.04
215.252	20389.67
215.326	20452.42
215.4	20506.15
215.473	20516.13
215.547	20568.51
215.621	20627.31
215.694	20713.77
215.768	20752.43
215.842	20803.27
215.915	20850.99
215.989	20885.88
216.063	20939.38
216.136	21001.21
216.21	21047.63
216.284	21113.46
216.357	21169.81
216.431	21216.22
216.504	21286.54
216.578	21370.99
216.652	21451.67
216.725	21521.17
216.799	21592.32
216.873	21644.95
216.946	21713.25
217.02	21774.71
217.093	21830.91
217.167	21848.46
217.24	21874.25
217.314	21932.76
217.387	21979.66
217.461	22018.08
217.535	22087.98
217.608	22119.27
217.682	22159.37
217.755	22217.12
217.829	22257.86
217.902	22302.06
217.976	22356.15
218.049	22388.93
218.123	22416.32
218.196	22473.74
218.27	22516.16
218.343	22541.52
218.417	22586.94
218.49	22640.5
218.563	22683.7
218.637	22734.47
218.71	22810.45
218.784	22853.75
218.857	22905.15
218.931	22942.03
219.004	22990.58
219.077	23029.68
219.151	23078.09
219.224	23117.58
219.298	23165.85
219.371	23216.09
219.444	23244.88
219.518	23279.69
219.591	23316.87
219.665	23388.73
219.738	23417.13
219.811	23428.46
219.885	23459.66
219.958	23501.28
220.031	23516.08
220.105	23561.22
220.178	23593.87
220.251	23610.46
220.325	23648.13
220.398	23682.56
220.471	23723.02
220.544	23761.02
220.618	23776.46
220.691	23808.48
220.764	23834.62
220.838	23857.53
220.911	23876.39
220.984	23928.33
221.057	23970.15
221.131	23999.09
221.204	23983.75
221.277	24027.06
221.35	24096.32
221.424	24118.27
221.497	24138.24
221.57	24171.33
221.643	24199.4
221.716	24219.66
221.79	24243.68
221.863	24264.28
221.936	24277.69
222.009	24302.48
222.082	24326.89
222.155	24353.27
222.229	24386.8
222.302	24421.24
222.375	24434.85
222.448	24455.54
222.521	24457.32
222.594	24458.96
222.667	24462.68
222.74	24487.76
222.814	24488.73
222.887	24486.89
222.96	24510.34
223.033	24536
223.106	24530.41
223.179	24543.05
223.252	24560.18
223.325	24570.36
223.398	24582.75
223.471	24596.02
223.544	24593.7
223.617	24593.08
223.69	24591.49
223.763	24574.26
223.837	24577.11
223.91	24589.46
223.983	24575.47
224.056	24566.83
224.129	24571.37
224.202	24584.73
224.275	24579.14
224.348	24571.61
224.42	24553.57
224.493	24536.35
224.566	24522.88
224.639	24530.46
224.712	24515.21
224.785	24503.49
224.858	24496.98
224.931	24492.59
225.004	24470.15
225.077	24472.37
225.15	24436.44
225.223	24432.67
225.296	24449.51
225.369	24431.81
225.442	24407.78
225.514	24412.56
225.587	24411.4
225.66	24400.5
225.733	24396.35
225.806	24396.35
225.879	24387.81
225.952	24367.75
226.025	24368.71
226.097	24377.64
226.17	24379.71
226.243	24350.91
226.316	24342.57
226.389	24334.46
226.461	24329.11
226.534	24325.2
226.607	24307.31
226.68	24327.08
226.753	24313.58
226.825	24283.91
226.898	24278.94
226.971	24276.96
227.044	24257.76
227.117	24255.3
227.189	24247.68
227.262	24230.99
227.335	24215.02
227.407	24201.33
227.48	24202.19
227.553	24198.67
227.626	24164.42
227.698	24140.74
227.771	24132.35
227.844	24103.41
227.916	24092.17
227.989	24051.75
228.062	24034.87
228.134	24049.72
228.207	24025.8
228.28	24004.53
228.352	23983.12
228.425	23968.69
228.498	23962.95
228.57	23946.8
228.643	23934.84
228.716	23917.42
228.788	23896.2
228.861	23868.66
228.934	23858.25
229.006	23844.5
229.079	23815.9
229.151	23802.2
229.224	23764.59
229.296	23750.65
229.369	23756.63
229.442	23752.53
229.514	23730.35
229.587	23719.3
229.659	23670.74
229.732	23661.04
229.804	23654.15
229.877	23668.95
229.949	23663.12
230.022	23658.68
230.094	23639.39
230.167	23621.4
230.239	23585.33
230.312	23564.6
230.384	23581.38
230.457	23564.26
230.529	23538.9
230.602	23525.15
230.674	23500.9
230.747	23506.01
230.819	23493.08
230.892	23438.69
230.964	23418.29
231.037	23405.99
231.109	23382.03
231.181	23372.58
231.254	23336.36
231.326	23313.36
231.399	23278.4
231.471	23241.27
231.544	23189.86
231.616	23174.91
231.688	23155.96
231.761	23131.42
231.833	23101.14
231.905	23041.83
231.978	23013.14
232.05	22983.3
232.122	22957.89
232.195	22934.6
232.267	22916.37
232.339	22886.43
232.412	22883.78
232.484	22845.59
232.556	22817.48
232.629	22818.45
232.701	22794.19
232.773	22772.02
232.846	22737.98
232.918	22705.14
232.99	22674.1
233.062	22660.93
233.135	22641.7
233.207	22596.18
233.279	22585.77
233.351	22573.67
233.424	22543.64
233.496	22505.41
233.568	22508.06
233.64	22460.91
233.713	22424.56
233.785	22385.9
233.857	22356.06
233.929	22305.97
234.001	22292.23
234.074	22268.66
234.146	22221.8
234.218	22188.25
234.29	22157.01
234.362	22124.52
234.434	22076.17
234.507	22035.97
234.579	21983.28
234.651	21937.73
234.723	21919.75
234.795	21884.75
234.867	21849.46
234.939	21832.64
235.012	21800.4
235.084	21770.7
235.156	21750.79
235.228	21710.74
235.3	21674.44
235.372	21657.43
235.444	21640.65
235.516	21583.97
235.588	21557.65
235.66	21513.69
235.732	21472.62
235.804	21503.19
235.876	21477.83
235.948	21470.6
236.02	21438.75
236.092	21402.69
236.164	21367.32
236.236	21323.55
236.308	21278.49
236.38	21250
236.452	21207.64
236.524	21178
236.596	21145.56
236.668	21113.65
236.74	21083.1
236.812	21058.42
236.884	21024.68
236.956	20986.7
237.028	20942.32
237.1	20891.33
237.172	20876.72
237.244	20860.1
237.316	20779.8
237.388	20732.13
237.46	20678.15
237.532	20665.14
237.604	20638.39
237.675	20628.9
237.747	20595.84
237.819	20565.33
237.891	20522.2
237.963	20464.32
238.035	20428.08
238.107	20357.33
238.178	20346.59
238.25	20313.62
238.322	20300.08
238.394	20226.68
238.466	20185.77
238.538	20163.99
238.609	20136.71
238.681	20073.48
238.753	20025.48
238.825	19990.45
238.897	19958.06
238.968	19943.32
239.04	19889.53
239.112	19867.03
239.184	19808.62
239.255	19763.37
239.327	19731.85
239.399	19699.52
239.471	19692.19
239.542	19652.39
239.614	19631.38
239.686	19558.71
239.758	19532.73
239.829	19485.02
239.901	19481.65
239.973	19450.9
240.044	19416.93
240.116	19387.53
240.188	19353.9
240.259	19319.15
240.331	19277.61
240.403	19249.42
240.474	19190.97
240.546	19140.22
240.618	19083.36
240.689	19038.25
240.761	19011.85
240.833	18989.34
240.904	18946.07
240.976	18889.64
241.048	18860.19
241.119	18836.58
241.191	18807.18
241.262	18786.37
241.334	18734.22
241.405	18687.67
241.477	18643.1
241.549	18597.75
241.62	18557.37
241.692	18530.86
241.763	18501.66
241.835	18454.14
241.906	18414.48
241.978	18358
242.049	18339.4
242.121	18316.71
242.192	18299.16
242.264	18248.56
242.335	18190.49
242.407	18158.83
242.478	18127.32
242.55	18099.17
242.621	18040.96
242.693	18000.62
242.764	17946.5
242.836	17908.39
242.907	17880.15
242.979	17851.04
243.05	17814.36
243.122	17783.14
243.193	17748.82
243.264	17687.62
243.336	17652.54
243.407	17629.64
243.479	17621.16
243.55	17593.98
243.622	17554.75
243.693	17512.15
243.764	17486.61
243.836	17439.72
243.907	17401.69
243.978	17366.56
244.05	17327.24
244.121	17282.85
244.192	17254.85
244.264	17208.87
244.335	17174.27
244.407	17112.87
244.478	17077.69
244.549	17043.66
244.62	16990.31
244.692	16944.53
244.763	16925.39
244.834	16887.56
244.906	16844.38
244.977	16810.31
245.048	16781.49
245.119	16744.81
245.191	16703.31
245.262	16644.51
245.333	16628.85
245.405	16596.27
245.476	16569.57
245.547	16542.96
245.618	16519.73
245.689	16492.07
245.761	16472.16
245.832	16439.1
245.903	16416.74
245.974	16385.17
246.045	16353.94
246.117	16347
246.188	16303.33
246.259	16255.13
246.33	16217.34
246.401	16175.51
246.473	16126.54
246.544	16086.39
246.615	16060.6
246.686	16017.66
246.757	16007.25
246.828	15959.77
246.899	15937.69
246.97	15892.39
247.042	15847.71
247.113	15821.24
247.184	15817.82
247.255	15774.49
247.326	15741.52
247.397	15712.02
247.468	15681.32
247.539	15646.33
247.61	15589.06
247.681	15572.29
247.752	15558.31
247.823	15516.09
247.894	15486.54
247.965	15448.27
248.037	15416.74
248.108	15366.42
248.179	15342.18
248.25	15312.15
248.321	15294.79
248.392	15254.16
248.463	15239.6
248.534	15208.7
248.605	15188.7
248.675	15136.16
248.746	15113.99
248.817	15097.46
248.888	15074.22
248.959	15026.69
249.03	15008.38
249.101	14987.7
249.172	14954.63
249.243	14899.82
249.314	14900.21
249.385	14880.88
249.456	14865.69
249.527	14840.48
249.598	14824.33
249.669	14797.63
249.739	14774.83
249.81	14747.93
249.881	14706.09
249.952	14683.14
250.023	14657.02
250.094	14614.11
250.165	14576.13
250.235	14539.49
250.306	14509.17
250.377	14473.65
250.448	14454.7
250.519	14400.76
250.59	14391.65
250.66	14358.19
250.731	14355.64
250.802	14319.2
250.873	14294.03
250.944	14269.4
251.014	14221.73
251.085	14224.62
251.156	14207.22
251.227	14192.08
251.297	14183.79
251.368	14175.21
251.439	14161.18
251.51	14137.94
251.58	14102.75
251.651	14072.58
251.722	14061.92
251.792	14012.51
251.863	13979.06
251.934	13965.7
252.005	13981.23
252.075	13949.02
252.146	13940.3
252.217	13921.35
252.287	13906.51
252.358	13881.97
252.429	13872.57
252.499	13850.25
252.57	13821.42
252.641	13804.5
252.711	13778.08
252.782	13734.41
252.852	13734.17
252.923	13697.39
252.994	13677.53
253.064	13667.84
253.135	13638.29
253.205	13612.83
253.276	13614.57
253.347	13613.7
253.417	13586.13
253.488	13550.16
253.558	13523.84
253.629	13494.82
253.699	13479.35
253.77	13466.04
253.841	13436.06
253.911	13425.02
253.982	13406.22
254.052	13396.1
254.123	13382.89
254.193	13355.94
254.264	13377.58
254.334	13339.79
254.405	13306.43
254.475	13270.95
254.546	13243.67
254.616	13239.23
254.687	13214.79
254.757	13197.77
254.827	13169.96
254.898	13153.52
254.968	13133.27
255.039	13099.92
255.109	13091.58
255.18	13062.7
255.25	13013.1
255.321	12998.44
255.391	12954.38
255.461	12956.36
255.532	12908.87
255.602	12882.55
255.673	12847.65
255.743	12810.97
255.813	12761.12
255.884	12759.92
255.954	12755.19
256.024	12751.48
256.095	12732.97
256.165	12695.32
256.235	12679.51
256.306	12652.13
256.376	12641.62
256.446	12630.25
256.517	12620.41
256.587	12614.24
256.657	12598.53
256.728	12588.69
256.798	12573.03
256.868	12547.58
256.938	12514.03
257.009	12499.76
257.079	12477.25
257.149	12482.93
257.219	12444.27
257.29	12435.21
257.36	12390.33
257.43	12378.57
257.5	12334.8
257.571	12307.42
257.641	12307.81
257.711	12265.05
257.781	12248.86
257.852	12236.81
257.922	12193.91
257.992	12179.88
258.062	12151.87
258.132	12138.81
258.202	12115.58
258.273	12097.16
258.343	12096.54
258.413	12072.39
258.483	12051.61
258.553	12022.16
258.623	11991.17
258.693	11969.67
258.764	11973.86
258.834	11970.97
258.904	11949.81
258.974	11924.94
259.044	11897.61
259.114	11878.28
259.184	11871.82
259.254	11853.89
259.324	11803.28
259.394	11795.09
259.464	11787.71
259.535	11763.33
259.605	11736.91
259.675	11710.89
259.745	11697.68
259.815	11664.66
259.885	11642.59
259.955	11657.96
260.025	11634.16
260.095	11617.82
260.165	11608.9
260.235	11599.16
260.305	11570.49
260.375	11543.49
260.445	11554.19
260.515	11564.75
260.585	11563.4
260.655	11550.53
260.725	11547.11
260.795	11544.12
260.865	11548.22
260.934	11520.26
261.004	11513.03
261.074	11497.66
261.144	11499.1
261.214	11490.81
261.284	11474.91
261.354	11473.56
261.424	11437.22
261.494	11441.99
261.564	11424.25
261.634	11419.63
261.703	11379.77
261.773	11370.61
261.843	11358.52
261.913	11330.03
261.983	11288.88
262.053	11273.45
262.123	11246.9
262.192	11213.65
262.262	11207.82
262.332	11175
262.402	11164.39
262.472	11150.85
262.541	11108.69
262.611	11104.64
262.681	11077.02
262.751	11071.91
262.821	11053.51
262.89	11023.24
262.96	11009.31
263.03	11016.3
263.1	11006.76
263.169	10993.55
263.239	10990.66
263.309	10999.92
263.379	10999.34
263.448	10996.01
263.518	10980.4
263.588	10966.71
263.657	10972.74
263.727	10972.4
263.797	10955.58
263.867	10943.68
263.936	10907.01
264.006	10912.65
264.076	10891.2
264.145	10872.17
264.215	10847.69
264.285	10840.22
264.354	10811.79
264.424	10786.21
264.494	10750.31
264.563	10722.21
264.633	10729.05
264.702	10719.22
264.772	10683.66
264.842	10658.46
264.911	10640.73
264.981	10607.53
265.05	10596.45
265.12	10576.93
265.19	10554.43
265.259	10552.5
265.329	10537.95
265.398	10528.65
265.468	10543.01
265.537	10523.88
265.607	10521.23
265.676	10522.39
265.746	10504.9
265.815	10499.55
265.885	10491.02
265.955	10467.85
266.024	10452.38
266.094	10416.2
266.163	10412.97
266.232	10415.86
266.302	10403.1
266.371	10394.66
266.441	10385.65
266.51	10378.19
266.58	10360.6
266.649	10346.63
266.719	10338.82
266.788	10337.19
266.858	10346.44
266.927	10305
266.996	10298.21
267.066	10284.72
267.135	10255.67
267.205	10255.09
267.274	10244.88
267.343	10238.09
267.413	10222.14
267.482	10222.19
267.552	10227.83
267.621	10193.96
267.69	10158.6
267.76	10150.31
267.829	10139.81
267.898	10128.01
267.968	10104.36
268.037	10101.56
268.106	10096.65
268.176	10073.76
268.245	10053.72
268.314	10032.86
268.384	10031.27
268.453	10016.97
268.522	10008.3
268.592	10008.73
268.661	9984.84
268.73	9979.87
268.799	9964.51
268.869	9983.15
268.938	9952.95
269.007	9926.89
269.076	9916.96
269.146	9917.54
269.215	9909.21
269.284	9917.64
269.353	9905.84
269.422	9897.84
269.492	9872.99
269.561	9829.83
269.63	9826.66
269.699	9809.6
269.768	9800.16
269.838	9798.57
269.907	9797.32
269.976	9770.83
270.045	9736.01
270.114	9733.7
270.183	9722.67
270.253	9714.44
270.322	9680.62
270.391	9666.66
270.46	9673.74
270.529	9675.62
270.598	9672.49
270.667	9660.69
270.736	9632.32
270.806	9621.96
270.875	9624.42
270.944	9618.98
271.013	9644.74
271.082	9637.28
271.151	9631.74
271.22	9598.94
271.289	9580.88
271.358	9570.14
271.427	9567.49
271.496	9562.82
271.565	9547.22
271.634	9537.49
271.703	9569.67
271.772	9570.63
271.841	9562.4
271.91	9539.76
271.979	9528.69
272.048	9506.48
272.117	9513.18
272.186	9499.79
272.255	9504.12
272.324	9506.39
272.393	9506.68
272.462	9489.87
272.531	9475.37
272.6	9474.17
272.669	9480.43
272.738	9468.44
272.807	9462.9
272.876	9446.67
272.945	9474.36
273.013	9475.56
273.082	9475.47
273.151	9426.58
273.22	9424.94
273.289	9413.73
273.358	9421.86
273.427	9408.28
273.496	9408.81
273.564	9396.34
273.633	9401.35
273.702	9377.61
273.771	9359.02
273.84	9348.96
273.909	9338.75
273.977	9336.87
274.046	9319.2
274.115	9327.15
274.184	9311.4
274.253	9301.53
274.322	9308.8
274.39	9278.51
274.459	9264.07
274.528	9236.09
274.597	9226.22
274.665	9221.36
274.734	9232.29
274.803	9220.06
274.872	9215.97
274.94	9196.76
275.009	9264.24
275.078	9244.94
275.147	9245.47
275.215	9240.94
275.284	9247.34
275.353	9238.68
275.421	9214.94
275.49	9232.08
275.559	9220.09
275.627	9211
275.696	9196.17
275.765	9195.54
275.833	9188.27
275.902	9186.3
275.971	9202.28
276.039	9219.42
276.108	9223.18
276.177	9223.61
276.245	9216.05
276.314	9210.66
276.383	9222.89
276.451	9144.71
276.52	9150.2
276.588	9163.58
276.657	9161.8
276.725	9144.86
276.794	9141.53
276.863	9150.97
276.931	9124
277	9129.69
277.068	9143.26
277.137	9167.05
277.205	9163.34
277.274	9181.63
277.342	9186.16
277.411	9165.89
277.48	9147.4
277.548	9132.57
277.617	9135.99
277.685	9124.73
277.754	9131.18
277.822	9116.5
277.89	9134.26
277.959	9120.54
278.027	9099.55
278.096	9096.18
278.164	9127.43
278.233	9121.46
278.301	9113.91
278.37	9120.98
278.438	9107.07
278.507	9112.75
278.575	9085.88
278.643	9077.51
278.712	9051.17
278.78	9046.45
278.849	9055.26
278.917	9063.45
278.985	9062.53
279.054	9058.63
279.122	9077.41
279.191	9073.08
279.259	9069.61
279.327	9045.63
279.396	9064.36
279.464	9063.83
279.532	9066.33
279.601	9057.09
279.669	9054.53
279.737	9065.03
279.806	9069.27
279.874	9079.91
279.942	9070.66
280.011	9063.64
280.079	9072.54
280.147	9096.32
280.215	9090.88
280.284	9084.34
280.352	9071.29
280.42	9076.15
280.488	9068.45
280.557	9050.59
280.625	9057.66
280.693	9061.47
280.761	9062.24
280.83	9047.51
280.898	9054.1
280.966	9032.58
281.034	9003.84
281.102	8985.94
281.171	8981.36
281.239	8989.26
281.307	8970.15
281.375	8960.47
281.443	8983.87
281.512	8982.33
281.58	8989.98
281.648	8978.86
281.716	8979.39
281.784	8975.97
281.852	8969.48
281.92	8970.29
281.989	8988.93
282.057	8965.29
282.125	9013.73
282.193	9012.05
282.261	9009.25
282.329	9004.83
282.397	9013.83
282.465	9015.85
282.533	9034.96
282.601	9019.94
282.67	8990.86
282.738	8992.78
282.806	9004.05
282.874	8993.99
282.942	8997.02
283.01	8986.14
283.078	8994.66
283.146	8990.66
283.214	9003.08
283.282	8998.56
283.35	9007.56
283.418	9001.06
283.486	9008.67
283.554	8957.72
283.622	8958.44
283.69	8958.54
283.758	8952.04
283.826	8957.05
283.894	8972.64
283.962	8992.67
284.03	9006.78
284.098	9011.83
284.165	9009.18
284.233	9008.41
284.301	9001.24
284.369	8993.92
284.437	8987.04
284.505	8980.54
284.573	8999.07
284.641	8991.8
284.709	9002.39
284.777	8985.83
284.845	8990.94
284.912	8997.34
284.98	9005.52
285.048	8995.99
285.116	8996.86
285.184	9011.88
285.252	9013.23
285.319	8989.06
285.387	8979
285.455	8959.02
285.523	8969.13
285.591	8959.07
285.659	8962.01
285.726	8971.97
285.794	8957.77
285.862	8950.12
285.93	8954.35
285.997	8944.24
286.065	8936.64
286.133	8934.47
286.201	8931.25
286.269	8914.11
286.336	8902.6
286.404	8894.23
286.472	8904.29
286.539	8884.03
286.607	8872.09
286.675	8872.86
286.743	8888.5
286.81	8881.38
286.878	8904.24
286.946	8889.9
287.013	8895.57
287.081	8894.8
287.149	8878
287.216	8895.09
287.284	8891.43
287.352	8889.41
287.419	8883.54
287.487	8902.8
287.555	8898.46
287.622	8896.97
287.69	8903.52
287.758	8915.94
287.825	8910.31
287.893	8899.14
287.96	8911.75
288.028	8922.87
288.096	8924.75
288.163	8927.15
288.231	8916.42
288.298	8905.11
288.366	8925.23
288.433	8924.22
288.501	8913.39
288.569	8922.53
288.636	8917.91
288.704	8931.53
288.771	8939.33
288.839	8937.41
288.906	8930.47
288.974	8948.43
289.041	8941.6
289.109	8932.16
289.176	8937.84
289.244	8944.29
289.311	8961.34
289.379	8971.3
289.446	8967.3
289.514	8961.38
289.581	8956.47
289.649	8959.41
289.716	8966.77
289.783	8956.52
289.851	8972.16
289.918	8971.92
289.986	8978.9
290.053	8978.13
290.121	8975.97
290.188	8974.91
290.255	9002.59
290.323	8991.42
290.39	8977.75
290.458	8984.82
290.525	8999.55
290.592	8994.06
290.66	8991.9
290.727	8978.37
290.794	8990.94
290.862	8995.7
290.929	8999.6
290.996	8996.13
291.064	9007.16
291.131	9019.39
291.198	9028.29
291.266	9032.82
291.333	9034.17
291.4	9039.37
291.468	9061.8
291.535	9065.56
291.602	9069.75
291.669	9063.01
291.737	9068.01
291.804	9071.14
291.871	9093.24
291.938	9096.47
292.006	9129.11
292.073	9144.18
292.14	9160.07
292.207	9146.01
292.275	9143.36
292.342	9150.34
292.409	9180.2
292.476	9206.63
292.543	9201.34
292.611	9202.73
292.678	9213.33
292.745	9241.06
292.812	9249.68
292.879	9245.2
292.946	9246.11
293.014	9263.78
293.081	9274.14
293.148	9290.55
293.215	9303.31
293.282	9296.67
293.349	9314.44
293.416	9290.89
293.484	9306.01
293.551	9317.56
293.618	9346.6
293.685	9377.85
293.752	9378.86
293.819	9378.23
293.886	9358.83
293.953	9365.42
294.02	9385.41
294.087	9395.33
294.154	9385.07
294.221	9399.95
294.288	9393.45
294.356	9415.75
294.423	9419.84
294.49	9413.68
294.557	9429.71
294.624	9419.84
294.691	9441.61
294.758	9436.7
294.825	9444.06
294.892	9438.53
294.959	9439.1
295.026	9442.96
295.093	9431.16
295.16	9432.36
295.226	9430.82
295.293	9462.12
295.36	9469.97
295.427	9476.52
295.494	9486.83
295.561	9499.64
295.628	9529.07
295.695	9547.32
295.762	9545.68
295.829	9559.99
295.896	9579.54
295.963	9588.21
296.03	9601.3
296.096	9609.3
296.163	9622.78
296.23	9643.83
296.297	9656.16
296.364	9660.2
296.431	9666.56
296.498	9671.71
296.564	9696.42
296.631	9699.6
296.698	9686.45
296.765	9702
296.832	9688.42
296.899	9680.43
296.965	9698.87
297.032	9671.75
297.099	9700.03
297.166	9706.14
297.233	9699.4
297.299	9685
297.366	9688.04
297.433	9690.25
297.5	9696.08
297.566	9691.55
297.633	9686.16
297.7	9695.26
297.767	9690.73
297.833	9702.29
297.9	9696.32
297.967	9680.04
298.033	9689.72
298.1	9719.4
298.167	9711.06
298.234	9718.67
298.3	9728.11
298.367	9717.66
298.434	9726.43
298.5	9708.12
298.567	9702.2
298.634	9699.55
298.7	9719.2
298.767	9721.13
298.834	9738.51
298.9	9728.83
298.967	9728.01
299.033	9741.89
299.1	9752.48
299.167	9768.71
299.233	9754.74
299.3	9773.91
299.366	9786.05
299.433	9809.85
299.5	9780.99
299.566	9790.19
299.633	9814.18
299.699	9820.44
299.766	9821.69
299.832	9830.32
299.899	9838.41
299.965	9853.24
300.032	9854.49
300.099	9861.19
300.165	9859.98
300.232	9853.48
300.298	9858.59
300.365	9874
300.431	9870.39
300.498	9865.86
300.564	9874.19
300.631	9884.16
300.697	9897.31
300.763	9908.58
300.83	9900.83
300.896	9918.36
300.963	9928.67
301.029	9925.15
301.096	9930.02
301.162	9946.97
301.229	9944.13
301.295	9935.31
301.361	9943.36
301.428	9942.73
301.494	9929.05
301.561	9935.08
301.627	9942.69
301.693	9945.43
301.76	9949.19
301.826	9941.34
301.892	9953.14
301.959	9956.37
302.025	9953.24
302.092	9950.83
302.158	9954.78
302.224	9960.9
302.291	9946.78
302.357	9941.87
302.423	9933.2
302.49	9925.44
302.556	9934.79
302.622	9929.25
302.688	9949.1
302.755	9960.95
302.821	9974.53
302.887	9983.39
302.954	9981.18
303.02	9989.8
303.086	9997.12
303.152	9996.01
303.219	9999.05
303.285	10000.25
303.351	10013.4
303.417	10020
303.483	10010.37
303.55	10004.73
303.616	9997.6
303.682	9999.62
303.748	9988.93
303.815	10012.15
303.881	10026.75
303.947	10010.61
304.013	10013.4
304.079	9996.35
304.145	9972.75
304.212	9964.61
304.278	9956.95
304.344	9956.27
304.41	9940.76
304.476	9926.94
304.542	9920.97
304.608	9927.81
304.674	9912.58
304.741	9901.84
304.807	9904.83
304.873	9913.93
304.939	9930.65
305.005	9910.71
305.071	9910.9
305.137	9918.85
305.203	9888.79
305.269	9879.06
305.335	9890.91
305.401	9890.33
305.467	9897.22
305.533	9907.81
305.599	9918.17
305.666	9930.89
305.732	9931.8
305.798	9942.3
305.864	9974.91
305.93	9979.15
305.996	9975.64
306.062	9970.43
306.128	9964.85
306.194	9952.42
306.259	9944.04
306.325	9928.91
306.391	9940.86
306.457	9952.18
306.523	9948.51
306.589	9972.31
306.655	9966.82
306.721	9953.96
306.787	9939.12
306.853	9948.42
306.919	9935.94
306.985	9932.24
307.051	9924.58
307.117	9911.81
307.183	9907.81
307.248	9875.44
307.314	9880.07
307.38	9882.48
307.446	9896.98
307.512	9891.29
307.578	9901.36
307.644	9897.94
307.709	9899.67
307.775	9907.76
307.841	9898.66
307.907	9907.91
307.973	9890.33
308.039	9886.47
308.104	9887.1
308.17	9891.72
308.236	9878.57
308.302	9878.77
308.368	9864.7
308.433	9866.15
308.499	9869.13
308.565	9858.68
308.631	9864.6
308.696	9841.05
308.762	9829.73
308.828	9820.19
308.894	9796.64
308.959	9763.22
309.025	9752.82
309.091	9748.05
309.156	9724.35
309.222	9731.48
309.288	9717.99
309.354	9691.7
309.419	9690.06
309.485	9677.2
309.551	9680.57
309.616	9661.31
309.682	9659.77
309.748	9654.66
309.813	9647.73
309.879	9637.42
309.945	9626
310.01	9615.46
310.076	9615.22
310.141	9612.28
310.207	9598.99
310.273	9602.4
310.338	9612.47
310.404	9600.14
310.469	9589.26
310.535	9580.64
310.601	9552.94
310.666	9552.56
310.732	9565.27
310.797	9553.37
310.863	9546.78
310.928	9534.4
310.994	9542.68
311.059	9533.53
311.125	9529.73
311.191	9540.08
311.256	9527.66
311.322	9533.78
311.387	9518.7
311.453	9796.31
311.518	9761.84
311.584	9761.16
311.649	9764.25
311.715	9753.12
311.78	9752.54
311.846	9739.88
311.911	9749.03
311.976	9752.45
312.042	9733.96
312.107	9721.96
312.173	9713.97
312.238	9700.25
312.304	9696.92
312.369	9678.34
312.434	9668.22
312.5	9659.56
312.565	9626.42
312.631	9629.94
312.696	9617.08
312.761	9619.25
312.827	9328.78
312.892	9368.36
312.958	9361.62
313.023	9360.61
313.088	9362.2
313.154	9344.53
313.219	9336.25
313.284	9330.95
313.35	9324.4
313.415	9318.09
313.48	9312.03
313.546	9318.53
313.611	9332.49
313.676	9324.01
313.741	9320.11
313.807	9331.48
313.872	9333.41
313.937	9340.24
314.003	9351.9
314.068	9358.73
314.133	9361.91
314.198	9352.86
314.264	9333.64
314.329	9326.33
314.394	9325.07
314.459	9326.66
314.525	9357.19
314.59	9348.28
314.655	9336.2
314.72	9348.19
314.785	9351.9
314.851	9344.53
314.916	9319.64
314.981	9306.01
315.046	9295.37
315.111	9280.93
315.176	9265.42
315.242	9267.54
315.307	9266.05
315.372	9241.1
315.437	9228.78
315.502	9219.19
315.567	9235.81
315.632	9221.89
315.698	9227.77
315.763	9218.33
315.828	9200.47
315.893	9191.22
315.958	9199.07
316.023	9192.52
316.088	9167.72
316.153	9142.06
316.218	9134.94
316.283	9122.86
316.348	9104.23
316.413	9107.4
316.479	9097.06
316.544	9060.18
316.609	9029.71
316.674	8994.33
316.739	8962.37
316.804	8930.21
316.869	8894.16
316.934	8848.86
316.999	8819.84
317.064	8762.75
317.129	8714.91
317.194	8684.45
317.259	8630.15
317.324	8575.48
317.389	8528.56
317.454	8490.11
317.518	8458.21
317.583	8435.73
317.648	8409.55
317.713	8374.91
317.778	8311.48
317.843	8279.49
317.908	8243.41
317.973	8205.3
318.038	8173.55
318.103	8132.04
318.168	8097.65
318.233	8068.35
318.297	8017.7
318.362	7979.08
318.427	7939.89
318.492	7923.87
318.557	7874.43
318.622	7849.32
318.687	7825.57
318.751	7778.79
318.816	7745.6
318.881	7712.33
318.946	7656.5
319.011	7612.84
319.075	7575.86
319.14	7542.07
319.205	7502.16
319.27	7471.83
319.335	7423.23
319.399	7378.96
319.464	7355.07
319.529	7304.56
319.594	7266.25
319.658	7247.22
319.723	7202.58
319.788	7174.47
319.853	7114.49
319.917	7084.12
319.982	7031.07
320.047	6994.36
320.112	6973.13
320.176	6920.86
320.241	6888.57
320.306	6856.48
320.37	6814.6
320.435	6781.11
320.5	6746.39
320.564	6704.99
320.629	6666.47
320.694	6640.83
320.758	6606.11
320.823	6560.5
320.888	6533.95
320.952	6483.25
321.017	6438.88
321.082	6400.53
321.146	6364.19
321.211	6333.56
321.275	6294.02
321.34	6250.11
321.405	6203.56
321.469	6160.7
321.534	6118.01
321.598	6060.33
321.663	6022.28
321.727	5989.08
321.792	5936.16
321.857	5895.34
321.921	5853.51
321.986	5805.03
322.05	5743.41
322.115	5703.98
322.179	5657.77
322.244	5600.19
322.308	5564.23
322.373	5510.64
322.437	5467.35
322.502	5441.22
322.566	5393.62
322.631	5358.39
322.695	5315.79
322.76	5273.58
322.824	5231.31
322.889	5194.28
322.953	5150.65
323.018	5086.13
323.082	5022.68
323.146	4968.47
323.211	4916.08
323.275	4872.7
323.34	4829.23
323.404	4797.16
323.468	4749.28
323.533	4708.88
323.597	4662.24
323.662	4611.22
323.726	4580.06
323.79	4535.51
323.855	4465.82
323.919	4415.06
323.983	4367.16
324.048	4298.57
324.112	4470.07
324.177	4338.9
324.241	4112.28
324.305	3896.33
324.37	3685.21
324.434	3479.68
324.498	3437.44
324.562	3384.88
324.627	3322.8
324.691	3264.34
324.755	3194
324.82	3114.34
324.884	3032.49
324.948	2958.66
325.012	2860.32
325.077	2727.3
