Data from 20250703_urea_0.1M_MAYP1162681_12-31-05-280.txt Node
Date: Thu Jul 03 12:31:05 BST 2025
User: adleo
Spectrometer: MAYP116268
Trigger mode: 0
Integration Time (sec): 1.000000E0
Scans to average: 1
Electric dark correction enabled: true
Nonlinearity correction enabled: true
Boxcar width: 10
XAxis mode: Wavelengths
Number of Pixels in Spectrum: 2068
>>>>>Begin Spectral Data<<<<<
179.565	1160.9
179.642	1215.38
179.718	1258.25
179.795	1296.14
179.871	1325.92
179.948	1343.43
180.024	1362.28
180.101	1384.31
180.177	1399.71
180.254	1420.36
180.33	1440.32
180.407	1489.31
180.483	1582.28
180.56	1670.61
180.636	1749.65
180.712	1740.05
180.789	1751.98
180.865	1764.61
180.942	1773.02
181.018	1780.01
181.095	1794.03
181.171	1798.17
181.248	1796.46
181.324	1808.15
181.4	1815.57
181.477	1827.59
181.553	1838.52
181.63	1859.01
181.706	1874.22
181.782	1881.97
181.859	1882.68
181.935	1889.43
182.011	1885.87
182.088	1903.94
182.164	1923.2
182.24	1938.22
182.317	1947.11
182.393	1944.4
182.469	1953.38
182.546	1963.94
182.622	1970.26
182.698	1965.41
182.775	1980.2
182.851	1997.5
182.927	1992.7
183.003	1987.43
183.08	1980.96
183.156	1989.37
183.232	1988.28
183.308	1975.82
183.385	1983.29
183.461	2001.45
183.537	2002.5
183.613	2016.1
183.69	2004.87
183.766	1994.03
183.842	2000.3
183.918	2005.49
183.995	2017.95
184.071	2026.7
184.147	2022.37
184.223	2010.58
184.299	2021.81
184.375	2009.44
184.452	2012.68
184.528	2059.76
184.604	2071.27
184.68	2082.96
184.756	2090.58
184.832	2094.81
184.908	2100.94
184.985	2099.18
185.061	2081.87
185.137	2090.67
185.213	2077.69
185.289	2081.45
185.365	2071.79
185.441	2071.13
185.517	2083.74
185.593	2082.69
185.669	2077.41
185.745	2088.06
185.822	2106.84
185.898	2098.19
185.974	2107.89
186.05	2100.18
186.126	2070.13
186.202	2064.85
186.278	2061.14
186.354	2054.1
186.43	2059.14
186.506	2059.38
186.582	2058.9
186.658	2067.22
186.734	2045.97
186.81	2051.63
186.886	2052.1
186.962	2063.42
187.038	2060.8
187.114	2053.09
187.19	2057.9
187.266	2048.63
187.341	2050.72
187.417	2041.78
187.493	2043.4
187.569	2045.59
187.645	2043.59
187.721	2030.41
187.797	2036.02
187.873	2040.07
187.949	2034.84
188.025	2026.65
188.101	2028.89
188.176	2033.21
188.252	2025.23
188.328	2033.5
188.404	2036.35
188.48	2030.26
188.556	2025.84
188.632	2022.18
188.707	2019.75
188.783	2015.71
188.859	2011.86
188.935	1998.83
189.011	2007.34
189.086	1999.11
189.162	1990.93
189.238	1986.56
189.314	1981.81
189.39	1976.29
189.465	1969.39
189.541	1984.9
189.617	1972.73
189.693	1968.26
189.768	1971.06
189.844	1998.51
189.92	1991.81
189.996	1997.47
190.071	2008.45
190.147	2006.03
190.223	2017.78
190.298	2014.16
190.374	2002.23
190.45	2013.97
190.526	2022.2
190.601	2016.92
190.677	2020.25
190.753	2045.89
190.828	2051.83
190.904	2070.86
190.98	2087.32
191.055	2099.26
191.131	2091.74
191.207	2110.86
191.282	2119.99
191.358	2113.43
191.433	2099.72
191.509	2113.94
191.585	2110.89
191.66	2112.56
191.736	2123.16
191.811	2115.41
191.887	2129.68
191.963	2150.04
192.038	2156.42
192.114	2156.42
192.189	2160.03
192.265	2158.79
192.34	2139.19
192.416	2136.05
192.491	2130.34
192.567	2128.24
192.642	2128.1
192.718	2127.44
192.793	2117.87
192.869	2110.84
192.944	2112.74
193.02	2121.26
193.095	2124.25
193.171	2128.63
193.246	2129.29
193.322	2126.73
193.397	2125.96
193.473	2112.55
193.548	2098.8
193.624	2102.94
193.699	2100.7
193.775	2114.36
193.85	2115.07
193.925	2124.25
194.001	2122.83
194.076	2115.03
194.152	2108.79
194.227	2103.51
194.302	2094.67
194.378	2096.86
194.453	2097.76
194.529	2109.22
194.604	2091.48
194.679	2086.3
194.755	2067.61
194.83	2077.13
194.905	2071.61
194.981	2081.03
195.056	2073.61
195.131	2080.17
195.207	2075.18
195.282	2069.47
195.357	2055.39
195.433	2070.27
195.508	2057.91
195.583	2067.47
195.659	2082.88
195.734	2090.45
195.809	2088.4
195.884	2099.19
195.96	2101.91
196.035	2116.13
196.11	2112.32
196.185	2124.45
196.261	2125.45
196.336	2159.13
196.411	2148.28
196.486	2155.79
196.561	2149.75
196.637	2159.83
196.712	2172.3
196.787	2180.39
196.862	2193.71
196.937	2200.42
197.013	2203.37
197.088	2214.31
197.163	2232.78
197.238	2247.97
197.313	2246.35
197.388	2261.43
197.464	2288.14
197.539	2296.75
197.614	2288.61
197.689	2303.89
197.764	2319.65
197.839	2341.87
197.914	2334.25
197.989	2357.53
198.065	2370.76
198.14	2419.25
198.215	2445.43
198.29	2459.77
198.365	2470.95
198.44	2482.43
198.515	2511.47
198.59	2529.81
198.665	2556.33
198.74	2565.38
198.815	2566.9
198.89	2585.42
198.965	2616.11
199.04	2611.82
199.115	2626.58
199.19	2666.96
199.265	2665.91
199.34	2676.49
199.415	2709.38
199.49	2729.19
199.565	2734.76
199.64	2756.48
199.715	2754.62
199.79	2761.1
199.865	2767.54
199.94	2766.01
200.015	2799.99
200.09	2805.28
200.165	2809.38
200.24	2813
200.315	2855.46
200.39	2867.99
200.464	2876.23
200.539	2876.76
200.614	2893.63
200.689	2915.93
200.764	2924.71
200.839	2944.48
200.914	2950
200.989	2939.23
201.063	2955.38
201.138	2939.81
201.213	2940.33
201.288	2919.84
201.363	2925.27
201.438	2922.8
201.512	2940.76
201.587	2922.35
201.662	2925.4
201.737	2938.94
201.812	2948.67
201.886	2914.6
201.961	2926.57
202.036	2918
202.111	2916.33
202.186	2888.99
202.26	2874.4
202.335	2856.43
202.41	2851.8
202.485	2836.84
202.559	2821.4
202.634	2799.43
202.709	2815
202.784	2802.38
202.858	2810.95
202.933	2796.85
203.008	2800.23
203.082	2786.6
203.157	2791.75
203.232	2760.64
203.306	2747.87
203.381	2727.56
203.456	2715.6
203.53	2706.11
203.605	2700.06
203.68	2690.96
203.754	2701.72
203.829	2706.96
203.904	2705.58
203.978	2719.55
204.053	2745.86
204.127	2759.96
204.202	2785.8
204.277	2796.24
204.351	2821.88
204.426	2847.78
204.5	2876.71
204.575	2880.38
204.65	2931.04
204.724	2971.89
204.799	3024.32
204.873	3073.42
204.948	3123.4
205.022	3168.19
205.097	3221.38
205.171	3295.76
205.246	3369
205.32	3438.76
205.395	3508.05
205.469	3572.29
205.544	3652.75
205.618	3719.92
205.693	3813.96
205.767	3888.55
205.842	4006.4
205.916	4097.81
205.991	4185.99
206.065	4295.14
206.14	4418.69
206.214	4522.23
206.289	4626.79
206.363	4753.21
206.438	4872.32
206.512	5006.72
206.586	5157.03
206.661	5292.64
206.735	5410.08
206.81	5551.08
206.884	5703.77
206.958	5841.89
207.033	6011.84
207.107	6165.68
207.181	6348.46
207.256	6501.36
207.33	6680.06
207.405	6848
207.479	7027.36
207.553	7195.73
207.628	7348.37
207.702	7529.62
207.776	7699.03
207.851	7875.93
207.925	8068.65
207.999	8252.7
208.073	8433.45
208.148	8615.44
208.222	8791.54
208.296	9007.47
208.371	9210.36
208.445	9412.96
208.519	9629.05
208.593	9831.89
208.668	10022.38
208.742	10214.59
208.816	10400.07
208.89	10604.3
208.965	10801.81
209.039	11009.34
209.113	11225.3
209.187	11442.99
209.261	11638.45
209.336	11855.89
209.41	12068.14
209.484	12262.58
209.558	12478.37
209.632	12685.72
209.707	12894.53
209.781	13117.32
209.855	13320.5
209.929	13524.69
210.003	13720.88
210.077	13909.17
210.151	14142.28
210.226	14362.28
210.3	14586.71
210.374	14804.1
210.448	14999.57
210.522	15194.83
210.596	15389.13
210.67	15587
210.744	15813.34
210.818	16022.87
210.892	16228.34
210.966	16414.96
211.041	16619.32
211.115	16795.19
211.189	16993.42
211.263	17179.84
211.337	17348.37
211.411	17542.98
211.485	17711.51
211.559	17900.29
211.633	18062.6
211.707	18205.44
211.781	18382.11
211.855	18506.54
211.929	18666.44
212.003	18808.31
212.077	18982.52
212.151	19148.73
212.225	19314.85
212.299	19460.29
212.373	19606.45
212.447	19749.29
212.52	19920.04
212.594	20066.98
212.668	20215.94
212.742	20345.39
212.816	20479.08
212.89	20608.04
212.964	20738.27
213.038	20882.76
213.112	21025.57
213.186	21185.53
213.26	21302.94
213.333	21391.39
213.407	21526.68
213.481	21649.83
213.555	21793.65
213.629	21892.14
213.703	21999.68
213.777	22115.18
213.85	22211.06
213.924	22356.08
213.998	22469.33
214.072	22574.97
214.146	22668.59
214.219	22784.69
214.293	22893.22
214.367	23001.46
214.441	23128.51
214.515	23224.37
214.588	23307.75
214.662	23373.09
214.736	23454.73
214.81	23550.59
214.883	23647.46
214.957	23732.14
215.031	23809.59
215.105	23865
215.178	23941.39
215.252	24020.15
215.326	24072.43
215.4	24135.76
215.473	24167.88
215.547	24228.71
215.621	24290.65
215.694	24369.14
215.768	24408.36
215.842	24466.39
215.915	24523.85
215.989	24562.83
216.063	24612.33
216.136	24656.86
216.21	24719.67
216.284	24783.65
216.357	24835.42
216.431	24897.9
216.504	24965.31
216.578	25051.06
216.652	25114.5
216.725	25182.59
216.799	25246.34
216.873	25298.65
216.946	25360.17
217.02	25405.09
217.093	25450.26
217.167	25482.79
217.24	25516.53
217.314	25566.33
217.387	25596.74
217.461	25633.32
217.535	25687.76
217.608	25724.2
217.682	25777.1
217.755	25822.71
217.829	25847.72
217.902	25893.72
217.976	25924.9
218.049	25944.55
218.123	25971.83
218.196	26025.12
218.27	26044.33
218.343	26056.84
218.417	26103.85
218.49	26136.01
218.563	26190.08
218.637	26232.37
218.71	26284.52
218.784	26325.41
218.857	26359.93
218.931	26394.2
219.004	26426.26
219.077	26461.9
219.151	26492.36
219.224	26510.13
219.298	26534.71
219.371	26581.98
219.444	26596.61
219.518	26619.02
219.591	26650.88
219.665	26685.7
219.738	26707.73
219.811	26718.11
219.885	26750.32
219.958	26778.47
220.031	26789.82
220.105	26815.32
220.178	26822.8
220.251	26827.68
220.325	26836.28
220.398	26855.35
220.471	26882.98
220.544	26903.26
220.618	26898.43
220.691	26919.73
220.764	26934.84
220.838	26944.4
220.911	26941.6
220.984	26965.65
221.057	26983.52
221.131	26990.67
221.204	26972.85
221.277	26986.13
221.35	27027.57
221.424	27030.85
221.497	27032.3
221.57	27035.06
221.643	27026.89
221.716	27041.29
221.79	27041.67
221.863	27051.72
221.936	27048.97
222.009	27041.87
222.082	27048.77
222.155	27050.9
222.229	27065.39
222.302	27067.32
222.375	27071.67
222.448	27061.77
222.521	27054.43
222.594	27059.59
222.667	27039.31
222.74	27042.74
222.814	27043.32
222.887	27024.72
222.96	27026.46
223.033	27027.19
223.106	27033.71
223.179	27029.26
223.252	27013.66
223.325	26997
223.398	26978.26
223.471	26971.98
223.544	26957.01
223.617	26944.45
223.69	26932.09
223.763	26893.89
223.837	26891.91
223.91	26882.15
223.983	26866.17
224.056	26833.28
224.129	26808.65
224.202	26810.54
224.275	26784.27
224.348	26744.04
224.42	26704.73
224.493	26664.22
224.566	26632.15
224.639	26617.71
224.712	26589.03
224.785	26575.8
224.858	26553.05
224.931	26534.32
225.004	26506.46
225.077	26485.84
225.15	26424.62
225.223	26398.7
225.296	26396.52
225.369	26345.87
225.442	26305.17
225.514	26283.4
225.587	26267.27
225.66	26238.45
225.733	26208.95
225.806	26191.18
225.879	26176.51
225.952	26150.44
226.025	26138.27
226.097	26113.27
226.17	26082.85
226.243	26034.48
226.316	25992
226.389	25955.02
226.461	25923.79
226.534	25887.15
226.607	25864.13
226.68	25865.58
226.753	25833.72
226.825	25788.34
226.898	25774.35
226.971	25754.99
227.044	25724.63
227.117	25704.17
227.189	25673.56
227.262	25641.13
227.335	25602.33
227.407	25543.3
227.48	25512.08
227.553	25482.49
227.626	25452.18
227.698	25411.01
227.771	25378.3
227.844	25347.56
227.916	25329.99
227.989	25282.17
228.062	25251.91
228.134	25222.43
228.207	25188.75
228.28	25155.11
228.352	25122.83
228.425	25090.74
228.498	25060.72
228.57	25010.69
228.643	24981.45
228.716	24951.1
228.788	24923.59
228.861	24892.42
228.934	24887.89
229.006	24858.41
229.079	24820.77
229.151	24771.56
229.224	24721.92
229.296	24714.39
229.369	24699.63
229.442	24677.53
229.514	24645.12
229.587	24621.43
229.659	24573.81
229.732	24540.29
229.804	24517.76
229.877	24503.24
229.949	24476.51
230.022	24464.35
230.094	24436.81
230.167	24398.12
230.239	24354.08
230.312	24315.34
230.384	24306.32
230.457	24262.91
230.529	24241.73
230.602	24210.72
230.674	24196.01
230.747	24185.73
230.819	24148.59
230.892	24083.96
230.964	24046.53
231.037	24022.85
231.109	23989.86
231.181	23969.07
231.254	23926.34
231.326	23896.77
231.399	23850.18
231.471	23804.07
231.544	23739.78
231.616	23725.55
231.688	23698.16
231.761	23656.16
231.833	23614.44
231.905	23548.27
231.978	23520.35
232.05	23467.21
232.122	23430.27
232.195	23382.96
232.267	23356.73
232.339	23320.85
232.412	23302.29
232.484	23253.97
232.556	23210.24
232.629	23198.76
232.701	23169.34
232.773	23131.35
232.846	23076.19
232.918	23042.82
232.99	23019.29
233.062	22986.6
233.135	22949.81
233.207	22895.86
233.279	22877.58
233.351	22853.91
233.424	22819.73
233.496	22778.22
233.568	22762.98
233.64	22711.68
233.713	22679.29
233.785	22636.71
233.857	22602.19
233.929	22541.93
234.001	22528.43
234.074	22506.16
234.146	22441.84
234.218	22402.99
234.29	22368.81
234.362	22331.79
234.434	22284.59
234.507	22232.14
234.579	22187.26
234.651	22139.29
234.723	22112.68
234.795	22081.16
234.867	22042.88
234.939	22015.45
235.012	21976.26
235.084	21948.59
235.156	21917.02
235.228	21864.72
235.3	21814.54
235.372	21778.97
235.444	21773.57
235.516	21716.59
235.588	21683.04
235.66	21648.63
235.732	21599.9
235.804	21616.96
235.876	21591.75
235.948	21555.75
236.02	21513.91
236.092	21460.17
236.164	21416.94
236.236	21366.81
236.308	21315.1
236.38	21269.55
236.452	21223.28
236.524	21179.76
236.596	21144.14
236.668	21109.87
236.74	21072.76
236.812	21040.81
236.884	21005.57
236.956	20953.33
237.028	20907.01
237.1	20845.27
237.172	20823.06
237.244	20793.8
237.316	20711.43
237.388	20655.77
237.46	20616.92
237.532	20595.72
237.604	20562.9
237.675	20545.07
237.747	20522.37
237.819	20476.92
237.891	20440.83
237.963	20388.01
238.035	20342.32
238.107	20263
238.178	20235.62
238.25	20198.13
238.322	20179.58
238.394	20119.43
238.466	20070.81
238.538	20029.8
238.609	20000.74
238.681	19937.61
238.753	19885.03
238.825	19844.64
238.897	19800.84
238.968	19768.21
239.04	19705.08
239.112	19687.64
239.184	19627.64
239.255	19586.05
239.327	19543.74
239.399	19496.13
239.471	19472.04
239.542	19436.04
239.614	19413.68
239.686	19343.51
239.758	19315.42
239.829	19258.84
239.901	19230.22
239.973	19197.55
240.044	19166.22
240.116	19124.54
240.188	19073.36
240.259	19044.54
240.331	19002.09
240.403	18980.16
240.474	18927.35
240.546	18890.09
240.618	18832.46
240.689	18789.04
240.761	18741.04
240.833	18717.58
240.904	18684.04
240.976	18643.03
241.048	18608.23
241.119	18580.38
241.191	18547.61
241.262	18520.91
241.334	18479.81
241.405	18437.93
241.477	18385.4
241.549	18337.55
241.62	18302.61
241.692	18275.29
241.763	18243.24
241.835	18206.81
241.906	18167
241.978	18122.52
242.049	18092.55
242.121	18073.08
242.192	18046.86
242.264	17996.94
242.335	17934.24
242.407	17901.81
242.478	17860.31
242.55	17824.8
242.621	17772.22
242.693	17739.45
242.764	17687.79
242.836	17647.02
242.907	17610.25
242.979	17580.85
243.05	17549.48
243.122	17510.63
243.193	17471.31
243.264	17410.2
243.336	17368.13
243.407	17340.75
243.479	17319.31
243.55	17289.91
243.622	17247.55
243.693	17213.96
243.764	17193.19
243.836	17159.88
243.907	17121.52
243.978	17079.11
244.05	17047.64
244.121	17003.01
244.192	16968.94
244.264	16920.07
244.335	16881.03
244.407	16834.47
244.478	16802.62
244.549	16765.89
244.62	16719.53
244.692	16684.06
244.763	16660.05
244.834	16614.07
244.906	16561.59
244.977	16525.3
245.048	16499.03
245.119	16450.06
245.191	16404.04
245.262	16345.67
245.333	16324.8
245.405	16288.36
245.476	16265.71
245.547	16226.38
245.618	16199.15
245.689	16170.66
245.761	16145.12
245.832	16110.56
245.903	16087.67
245.974	16061.5
246.045	16025.83
246.117	16013.59
246.188	15966.69
246.259	15920.9
246.33	15887.69
246.401	15854.86
246.473	15800.93
246.544	15760.2
246.615	15740.58
246.686	15698.31
246.757	15671.9
246.828	15626.68
246.899	15602.15
246.97	15545.56
247.042	15508.45
247.113	15483.19
247.184	15462.71
247.255	15417.73
247.326	15390.69
247.397	15350.78
247.468	15310.92
247.539	15280.5
247.61	15228.01
247.681	15207.81
247.752	15191.96
247.823	15149.1
247.894	15117
247.965	15083.21
248.037	15046.96
248.108	14990.76
248.179	14963.91
248.25	14937.88
248.321	14911.56
248.392	14870.92
248.463	14871.65
248.534	14842.1
248.605	14818.67
248.675	14790.47
248.746	14779.34
248.817	14757.5
248.888	14742.85
248.959	14703.42
249.03	14684.28
249.101	14657.33
249.172	14624.36
249.243	14574.61
249.314	14574.52
249.385	14554.22
249.456	14539.47
249.527	14506.64
249.598	14500.91
249.669	14473.09
249.739	14453.62
249.81	14434.72
249.881	14391.53
249.952	14353.3
250.023	14326.6
250.094	14280.8
250.165	14247.49
250.235	14207.87
250.306	14173.45
250.377	14130.98
250.448	14104.37
250.519	14050.43
250.59	14034.32
250.66	14007.28
250.731	14005.21
250.802	13976.48
250.873	13948.13
250.944	13917.23
251.014	13887.2
251.085	13878.67
251.156	13855.43
251.227	13840.73
251.297	13831.33
251.368	13819.61
251.439	13810.17
251.51	13795.94
251.58	13765.96
251.651	13729.23
251.722	13718.48
251.792	13671.96
251.863	13639.47
251.934	13640.67
252.005	13646.5
252.075	13624.91
252.146	13605.58
252.217	13582.39
252.287	13561.9
252.358	13533.85
252.429	13529.8
252.499	13506.8
252.57	13480.67
252.641	13470.55
252.711	13444.52
252.782	13403.01
252.852	13394.53
252.923	13365.51
252.994	13334.13
253.064	13323.42
253.135	13293.97
253.205	13266.2
253.276	13265.91
253.347	13259.5
253.417	13217.27
253.488	13185.55
253.558	13154.41
253.629	13133.1
253.699	13111.75
253.77	13094.35
253.841	13076.17
253.911	13055.54
253.982	13028.45
254.052	13013.22
254.123	12985.74
254.193	12964.67
254.264	12975.81
254.334	12942.93
254.405	12915.69
254.475	12891.35
254.546	12865.08
254.616	12853.8
254.687	12835.19
254.757	12815.33
254.827	12795.66
254.898	12781.97
254.968	12757.05
255.039	12738.35
255.109	12725.72
255.18	12695.59
255.25	12659.82
255.321	12643.24
255.391	12609.11
255.461	12613.4
255.532	12565.53
255.602	12550.59
255.673	12513.18
255.743	12483.58
255.813	12442.61
255.884	12423.42
255.954	12405.44
256.024	12406.22
256.095	12385.3
256.165	12351.46
256.235	12337.91
256.306	12306.19
256.376	12292.07
256.446	12285.85
256.517	12268.11
256.587	12262.04
256.657	12244.49
256.728	12224.88
256.798	12204.53
256.868	12180.34
256.938	12147.75
257.009	12137.63
257.079	12117.43
257.149	12117
257.219	12076.89
257.29	12063.59
257.36	12030.57
257.43	12025.17
257.5	11977.6
257.571	11951.57
257.641	11935.47
257.711	11907.71
257.781	11896.91
257.852	11882.55
257.922	11847.36
257.992	11827.84
258.062	11793.91
258.132	11784.8
258.202	11756.36
258.273	11742.38
258.343	11744.16
258.413	11719.63
258.483	11705.17
258.553	11675.14
258.623	11648.49
258.693	11635.43
258.764	11636.34
258.834	11632.54
258.904	11610.56
258.974	11585.69
259.044	11572.96
259.114	11564.77
259.184	11545.69
259.254	11529.15
259.324	11490.6
259.394	11474.07
259.464	11476.23
259.535	11461.49
259.605	11440.95
259.675	11420.67
259.745	11403.17
259.815	11369.53
259.885	11343.17
259.955	11352.47
260.025	11330.54
260.095	11308.71
260.165	11291.99
260.235	11293.38
260.305	11266.78
260.375	11241.14
260.445	11251.5
260.515	11248.9
260.585	11241.43
260.655	11222.59
260.725	11215.5
260.795	11210.44
260.865	11210.39
260.934	11179.41
261.004	11165.72
261.074	11150.35
261.144	11144.27
261.214	11142.06
261.284	11124.61
261.354	11125.24
261.424	11086.78
261.494	11089.72
261.564	11081.62
261.634	11074.68
261.703	11029.28
261.773	11019.12
261.843	11005.67
261.913	10981.43
261.983	10943.94
262.053	10928.91
262.123	10918.11
262.192	10885.83
262.262	10873.54
262.332	10843.47
262.402	10831.09
262.472	10816.92
262.541	10780.35
262.611	10778.03
262.681	10739.72
262.751	10732.01
262.821	10708.45
262.89	10684.36
262.96	10668.75
263.03	10667.64
263.1	10653.47
263.169	10643.98
263.239	10632.75
263.309	10632.99
263.379	10630.15
263.448	10622.15
263.518	10618.25
263.588	10608.13
263.657	10604.76
263.727	10602.4
263.797	10588.52
263.867	10574.59
263.936	10545.45
264.006	10544.67
264.076	10526.65
264.145	10516.92
264.215	10492.93
264.285	10488.59
264.354	10456.27
264.424	10441.04
264.494	10408.86
264.563	10387.94
264.633	10394.69
264.702	10386.84
264.772	10361.54
264.842	10332.01
264.911	10325.46
264.981	10289.71
265.05	10270.63
265.12	10252.18
265.19	10232.95
265.259	10228.47
265.329	10220.62
265.398	10209.73
265.468	10209.83
265.537	10193.98
265.607	10187.47
265.676	10186.03
265.746	10176.3
265.815	10179.67
265.885	10163.24
265.955	10140.79
266.024	10124.66
266.094	10087.13
266.163	10084.29
266.232	10083.47
266.302	10079.52
266.371	10065.45
266.441	10053.99
266.51	10045.17
266.58	10032.79
266.649	10004.32
266.719	10000.08
266.788	9988.42
266.858	9994.83
266.927	9961.98
266.996	9951.53
267.066	9941.36
267.135	9920.84
267.205	9918.48
267.274	9908.56
267.343	9905.57
267.413	9895.08
267.482	9898.45
267.552	9901.34
267.621	9869.06
267.69	9837.8
267.76	9825.28
267.829	9814.93
267.898	9805
267.968	9791.28
268.037	9788.96
268.106	9799.27
268.176	9779.14
268.245	9759.53
268.314	9744.31
268.384	9749.27
268.453	9737.23
268.522	9727.6
268.592	9720.76
268.661	9697.54
268.73	9687.09
268.799	9663.35
268.869	9668.74
268.938	9633.25
269.007	9608.54
269.076	9604.93
269.146	9604.11
269.215	9593.32
269.284	9599.35
269.353	9586.54
269.422	9568.19
269.492	9544.3
269.561	9498.8
269.63	9493.98
269.699	9484.4
269.768	9467.49
269.838	9456.7
269.907	9452.08
269.976	9426.51
270.045	9404.46
270.114	9402.53
270.183	9387.89
270.253	9385.24
270.322	9358.42
270.391	9354.19
270.46	9360.59
270.529	9360.49
270.598	9357.8
270.667	9347.44
270.736	9328.32
270.806	9317.3
270.875	9317.63
270.944	9312.82
271.013	9337.42
271.082	9325.67
271.151	9318.93
271.22	9291.68
271.289	9279.6
271.358	9267.13
271.427	9263.85
271.496	9249.36
271.565	9228.75
271.634	9221.29
271.703	9243.01
271.772	9246.62
271.841	9236.32
271.91	9216.77
271.979	9200.06
272.048	9179.55
272.117	9180.08
272.186	9158.12
272.255	9163.71
272.324	9161.35
272.393	9158.94
272.462	9143.24
272.531	9134.29
272.6	9126.39
272.669	9137.85
272.738	9122.49
272.807	9110.84
272.876	9094.19
272.945	9120.42
273.013	9126.3
273.082	9131.02
273.151	9083.35
273.22	9073.33
273.289	9062.65
273.358	9063.27
273.427	9055.38
273.496	9049.17
273.564	9038.62
273.633	9044.4
273.702	9021.63
273.771	9008.92
273.84	8997.08
273.909	8995.2
273.977	8992.21
274.046	8978.93
274.115	8978.35
274.184	8964.39
274.253	8959.72
274.322	8966.03
274.39	8935.89
274.459	8920.24
274.528	8894.11
274.597	8891.31
274.665	8897.96
274.734	8906.53
274.803	8900.46
274.872	8890.35
274.94	8879.81
275.009	8940.44
275.078	8923.26
275.147	8921.77
275.215	8918.69
275.284	8931.92
275.353	8922.34
275.421	8904.2
275.49	8920.28
275.559	8912.19
275.627	8910.74
275.696	8904.68
275.765	8904.25
275.833	8892.02
275.902	8888.89
275.971	8897.61
276.039	8911.28
276.108	8906.94
276.177	8904.83
276.245	8896.84
276.314	8894.62
276.383	8898.18
276.451	8832.01
276.52	8835.33
276.588	8846.84
276.657	8851.89
276.725	8836.49
276.794	8829.94
276.863	8837.26
276.931	8806.55
277	8810.11
277.068	8820.36
277.137	8839.13
277.205	8833.55
277.274	8854.73
277.342	8866.81
277.411	8845.59
277.48	8829.75
277.548	8819.31
277.617	8813.67
277.685	8804.72
277.754	8809.92
277.822	8804.96
277.89	8818.11
277.959	8812.62
278.027	8795.77
278.096	8778.39
278.164	8807.91
278.233	8803.53
278.301	8791.93
278.37	8802.76
278.438	8794.67
278.507	8793.22
278.575	8766.27
278.643	8764.82
278.712	8746.29
278.78	8730.27
278.849	8741.29
278.917	8751.3
278.985	8744.99
279.054	8744.85
279.122	8755.97
279.191	8756.35
279.259	8749.81
279.327	8727.28
279.396	8742.29
279.464	8736.86
279.532	8749.9
279.601	8746.53
279.669	8744.7
279.737	8754.04
279.806	8761.93
279.874	8771.22
279.942	8768.09
280.011	8769.1
280.079	8772.62
280.147	8790.76
280.215	8793.46
280.284	8792.93
280.352	8784.7
280.42	8795.62
280.488	8793.65
280.557	8788.36
280.625	8787.59
280.693	8793.94
280.761	8793.12
280.83	8775.74
280.898	8784.46
280.966	8768.67
281.034	8729.05
281.102	8711.73
281.171	8704.56
281.239	8712.4
281.307	8698.93
281.375	8690.65
281.443	8716.35
281.512	8714.04
281.58	8720.3
281.648	8702.83
281.716	8702.3
281.784	8694.36
281.852	8685.84
281.92	8683.82
281.989	8692.82
282.057	8679.97
282.125	8720.27
282.193	8721.13
282.261	8717.76
282.329	8719.16
282.397	8724.02
282.465	8730.23
282.533	8748.08
282.601	8735.04
282.67	8709.38
282.738	8704.81
282.806	8712.75
282.874	8695.18
282.942	8700.48
283.01	8691.67
283.078	8696.62
283.146	8694.55
283.214	8708.66
283.282	8708.22
283.35	8716.5
283.418	8710.82
283.486	8710.2
283.554	8669.37
283.622	8668.02
283.69	8671.2
283.758	8662.82
283.826	8658.69
283.894	8668.07
283.962	8693.06
284.03	8711.54
284.098	8710.91
284.165	8707.83
284.233	8706.1
284.301	8694.16
284.369	8684.87
284.437	8676.93
284.505	8680.54
284.573	8690.89
284.641	8678.66
284.709	8686.41
284.777	8670.62
284.845	8677.75
284.912	8682.32
284.98	8681.79
285.048	8678.33
285.116	8683.86
285.184	8698.88
285.252	8701.14
285.319	8687.13
285.387	8671.44
285.455	8656.67
285.523	8663.84
285.591	8658.64
285.659	8659.94
285.726	8676.01
285.794	8656.38
285.862	8648.39
285.93	8651.23
285.997	8652.43
286.065	8647.81
286.133	8644.97
286.201	8645.36
286.269	8632.12
286.336	8625.1
286.404	8623.36
286.472	8630.63
286.539	8608.59
286.607	8590.59
286.675	8594.44
286.743	8604.84
286.81	8597.23
286.878	8612.3
286.946	8601.66
287.013	8601.71
287.081	8600.89
287.149	8591.65
287.216	8615.81
287.284	8617.01
287.352	8611.91
287.419	8603.44
287.487	8615.08
287.555	8614.75
287.622	8613.74
287.69	8620.52
287.758	8632.55
287.825	8630.92
287.893	8617.25
287.96	8626.58
288.028	8634.53
288.096	8635.73
288.163	8632.21
288.231	8621.1
288.298	8620.86
288.366	8634.86
288.433	8631.45
288.501	8626.49
288.569	8625.86
288.636	8617.97
288.704	8632.6
288.771	8633.76
288.839	8622.59
288.906	8618.93
288.974	8628.99
289.041	8623.85
289.109	8613.45
289.176	8617.69
289.244	8616.58
289.311	8632.7
289.379	8644.73
289.446	8646.23
289.514	8645.94
289.581	8652.77
289.649	8658.45
289.716	8653.11
289.783	8645.79
289.851	8665.76
289.918	8667.11
289.986	8669.18
290.053	8673.42
290.121	8676.54
290.188	8684.73
290.255	8714.66
290.323	8711.29
290.39	8698.49
290.458	8713.7
290.525	8722.46
290.592	8719.52
290.66	8717.79
290.727	8710.47
290.794	8721.59
290.862	8725.87
290.929	8728.14
290.996	8726.26
291.064	8732.52
291.131	8744.84
291.198	8755.38
291.266	8756.73
291.333	8754.08
291.4	8764.28
291.468	8787.25
291.535	8778.39
291.602	8783.54
291.669	8779.16
291.737	8783.49
291.804	8791.29
291.871	8800.43
291.938	8809.92
292.006	8838.32
292.073	8859.11
292.14	8873.55
292.207	8860.41
292.275	8859.88
292.342	8866.96
292.409	8887.66
292.476	8914.52
292.543	8908.65
292.611	8915.39
292.678	8930.26
292.745	8956.93
292.812	8969.59
292.879	8963
292.946	8968.82
293.014	8978.74
293.081	8986.78
293.148	9002.28
293.215	9014.46
293.282	9011.62
293.349	9021.53
293.416	9000.93
293.484	9014.17
293.551	9022.74
293.618	9044.06
293.685	9069.67
293.752	9071.5
293.819	9068.13
293.886	9049.84
293.953	9059.75
294.02	9065.05
294.087	9071.31
294.154	9068.76
294.221	9082.38
294.288	9082.58
294.356	9097.74
294.423	9109.78
294.49	9100.2
294.557	9108.09
294.624	9096.68
294.691	9118.25
294.758	9125.04
294.825	9138.14
294.892	9130.53
294.959	9126.2
295.026	9131.54
295.093	9127.4
295.16	9125.52
295.226	9131.35
295.293	9162.31
295.36	9170.73
295.427	9188.64
295.494	9198.66
295.561	9208.38
295.628	9231.21
295.695	9245.47
295.762	9247.68
295.829	9252.83
295.896	9271.42
295.963	9285.52
296.03	9296.93
296.096	9299.2
296.163	9309.02
296.23	9322.41
296.297	9333.87
296.364	9342.63
296.431	9351.87
296.498	9352.36
296.564	9375.03
296.631	9378.69
296.698	9365.35
296.765	9382.45
296.832	9370.31
296.899	9356.4
296.965	9373.78
297.032	9354.76
297.099	9373.54
297.166	9380.81
297.233	9374.31
297.299	9367.86
297.366	9365.55
297.433	9375.27
297.5	9382.64
297.566	9378.21
297.633	9377.2
297.7	9376.81
297.767	9370.84
297.833	9373.3
297.9	9377.2
297.967	9364.44
298.033	9375.23
298.1	9403.11
298.167	9398.05
298.234	9403.25
298.3	9415.53
298.367	9407.3
298.434	9406.82
298.5	9395.26
298.567	9395.55
298.634	9398.77
298.7	9420.06
298.767	9422.7
298.834	9434.45
298.9	9434.84
298.967	9425.79
299.033	9434.5
299.1	9455.31
299.167	9472.64
299.233	9472.5
299.3	9485.93
299.366	9502.35
299.433	9522.2
299.5	9497.92
299.566	9500.24
299.633	9515.98
299.699	9524.8
299.766	9526.19
299.832	9533.37
299.899	9545.07
299.965	9558.22
300.032	9561.44
300.099	9568.04
300.165	9576.08
300.232	9574.4
300.298	9568.76
300.365	9590.15
300.431	9592.6
300.498	9583.21
300.564	9587.26
300.631	9596.07
300.697	9610.9
300.763	9612.11
300.83	9601.03
300.896	9612.2
300.963	9618.03
301.029	9620.77
301.096	9631.27
301.162	9642.45
301.229	9638.5
301.295	9627.81
301.361	9632.67
301.428	9631.95
301.494	9614.85
301.561	9615.57
301.627	9617.55
301.693	9623.91
301.76	9623.81
301.826	9614.61
301.892	9629.44
301.959	9641.24
302.025	9640.38
302.092	9629.93
302.158	9639.08
302.224	9641.68
302.291	9636.28
302.357	9632.19
302.423	9627.42
302.49	9614.61
302.556	9625.01
302.622	9629.01
302.688	9646.01
302.755	9660.94
302.821	9668.07
302.887	9680.21
302.954	9676.74
303.02	9682.76
303.086	9692.15
303.152	9693.11
303.219	9692.25
303.285	9690.42
303.351	9693.84
303.417	9691.57
303.483	9682.38
303.55	9674.67
303.616	9673.51
303.682	9670.34
303.748	9667.25
303.815	9683.2
303.881	9693.89
303.947	9682.18
304.013	9679.39
304.079	9666.53
304.145	9642.98
304.212	9644.42
304.278	9636.62
304.344	9634.5
304.41	9615.48
304.476	9601.99
304.542	9595.06
304.608	9598.24
304.674	9586.05
304.741	9581.52
304.807	9587.06
304.873	9590.63
304.939	9605.32
305.005	9587.35
305.071	9585.72
305.137	9586.73
305.203	9559.95
305.269	9555.95
305.335	9566.11
305.401	9568.33
305.467	9566.31
305.533	9568.67
305.599	9568.57
305.666	9579.31
305.732	9584.03
305.798	9607.24
305.864	9634.02
305.93	9639.7
305.996	9643.12
306.062	9646.3
306.128	9645.24
306.194	9634.26
306.259	9635.37
306.325	9617.41
306.391	9633.01
306.457	9642.54
306.523	9649.24
306.589	9679.34
306.655	9668.84
306.721	9654.58
306.787	9640.57
306.853	9654.73
306.919	9638.26
306.985	9633.49
307.051	9619.43
307.117	9611.73
307.183	9603.54
307.248	9573.1
307.314	9571.75
307.38	9564.77
307.446	9566.36
307.512	9551.14
307.578	9553.64
307.644	9545.75
307.709	9555.91
307.775	9547.48
307.841	9549.6
307.907	9548.25
307.973	9523.59
308.039	9528.31
308.104	9531.82
308.17	9535.97
308.236	9518
308.302	9524.12
308.368	9521.13
308.433	9525.13
308.499	9519.64
308.565	9506.49
308.631	9514.58
308.696	9492.67
308.762	9492
308.828	9487.9
308.894	9471.2
308.959	9450.39
309.025	9442.74
309.091	9434.84
309.156	9428.87
309.222	9422.27
309.288	9411.19
309.354	9386.16
309.419	9384.04
309.485	9364.2
309.551	9364.82
309.616	9349.08
309.682	9345.85
309.748	9335.02
309.813	9325.34
309.879	9319.08
309.945	9311.81
310.01	9304.15
310.076	9308.15
310.141	9300.3
310.207	9282.39
310.273	9284.75
310.338	9298.8
310.404	9282.77
310.469	9264.86
310.535	9253.4
310.601	9228.6
310.666	9230.96
310.732	9245.55
310.797	9227.93
310.863	9220.37
310.928	9212.71
310.994	9215.79
311.059	9218.73
311.125	9214.21
311.191	9226.73
311.256	9216.13
311.322	9212.57
311.387	9186.91
311.453	9549.67
311.518	9521.8
311.584	9518.57
311.649	9522.62
311.715	9503.55
311.78	9502.93
311.846	9495.22
311.911	9501.77
311.976	9502.69
312.042	9484.73
312.107	9469.22
312.173	9466.09
312.238	9453.29
312.304	9451.8
312.369	9447.66
312.434	9431.48
312.5	9422.91
312.565	9388.05
312.631	9390.36
312.696	9379.82
312.761	9386.9
312.827	9015.85
312.892	9053.07
312.958	9053.93
313.023	9049.7
313.088	9046.66
313.154	9039.59
313.219	9032.8
313.284	9024.85
313.35	9027.26
313.415	9021.58
313.48	9017.49
313.546	9018.02
313.611	9036.94
313.676	9027.16
313.741	9015.13
313.807	9020.04
313.872	9023.31
313.937	9031.35
314.003	9032.32
314.068	9043.92
314.133	9045.27
314.198	9030.78
314.264	9009.64
314.329	8995.87
314.394	8994.09
314.459	8988.07
314.525	9004.58
314.59	9001.55
314.655	8979.6
314.72	8979.36
314.785	8983.93
314.851	8981.48
314.916	8962.03
314.981	8945.23
315.046	8931.08
315.111	8923.23
315.176	8905.76
315.242	8912.78
315.307	8911.1
315.372	8897.72
315.437	8882.26
315.502	8871.53
315.567	8890.11
315.632	8878.12
315.698	8882.51
315.763	8877.74
315.828	8874.85
315.893	8868.59
315.958	8864.41
316.023	8865.51
316.088	8851.84
316.153	8824.79
316.218	8812.18
316.283	8798.03
316.348	8779.89
316.413	8779.65
316.479	8759.1
316.544	8730.66
316.609	8696.68
316.674	8661.07
316.739	8624.5
316.804	8588.99
316.869	8560.35
316.934	8515.4
316.999	8483.16
317.064	8433.6
317.129	8386.53
317.194	8345.35
317.259	8295.26
317.324	8245.56
317.389	8200
317.454	8157.23
317.518	8121.63
317.583	8096.66
317.648	8069.1
317.713	8036.44
317.778	7979.67
317.843	7957.5
317.908	7917.87
317.973	7873.91
318.038	7844.77
318.103	7809.81
318.168	7781.44
318.233	7747.73
318.297	7698.92
318.362	7657.37
318.427	7615.89
318.492	7590.93
318.557	7542.67
318.622	7512.72
318.687	7488.97
318.751	7450.09
318.816	7422.88
318.881	7392.06
318.946	7339.67
319.011	7294.49
319.075	7253.77
319.14	7216.39
319.205	7164.82
319.27	7136.23
319.335	7094.72
319.399	7046.57
319.464	7018.37
319.529	6966.87
319.594	6923.91
319.658	6896.24
319.723	6854.55
319.788	6826.02
319.853	6767.9
319.917	6740.05
319.982	6686.11
320.047	6650.09
320.112	6617.92
320.176	6563.6
320.241	6527.2
320.306	6496.66
320.37	6455.56
320.435	6415.19
320.5	6382.16
320.564	6347.6
320.629	6298.98
320.694	6266.29
320.758	6229.72
320.823	6189.98
320.888	6161.72
320.952	6113.83
321.017	6068.1
321.082	6029.1
321.146	5994.98
321.211	5964.43
321.275	5923.51
321.34	5882.51
321.405	5831.81
321.469	5786.35
321.534	5744.01
321.598	5693.51
321.663	5660.41
321.727	5629.91
321.792	5584.89
321.857	5544.57
321.921	5500.56
321.986	5459.78
322.05	5400.27
322.115	5364.51
322.179	5317.21
322.244	5260.39
322.308	5228.14
322.373	5184.3
322.437	5144.59
322.502	5115.31
322.566	5067.21
322.631	5033.01
322.695	4995.9
322.76	4953.86
322.824	4919.24
322.889	4874.77
322.953	4830.2
323.018	4763.12
323.082	4697.55
323.146	4644.01
323.211	4590.74
323.275	4549.87
323.34	4505.67
323.404	4472.86
323.468	4427.12
323.533	4381.77
323.597	4338.31
323.662	4284.65
323.726	4246.24
323.79	4199.76
323.855	4133.37
323.919	4087.09
323.983	4041.28
324.048	3971.11
324.112	4086.27
324.177	3955.05
324.241	3749.3
324.305	3545.73
324.37	3346.81
324.434	3157.02
324.498	3115.23
324.562	3062.76
324.627	2998.49
324.691	2942.78
324.755	2876.09
324.82	2795.49
324.884	2715.2
324.948	2638.7
325.012	2544
325.077	2417.68
