Data from 20250703_urea_0.1M_MAYP1162681_23-41-05-101.txt Node
Date: Thu Jul 03 23:41:05 BST 2025
User: adleo
Spectrometer: MAYP116268
Trigger mode: 0
Integration Time (sec): 1.000000E0
Scans to average: 1
Electric dark correction enabled: true
Nonlinearity correction enabled: true
Boxcar width: 10
XAxis mode: Wavelengths
Number of Pixels in Spectrum: 2068
>>>>>Begin Spectral Data<<<<<
179.565	1360.76
179.642	1422.95
179.718	1474.72
179.795	1518.25
179.871	1557.1
179.948	1574.43
180.024	1599.54
180.101	1628.01
180.177	1644.71
180.254	1671.12
180.33	1695.59
180.407	1761.27
180.483	1868.79
180.56	1972.9
180.636	2065.4
180.712	2052.26
180.789	2061.49
180.865	2074.57
180.942	2084.51
181.018	2094.83
181.095	2111.81
181.171	2118
181.248	2121
181.324	2136.56
181.4	2146.26
181.477	2159.2
181.553	2176.51
181.63	2198.12
181.706	2214.39
181.782	2225.95
181.859	2226.04
181.935	2232.52
182.011	2230.61
182.088	2249.32
182.164	2266.17
182.24	2281.05
182.317	2291.43
182.393	2289.33
182.469	2307.18
182.546	2321.5
182.622	2328.93
182.698	2323.07
182.775	2337.97
182.851	2353.39
182.927	2346.63
183.003	2342.06
183.08	2335.35
183.156	2344.35
183.232	2341.59
183.308	2328.88
183.385	2337.3
183.461	2354.25
183.537	2356.01
183.613	2369.76
183.69	2357.72
183.766	2348.06
183.842	2359.62
183.918	2366.57
183.995	2384.09
184.071	2387.38
184.147	2381.43
184.223	2365.82
184.299	2378.44
184.375	2363.16
184.452	2369.02
184.528	2420.92
184.604	2433.29
184.68	2445.24
184.756	2454.71
184.832	2460.19
184.908	2464.47
184.985	2460.95
185.061	2444.1
185.137	2456.29
185.213	2444.77
185.289	2448.24
185.365	2440.96
185.441	2436.29
185.517	2450.63
185.593	2444.25
185.669	2440.35
185.745	2452.49
185.822	2471.62
185.898	2462.23
185.974	2473.85
186.05	2466.08
186.126	2432.28
186.202	2422.09
186.278	2421
186.354	2409.81
186.43	2417.14
186.506	2415.57
186.582	2418.33
186.658	2427.66
186.734	2404.19
186.81	2407.34
186.886	2409.57
186.962	2423.23
187.038	2421.81
187.114	2412.09
187.19	2420.9
187.266	2409.14
187.341	2408.47
187.417	2401.86
187.493	2402.95
187.569	2404.57
187.645	2397.43
187.721	2383.91
187.797	2393.43
187.873	2394.76
187.949	2389.76
188.025	2384.86
188.101	2388.85
188.176	2393.57
188.252	2386.19
188.328	2392.9
188.404	2391.8
188.48	2386.66
188.556	2378.76
188.632	2380.05
188.707	2379.95
188.783	2377.24
188.859	2372.24
188.935	2364.1
189.011	2374.53
189.086	2369.81
189.162	2363.15
189.238	2361.86
189.314	2358.63
189.39	2351.87
189.465	2344.54
189.541	2363.87
189.617	2344.3
189.693	2340.59
189.768	2345.07
189.844	2374.54
189.92	2364.22
189.996	2371.98
190.071	2385.64
190.147	2384.21
190.223	2390.12
190.298	2382.31
190.374	2367.65
190.45	2381.92
190.526	2389.45
190.601	2381.73
190.677	2380.69
190.753	2410.17
190.828	2413.65
190.904	2428.26
190.98	2444.16
191.055	2456.83
191.131	2447.21
191.207	2473.11
191.282	2481.44
191.358	2468.87
191.433	2448.15
191.509	2463.37
191.585	2462.09
191.66	2461.99
191.736	2471.04
191.811	2461.76
191.887	2476.47
191.963	2501.66
192.038	2509.8
192.114	2508.95
192.189	2513.37
192.265	2512.52
192.34	2487.03
192.416	2485.13
192.491	2481.93
192.567	2482.7
192.642	2485.17
192.718	2482.32
192.793	2463.65
192.869	2460.7
192.944	2462.27
193.02	2475.03
193.095	2481.17
193.171	2485.89
193.246	2485.7
193.322	2481.22
193.397	2485.13
193.473	2473.31
193.548	2452.31
193.624	2456.55
193.699	2454.79
193.775	2471.37
193.85	2472.32
193.925	2485.99
194.001	2486.79
194.076	2479.84
194.152	2468.89
194.227	2461.22
194.302	2452.94
194.378	2457.89
194.453	2453.27
194.529	2468.27
194.604	2448.09
194.679	2441.18
194.755	2421.29
194.83	2436.29
194.905	2435.82
194.981	2446.39
195.056	2439.3
195.131	2444.53
195.207	2446.01
195.282	2438.77
195.357	2418.91
195.433	2433.48
195.508	2416.29
195.583	2424.72
195.659	2437
195.734	2445
195.809	2441.67
195.884	2451.43
195.96	2453.9
196.035	2471.19
196.11	2467
196.185	2485.04
196.261	2490.61
196.336	2525.18
196.411	2511.12
196.486	2518.41
196.561	2512.08
196.637	2519.98
196.712	2539.98
196.787	2541.36
196.862	2558.27
196.937	2569.03
197.013	2576.41
197.088	2592.89
197.163	2616.19
197.238	2635.78
197.313	2637.54
197.388	2654.59
197.464	2687.19
197.539	2699.76
197.614	2693.38
197.689	2708.1
197.764	2725.16
197.839	2745.88
197.914	2737.59
197.989	2761.47
198.065	2773.38
198.14	2826.35
198.215	2854.75
198.29	2868.39
198.365	2883.35
198.44	2892.93
198.515	2924.73
198.59	2938.98
198.665	2967.01
198.74	2975.26
198.815	2977.69
198.89	3001.72
198.965	3035.87
199.04	3029.67
199.115	3047.93
199.19	3092.83
199.265	3096.27
199.34	3105.9
199.415	3145.7
199.49	3171.2
199.565	3179.93
199.64	3208.59
199.715	3206.78
199.79	3215.22
199.865	3218.46
199.94	3217.65
200.015	3252.19
200.09	3258.01
200.165	3266.03
200.24	3272.76
200.315	3322.33
200.39	3335.59
200.464	3344.56
200.539	3344.61
200.614	3363.97
200.689	3389.75
200.764	3401.68
200.839	3419.95
200.914	3425.24
200.989	3409.73
201.063	3424.04
201.138	3405.97
201.213	3407.36
201.288	3384.74
201.363	3390.99
201.438	3395.76
201.512	3413.12
201.587	3398.13
201.662	3404.72
201.737	3421.86
201.812	3428.54
201.886	3386.74
201.961	3403.12
202.036	3393.15
202.111	3388.42
202.186	3360.05
202.26	3340.43
202.335	3315.23
202.41	3312.32
202.485	3297.82
202.559	3276.5
202.634	3250.5
202.709	3260.7
202.784	3240.71
202.858	3248.1
202.933	3231.93
203.008	3228.59
203.082	3204.89
203.157	3205.56
203.232	3165.78
203.306	3146.36
203.381	3118.54
203.456	3099.75
203.53	3082.28
203.605	3068.93
203.68	3054.95
203.754	3055.86
203.829	3053.57
203.904	3045.22
203.978	3044.31
204.053	3062.2
204.127	3067.59
204.202	3081.85
204.277	3082.37
204.351	3095.82
204.426	3105.8
204.5	3118.58
204.575	3107.09
204.65	3149.03
204.724	3166.5
204.799	3198.64
204.873	3225.9
204.948	3259.25
205.022	3282.67
205.097	3306.16
205.171	3355.84
205.246	3403.21
205.32	3444.38
205.395	3486.88
205.469	3521.33
205.544	3575.5
205.618	3609.03
205.693	3675.14
205.767	3715.54
205.842	3796.15
205.916	3847.8
205.991	3896.88
206.065	3968.33
206.14	4048.06
206.214	4109.77
206.289	4173.52
206.363	4264.05
206.438	4342.24
206.512	4431.43
206.586	4529.84
206.661	4621.66
206.735	4682.57
206.81	4774.33
206.884	4879.93
206.958	4956.25
207.033	5069.87
207.107	5172.82
207.181	5301.3
207.256	5391.84
207.33	5515.29
207.405	5631.86
207.479	5754.32
207.553	5871.46
207.628	5959.4
207.702	6081.53
207.776	6189.55
207.851	6310.73
207.925	6439.8
207.999	6551.33
208.073	6661.92
208.148	6781.07
208.222	6890.17
208.296	7046.59
208.371	7182.91
208.445	7317.37
208.519	7475.1
208.593	7609.7
208.668	7731.55
208.742	7859.64
208.816	7988.55
208.89	8132.67
208.965	8260.1
209.039	8398.66
209.113	8542.43
209.187	8691.17
209.261	8818.83
209.336	8969.2
209.41	9122.19
209.484	9256.72
209.558	9410.94
209.632	9551.49
209.707	9696.43
209.781	9852.75
209.855	10004.53
209.929	10155.22
210.003	10290.49
210.077	10411.89
210.151	10593.97
210.226	10765.93
210.3	10922.98
210.374	11078.03
210.448	11208.91
210.522	11348.57
210.596	11495.32
210.67	11635.42
210.744	11817.59
210.818	11982.37
210.892	12135.74
210.966	12249.06
211.041	12382.62
211.115	12500.57
211.189	12653.37
211.263	12798.26
211.337	12926.1
211.411	13058.62
211.485	13171.61
211.559	13303.45
211.633	13428.73
211.707	13509.33
211.781	13623.39
211.855	13708.04
211.929	13816.69
212.003	13915.32
212.077	14048.37
212.151	14174.18
212.225	14293.44
212.299	14386.58
212.373	14482.41
212.447	14581.71
212.52	14721.69
212.594	14841.14
212.668	14961.17
212.742	15050.2
212.816	15150.94
212.89	15243.83
212.964	15342.83
213.038	15447.14
213.112	15569.04
213.186	15686.84
213.26	15775.54
213.333	15826.39
213.407	15926.79
213.481	16023.48
213.555	16128.56
213.629	16196.66
213.703	16273.39
213.777	16364.58
213.85	16440.68
213.924	16568.59
213.998	16656.26
214.072	16738.19
214.146	16801.76
214.219	16882.06
214.293	16960.61
214.367	17042.21
214.441	17137.44
214.515	17212.19
214.588	17273.01
214.662	17311.66
214.736	17369.01
214.81	17451.08
214.883	17546.65
214.957	17609.11
215.031	17677.88
215.105	17727.52
215.178	17788.29
215.252	17847.52
215.326	17889.69
215.4	17935.61
215.473	17943.18
215.547	17993.59
215.621	18044.24
215.694	18121.97
215.768	18169.05
215.842	18223.79
215.915	18269.29
215.989	18299.89
216.063	18341.23
216.136	18390.1
216.21	18450.96
216.284	18518.09
216.357	18579.34
216.431	18629.41
216.504	18690.76
216.578	18767.04
216.652	18834.07
216.725	18885.06
216.799	18944.72
216.873	19011.46
216.946	19075.5
217.02	19131.45
217.093	19170.97
217.167	19197.76
217.24	19229.47
217.314	19277.81
217.387	19322.77
217.461	19362.81
217.535	19437.8
217.608	19478.95
217.682	19528.2
217.755	19587.86
217.829	19627.43
217.902	19665.54
217.976	19710.26
218.049	19756.86
218.123	19788.33
218.196	19840.57
218.27	19884.52
218.343	19918.45
218.417	19965.68
218.49	20012.47
218.563	20074.3
218.637	20126.2
218.71	20190.97
218.784	20239.41
218.857	20290.25
218.931	20345.48
219.004	20405.28
219.077	20449.96
219.151	20500.99
219.224	20537.09
219.298	20577.86
219.371	20640.03
219.444	20665.43
219.518	20706.68
219.591	20745.43
219.665	20818.21
219.738	20849.1
219.811	20882.98
219.885	20933.4
219.958	20979.28
220.031	21012.15
220.105	21050.32
220.178	21098.32
220.251	21141.51
220.325	21191.83
220.398	21242.34
220.471	21282.39
220.544	21328.28
220.618	21361.78
220.691	21401.15
220.764	21444.72
220.838	21478.46
220.911	21508.69
220.984	21571.73
221.057	21617.9
221.131	21650.49
221.204	21642.48
221.277	21707.51
221.35	21773.3
221.424	21801.02
221.497	21823.05
221.57	21858.28
221.643	21904.22
221.716	21938.16
221.79	21961.68
221.863	21993.11
221.936	22010.56
222.009	22035.1
222.082	22054.96
222.155	22068.98
222.229	22116.08
222.302	22145.63
222.375	22168.48
222.448	22187.62
222.521	22207.09
222.594	22226.42
222.667	22235.49
222.74	22276.89
222.814	22298.64
222.887	22310.45
222.96	22340.82
223.033	22370.61
223.106	22405.85
223.179	22423.35
223.252	22441.91
223.325	22456.28
223.398	22471.32
223.471	22496.78
223.544	22513.26
223.617	22531.87
223.69	22559.45
223.763	22547.54
223.837	22569.43
223.91	22598.55
223.983	22597.49
224.056	22601.01
224.129	22614.07
224.202	22653.22
224.275	22655.43
224.348	22647.57
224.42	22645.41
224.493	22634.36
224.566	22635.14
224.639	22640.01
224.712	22637.5
224.785	22650.08
224.858	22656.54
224.931	22648.64
225.004	22643.38
225.077	22655.43
225.15	22632.24
225.223	22632.05
225.296	22671.64
225.369	22656.26
225.442	22644.44
225.514	22662.19
225.587	22673.18
225.66	22684.65
225.733	22685.14
225.806	22694.87
225.879	22689.76
225.952	22685.62
226.025	22704.9
226.097	22719.03
226.17	22725.83
226.243	22706.4
226.316	22692.9
226.389	22700.27
226.461	22719.27
226.534	22719.37
226.607	22703.27
226.68	22728.58
226.753	22733.44
226.825	22712.66
226.898	22733.1
226.971	22730.07
227.044	22730.74
227.117	22724.43
227.189	22720.91
227.262	22723.32
227.335	22720.71
227.407	22720.23
227.48	22718.06
227.553	22711.41
227.626	22705.33
227.698	22692.08
227.771	22691.5
227.844	22685.62
227.916	22668.21
227.989	22633.21
228.062	22621.93
228.134	22645.46
228.207	22644.64
228.28	22612.87
228.352	22590.01
228.425	22576.76
228.498	22577.24
228.57	22556.51
228.643	22566.1
228.716	22554.77
228.788	22533.9
228.861	22527.19
228.934	22531.2
229.006	22522.13
229.079	22509.55
229.151	22488.34
229.224	22464.96
229.296	22462.64
229.369	22477.15
229.442	22484.14
229.514	22477.64
229.587	22480.05
229.659	22448.81
229.732	22434.97
229.804	22447.74
229.877	22469.78
229.949	22470.5
230.022	22485.74
230.094	22476.62
230.167	22473.68
230.239	22455.8
230.312	22450.74
230.384	22450.35
230.457	22439.79
230.529	22434.87
230.602	22425.19
230.674	22418.53
230.747	22426.58
230.819	22424.27
230.892	22387.68
230.964	22380.78
231.037	22367.38
231.109	22355.48
231.181	22345.98
231.254	22318.21
231.326	22301.44
231.399	22280.42
231.471	22249.95
231.544	22200.97
231.616	22195.91
231.688	22173.06
231.761	22142.78
231.833	22123.55
231.905	22083.25
231.978	22055.77
232.05	22024.39
232.122	22008.82
232.195	21985.54
232.267	21961.15
232.339	21935.79
232.412	21919.31
232.484	21897.42
232.556	21872.89
232.629	21877.66
232.701	21869.85
232.773	21850.81
232.846	21827.29
232.918	21806.75
232.99	21803.28
233.062	21796.68
233.135	21769.3
233.207	21723.6
233.279	21716.95
233.351	21699.89
233.424	21674.25
233.496	21651.74
233.568	21662.49
233.64	21618.29
233.713	21604.79
233.785	21595.68
233.857	21575.73
233.929	21540.11
234.001	21533.55
234.074	21535.91
234.146	21478.75
234.218	21450.79
234.29	21424.23
234.362	21393.97
234.434	21355.36
234.507	21316.41
234.579	21270.1
234.651	21238.09
234.723	21231.83
234.795	21208.16
234.867	21179.97
234.939	21167.39
235.012	21144.98
235.084	21120.73
235.156	21119.24
235.228	21087.72
235.3	21050.32
235.372	21020.68
235.444	21008.34
235.516	20948.33
235.588	20915.85
235.66	20894.83
235.732	20848.9
235.804	20891.08
235.876	20866.4
235.948	20847.9
236.02	20809.97
236.092	20785.39
236.164	20752.57
236.236	20713.1
236.308	20682.3
236.38	20657
236.452	20619.55
236.524	20593.05
236.596	20572.13
236.668	20544.95
236.74	20502.49
236.812	20473.72
236.884	20454.59
236.956	20423.7
237.028	20390.11
237.1	20338.01
237.172	20322.25
237.244	20315.12
237.316	20240.08
237.388	20208.56
237.46	20168.99
237.532	20161.19
237.604	20119.65
237.675	20112.8
237.747	20092.37
237.819	20052.08
237.891	20008.76
237.963	19969.82
238.035	19927.46
238.107	19858.84
238.178	19839.85
238.25	19809.83
238.322	19799.37
238.394	19746.36
238.466	19711.76
238.538	19688.19
238.609	19668.44
238.681	19605.16
238.753	19562.95
238.825	19527
238.897	19494.18
238.968	19482.37
239.04	19430.81
239.112	19428.64
239.184	19387.44
239.255	19353.75
239.327	19327.97
239.399	19306
239.471	19286.96
239.542	19259.64
239.614	19240.51
239.686	19169.62
239.758	19149.48
239.829	19105.53
239.901	19085.58
239.973	19043.27
240.044	19013.44
240.116	18979.94
240.188	18950.12
240.259	18915.27
240.331	18864.77
240.403	18828.44
240.474	18767.23
240.546	18726.23
240.618	18662.95
240.689	18615.2
240.761	18576.69
240.833	18553.46
240.904	18516.5
240.976	18473.85
241.048	18439.74
241.119	18411.54
241.191	18394.44
241.262	18376.22
241.334	18336.37
241.405	18299.74
241.477	18268.42
241.549	18230.54
241.62	18188.33
241.692	18161.1
241.763	18133.34
241.835	18108.91
241.906	18077.97
241.978	18029.3
242.049	18013.78
242.121	17999.23
242.192	17978.26
242.264	17936.58
242.335	17885.59
242.407	17858.51
242.478	17825.69
242.55	17794.46
242.621	17750.03
242.693	17706.12
242.764	17659.23
242.836	17618.66
242.907	17590.85
242.979	17561.26
243.05	17527.53
243.122	17514.18
243.193	17490.27
243.264	17439.24
243.336	17398.13
243.407	17372.2
243.479	17363.57
243.55	17326.9
243.622	17293.65
243.693	17256.63
243.764	17233.84
243.836	17187.57
243.907	17149.06
243.978	17111.67
244.05	17082.6
244.121	17034.7
244.192	17012.77
244.264	16965.35
244.335	16930.36
244.407	16874.45
244.478	16846.69
244.549	16814.74
244.62	16759.75
244.692	16718.93
244.763	16694.39
244.834	16661.62
244.906	16620.61
244.977	16592.65
245.048	16575.3
245.119	16540.41
245.191	16497.18
245.262	16437.07
245.333	16428.21
245.405	16383.87
245.476	16353.36
245.547	16318.8
245.618	16298.94
245.689	16258.21
245.761	16232
245.832	16197.15
245.903	16176.52
245.974	16149.63
246.045	16105.81
246.117	16090.24
246.188	16040.5
246.259	15990.57
246.33	15952.59
246.401	15920.87
246.473	15870.12
246.544	15833.78
246.615	15807.12
246.686	15776.81
246.757	15767.84
246.828	15712.75
246.899	15707.78
246.97	15662.81
247.042	15620.73
247.113	15590.32
247.184	15582.51
247.255	15542.55
247.326	15516.57
247.397	15487.65
247.468	15445.28
247.539	15419.64
247.61	15379.78
247.681	15363.53
247.752	15356.4
247.823	15312.2
247.894	15282.45
247.965	15245.87
248.037	15210.25
248.108	15160.31
248.179	15128.3
248.25	15090.66
248.321	15079.71
248.392	15035.42
248.463	15024.19
248.534	14990.88
248.605	14972.22
248.675	14930.87
248.746	14910.19
248.817	14883.63
248.888	14856.73
248.959	14813.15
249.03	14795.75
249.101	14769.58
249.172	14734.39
249.243	14681.65
249.314	14669.98
249.385	14639.81
249.456	14617.15
249.527	14583.12
249.598	14562.01
249.669	14532.65
249.739	14511.1
249.81	14479.38
249.881	14431.51
249.952	14405.63
250.023	14382.83
250.094	14342.38
250.165	14316.21
250.235	14281.02
250.306	14251.85
250.377	14214.35
250.448	14194.83
250.519	14142.04
250.59	14126.95
250.66	14097.21
250.731	14093.88
250.802	14066.65
250.873	14046.88
250.944	14021.96
251.014	13977.85
251.085	13976.74
251.156	13953.84
251.227	13942.66
251.297	13940.06
251.368	13930.99
251.439	13911.91
251.51	13902.5
251.58	13868.47
251.651	13832.99
251.722	13821.86
251.792	13785.99
251.863	13762.13
251.934	13760.05
252.005	13767
252.075	13740.34
252.146	13726.02
252.217	13704.28
252.287	13693.43
252.358	13668.61
252.429	13667.64
252.499	13655.21
252.57	13637.13
252.641	13622.57
252.711	13596.35
252.782	13551.37
252.852	13548.67
252.923	13528.9
252.994	13512.61
253.064	13506.2
253.135	13472.31
253.205	13446.18
253.276	13440.4
253.347	13437.22
253.417	13396.77
253.488	13357.72
253.558	13332.75
253.629	13309.56
253.699	13289.51
253.77	13273.55
253.841	13240.05
253.911	13220.77
253.982	13196.13
254.052	13184.76
254.123	13170.92
254.193	13152.17
254.264	13173.57
254.334	13140.46
254.405	13100.25
254.475	13053.59
254.546	13021.53
254.616	13023.12
254.687	13002.35
254.757	12985.76
254.827	12958.96
254.898	12940.69
254.968	12936.59
255.039	12901.89
255.109	12888.48
255.18	12860.24
255.25	12814.59
255.321	12809.09
255.391	12761.61
255.461	12766.77
255.532	12711.33
255.602	12684.24
255.673	12634.54
255.743	12591.44
255.813	12546.13
255.884	12545.84
255.954	12541.02
256.024	12544.06
256.095	12519.38
256.165	12486.94
256.235	12470.98
256.306	12442.59
256.376	12436.42
256.446	12415.88
256.517	12406.19
256.587	12404.17
256.657	12389.8
256.728	12377.22
256.798	12354.81
256.868	12339.62
256.938	12313.06
257.009	12308.05
257.079	12294.99
257.149	12308.48
257.219	12268.38
257.29	12259.27
257.36	12215.74
257.43	12208.8
257.5	12161.95
257.571	12136.45
257.641	12125.8
257.711	12086.9
257.781	12077.45
257.852	12064.96
257.922	12023.32
257.992	12006.45
258.062	11975.31
258.132	11966.87
258.202	11947.45
258.273	11931.5
258.343	11933.71
258.413	11902.57
258.483	11883.63
258.553	11856.4
258.623	11826.46
258.693	11816.78
258.764	11809.31
258.834	11809.69
258.904	11788.87
258.974	11766.7
259.044	11748
259.114	11736.81
259.184	11720.48
259.254	11695.8
259.324	11647.02
259.394	11635.21
259.464	11631.21
259.535	11609.76
259.605	11580.85
259.675	11551.93
259.745	11535.64
259.815	11499.15
259.885	11475.39
259.955	11480.6
260.025	11453.22
260.095	11436.98
260.165	11423.97
260.235	11426.57
260.305	11400.11
260.375	11370.42
260.445	11376.25
260.515	11378.08
260.585	11371.77
260.655	11362.66
260.725	11355.53
260.795	11355.91
260.865	11365.75
260.934	11336.15
261.004	11328.25
261.074	11312.92
261.144	11317.12
261.214	11311.14
261.284	11300.92
261.354	11297.31
261.424	11268.54
261.494	11271.28
261.564	11249.6
261.634	11244.78
261.703	11204.25
261.773	11196.92
261.843	11183.76
261.913	11159.38
261.983	11122.27
262.053	11117.4
262.123	11097.26
262.192	11073.65
262.262	11066.71
262.332	11029.79
262.402	11025.02
262.472	11015.24
262.541	10976.55
262.611	10968.55
262.681	10944.11
262.751	10937.94
262.821	10911.44
262.89	10878.38
262.96	10865.95
263.03	10874.67
263.1	10859.88
263.169	10845.57
263.239	10834.63
263.309	10844.8
263.379	10838.82
263.448	10825.33
263.518	10807.98
263.588	10795.45
263.657	10797
263.727	10790.1
263.797	10778.44
263.867	10764.23
263.936	10729.87
264.006	10733.97
264.076	10714.21
264.145	10694.75
264.215	10669.64
264.285	10668.97
264.354	10637.07
264.424	10616.55
264.494	10587.3
264.563	10565.28
264.633	10571.64
264.702	10562.58
264.772	10519.36
264.842	10501.87
264.911	10502.97
264.981	10467.8
265.05	10451.51
265.12	10434.84
265.19	10424.29
265.259	10421.35
265.329	10410.56
265.398	10397.21
265.468	10406.46
265.537	10390.71
265.607	10388.3
265.676	10389.6
265.746	10379.97
265.815	10387.34
265.885	10371.49
265.955	10351.73
266.024	10334.92
266.094	10302.5
266.163	10301.29
266.232	10303.36
266.302	10285.15
266.371	10268.1
266.441	10260.3
266.51	10258.08
266.58	10235.97
266.649	10203.54
266.719	10201.81
266.788	10190.1
266.858	10196.36
266.927	10157.44
266.996	10147.18
267.066	10133.83
267.135	10101.46
267.205	10097.85
267.274	10087.01
267.343	10083.83
267.413	10061.58
267.482	10065.86
267.552	10070.54
267.621	10035.56
267.69	10007.19
267.76	10002.42
267.829	9999.34
267.898	9993.99
267.968	9968.8
268.037	9964.99
268.106	9971.06
268.176	9939.75
268.245	9926.26
268.314	9910.51
268.384	9913.35
268.453	9903.33
268.522	9892.88
268.592	9897.8
268.661	9872.36
268.73	9863.02
268.799	9847.07
268.869	9861.96
268.938	9824.92
269.007	9809.74
269.076	9805.41
269.146	9807.72
269.215	9801.12
269.284	9800.59
269.353	9779.26
269.422	9768.71
269.492	9752
269.561	9709.28
269.63	9705.76
269.699	9694.73
269.768	9679.75
269.838	9672.72
269.907	9664.68
269.976	9641.8
270.045	9608
270.114	9606.6
270.183	9595.38
270.253	9586.04
270.322	9547.17
270.391	9543.51
270.46	9535.81
270.529	9536.82
270.598	9532.87
270.667	9521.5
270.736	9502
270.806	9493.47
270.875	9495.59
270.944	9477
271.013	9503.3
271.082	9492.99
271.151	9479.51
271.22	9460.53
271.289	9444.79
271.358	9437.56
271.427	9435.93
271.496	9431.21
271.565	9415.36
271.634	9406.22
271.703	9438.97
271.772	9446.38
271.841	9436.75
271.91	9413.3
271.979	9401.07
272.048	9374.34
272.117	9372.22
272.186	9347.72
272.255	9352.96
272.324	9349.02
272.393	9346.46
272.462	9323.78
272.531	9317.18
272.6	9308.37
272.669	9311.94
272.738	9299.27
272.807	9292.96
272.876	9262.78
272.945	9289.17
273.013	9289.41
273.082	9291.57
273.151	9242.4
273.22	9243.7
273.289	9236.1
273.358	9253.96
273.427	9237.44
273.496	9244.28
273.564	9238.74
273.633	9250.44
273.702	9230.46
273.771	9224.15
273.84	9223.72
273.909	9228.2
273.977	9229.88
274.046	9223.58
274.115	9228.97
274.184	9215.25
274.253	9204.8
274.322	9222.66
274.39	9188.67
274.459	9177.64
274.528	9147.65
274.597	9141.1
274.665	9134.07
274.734	9141.68
274.803	9123.96
274.872	9123
274.94	9106.82
275.009	9172.57
275.078	9152.59
275.147	9150.43
275.215	9137.19
275.284	9141.33
275.353	9121.06
275.421	9089.48
275.49	9108.93
275.559	9096.65
275.627	9092.22
275.696	9076.34
275.765	9075.61
275.833	9068.15
275.902	9064.35
275.971	9079.23
276.039	9091.5
276.108	9093.43
276.177	9086.59
276.245	9074.17
276.314	9068.11
276.383	9074.8
276.451	8998.07
276.52	9001.15
276.588	9011.35
276.657	9024.98
276.725	9012.08
276.794	9014.97
276.863	9029.6
276.931	8993.92
277	9000.42
277.068	9006.97
277.137	9030.7
277.205	9024.88
277.274	9045.05
277.342	9056.02
277.411	9033.45
277.48	9020.21
277.548	9005.33
277.617	9006.49
277.685	9002.4
277.754	9006.3
277.822	8995.85
277.89	9008.95
277.959	8999.99
278.027	8980.26
278.096	8966.44
278.164	8995.42
278.233	8985.6
278.301	8975.4
278.37	8987.53
278.438	8969.91
278.507	8972.6
278.575	8948.2
278.643	8952.87
278.712	8929.57
278.78	8917.63
278.849	8927.4
278.917	8935.82
278.985	8932.98
279.054	8935.44
279.122	8952.87
279.191	8951.61
279.259	8944.3
279.327	8923.21
279.396	8939.91
279.464	8937.17
279.532	8940.54
279.601	8935
279.669	8935.2
279.737	8946.51
279.806	8944.97
279.874	8960.47
279.942	8957.92
280.011	8955.37
280.079	8952.62
280.147	8974.77
280.215	8977.03
280.284	8979.39
280.352	8966.1
280.42	8977.51
280.488	8965.81
280.557	8955.22
280.625	8960.9
280.693	8960.08
280.761	8958.98
280.83	8943.14
280.898	8954.79
280.966	8936.59
281.034	8900.82
281.102	8883.83
281.171	8876.85
281.239	8889.61
281.307	8876.04
281.375	8862.75
281.443	8886.63
281.512	8882.05
281.58	8882.2
281.648	8857.75
281.716	8858.04
281.784	8858.86
281.852	8847.49
281.92	8851.15
281.989	8858.76
282.057	8833.25
282.125	8883.03
282.193	8883.18
282.261	8881.01
282.329	8877.64
282.397	8881.3
282.465	8885.73
282.533	8909.02
282.601	8899.01
282.67	8875.18
282.738	8864.69
282.806	8882.64
282.874	8870.17
282.942	8877.44
283.01	8870.94
283.078	8884.56
283.146	8874.89
283.214	8879.36
283.282	8881
283.35	8889.95
283.418	8883.21
283.486	8891.25
283.554	8840.41
283.622	8840.94
283.69	8839.45
283.758	8833.91
283.826	8840.22
283.894	8859.57
283.962	8878.3
284.03	8892.78
284.098	8889.46
284.165	8884.8
284.233	8880.51
284.301	8871.17
284.369	8860.15
284.437	8856.2
284.505	8853.27
284.573	8870.11
284.641	8862.8
284.709	8872.86
284.777	8851.15
284.845	8852.88
284.912	8858.66
284.98	8873.05
285.048	8858.99
285.116	8866.26
285.184	8878.83
285.252	8878.01
285.319	8854.04
285.387	8840.17
285.455	8824.81
285.523	8835.21
285.591	8835.36
285.659	8838.2
285.726	8850.04
285.794	8835.6
285.862	8829.39
285.93	8830.64
285.997	8827.32
286.065	8820.44
286.133	8807.44
286.201	8810.28
286.269	8801.71
286.336	8789.92
286.404	8777.31
286.472	8793.43
286.539	8770.09
286.607	8748.91
286.675	8748.38
286.743	8761.09
286.81	8759.93
286.878	8776.35
286.946	8769.61
287.013	8771.87
287.081	8768.6
287.149	8755.5
287.216	8778.17
287.284	8776.63
287.352	8775.09
287.419	8768.74
287.487	8788.67
287.555	8799.31
287.622	8794.35
287.69	8802.43
287.758	8817.26
287.825	8815.86
287.893	8804.79
287.96	8810.28
288.028	8824.77
288.096	8826.07
288.163	8824.38
288.231	8803.92
288.298	8796.37
288.366	8812.16
288.433	8806.57
288.501	8802.77
288.569	8802.72
288.636	8792.66
288.704	8801.38
288.771	8814.66
288.839	8803.3
288.906	8791.46
288.974	8798.54
289.041	8791.85
289.109	8778.47
289.176	8786.22
289.244	8790.55
289.311	8805.52
289.379	8821.69
289.446	8824.72
289.514	8824.29
289.581	8822.41
289.649	8829.83
289.716	8833.48
289.783	8822.32
289.851	8842.24
289.918	8837.96
289.986	8852.25
290.053	8864.62
290.121	8864.82
290.188	8864.19
290.255	8891.68
290.323	8887.78
290.39	8882.15
290.458	8890.81
290.525	8906.16
290.592	8898.17
290.66	8905.44
290.727	8897.4
290.794	8912.71
290.862	8911.6
290.929	8916.75
290.996	8918.34
291.064	8926.72
291.131	8939.38
291.198	8954.35
291.266	8953.15
291.333	8959.36
291.4	8960.27
291.468	8973.22
291.535	8964.99
291.602	8960.51
291.669	8957.77
291.737	8959.02
291.804	8952.43
291.871	8979.09
291.938	8985.74
292.006	9022.29
292.073	9032.93
292.14	9047.51
292.207	9038.56
292.275	9041.4
292.342	9054.16
292.409	9079.34
292.476	9106.01
292.543	9092
292.611	9090.27
292.678	9109.62
292.745	9135.28
292.812	9148.23
292.879	9143.71
292.946	9155.4
293.014	9175.58
293.081	9184.48
293.148	9203.93
293.215	9223.48
293.282	9213.95
293.349	9228.97
293.416	9199.11
293.484	9211.3
293.551	9218.04
293.618	9232.24
293.685	9258.82
293.752	9246.3
293.819	9248.95
293.886	9234.74
293.953	9246.3
294.02	9259.83
294.087	9267.68
294.154	9258.1
294.221	9278.85
294.288	9276.11
294.356	9289.44
294.423	9292.48
294.49	9282.03
294.557	9296.04
294.624	9286.22
294.691	9308.95
294.758	9306.01
294.825	9321.47
294.892	9309.81
294.959	9310.82
295.026	9318.1
295.093	9304.9
295.16	9307.79
295.226	9307.55
295.293	9335
295.36	9338.7
295.427	9349.06
295.494	9359.94
295.561	9368.95
295.628	9389.85
295.695	9410.94
295.762	9421.59
295.829	9437.04
295.896	9452.11
295.963	9458.47
296.03	9475.71
296.096	9483.13
296.163	9493.96
296.23	9503.93
296.297	9526.56
296.364	9523.87
296.431	9529.07
296.498	9528.92
296.564	9556.95
296.631	9562.87
296.698	9545.92
296.765	9572.93
296.832	9560.03
296.899	9546.4
296.965	9562.72
297.032	9532.43
297.099	9545.33
297.166	9550.73
297.233	9541.48
297.299	9538.83
297.366	9538.79
297.433	9542.83
297.5	9547.21
297.566	9546.44
297.633	9544.95
297.7	9545.05
297.767	9544.56
297.833	9558.48
297.9	9564.79
297.967	9544.62
298.033	9554.25
298.1	9590.08
298.167	9579.1
298.234	9586.28
298.3	9595.52
298.367	9591.72
298.434	9599.76
298.5	9590.8
298.567	9582.95
298.634	9582.37
298.7	9600.48
298.767	9599.95
298.834	9609.44
298.9	9605.49
298.967	9595.95
299.033	9610.79
299.1	9619.65
299.167	9633.38
299.233	9620.42
299.3	9639.01
299.366	9663.76
299.433	9685.68
299.5	9654.56
299.566	9657.65
299.633	9671.81
299.699	9683.75
299.766	9679.85
299.832	9685.34
299.899	9694.35
299.965	9704.56
300.032	9702.39
300.099	9717.51
300.165	9724.21
300.232	9722.57
300.298	9729.65
300.365	9749.3
300.431	9750.5
300.498	9747.71
300.564	9757.34
300.631	9776.8
300.697	9784.03
300.763	9779.31
300.83	9767.31
300.896	9780.51
300.963	9788.21
301.029	9792.65
301.096	9801.8
301.162	9818.85
301.229	9814.27
301.295	9800.55
301.361	9809.36
301.428	9814.22
301.494	9790.91
301.561	9798.96
301.627	9801.22
301.693	9791.3
301.76	9794.77
301.826	9786.1
301.892	9795.73
301.959	9805.75
302.025	9794.86
302.092	9785.13
302.158	9794.09
302.224	9797.17
302.291	9791.01
302.357	9784.22
302.423	9780.7
302.49	9764.95
302.556	9774.78
302.622	9782.34
302.688	9796.35
302.755	9811.67
302.821	9820.82
302.887	9833.49
302.954	9831.52
303.02	9841.15
303.086	9858.54
303.152	9854.3
303.219	9854.73
303.285	9863.21
303.351	9870.87
303.417	9874.58
303.483	9870.82
303.55	9862.3
303.616	9861
303.682	9860.32
303.748	9858.68
303.815	9871.64
303.881	9886.38
303.947	9873.23
304.013	9870.73
304.079	9865.96
304.145	9836.53
304.212	9839.9
304.278	9831.42
304.344	9824.25
304.41	9804.59
304.476	9791.06
304.542	9788.8
304.608	9792.26
304.674	9770.73
304.741	9764.57
304.807	9771.17
304.873	9777.43
304.939	9797.85
305.005	9774.92
305.071	9773.57
305.137	9776.85
305.203	9752.62
305.269	9747.85
305.335	9758.21
305.401	9760.91
305.467	9760.09
305.533	9776.46
305.599	9777.91
305.666	9789.56
305.732	9795.97
305.798	9814.08
305.864	9839.37
305.93	9845.77
305.996	9847.94
306.062	9853.82
306.128	9847.99
306.194	9830.79
306.259	9833.06
306.325	9819.04
306.391	9833.83
306.457	9841.97
306.523	9850.49
306.589	9879.3
306.655	9873.95
306.721	9857.43
306.787	9834.94
306.853	9849.1
306.919	9831.33
306.985	9827.14
307.051	9822.13
307.117	9817.02
307.183	9809.27
307.248	9776.27
307.314	9774.39
307.38	9774.49
307.446	9786.53
307.512	9775.5
307.578	9787.35
307.644	9774.63
307.709	9779.45
307.775	9775.02
307.841	9776.46
307.907	9769.63
307.973	9745.78
308.039	9741.21
308.104	9744.1
308.17	9752.19
308.236	9742.65
308.302	9746.74
308.368	9732.39
308.433	9727.09
308.499	9717.32
308.565	9705.56
308.631	9713.03
308.696	9694.25
308.762	9679.7
308.828	9669.2
308.894	9651.86
308.959	9624.85
309.025	9621.28
309.091	9616.8
309.156	9604.14
309.222	9603.13
309.288	9589.74
309.354	9567.49
309.419	9568.65
309.485	9558.53
309.551	9561.37
309.616	9540.04
309.682	9536.96
309.748	9532.53
309.813	9527.76
309.879	9520.01
309.945	9512.88
310.01	9506.71
310.076	9508.06
310.141	9507.68
310.207	9486.29
310.273	9491.11
310.338	9498.91
310.404	9480.13
310.469	9460.24
310.535	9457.01
310.601	9427.98
310.666	9441.12
310.732	9453.88
310.797	9441.89
310.863	9428.79
310.928	9426.58
310.994	9430.82
311.059	9424.7
311.125	9422.87
311.191	9437.61
311.256	9428.75
311.322	9434.43
311.387	9412.71
311.453	9871.97
311.518	9841.39
311.584	9845.63
311.649	9848.95
311.715	9838.94
311.78	9845.15
311.846	9834.8
311.911	9839.27
311.976	9843.94
312.042	9820.54
312.107	9802.58
312.173	9794.83
312.238	9793.14
312.304	9781.2
312.369	9765.55
312.434	9756.79
312.5	9746.34
312.565	9704.01
312.631	9704.54
312.696	9693.8
312.761	9699.34
312.827	9227.81
312.892	9270.09
312.958	9260.41
313.023	9258.19
313.088	9250.39
313.154	9232.92
313.219	9233.59
313.284	9224.3
313.35	9219.96
313.415	9215.53
313.48	9216.64
313.546	9218.95
313.611	9223.91
313.676	9217.27
313.741	9212.69
313.807	9221.65
313.872	9227.24
313.937	9239.56
314.003	9257.38
314.068	9262.96
314.133	9270.81
314.198	9259.74
314.264	9233.01
314.329	9230.27
314.394	9224.63
314.459	9226.46
314.525	9249.57
314.59	9235.9
314.655	9220.44
314.72	9227.86
314.785	9227.28
314.851	9220.35
314.916	9198.78
314.981	9180.48
315.046	9175.04
315.111	9164.41
315.176	9145.39
315.242	9149.38
315.307	9149.14
315.372	9125.6
315.437	9109.66
315.502	9098.68
315.567	9112.74
315.632	9099.6
315.698	9096.23
315.763	9091.89
315.828	9078.32
315.893	9070.08
315.958	9070.76
316.023	9067.87
316.088	9049.19
316.153	9025.75
316.218	9019.2
316.283	9002.31
316.348	8984.98
316.413	8983.29
316.479	8969.62
316.544	8938.19
316.609	8902.14
316.674	8860.75
316.739	8818.83
316.804	8790.81
316.869	8754.76
316.934	8716.93
316.999	8688.72
317.064	8636.32
317.129	8592.47
317.194	8558.59
317.259	8512
317.324	8460.71
317.389	8413.36
317.454	8371.26
317.518	8343.3
317.583	8312.94
317.648	8298.26
317.713	8265.26
317.778	8199.97
317.843	8175.19
317.908	8139.59
317.973	8106.83
318.038	8080.04
318.103	8049.64
318.168	8018.09
318.233	7987.54
318.297	7935.26
318.362	7898.22
318.427	7862.02
318.492	7837.1
318.557	7794.98
318.622	7766.65
318.687	7751.36
318.751	7710.89
318.816	7684.29
318.881	7645.25
318.946	7595.05
319.011	7547.21
319.075	7510.29
319.14	7475.15
319.205	7429.53
319.27	7396.32
319.335	7349.74
319.399	7309.56
319.464	7281.44
319.529	7226.18
319.594	7184.36
319.658	7155.82
319.723	7112.47
319.788	7087.06
319.853	7029.63
319.917	7001
319.982	6947.57
320.047	6906.35
320.112	6879.98
320.176	6825.21
320.241	6793.08
320.306	6762.86
320.37	6718.53
320.435	6686.49
320.5	6660.85
320.564	6621.76
320.629	6587.14
320.694	6554.68
320.758	6514.92
320.823	6471.33
320.888	6449.15
320.952	6402.35
321.017	6362.41
321.082	6323.91
321.146	6289.21
321.211	6258.16
321.275	6215.54
321.34	6171.79
321.405	6129.99
321.469	6086.33
321.534	6047.18
321.598	5998.15
321.663	5966.04
321.727	5935.72
321.792	5884.64
321.857	5842.42
321.921	5800.17
321.986	5750.3
322.05	5694.97
322.115	5658.91
322.179	5616.57
322.244	5552.87
322.308	5520.12
322.373	5474.97
322.437	5434.13
322.502	5406.13
322.566	5360.26
322.631	5323.79
322.695	5286.9
322.76	5238.75
322.824	5206.55
322.889	5161.72
322.953	5116.41
323.018	5047.67
323.082	4981.39
323.146	4934.23
323.211	4878.73
323.275	4833.68
323.34	4791.75
323.404	4758
323.468	4709.27
323.533	4664.42
323.597	4620.89
323.662	4568.92
323.726	4531.25
323.79	4486.42
323.855	4420.61
323.919	4374.82
323.983	4329.52
324.048	4260.63
324.112	4419.17
324.177	4286.13
324.241	4066.83
324.305	3850.73
324.37	3640.43
324.434	3436.77
324.498	3390.15
324.562	3339.11
324.627	3279.32
324.691	3220.77
324.755	3150.82
324.82	3072.88
324.884	2991.63
324.948	2919.65
325.012	2819.95
325.077	2693.64
