Data from 20250703_urea_0.1M_MAYP1162681_18-21-05-649.txt Node
Date: Thu Jul 03 18:21:05 BST 2025
User: adleo
Spectrometer: MAYP116268
Trigger mode: 0
Integration Time (sec): 1.000000E0
Scans to average: 1
Electric dark correction enabled: true
Nonlinearity correction enabled: true
Boxcar width: 10
XAxis mode: Wavelengths
Number of Pixels in Spectrum: 2068
>>>>>Begin Spectral Data<<<<<
179.565	1357.44
179.642	1419.62
179.718	1466.93
179.795	1510.4
179.871	1549.41
179.948	1568.94
180.024	1593.45
180.101	1620.74
180.177	1639.53
180.254	1666.87
180.33	1689.76
180.407	1755.63
180.483	1861.97
180.56	1962.32
180.636	2055.91
180.712	2041.82
180.789	2051
180.865	2066.93
180.942	2074.59
181.018	2085.43
181.095	2097.95
181.171	2106.17
181.248	2109.84
181.324	2127.87
181.4	2137.53
181.477	2149.95
181.553	2165.69
181.63	2187
181.706	2202.09
181.782	2209.32
181.859	2206.84
181.935	2216.41
182.011	2212.41
182.088	2231.68
182.164	2255.15
182.24	2271.56
182.317	2281.98
182.393	2280.79
182.469	2296.31
182.546	2311.39
182.622	2317.67
182.698	2307.44
182.775	2321.77
182.851	2335.48
182.927	2327.86
183.003	2320.34
183.08	2314.2
183.156	2323.77
183.232	2319.1
183.308	2308.54
183.385	2315.3
183.461	2335.1
183.537	2334.76
183.613	2349.14
183.69	2339.85
183.766	2329.24
183.842	2337.99
183.918	2343.37
183.995	2359.6
184.071	2363.22
184.147	2356.99
184.223	2344.52
184.299	2362.04
184.375	2346.14
184.452	2353.57
184.528	2405.75
184.604	2419.41
184.68	2429.4
184.756	2438.12
184.832	2444.54
184.908	2447.78
184.985	2449.92
185.061	2432.69
185.137	2441.4
185.213	2428.5
185.289	2428.31
185.365	2418.37
185.441	2413.84
185.517	2427.8
185.593	2423.18
185.669	2418.42
185.745	2431.7
185.822	2450.35
185.898	2441.59
185.974	2453.01
186.05	2447.73
186.126	2407.87
186.202	2400.69
186.278	2394.12
186.354	2382.93
186.43	2390.98
186.506	2388.31
186.582	2388.12
186.658	2395.17
186.734	2373.42
186.81	2376.75
186.886	2378.94
186.962	2392.31
187.038	2390.03
187.114	2382.41
187.19	2391.88
187.266	2380.36
187.341	2379.17
187.417	2371.89
187.493	2372.22
187.569	2374.22
187.645	2362.89
187.721	2353.85
187.797	2362.65
187.873	2372.22
187.949	2366.37
188.025	2357.46
188.101	2364.51
188.176	2367.12
188.252	2362.27
188.328	2372.55
188.404	2373.59
188.48	2368.98
188.556	2361.12
188.632	2360.7
188.707	2362.22
188.783	2356.89
188.859	2351.22
188.935	2339.28
189.011	2346.94
189.086	2339.94
189.162	2329.9
189.238	2326.76
189.314	2325
189.39	2314.15
189.465	2304.86
189.541	2322.76
189.617	2306.92
189.693	2298.73
189.768	2303.35
189.844	2331.16
189.92	2320.74
189.996	2330.17
190.071	2344.64
190.147	2342.07
190.223	2353.64
190.298	2344.5
190.374	2331.45
190.45	2347.87
190.526	2358.58
190.601	2353.2
190.677	2354.91
190.753	2386.78
190.828	2391.68
190.904	2409.15
190.98	2425.86
191.055	2438.14
191.131	2428.86
191.207	2450.71
191.282	2461.94
191.358	2451.56
191.433	2435.36
191.509	2449.64
191.585	2445.78
191.66	2444.54
191.736	2456.25
191.811	2446.64
191.887	2461.87
191.963	2487.82
192.038	2491.06
192.114	2491.68
192.189	2496.73
192.265	2493.87
192.34	2469.77
192.416	2469.1
192.491	2463.2
192.567	2467.2
192.642	2466.77
192.718	2467.43
192.793	2455.82
192.869	2450.25
192.944	2454.63
193.02	2462.82
193.095	2467.44
193.171	2469.44
193.246	2466.91
193.322	2462.63
193.397	2464.1
193.473	2452.48
193.548	2433
193.624	2439.67
193.699	2439.77
193.775	2458.2
193.85	2458.87
193.925	2470.3
194.001	2470.25
194.076	2460.68
194.152	2451.87
194.227	2447.54
194.302	2438.3
194.378	2442.59
194.453	2440.68
194.529	2455.3
194.604	2438.11
194.679	2431.45
194.755	2416.03
194.83	2433.94
194.905	2433.56
194.981	2440.89
195.056	2430.9
195.131	2435.27
195.207	2434.18
195.282	2420.95
195.357	2396.61
195.433	2414.41
195.508	2401.56
195.583	2409.32
195.659	2427.84
195.734	2432.89
195.809	2432.17
195.884	2437.98
195.96	2438.5
196.035	2456.4
196.11	2450.16
196.185	2465.78
196.261	2471.25
196.336	2505.54
196.411	2487.06
196.486	2492.39
196.561	2487.1
196.637	2498.77
196.712	2516.25
196.787	2520.2
196.862	2536.63
196.937	2550.67
197.013	2556.58
197.088	2568.72
197.163	2594.35
197.238	2612.9
197.313	2614.09
197.388	2626.61
197.464	2661.39
197.539	2673.68
197.614	2665.49
197.689	2679.21
197.764	2697.32
197.839	2719.23
197.914	2710.8
197.989	2737.29
198.065	2751.91
198.14	2806.22
198.215	2836.53
198.29	2848.83
198.365	2861.46
198.44	2876.85
198.515	2905.45
198.59	2921.23
198.665	2946.39
198.74	2954.83
198.815	2952.83
198.89	2979.91
198.965	3014.48
199.04	3010.81
199.115	3028.78
199.19	3077.79
199.265	3079.6
199.34	3091.52
199.415	3128.74
199.49	3154.19
199.565	3164.21
199.64	3189.53
199.715	3186.67
199.79	3192.34
199.865	3200.88
199.94	3203.41
200.015	3237.91
200.09	3246.45
200.165	3254.13
200.24	3262.52
200.315	3306.45
200.39	3327.4
200.464	3333.36
200.539	3335.18
200.614	3352.97
200.689	3375.83
200.764	3383.99
200.839	3405.16
200.914	3406.26
200.989	3395.85
201.063	3407.64
201.138	3392.28
201.213	3392.86
201.288	3374.58
201.363	3379.21
201.438	3381.21
201.512	3395.24
201.587	3372.42
201.662	3375.24
201.737	3388.84
201.812	3395.71
201.886	3358.08
201.961	3367.48
202.036	3356.27
202.111	3354.46
202.186	3326.13
202.26	3313.63
202.335	3289.34
202.41	3283.99
202.485	3270.73
202.559	3247.55
202.634	3221.46
202.709	3231.37
202.784	3214.49
202.858	3215.34
202.933	3197.94
203.008	3195.5
203.082	3177.52
203.157	3184.06
203.232	3144.77
203.306	3127.49
203.381	3104.07
203.456	3087.19
203.53	3073.82
203.605	3062.28
203.68	3048.59
203.754	3052.21
203.829	3049.78
203.904	3042.72
203.978	3046.06
204.053	3066.95
204.127	3074.44
204.202	3095.33
204.277	3094.9
204.351	3109.26
204.426	3128.87
204.5	3150.1
204.575	3141.7
204.65	3187.04
204.724	3214.11
204.799	3258.61
204.873	3291.83
204.948	3328.06
205.022	3360.12
205.097	3388.63
205.171	3450.92
205.246	3507.57
205.32	3558.35
205.395	3614.25
205.469	3663.03
205.544	3729.65
205.618	3771.74
205.693	3851.07
205.767	3908.37
205.842	4010.43
205.916	4080.12
205.991	4141.85
206.065	4225.77
206.14	4322.9
206.214	4403.36
206.289	4485.88
206.363	4588.53
206.438	4686.01
206.512	4795.6
206.586	4915.87
206.661	5035.46
206.735	5113.7
206.81	5226.93
206.884	5356.19
206.958	5456.66
207.033	5594.83
207.107	5725.27
207.181	5881.93
207.256	5994.37
207.33	6143.64
207.405	6281.11
207.479	6429.03
207.553	6567.64
207.628	6686.31
207.702	6837.47
207.776	6966.2
207.851	7099.37
207.925	7263.41
207.999	7401.1
208.073	7539.64
208.148	7687.87
208.222	7825.32
208.296	8013.69
208.371	8180.26
208.445	8350.05
208.519	8531.14
208.593	8698.37
208.668	8845.56
208.742	9004.87
208.816	9169
208.89	9334.78
208.965	9495.44
209.039	9669.91
209.113	9852.81
209.187	10038.45
209.261	10194.78
209.336	10381.88
209.41	10574.57
209.484	10724.75
209.558	10916.56
209.632	11091.32
209.707	11262.77
209.781	11441.55
209.855	11618.28
209.929	11796.71
210.003	11956.53
210.077	12116.02
210.151	12319.52
210.226	12513.34
210.3	12707.35
210.374	12891.77
210.448	13056
210.522	13221.73
210.596	13390.68
210.67	13557.42
210.744	13758.19
210.818	13946.24
210.892	14121.65
210.966	14261.84
211.041	14438.31
211.115	14576.85
211.189	14754.39
211.263	14922.28
211.337	15076.48
211.411	15236.95
211.485	15376.92
211.559	15529.92
211.633	15664.21
211.707	15766.59
211.781	15922.27
211.855	16015.24
211.929	16137.77
212.003	16256.09
212.077	16410.61
212.151	16556.07
212.225	16710.49
212.299	16830.16
212.373	16941.54
212.447	17058.21
212.52	17218.37
212.594	17344.01
212.668	17492.68
212.742	17596.73
212.816	17714.18
212.89	17825.6
212.964	17946.46
213.038	18064.82
213.112	18203.85
213.186	18347.8
213.26	18451.46
213.333	18509.48
213.407	18635.21
213.481	18747.45
213.555	18869.76
213.629	18964.07
213.703	19055.77
213.777	19150.66
213.85	19233.35
213.924	19380.14
213.998	19486.93
214.072	19589.29
214.146	19670.49
214.219	19754.83
214.293	19853.52
214.367	19952.65
214.441	20076.31
214.515	20159.25
214.588	20236.79
214.662	20290.09
214.736	20358.04
214.81	20458.52
214.883	20553.41
214.957	20621.99
215.031	20695.15
215.105	20751.39
215.178	20815.92
215.252	20887.06
215.326	20935.88
215.4	20999.49
215.473	21029.91
215.547	21087.26
215.621	21137
215.694	21223.95
215.768	21271.09
215.842	21325.55
215.915	21376.02
215.989	21395.97
216.063	21445.86
216.136	21499.41
216.21	21559.03
216.284	21626.28
216.357	21682.72
216.431	21746.49
216.504	21814.12
216.578	21912.31
216.652	21982.54
216.725	22031.32
216.799	22096.84
216.873	22160.03
216.946	22223.09
217.02	22264.16
217.093	22316.85
217.167	22349.48
217.24	22379.71
217.314	22432.16
217.387	22475.64
217.461	22516.14
217.535	22588.74
217.608	22626.73
217.682	22678.08
217.755	22740.42
217.829	22779.86
217.902	22827.4
217.976	22866.16
218.049	22905.55
218.123	22920.6
218.196	22970.55
218.27	23007.67
218.343	23025.22
218.417	23071.71
218.49	23108.06
218.563	23166.02
218.637	23213.52
218.71	23282.57
218.784	23333.11
218.857	23388.13
218.931	23438.61
219.004	23484.67
219.077	23523.59
219.151	23557.68
219.224	23585.16
219.298	23611.83
219.371	23656.73
219.444	23675.44
219.518	23709.15
219.591	23740.98
219.665	23813.28
219.738	23849.94
219.811	23877.96
219.885	23932.17
219.958	23963.33
220.031	23994.87
220.105	24042.48
220.178	24065.72
220.251	24085.89
220.325	24125.1
220.398	24151.1
220.471	24173.87
220.544	24206.62
220.618	24222.83
220.691	24267.93
220.764	24305.65
220.838	24339.22
220.911	24364.16
220.984	24407.96
221.057	24438.92
221.131	24464.35
221.204	24446.74
221.277	24480.12
221.35	24533.81
221.424	24535.6
221.497	24555.91
221.57	24579.4
221.643	24593.68
221.716	24616.16
221.79	24633.77
221.863	24633.82
221.936	24646.94
222.009	24668.31
222.082	24684.57
222.155	24705.56
222.229	24736.53
222.302	24750.72
222.375	24756.31
222.448	24771.08
222.521	24787.53
222.594	24799.73
222.667	24797.52
222.74	24832.5
222.814	24837.95
222.887	24836.69
222.96	24864.87
223.033	24881.23
223.106	24885.28
223.179	24892.56
223.252	24910.32
223.325	24911.72
223.398	24928.41
223.471	24934.59
223.544	24940.48
223.617	24946.41
223.69	24948.34
223.763	24928.61
223.837	24931.79
223.91	24950.08
223.983	24936.66
224.056	24917.41
224.129	24924.89
224.202	24932.66
224.275	24915.77
224.348	24906.65
224.42	24891.74
224.493	24856.96
224.566	24845.18
224.639	24840.84
224.712	24833.22
224.785	24814.55
224.858	24795.68
224.931	24778.17
225.004	24753.52
225.077	24746.28
225.15	24717.62
225.223	24696.73
225.296	24713.28
225.369	24683.27
225.442	24659.54
225.514	24646.85
225.587	24644.53
225.66	24627.55
225.733	24628.95
225.806	24622.68
225.879	24609.51
225.952	24588.71
226.025	24601.98
226.097	24607.72
226.17	24598.46
226.243	24562.37
226.316	24551.86
226.389	24554.08
226.461	24545.68
226.534	24554.46
226.607	24527.54
226.68	24536.28
226.753	24529.62
226.825	24493.82
226.898	24504.53
226.971	24483.59
227.044	24479.59
227.117	24468.3
227.189	24465.65
227.262	24465.26
227.335	24444.04
227.407	24424.4
227.48	24428.45
227.553	24416.39
227.626	24388.07
227.698	24373.12
227.771	24365.98
227.844	24344.27
227.916	24323.63
227.989	24284.51
228.062	24258.46
228.134	24270.47
228.207	24241.05
228.28	24210.37
228.352	24180.61
228.425	24147.96
228.498	24133.05
228.57	24097.03
228.643	24091.29
228.716	24062.34
228.788	24018.45
228.861	23998.48
228.934	23993.22
229.006	23964.81
229.079	23939.3
229.151	23903.56
229.224	23867
229.296	23853.01
229.369	23854.22
229.442	23843.9
229.514	23819.59
229.587	23805.7
229.659	23761.28
229.732	23751.16
229.804	23753.71
229.877	23760.61
229.949	23760.8
230.022	23775.18
230.094	23763.65
230.167	23742.38
230.239	23707.85
230.312	23686.97
230.384	23678.77
230.457	23651.67
230.529	23631.41
230.602	23604.65
230.674	23602.96
230.747	23603.64
230.819	23588.59
230.892	23524.5
230.964	23502.12
231.037	23486.4
231.109	23455.4
231.181	23439
231.254	23406.36
231.326	23365.22
231.399	23335.32
231.471	23294.14
231.544	23228.36
231.616	23203.63
231.688	23174.94
231.761	23143.65
231.833	23114.57
231.905	23069.05
231.978	23044.61
232.05	23005.55
232.122	22995.33
232.195	22952.46
232.267	22934.23
232.339	22902.51
232.412	22903.62
232.484	22872.61
232.556	22841.76
232.629	22837.37
232.701	22823.53
232.773	22796.68
232.846	22767.22
232.918	22735.93
232.99	22723.49
233.062	22718.04
233.135	22701.41
233.207	22661.97
233.279	22652.47
233.351	22627.79
233.424	22596.89
233.496	22562.76
233.568	22564.15
233.64	22510.78
233.713	22485.62
233.785	22442.33
233.857	22416.87
233.929	22356.23
234.001	22343.4
234.074	22330.63
234.146	22275.62
234.218	22240.09
234.29	22206.93
234.362	22173.72
234.434	22127.63
234.507	22068.1
234.579	22011.6
234.651	21968.6
234.723	21943.1
234.795	21910.42
234.867	21879.42
234.939	21855.56
235.012	21817.92
235.084	21782.34
235.156	21768.12
235.228	21726.67
235.3	21695.24
235.372	21656.73
235.444	21642.46
235.516	21581.34
235.588	21546.73
235.66	21521.81
235.732	21479.3
235.804	21505.57
235.876	21484.94
235.948	21467.45
236.02	21439.44
236.092	21412.6
236.164	21382.14
236.236	21338.32
236.308	21296.34
236.38	21262.51
236.452	21231.42
236.524	21196.96
236.596	21179.75
236.668	21145.58
236.74	21118.3
236.812	21082.88
236.884	21062.54
236.956	21026.59
237.028	20979.16
237.1	20944.7
237.172	20925.62
237.244	20912.8
237.316	20835.53
237.388	20785.8
237.46	20736.01
237.532	20715.38
237.604	20666.71
237.675	20639.19
237.747	20624.59
237.819	20575.24
237.891	20535.87
237.963	20477.31
238.035	20437.7
238.107	20356.39
238.178	20326.32
238.25	20275.38
238.322	20267.82
238.394	20197.65
238.466	20164.4
238.538	20140.93
238.609	20105.02
238.681	20050.71
238.753	20005.75
238.825	19966.66
238.897	19933.65
238.968	19918.23
239.04	19867.49
239.112	19865.37
239.184	19809.95
239.255	19760.45
239.327	19734.87
239.399	19703.64
239.471	19681.76
239.542	19647.26
239.614	19630.78
239.686	19568.32
239.758	19550.78
239.829	19496.61
239.901	19481.63
239.973	19438.06
240.044	19403.08
240.116	19367.95
240.188	19324.67
240.259	19277.35
240.331	19233.78
240.403	19211.67
240.474	19158.61
240.546	19114.51
240.618	19048.45
240.689	19014.42
240.761	18980.5
240.833	18960.21
240.904	18917.37
240.976	18877.81
241.048	18851.83
241.119	18813.76
241.191	18784.56
241.262	18758.97
241.334	18722.68
241.405	18679.79
241.477	18642.88
241.549	18597.97
241.62	18560.67
241.692	18529.63
241.763	18501.64
241.835	18455.66
241.906	18413.74
241.978	18360.78
242.049	18338.99
242.121	18311.28
242.192	18290.61
242.264	18233.41
242.335	18174.71
242.407	18147.44
242.478	18108.83
242.55	18071.15
242.621	18028.84
242.693	17986.86
242.764	17942.34
242.836	17895.45
242.907	17862.24
242.979	17834.24
243.05	17807.69
243.122	17776.8
243.193	17743.79
243.264	17689.43
243.336	17651.45
243.407	17622.59
243.479	17613.81
243.55	17579.21
243.622	17553.19
243.693	17518.73
243.764	17506.78
243.836	17458.3
243.907	17417.09
243.978	17382.3
244.05	17347.79
244.121	17295.16
244.192	17274.92
244.264	17216.27
244.335	17178.87
244.407	17130.63
244.478	17097.9
244.549	17059.49
244.62	17006.77
244.692	16967.3
244.763	16941.61
244.834	16913.37
244.906	16868.88
244.977	16830.47
245.048	16806.38
245.119	16754.81
245.191	16703.82
245.262	16635.48
245.333	16625.55
245.405	16593.11
245.476	16560.96
245.547	16535.71
245.618	16520.05
245.689	16481.3
245.761	16458.45
245.832	16423.8
245.903	16403.6
245.974	16371.46
246.045	16330.92
246.117	16316.99
246.188	16264.55
246.259	16215.73
246.33	16173.22
246.401	16133.74
246.473	16092.15
246.544	16046.94
246.615	16026.45
246.686	15987.94
246.757	15980.33
246.828	15931.89
246.899	15917.33
246.97	15860.31
247.042	15810.62
247.113	15784.25
247.184	15775.77
247.255	15727.33
247.326	15694.69
247.397	15651.75
247.468	15626.06
247.539	15598.58
247.61	15546.77
247.681	15528.07
247.752	15515.48
247.823	15475.48
247.894	15447.86
247.965	15399.32
248.037	15372.57
248.108	15318.92
248.179	15290.24
248.25	15253.41
248.321	15232.01
248.392	15183.23
248.463	15192.97
248.534	15161.68
248.605	15132.71
248.675	15090.1
248.746	15085.81
248.817	15067.74
248.888	15049.32
248.959	14991.96
249.03	14974.08
249.101	14946.46
249.172	14914.31
249.243	14854.73
249.314	14851.69
249.385	14823.92
249.456	14805.65
249.527	14764.44
249.598	14752.2
249.669	14725.2
249.739	14708.52
249.81	14686.83
249.881	14646.39
249.952	14611.34
250.023	14583.19
250.094	14534.79
250.165	14501.87
250.235	14462.92
250.306	14433.47
250.377	14390.42
250.448	14368.25
250.519	14315.36
250.59	14312.62
250.66	14288.61
250.731	14288.66
250.802	14256.99
250.873	14233.27
250.944	14209.84
251.014	14184.63
251.085	14182.99
251.156	14166.22
251.227	14149.06
251.297	14140.67
251.368	14126.4
251.439	14116.37
251.51	14107.89
251.58	14083.54
251.651	14047.24
251.722	14041.41
251.792	13987.81
251.863	13962.88
251.934	13954.78
252.005	13960.04
252.075	13931.4
252.146	13916.65
252.217	13905.71
252.287	13887.92
252.358	13872.59
252.429	13869.22
252.499	13843.96
252.57	13824
252.641	13806.65
252.711	13777.77
252.782	13734.14
252.852	13731.93
252.923	13695.92
252.994	13667.33
253.064	13653.83
253.135	13629.82
253.205	13596.08
253.276	13603.17
253.347	13598.68
253.417	13570.43
253.488	13544.69
253.558	13518.81
253.629	13496.63
253.699	13471.76
253.77	13460.62
253.841	13425.19
253.911	13401.08
253.982	13375.54
254.052	13354.37
254.123	13333.07
254.193	13308.72
254.264	13330.56
254.334	13299.37
254.405	13268.47
254.475	13236.03
254.546	13208.4
254.616	13197.12
254.687	13178.61
254.757	13168.25
254.827	13141.88
254.898	13119.51
254.968	13095.84
255.039	13059.59
255.109	13039.97
255.18	13009.12
255.25	12958.79
255.321	12946.55
255.391	12911.26
255.461	12913.33
255.532	12854.62
255.602	12827.14
255.673	12792.43
255.743	12753.92
255.813	12710.05
255.884	12702.19
255.954	12696.22
256.024	12703.49
256.095	12683.78
256.165	12651.72
256.235	12627.91
256.306	12604.63
256.376	12597.11
256.446	12582.02
256.517	12574.64
256.587	12573.82
256.657	12564.52
256.728	12550.11
256.798	12529.52
256.868	12508.02
256.938	12478.57
257.009	12478.14
257.079	12462.81
257.149	12471.63
257.219	12429.11
257.29	12411.38
257.36	12367.9
257.43	12354.69
257.5	12304.17
257.571	12275.54
257.641	12264.31
257.711	12237.94
257.781	12223.19
257.852	12206.75
257.922	12172.96
257.992	12144.52
258.062	12116.56
258.132	12097.67
258.202	12076.32
258.273	12057.71
258.343	12057.32
258.413	12033.37
258.483	12019.15
258.553	11995.63
258.623	11961.93
258.693	11945.59
258.764	11948.39
258.834	11951.95
258.904	11932.96
258.974	11912.58
259.044	11893.83
259.114	11880.09
259.184	11860.04
259.254	11840.23
259.324	11802.49
259.394	11791.4
259.464	11797.91
259.535	11771.93
259.605	11750.62
259.675	11720.45
259.745	11707.58
259.815	11678.81
259.885	11657.99
259.955	11665.41
260.025	11638.08
260.095	11625.45
260.165	11614.61
260.235	11606.51
260.305	11575.62
260.375	11546.75
260.445	11548.43
260.515	11544.43
260.585	11540.39
260.655	11521.11
260.725	11519.42
260.795	11512.58
260.865	11513.97
260.934	11488.28
261.004	11482.79
261.074	11469.25
261.144	11475.66
261.214	11471.85
261.284	11452.91
261.354	11451.46
261.424	11420.57
261.494	11429.91
261.564	11406.49
261.634	11399.55
261.703	11361.57
261.773	11355.07
261.843	11347.26
261.913	11326.2
261.983	11302.39
262.053	11291.26
262.123	11279.21
262.192	11242.15
262.262	11236.32
262.332	11199.89
262.402	11190.15
262.472	11176.95
262.541	11134.01
262.611	11125.24
262.681	11095.36
262.751	11086.97
262.821	11058.16
262.89	11028.08
262.96	11013.96
263.03	11017.14
263.1	11004.23
263.169	10993.92
263.239	10986.49
263.309	10991.02
263.379	10983.65
263.448	10965.24
263.518	10950.45
263.588	10930.79
263.657	10934.26
263.727	10924.62
263.797	10912.33
263.867	10893.01
263.936	10855.33
264.006	10858.6
264.076	10846.12
264.145	10835.09
264.215	10810.56
264.285	10808.05
264.354	10781.79
264.424	10751.2
264.494	10719.78
264.563	10697.9
264.633	10702.58
264.702	10689.32
264.772	10652.85
264.842	10635.07
264.911	10624.71
264.981	10598.54
265.05	10581.48
265.12	10561.15
265.19	10547.03
265.259	10542.26
265.329	10534.21
265.398	10528.05
265.468	10539.18
265.537	10512.73
265.607	10500.78
265.676	10505.02
265.746	10495.43
265.815	10490.37
265.885	10483.43
265.955	10453.61
266.024	10431.26
266.094	10392.81
266.163	10391.89
266.232	10391.75
266.302	10376
266.371	10368.24
266.441	10353.06
266.51	10349.93
266.58	10329.02
266.649	10310.62
266.719	10309.85
266.788	10299.34
266.858	10307.68
266.927	10268.12
266.996	10262.97
267.066	10251.7
267.135	10213.98
267.205	10206.6
267.274	10194.56
267.343	10190.18
267.413	10185.12
267.482	10197.07
267.552	10200.01
267.621	10168.88
267.69	10135.93
267.76	10127.12
267.829	10116.66
267.898	10104.76
267.968	10080.39
268.037	10082.12
268.106	10077.07
268.176	10046.81
268.245	10031.15
268.314	10009.14
268.384	10011.5
268.453	9999.22
268.522	9987.03
268.592	9992.33
268.661	9972.91
268.73	9970.17
268.799	9952.92
268.869	9961.35
268.938	9924.65
269.007	9907.21
269.076	9894.45
269.146	9894.59
269.215	9884.57
269.284	9890.59
269.353	9873.2
269.422	9863.62
269.492	9845.08
269.561	9799.27
269.63	9800.19
269.699	9786.51
269.768	9779.04
269.838	9767.58
269.907	9763.39
269.976	9744.99
270.045	9712.92
270.114	9712.82
270.183	9695.91
270.253	9686.81
270.322	9654.01
270.391	9646.6
270.46	9654.06
270.529	9660.47
270.598	9657.87
270.667	9649.34
270.736	9628.58
270.806	9621.65
270.875	9624.06
270.944	9609.61
271.013	9637.49
271.082	9621.6
271.151	9612.69
271.22	9581.1
271.289	9570.26
271.358	9553.94
271.427	9546.33
271.496	9541.03
271.565	9519.89
271.634	9508.96
271.703	9537.81
271.772	9547.58
271.841	9536.46
271.91	9511.66
271.979	9500.87
272.048	9476.5
272.117	9475.15
272.186	9456.95
272.255	9459.5
272.324	9458.93
272.393	9451.41
272.462	9431.67
272.531	9427.33
272.6	9417.85
272.669	9424.35
272.738	9410.58
272.807	9406.39
272.876	9384.34
272.945	9416.5
273.013	9417.32
273.082	9426.95
273.151	9376.48
273.22	9374.99
273.289	9366.51
273.358	9375.47
273.427	9361.79
273.496	9363.91
273.564	9359.87
273.633	9357.94
273.702	9334.92
273.771	9323.13
273.84	9323.51
273.909	9325.87
273.977	9322.5
274.046	9316.34
274.115	9319.66
274.184	9305.94
274.253	9298.19
274.322	9311.33
274.39	9268.81
274.459	9255.52
274.528	9220.52
274.597	9207.57
274.665	9197.12
274.734	9206.89
274.803	9192.69
274.872	9179.06
274.94	9161.97
275.009	9197.23
275.078	9182.16
275.147	9182.83
275.215	9178.55
275.284	9187.46
275.353	9173.78
275.421	9147.25
275.49	9157.41
275.559	9144.89
275.627	9140.85
275.696	9138.06
275.765	9139.74
275.833	9135.84
275.902	9137.34
275.971	9152.55
276.039	9174.55
276.108	9175.13
276.177	9170.46
276.245	9163.38
276.314	9158.62
276.383	9163.67
276.451	9116.52
276.52	9123.74
276.588	9132.89
276.657	9138.52
276.725	9122.73
276.794	9123.69
276.863	9136.07
276.931	9105.54
277	9106.6
277.068	9112.81
277.137	9128.8
277.205	9122.01
277.274	9140.01
277.342	9147.48
277.411	9125.43
277.48	9107.28
277.548	9095.29
277.617	9091.97
277.685	9081.57
277.754	9085.61
277.822	9084.65
277.89	9100.49
277.959	9091.2
278.027	9072.52
278.096	9049.22
278.164	9079.46
278.233	9066.75
278.301	9054.43
278.37	9064.1
278.438	9052.26
278.507	9054.04
278.575	9026.55
278.643	9021.2
278.712	9000.02
278.78	8980.52
278.849	8992.46
278.917	9005.94
278.985	8999.88
279.054	9009.02
279.122	9023.66
279.191	9025.63
279.259	9020.34
279.327	8988.7
279.396	9005.51
279.464	9005.94
279.532	9022.07
279.601	9013.59
279.669	9015.28
279.737	9028.18
279.806	9030.15
279.874	9043.05
279.942	9038.58
280.011	9030.54
280.079	9039.06
280.147	9057.16
280.215	9063.75
280.284	9058.32
280.352	9044.59
280.42	9054.75
280.488	9038.09
280.557	9028.85
280.625	9035.06
280.693	9030.3
280.761	9035.45
280.83	9017.92
280.898	9025
280.966	9000.35
281.034	8971.13
281.102	8949.71
281.171	8949.71
281.239	8957.65
281.307	8946.82
281.375	8939.6
281.443	8968.68
281.512	8966.9
281.58	8978.69
281.648	8965.41
281.716	8970.41
281.784	8966.32
281.852	8958.43
281.92	8960.35
281.989	8973.74
282.057	8943.31
282.125	9002.79
282.193	9001.15
282.261	9003.36
282.329	8999.9
282.397	9006.4
282.465	9004.42
282.533	9023.53
282.601	9011.01
282.67	8984.87
282.738	8976.11
282.806	8982.13
282.874	8967.54
282.942	8967.59
283.01	8961.57
283.078	8970.33
283.146	8963.4
283.214	8973.56
283.282	8974.81
283.35	8986.65
283.418	8979.77
283.486	8994.59
283.554	8938.25
283.622	8941.18
283.69	8927.95
283.758	8921.02
283.826	8925.2
283.894	8939.79
283.962	8968.58
284.03	8981.72
284.098	8986.63
284.165	8979.99
284.233	8981.73
284.301	8976.43
284.369	8966.9
284.437	8953.37
284.505	8948.46
284.573	8959.58
284.641	8949.47
284.709	8959.15
284.777	8943.6
284.845	8944.75
284.912	8951.49
284.98	8956.3
285.048	8949.81
285.116	8963.81
285.184	8980.61
285.252	8980.47
285.319	8961.46
285.387	8942.48
285.455	8924.14
285.523	8933.53
285.591	8939.55
285.659	8939.21
285.726	8949.7
285.794	8939.98
285.862	8936.37
285.93	8932.9
285.997	8934.2
286.065	8928.24
286.133	8923.28
286.201	8920.2
286.269	8904.7
286.336	8894.73
286.404	8892.47
286.472	8899.5
286.539	8876.25
286.607	8852.23
286.675	8857.86
286.743	8868.69
286.81	8867.05
286.878	8888.96
286.946	8881.06
287.013	8873.89
287.081	8873.75
287.149	8856.51
287.216	8876.64
287.284	8874.76
287.352	8871.58
287.419	8862.39
287.487	8883.33
287.555	8884.63
287.622	8882.32
287.69	8894.69
287.758	8909.47
287.825	8902.05
287.893	8891.13
287.96	8898.11
288.028	8912.02
288.096	8909.46
288.163	8915.05
288.231	8901.38
288.298	8895.5
288.366	8909.03
288.433	8907.88
288.501	8898.97
288.569	8907.92
288.636	8901.76
288.704	8913.99
288.771	8928.14
288.839	8923.47
288.906	8914.52
288.974	8925.26
289.041	8917.65
289.109	8903.55
289.176	8907.01
289.244	8911.68
289.311	8928.82
289.379	8941.62
289.446	8950.58
289.514	8951.11
289.581	8946.82
289.649	8950.24
289.716	8945.19
289.783	8940.08
289.851	8968.39
289.918	8971.95
289.986	8971.95
290.053	8972.28
290.121	8965.01
290.188	8968.14
290.255	8998.38
290.323	8988.41
290.39	8980.61
290.458	8992.41
290.525	9009.78
290.592	9002.32
290.66	8999.05
290.727	8988.84
290.794	8999.53
290.862	8991.3
290.929	8992.74
290.996	8993.85
291.064	9008.39
291.131	9024.37
291.198	9035.64
291.266	9028.9
291.333	9029.04
291.4	9042.33
291.468	9059.13
291.535	9060.91
291.602	9066.88
291.669	9054.41
291.737	9061.1
291.804	9061.2
291.871	9078.29
291.938	9079.64
292.006	9118.36
292.073	9135.97
292.14	9148.64
292.207	9148.59
292.275	9156.68
292.342	9171.26
292.409	9197.22
292.476	9223.51
292.543	9212.15
292.611	9211.14
292.678	9226.4
292.745	9255.67
292.812	9264.53
292.879	9257.79
292.946	9260
293.014	9270.65
293.081	9283.07
293.148	9299.39
293.215	9314.36
293.282	9311.14
293.349	9326.88
293.416	9300.01
293.484	9312.58
293.551	9322.35
293.618	9336.32
293.685	9361.36
293.752	9353.41
293.819	9349.51
293.886	9334.97
293.953	9346.96
294.02	9358.47
294.087	9366.22
294.154	9361.64
294.221	9376.24
294.288	9377.78
294.356	9400.26
294.423	9410.42
294.49	9396.08
294.557	9411.58
294.624	9403.93
294.691	9424.29
294.758	9424.97
294.825	9430.94
294.892	9419.67
294.959	9418.56
295.026	9427.86
295.093	9419.72
295.16	9423.67
295.226	9423.23
295.293	9443.03
295.36	9448.28
295.427	9456.17
295.494	9470.38
295.561	9477.65
295.628	9500.82
295.695	9518.59
295.762	9516.91
295.829	9518.26
295.896	9540.02
295.963	9542.86
296.03	9556.1
296.096	9560.2
296.163	9568.29
296.23	9586.73
296.297	9605.22
296.364	9607.49
296.431	9611.49
296.498	9611.73
296.564	9639.71
296.631	9643.99
296.698	9629.11
296.765	9650.78
296.832	9649.82
296.899	9637.49
296.965	9654.78
297.032	9630.79
297.099	9649.96
297.166	9658.63
297.233	9660.99
297.299	9654.63
297.366	9649.38
297.433	9652.61
297.5	9662.68
297.566	9666.92
297.633	9660.75
297.7	9664.56
297.767	9669.42
297.833	9675.63
297.9	9672.26
297.967	9650.06
298.033	9663.79
298.1	9694.13
298.167	9689.03
298.234	9685.7
298.3	9693.84
298.367	9685.51
298.434	9692.01
298.5	9679.73
298.567	9675.97
298.634	9666.53
298.7	9687.72
298.767	9702.36
298.834	9716.57
298.9	9708.39
298.967	9694.42
299.033	9705.64
299.1	9721.3
299.167	9739.74
299.233	9732.32
299.3	9747.69
299.366	9764.98
299.433	9786.61
299.5	9754.96
299.566	9756.31
299.633	9776.97
299.699	9790.31
299.766	9789.01
299.832	9802.26
299.899	9812.57
299.965	9824.99
300.032	9828.61
300.099	9837.42
300.165	9847.06
300.232	9836.12
300.298	9839.88
300.365	9863.29
300.431	9872.15
300.498	9866.27
300.564	9861.41
300.631	9874.36
300.697	9887.9
300.763	9887.8
300.83	9882.17
300.896	9905.81
300.963	9915.01
301.029	9923.06
301.096	9928.36
301.162	9940.64
301.229	9930.86
301.295	9923.4
301.361	9931.58
301.428	9934.62
301.494	9917.81
301.561	9915.45
301.627	9921.37
301.693	9927.59
301.76	9932.02
301.826	9918.63
301.892	9925.8
301.959	9937.65
302.025	9937.22
302.092	9934.04
302.158	9943.87
302.224	9944.35
302.291	9937.56
302.357	9934.95
302.423	9921.23
302.49	9905.96
302.556	9920.65
302.622	9917.9
302.688	9927.87
302.755	9937.27
302.821	9947.09
302.887	9958.12
302.954	9960.87
303.02	9975.27
303.086	9980.81
303.152	9971.13
303.219	9967.52
303.285	9972.58
303.351	9977.97
303.417	9978.4
303.483	9969.11
303.55	9958.03
303.616	9956.73
303.682	9948.16
303.748	9944.4
303.815	9965.74
303.881	9985.01
303.947	9972.39
304.013	9977.4
304.079	9968.05
304.145	9949.31
304.212	9947.87
304.278	9937.66
304.344	9927.59
304.41	9904.85
304.476	9890.79
304.542	9890.6
304.608	9902.93
304.674	9882.5
304.741	9881.73
304.807	9883.23
304.873	9887.71
304.939	9910.78
305.005	9883.66
305.071	9890.88
305.137	9887.56
305.203	9855.62
305.269	9852.4
305.335	9867.19
305.401	9864.58
305.467	9859.67
305.533	9870.85
305.599	9885.01
305.666	9895.56
305.732	9899.17
305.798	9912.32
305.864	9941.41
305.93	9947.48
305.996	9946.71
306.062	9952.83
306.128	9945.7
306.194	9942.09
306.259	9945.51
306.325	9940.5
306.391	9955.38
306.457	9960.05
306.523	9965.06
306.589	9993.82
306.655	9984.43
306.721	9962.07
306.787	9946.42
306.853	9964.1
306.919	9941.03
306.985	9929.23
307.051	9923.54
307.117	9913.62
307.183	9918.15
307.248	9890.59
307.314	9893.19
307.38	9898.59
307.446	9900.85
307.512	9887.9
307.578	9884.86
307.644	9879.37
307.709	9873.25
307.775	9874.65
307.841	9865.35
307.907	9864.2
307.973	9847.1
308.039	9844.11
308.104	9856.15
308.17	9858.27
308.236	9842.86
308.302	9848.01
308.368	9834.72
308.433	9833.71
308.499	9828.94
308.565	9817.14
308.631	9821.09
308.696	9799.17
308.762	9781.59
308.828	9778.56
308.894	9759.44
308.959	9738.44
309.025	9727.8
309.091	9718.45
309.156	9705.11
309.222	9712.82
309.288	9701.45
309.354	9677.03
309.419	9672.55
309.485	9649
309.551	9658.54
309.616	9644.18
309.682	9645.24
309.748	9640.19
309.813	9632.91
309.879	9624.58
309.945	9604.79
310.01	9595.54
310.076	9596.75
310.141	9591.64
310.207	9577
310.273	9577.48
310.338	9583.31
310.404	9561.73
310.469	9551.77
310.535	9548.54
310.601	9521.62
310.666	9528.36
310.732	9538.95
310.797	9529.03
310.863	9517.09
310.928	9505.68
310.994	9506.93
311.059	9495.95
311.125	9486.7
311.191	9498.74
311.256	9491.23
311.322	9498.94
311.387	9476.3
311.453	9891.85
311.518	9858.05
311.584	9852.46
311.649	9868.84
311.715	9854.34
311.78	9860.17
311.846	9851.31
311.911	9854.15
311.976	9851.79
312.042	9836.38
312.107	9820.1
312.173	9806.14
312.238	9803.64
312.304	9798.87
312.369	9789.57
312.434	9780.86
312.5	9776.62
312.565	9740.26
312.631	9741.66
312.696	9731.21
312.761	9735.69
312.827	9309.35
312.892	9359.77
312.958	9362.13
313.023	9356.16
313.088	9354.91
313.154	9346.91
313.219	9340.46
313.284	9326.35
313.35	9326.01
313.415	9310.08
313.48	9301.84
313.546	9310.03
313.611	9317.78
313.676	9307.77
313.741	9296.79
313.807	9305.7
313.872	9314.89
313.937	9325.53
314.003	9333.62
314.068	9340.08
314.133	9349.13
314.198	9341.95
314.264	9316.33
314.329	9310.8
314.394	9304.53
314.459	9303.33
314.525	9317.63
314.59	9311.28
314.655	9299.96
314.72	9309.74
314.785	9314.26
314.851	9313.64
314.916	9286.43
314.981	9275.5
315.046	9269.82
315.111	9265.25
315.176	9254.61
315.242	9254.66
315.307	9249.36
315.372	9233.85
315.437	9214.69
315.502	9198.7
315.567	9208.09
315.632	9196.83
315.698	9193.99
315.763	9188.35
315.828	9180.89
315.893	9170.01
315.958	9162.83
316.023	9155.32
316.088	9135.05
316.153	9110.45
316.218	9109.64
316.283	9096.35
316.348	9073.1
316.413	9068.67
316.479	9055.24
316.544	9016.97
316.609	8981.98
316.674	8947.17
316.739	8909.39
316.804	8890.09
316.869	8854.57
316.934	8812.35
316.999	8783.18
317.064	8730.09
317.129	8682.1
317.194	8648.03
317.259	8609.23
317.324	8560.06
317.389	8516.12
317.454	8482.48
317.518	8450.72
317.583	8420.21
317.648	8399.57
317.713	8363.19
317.778	8300.98
317.843	8267.3
317.908	8230.4
317.973	8194.9
318.038	8165.12
318.103	8128.18
318.168	8090.07
318.233	8065.01
318.297	8015.81
318.362	7975.93
318.427	7938.03
318.492	7919.99
318.557	7869.7
318.622	7840.11
318.687	7822.61
318.751	7783.04
318.816	7741.58
318.881	7713.31
318.946	7655.56
319.011	7611.94
319.075	7573.68
319.14	7534.84
319.205	7490.8
319.27	7460.09
319.335	7416.01
319.399	7376.92
319.464	7354
319.529	7300.46
319.594	7255.47
319.658	7229.95
319.723	7182.76
319.788	7156.14
319.853	7092.55
319.917	7065.03
319.982	7004.05
320.047	6959.65
320.112	6932.03
320.176	6884.57
320.241	6846.8
320.306	6816.92
320.37	6772.64
320.435	6741.71
320.5	6721.49
320.564	6685.71
320.629	6641.68
320.694	6609.93
320.758	6568.16
320.823	6517.6
320.888	6493.06
320.952	6442.51
321.017	6393.4
321.082	6351.31
321.146	6313.34
321.211	6279.12
321.275	6238.23
321.34	6194.48
321.405	6152.25
321.469	6104.02
321.534	6061.9
321.598	6011.81
321.663	5980.85
321.727	5952.69
321.792	5905.96
321.857	5858.7
321.921	5816.35
321.986	5773.2
322.05	5707.17
322.115	5665.5
322.179	5623.79
322.244	5562.57
322.308	5532.66
322.373	5489.71
322.437	5455.73
322.502	5431.55
322.566	5389.09
322.631	5348.55
322.695	5310.7
322.76	5264.9
322.824	5230.16
322.889	5188.05
322.953	5138.58
323.018	5069.21
323.082	5001.16
323.146	4946.86
323.211	4895.42
323.275	4851.55
323.34	4808.95
323.404	4779.23
323.468	4736.96
323.533	4691.58
323.597	4647.29
323.662	4593.97
323.726	4557.84
323.79	4509.03
323.855	4438.37
323.919	4389.67
323.983	4344.46
324.048	4277.97
324.112	4418.82
324.177	4283.94
324.241	4060.44
324.305	3844.48
324.37	3632.55
324.434	3429.56
324.498	3383.21
324.562	3327.12
324.627	3260.49
324.691	3199.45
324.755	3128.82
324.82	3044.5
324.884	2961.69
324.948	2883.51
325.012	2780.75
325.077	2647.09
