Data from 20250703_urea_0.1M_MAYP1162681_16-51-05-100.txt Node
Date: Thu Jul 03 16:51:05 BST 2025
User: adleo
Spectrometer: MAYP116268
Trigger mode: 0
Integration Time (sec): 1.000000E0
Scans to average: 1
Electric dark correction enabled: true
Nonlinearity correction enabled: true
Boxcar width: 10
XAxis mode: Wavelengths
Number of Pixels in Spectrum: 2068
>>>>>Begin Spectral Data<<<<<
179.565	1318.46
179.642	1381.5
179.718	1427.16
179.795	1467.79
179.871	1502.21
179.948	1521.4
180.024	1543.8
180.101	1567.15
180.177	1582.36
180.254	1608.29
180.33	1632.55
180.407	1695.71
180.483	1797.86
180.56	1896.5
180.636	1989.95
180.712	1974.34
180.789	1987.56
180.865	1998.64
180.942	2009.2
181.018	2019.61
181.095	2035.36
181.171	2043.21
181.248	2044.11
181.324	2061.66
181.4	2071.84
181.477	2082.54
181.553	2097.14
181.63	2122.78
181.706	2141
181.782	2151.51
181.859	2150.09
181.935	2155.65
182.011	2152.13
182.088	2169.59
182.164	2188.29
182.24	2201.47
182.317	2211.6
182.393	2207.56
182.469	2222.16
182.546	2237.1
182.622	2242.58
182.698	2233.72
182.775	2243.05
182.851	2258.75
182.927	2251.09
183.003	2246.24
183.08	2243.01
183.156	2253.57
183.232	2246.48
183.308	2234.77
183.385	2245.09
183.461	2264.61
183.537	2266.13
183.613	2276.5
183.69	2268.37
183.766	2260.8
183.842	2268.84
183.918	2276.26
183.995	2290.06
184.071	2291.49
184.147	2284.16
184.223	2272.27
184.299	2288.93
184.375	2278.6
184.452	2285.32
184.528	2338.92
184.604	2350.91
184.68	2362.04
184.756	2367.09
184.832	2369.9
184.908	2375.89
184.985	2375.56
185.061	2359.43
185.137	2368.42
185.213	2356.29
185.289	2359
185.365	2347.91
185.441	2344.06
185.517	2357.77
185.593	2352.39
185.669	2351.11
185.745	2363.91
185.822	2382.14
185.898	2373.28
185.974	2382.37
186.05	2374.51
186.126	2336.81
186.202	2328.38
186.278	2323.43
186.354	2314.49
186.43	2326.06
186.506	2323.2
186.582	2319.11
186.658	2324.77
186.734	2303.07
186.81	2307.35
186.886	2308.4
186.962	2322.82
187.038	2322.39
187.114	2311.3
187.19	2320.1
187.266	2310.59
187.341	2310.68
187.417	2301.4
187.493	2301.5
187.569	2304.45
187.645	2297.45
187.721	2286.03
187.797	2296.92
187.873	2302.25
187.949	2298.59
188.025	2288.64
188.101	2293.54
188.176	2298.87
188.252	2295.68
188.328	2303.43
188.404	2303.58
188.48	2298.77
188.556	2293.87
188.632	2292.54
188.707	2295.39
188.783	2293.92
188.859	2288.59
188.935	2274.45
189.011	2283.69
189.086	2275.03
189.162	2266.46
189.238	2262.23
189.314	2260.32
189.39	2249.28
189.465	2243.38
189.541	2261.18
189.617	2245.58
189.693	2241.34
189.768	2246.67
189.844	2271.1
189.92	2264.48
189.996	2274
190.071	2288.18
190.147	2287.9
190.223	2297.94
190.298	2289.95
190.374	2276.05
190.45	2291.42
190.526	2302.74
190.601	2296.41
190.677	2297.65
190.753	2328.56
190.828	2333.65
190.904	2347.69
190.98	2366.83
191.055	2377.25
191.131	2367.35
191.207	2390.19
191.282	2399.23
191.358	2388.38
191.433	2372.95
191.509	2385.18
191.585	2381.94
191.66	2381.89
191.736	2387.08
191.811	2375.23
191.887	2393.51
191.963	2418.84
192.038	2422.5
192.114	2423.08
192.189	2427.5
192.265	2426.65
192.34	2401.26
192.416	2399.74
192.491	2394.41
192.567	2394.83
192.642	2395.45
192.718	2394.36
192.793	2382.6
192.869	2375.89
192.944	2380.12
193.02	2390.27
193.095	2395.64
193.171	2401.12
193.246	2401.02
193.322	2399.64
193.397	2400.02
193.473	2386.07
193.548	2363.6
193.624	2373.46
193.699	2370.31
193.775	2386.79
193.85	2386.89
193.925	2399.46
194.001	2400.03
194.076	2392.84
194.152	2383.03
194.227	2377.98
194.302	2367.85
194.378	2372.18
194.453	2372.56
194.529	2384.42
194.604	2364.95
194.679	2360.19
194.755	2341.34
194.83	2353.34
194.905	2348.49
194.981	2359.1
195.056	2350.35
195.131	2360.44
195.207	2354.15
195.282	2345.44
195.357	2324.54
195.433	2343.91
195.508	2328.77
195.583	2336.53
195.659	2351.77
195.734	2361.05
195.809	2359.43
195.884	2365.47
195.96	2364.14
196.035	2377.66
196.11	2373.56
196.185	2389.94
196.261	2392.6
196.336	2425.88
196.411	2412.59
196.486	2420.54
196.561	2417.45
196.637	2425.77
196.712	2443.02
196.787	2448.25
196.862	2466.11
196.937	2478.48
197.013	2482.96
197.088	2495.62
197.163	2515.58
197.238	2533.26
197.313	2530.45
197.388	2548.59
197.464	2586.94
197.539	2597.75
197.614	2591.56
197.689	2605.51
197.764	2623.52
197.839	2646.1
197.914	2641.48
197.989	2665.73
198.065	2681.87
198.14	2730.78
198.215	2757.74
198.29	2767.71
198.365	2780.95
198.44	2789.05
198.515	2816.4
198.59	2830.8
198.665	2858.53
198.74	2868.35
198.815	2871.83
198.89	2898.14
198.965	2929.23
199.04	2924.22
199.115	2943.71
199.19	2988.71
199.265	2990.71
199.34	2997.53
199.415	3033.73
199.49	3055.13
199.565	3063.57
199.64	3087.99
199.715	3087.8
199.79	3097
199.865	3105.25
199.94	3103.06
200.015	3137.01
200.09	3144.55
200.165	3153.7
200.24	3159.33
200.315	3202.53
200.39	3220.09
200.464	3228.49
200.539	3225.67
200.614	3244.6
200.689	3269.7
200.764	3277.53
200.839	3295.93
200.914	3302.65
200.989	3289.34
201.063	3304.41
201.138	3286.73
201.213	3285.49
201.288	3265.31
201.363	3272.42
201.438	3274.9
201.512	3292.92
201.587	3274.65
201.662	3279.8
201.737	3293.11
201.812	3304.95
201.886	3270.62
201.961	3279.78
202.036	3265.43
202.111	3264.33
202.186	3234.58
202.26	3215.16
202.335	3193.64
202.41	3192.3
202.485	3174.76
202.559	3156.4
202.634	3130.45
202.709	3145.27
202.784	3127.63
202.858	3130.82
202.933	3114.08
203.008	3110.84
203.082	3092.34
203.157	3101.12
203.232	3061.36
203.306	3043.99
203.381	3016.61
203.456	3001.54
203.53	2986.65
203.605	2976.83
203.68	2963.76
203.754	2967.48
203.829	2969.34
203.904	2966.14
203.978	2969.29
204.053	2995.09
204.127	3000.29
204.202	3019.98
204.277	3022.66
204.351	3041.06
204.426	3060.29
204.5	3081.18
204.575	3073.98
204.65	3121.6
204.724	3145.38
204.799	3193.2
204.873	3232.39
204.948	3275.96
205.022	3311.6
205.097	3350.57
205.171	3411.71
205.246	3477.76
205.32	3532.64
205.395	3591.35
205.469	3639.66
205.544	3712.1
205.618	3762.37
205.693	3847.66
205.767	3913.99
205.842	4016.16
205.916	4092.98
205.991	4163.55
206.065	4256.1
206.14	4361.69
206.214	4449.09
206.289	4539.36
206.363	4653.13
206.438	4754.79
206.512	4864.01
206.586	4987.84
206.661	5107.11
206.735	5200.07
206.81	5311.96
206.884	5450.69
206.958	5555.47
207.033	5700.61
207.107	5833.37
207.181	5998.42
207.256	6124.86
207.33	6275.93
207.405	6423.37
207.479	6576.61
207.553	6725.77
207.628	6856.67
207.702	7017
207.776	7160.53
207.851	7311.46
207.925	7474.43
207.999	7627.75
208.073	7787.62
208.148	7947.57
208.222	8098.61
208.296	8292.9
208.371	8474.71
208.445	8641.87
208.519	8838.87
208.593	9014.02
208.668	9169.85
208.742	9333.1
208.816	9500.97
208.89	9685.18
208.965	9858.01
209.039	10041.38
209.113	10229.22
209.187	10414.22
209.261	10575.75
209.336	10756.41
209.41	10950.1
209.484	11125.7
209.558	11323.71
209.632	11497.43
209.707	11681.53
209.781	11867.32
209.855	12053.22
209.929	12242.17
210.003	12423.78
210.077	12588.54
210.151	12812.43
210.226	13022.98
210.3	13211.6
210.374	13403.98
210.448	13573.37
210.522	13746.81
210.596	13916.93
210.67	14085.21
210.744	14300.68
210.818	14500.63
210.892	14693.3
210.966	14843.02
211.041	15019.3
211.115	15160.34
211.189	15345.59
211.263	15513.28
211.337	15671.38
211.411	15843.6
211.485	15986.51
211.559	16142.96
211.633	16296.33
211.707	16402.66
211.781	16546.81
211.855	16657.23
211.929	16799.22
212.003	16918.74
212.077	17067.04
212.151	17224.2
212.225	17377.12
212.299	17499.48
212.373	17624.06
212.447	17744.68
212.52	17915.04
212.594	18039.52
212.668	18179.57
212.742	18293.01
212.816	18422.4
212.89	18547.51
212.964	18665.19
213.038	18789.81
213.112	18929.8
213.186	19062.81
213.26	19167.86
213.333	19253.69
213.407	19380.24
213.481	19494.3
213.555	19623.31
213.629	19721.81
213.703	19813.13
213.777	19922.05
213.85	20009.47
213.924	20143.83
213.998	20260.02
214.072	20352.7
214.146	20443.25
214.219	20546.34
214.293	20640.84
214.367	20729.23
214.441	20839.21
214.515	20929.68
214.588	21001.88
214.662	21058.22
214.736	21133.64
214.81	21230.37
214.883	21321.61
214.957	21398.05
215.031	21472.8
215.105	21530.64
215.178	21602.7
215.252	21675.05
215.326	21725.56
215.4	21791.16
215.473	21825.44
215.547	21872.77
215.621	21934.04
215.694	22016.33
215.768	22064.63
215.842	22119.58
215.915	22182.88
215.989	22225.59
216.063	22277.27
216.136	22336.67
216.21	22400.83
216.284	22481.1
216.357	22539.92
216.431	22591.84
216.504	22656.44
216.578	22740.44
216.652	22802.96
216.725	22853.25
216.799	22919.21
216.873	22980.54
216.946	23036.03
217.02	23082.22
217.093	23127.11
217.167	23151.22
217.24	23184.88
217.314	23233.19
217.387	23284.54
217.461	23327.36
217.535	23389.81
217.608	23423.09
217.682	23465.09
217.755	23517.27
217.829	23546.06
217.902	23596.7
217.976	23635.42
218.049	23668.21
218.123	23686.73
218.196	23746.53
218.27	23784.97
218.343	23799.39
218.417	23834.74
218.49	23863.39
218.563	23924.06
218.637	23979.82
218.71	24051.69
218.784	24096.98
218.857	24132.24
218.931	24181.92
219.004	24214.43
219.077	24248.44
219.151	24283.51
219.224	24317.13
219.298	24343.42
219.371	24385.97
219.444	24397.16
219.518	24432.13
219.591	24470.72
219.665	24540.63
219.738	24570.11
219.811	24585.64
219.885	24630.7
219.958	24671.51
220.031	24703.93
220.105	24733.17
220.178	24757.43
220.251	24758.45
220.325	24786.43
220.398	24828.21
220.471	24844.09
220.544	24877.43
220.618	24893.44
220.691	24935.52
220.764	24964.95
220.838	24996.22
220.911	25010.74
220.984	25064.68
221.057	25094.12
221.131	25121.43
221.204	25099.32
221.277	25130.84
221.35	25188.45
221.424	25203.36
221.497	25226.67
221.57	25253.3
221.643	25275.12
221.716	25295.67
221.79	25310.54
221.863	25316.47
221.936	25329.21
222.009	25338.19
222.082	25349.86
222.155	25353.39
222.229	25366.37
222.302	25376.7
222.375	25382.78
222.448	25396.24
222.521	25392.33
222.594	25400.54
222.667	25394.65
222.74	25406.23
222.814	25405.94
222.887	25398.99
222.96	25413.47
223.033	25412.5
223.106	25410.86
223.179	25410.67
223.252	25415.5
223.325	25419.4
223.398	25433.93
223.471	25439.38
223.544	25443.44
223.617	25445.75
223.69	25445.75
223.763	25431.08
223.837	25432.82
223.91	25434.61
223.983	25418.44
224.056	25403.33
224.129	25397.78
224.202	25405.84
224.275	25398.07
224.348	25376.41
224.42	25356.91
224.493	25334.33
224.566	25319.56
224.639	25314.25
224.712	25307.93
224.785	25285.53
224.858	25275.26
224.931	25256.53
225.004	25223.82
225.077	25207.22
225.15	25161.38
225.223	25152.69
225.296	25160.32
225.369	25124.32
225.442	25104.87
225.514	25088.23
225.587	25080.41
225.66	25070.04
225.733	25059.81
225.806	25052.23
225.879	25039.64
225.952	25016.14
226.025	25013
226.097	25010.44
226.17	24997.32
226.243	24953.02
226.316	24936.23
226.389	24921.95
226.461	24906.75
226.534	24899.8
226.607	24882.39
226.68	24895.08
226.753	24879.44
226.825	24844.99
226.898	24842.48
226.971	24816.43
227.044	24802.39
227.117	24782.27
227.189	24759.55
227.262	24751.1
227.335	24728.47
227.407	24706.91
227.48	24692.63
227.553	24670.34
227.626	24641.73
227.698	24620.31
227.771	24612.49
227.844	24575.16
227.916	24548.04
227.989	24504.53
228.062	24471.68
228.134	24474.29
228.207	24450.79
228.28	24418.38
228.352	24385.67
228.425	24372.02
228.498	24363.72
228.57	24339.65
228.643	24332.85
228.716	24310.37
228.788	24263.14
228.861	24234.29
228.934	24216.35
229.006	24187.85
229.079	24165.51
229.151	24140.14
229.224	24100.49
229.296	24075.56
229.369	24077.97
229.442	24073.19
229.514	24045.12
229.587	24040.93
229.659	23996.74
229.732	23974.22
229.804	23953.19
229.877	23952.08
229.949	23931.73
230.022	23927.96
230.094	23896.28
230.167	23856.87
230.239	23829.05
230.312	23809.27
230.384	23807.68
230.457	23790.8
230.529	23776.62
230.602	23748.07
230.674	23720.92
230.747	23712.24
230.819	23696.95
230.892	23641.64
230.964	23610.19
231.037	23595.15
231.109	23567.23
231.181	23546.73
231.254	23500.92
231.326	23471.22
231.399	23438.71
231.471	23399.17
231.544	23342.94
231.616	23325.34
231.688	23303.3
231.761	23262.75
231.833	23228.85
231.905	23178.07
231.978	23155.89
232.05	23112.45
232.122	23084.67
232.195	23049.71
232.267	23034.77
232.339	22999.86
232.412	22991.71
232.484	22954.87
232.556	22917.55
232.629	22905.88
232.701	22879.99
232.773	22860.32
232.846	22826.33
232.918	22792.44
232.99	22765.73
233.062	22741.76
233.135	22713.22
233.207	22668.67
233.279	22651.03
233.351	22623.55
233.424	22588.93
233.496	22537.3
233.568	22531.8
233.64	22491.26
233.713	22462.09
233.785	22422.99
233.857	22391.7
233.929	22348.8
234.001	22337.13
234.074	22327.3
234.146	22266.56
234.218	22223.7
234.29	22185.38
234.362	22146.24
234.434	22113.02
234.507	22075.18
234.579	22029.63
234.651	21990.92
234.723	21979.54
234.795	21947.77
234.867	21914.08
234.939	21898.8
235.012	21869.78
235.084	21844.81
235.156	21811.17
235.228	21767.64
235.3	21716.36
235.372	21677.89
235.444	21644.49
235.516	21586.6
235.588	21544.76
235.66	21513.96
235.732	21472.89
235.804	21502.83
235.876	21481.09
235.948	21456.46
236.02	21416.94
236.092	21385.03
236.164	21346.28
236.236	21296.78
236.308	21248.15
236.38	21224.92
236.452	21173.83
236.524	21135.51
236.596	21096.42
236.668	21069
236.74	21033.96
236.812	21004.66
236.884	20981.71
236.956	20957.23
237.028	20911.5
237.1	20865.28
237.172	20840.84
237.244	20821.61
237.316	20735.72
237.388	20692.35
237.46	20637.93
237.532	20613.98
237.604	20567.24
237.675	20539.43
237.747	20508.01
237.819	20472.25
237.891	20421.55
237.963	20369.31
238.035	20330.46
238.107	20262.27
238.178	20232.73
238.25	20198.66
238.322	20179.24
238.394	20113.65
238.466	20064.3
238.538	20037.26
238.609	20009.36
238.681	19956.98
238.753	19913.75
238.825	19882.71
238.897	19849.13
238.968	19830.57
239.04	19780.41
239.112	19774.14
239.184	19729.56
239.255	19693.28
239.327	19660.46
239.399	19624.56
239.471	19599.31
239.542	19566.25
239.614	19549.38
239.686	19490.11
239.758	19463.02
239.829	19420.91
239.901	19401.68
239.973	19373.78
240.044	19341.49
240.116	19295.61
240.188	19251.37
240.259	19213.59
240.331	19164.39
240.403	19136.59
240.474	19083.67
240.546	19037.41
240.618	18970.76
240.689	18928.45
240.761	18888.31
240.833	18862.92
240.904	18823.06
240.976	18778.68
241.048	18742.01
241.119	18707.65
241.191	18679.51
241.262	18654.4
241.334	18607.22
241.405	18561.3
241.477	18508.43
241.549	18462.17
241.62	18430.84
241.692	18399.42
241.763	18374.17
241.835	18334.13
241.906	18295.67
241.978	18234.81
242.049	18210.52
242.121	18183.15
242.192	18155.92
242.264	18091.29
242.335	18026.96
242.407	17995.39
242.478	17954.96
242.55	17913.71
242.621	17865.57
242.693	17821.9
242.764	17773.91
242.836	17732.51
242.907	17712.7
242.979	17690.78
243.05	17656.22
243.122	17628.99
243.193	17593.67
243.264	17526.15
243.336	17486.68
243.407	17455.94
243.479	17444.18
243.55	17412.71
243.622	17386.25
243.693	17351.21
243.764	17345.82
243.836	17304.75
243.907	17261.76
243.978	17223.74
244.05	17192.99
244.121	17133.52
244.192	17105.37
244.264	17050.48
244.335	17020.89
244.407	16953.22
244.478	16916.45
244.549	16879.29
244.62	16825.65
244.692	16788.25
244.763	16769.31
244.834	16736.54
244.906	16689.74
244.977	16661.4
245.048	16637.93
245.119	16592.87
245.191	16542.07
245.262	16475.42
245.333	16465.73
245.405	16432.95
245.476	16410.35
245.547	16369.86
245.618	16355.98
245.689	16327.16
245.761	16311.79
245.832	16272.65
245.903	16250.86
245.974	16219.01
246.045	16185.36
246.117	16164.11
246.188	16118.9
246.259	16073.49
246.33	16034.65
246.401	15999.22
246.473	15952.81
246.544	15909.28
246.615	15885.76
246.686	15856.5
246.757	15848.89
246.828	15805.85
246.899	15792.69
246.97	15747.09
247.042	15710.79
247.113	15683.18
247.184	15669.87
247.255	15629.63
247.326	15599.84
247.397	15565.33
247.468	15533.08
247.539	15492.16
247.61	15446.37
247.681	15426.75
247.752	15409.39
247.823	15373.63
247.894	15342.06
247.965	15302.43
248.037	15269.32
248.108	15218.66
248.179	15183.76
248.25	15142.93
248.321	15117.19
248.392	15069.71
248.463	15058.14
248.534	15027.49
248.605	15006.81
248.675	14976.1
248.746	14947.09
248.817	14923.27
248.888	14899.36
248.959	14858.58
249.03	14844.7
249.101	14819.59
249.172	14787.43
249.243	14740.05
249.314	14724.67
249.385	14698.88
249.456	14677.24
249.527	14647.64
249.598	14625.52
249.669	14599.24
249.739	14579.77
249.81	14560.44
249.881	14515.03
249.952	14488.28
250.023	14463.31
250.094	14414.04
250.165	14372.83
250.235	14344.38
250.306	14317.15
250.377	14283.69
250.448	14259.11
250.519	14215.53
250.59	14206.81
250.66	14176.63
250.731	14167.71
250.802	14136.33
250.873	14111.89
250.944	14085.23
251.014	14055.82
251.085	14054.91
251.156	14033.41
251.227	14023.57
251.297	14011.57
251.368	14003.42
251.439	13984
251.51	13980.86
251.58	13950.11
251.651	13919.98
251.722	13913.09
251.792	13870.23
251.863	13838.27
251.934	13828.29
252.005	13830.22
252.075	13801.87
252.146	13788.18
252.217	13769.72
252.287	13763.69
252.358	13738.68
252.429	13737.71
252.499	13708.45
252.57	13689.79
252.641	13685.07
252.711	13654.6
252.782	13613.92
252.852	13611.31
252.923	13589.81
252.994	13559.3
253.064	13554.33
253.135	13511.82
253.205	13477.01
253.276	13468
253.347	13462.36
253.417	13432.03
253.488	13402.87
253.558	13374.52
253.629	13351.14
253.699	13338.99
253.77	13316.24
253.841	13291.27
253.911	13274.11
253.982	13252.8
254.052	13232.17
254.123	13203.97
254.193	13187.05
254.264	13198.04
254.334	13159.71
254.405	13119.8
254.475	13082.2
254.546	13054
254.616	13057.9
254.687	13041.61
254.757	13033.66
254.827	13007.09
254.898	12977.26
254.968	12959.71
255.039	12934.5
255.109	12921.58
255.18	12881.9
255.25	12841.56
255.321	12827.87
255.391	12784.67
255.461	12788.38
255.532	12742.01
255.602	12716.9
255.673	12663.87
255.743	12635.91
255.813	12592.91
255.884	12588.33
255.954	12579.37
256.024	12584.53
256.095	12561.53
256.165	12523.84
256.235	12508.89
256.306	12487.88
256.376	12486.24
256.446	12470.71
256.517	12456.69
256.587	12450.95
256.657	12436.44
256.728	12414.03
256.798	12391.47
256.868	12369.29
256.938	12335.6
257.009	12327.45
257.079	12317.14
257.149	12332.71
257.219	12285.18
257.29	12278.14
257.36	12238.9
257.43	12230.76
257.5	12178.51
257.571	12147.8
257.641	12137.15
257.711	12102.35
257.781	12088.61
257.852	12071.11
257.922	12032.02
257.992	12010.14
258.062	11983.58
258.132	11979.38
258.202	11961.31
258.273	11949.11
258.343	11948.2
258.413	11920.24
258.483	11895.46
258.553	11863.46
258.623	11830.39
258.693	11816.03
258.764	11813.62
258.834	11809.43
258.904	11788.07
258.974	11772.07
259.044	11755.06
259.114	11742.67
259.184	11724.07
259.254	11709.17
259.324	11670.47
259.394	11663.19
259.464	11663.38
259.535	11639.72
259.605	11613.59
259.675	11584.68
259.745	11568.82
259.815	11545.06
259.885	11523.76
259.955	11532.14
260.025	11506.6
260.095	11492.38
260.165	11490.41
260.235	11486.21
260.305	11457.97
260.375	11427.75
260.445	11430.79
260.515	11432.62
260.585	11426.69
260.655	11414.93
260.725	11407.89
260.795	11406.54
260.865	11401.15
260.934	11368.61
261.004	11356.61
261.074	11332.71
261.144	11339.22
261.214	11326.97
261.284	11306.3
261.354	11305.14
261.424	11281.14
261.494	11281.33
261.564	11261.81
261.634	11251.88
261.703	11209.14
261.773	11211.35
261.843	11206.92
261.913	11186.63
261.983	11151.16
262.053	11139.4
262.123	11114.2
262.192	11079.6
262.262	11073.57
262.332	11047.7
262.402	11042.15
262.472	11028.27
262.541	10993.58
262.611	10989.29
262.681	10971.65
262.751	10961.24
262.821	10938.6
262.89	10908.52
262.96	10903.27
263.03	10912.48
263.1	10890.65
263.169	10880.43
263.239	10861.4
263.309	10863.18
263.379	10851.04
263.448	10837.88
263.518	10821.21
263.588	10808.63
263.657	10811.72
263.727	10801.02
263.797	10783.57
263.867	10767.82
263.936	10745.17
264.006	10746.52
264.076	10724.55
264.145	10708.55
264.215	10686.87
264.285	10685.03
264.354	10646.92
264.424	10616.95
264.494	10582.55
264.563	10568.48
264.633	10570.74
264.702	10551.9
264.772	10511.33
264.842	10494.95
264.911	10485.65
264.981	10461.18
265.05	10446.24
265.12	10430.44
265.19	10417.57
265.259	10415.84
265.329	10405.28
265.398	10388.28
265.468	10403.98
265.537	10382.93
265.607	10370.21
265.676	10363.27
265.746	10352.43
265.815	10356.19
265.885	10346.6
265.955	10323.14
266.024	10303.29
266.094	10267.06
266.163	10273.04
266.232	10274.1
266.302	10260.22
266.371	10252.56
266.441	10241.87
266.51	10241.29
266.58	10227.08
266.649	10205.54
266.719	10202.7
266.788	10193.59
266.858	10199.62
266.927	10157.85
266.996	10151.54
267.066	10136.84
267.135	10108.76
267.205	10107.75
267.274	10105.58
267.343	10108.81
267.413	10101.44
267.482	10099.94
267.552	10103.8
267.621	10084.67
267.69	10060.68
267.76	10051
267.829	10043.44
267.898	10035.25
267.968	10008.61
268.037	10000.04
268.106	10001.72
268.176	9973.21
268.245	9955.09
268.314	9934.91
268.384	9937.08
268.453	9931.49
268.522	9924.07
268.592	9924.99
268.661	9900.61
268.73	9890.69
268.799	9862.99
268.869	9870.12
268.938	9839.58
269.007	9818.15
269.076	9802.21
269.146	9802.98
269.215	9790.26
269.284	9793.11
269.353	9775
269.422	9765.03
269.492	9747.83
269.561	9700.78
269.63	9696.68
269.699	9682.19
269.768	9672.41
269.838	9662.82
269.907	9659.55
269.976	9634.84
270.045	9605.23
270.114	9604.07
270.183	9584.47
270.253	9577.58
270.322	9549.55
270.391	9541.13
270.46	9548.45
270.529	9544.06
270.598	9531.35
270.667	9517.91
270.736	9497.68
270.806	9490.89
270.875	9496
270.944	9485.79
271.013	9509.1
271.082	9502.07
271.151	9504.57
271.22	9478.09
271.289	9468.55
271.358	9449.14
271.427	9451.84
271.496	9445.53
271.565	9421.6
271.634	9411.63
271.703	9442.7
271.772	9438.8
271.841	9429.5
271.91	9403.12
271.979	9394.21
272.048	9376.54
272.117	9379.57
272.186	9361.17
272.255	9360.79
272.324	9357.18
272.393	9351.16
272.462	9331.9
272.531	9325.06
272.6	9307.62
272.669	9312.63
272.738	9294.72
272.807	9292.22
272.876	9266.07
272.945	9293.57
273.013	9301.8
273.082	9307.44
273.151	9258.46
273.22	9258.27
273.289	9250.85
273.358	9264.19
273.427	9251.38
273.496	9248.73
273.564	9239.58
273.633	9244.06
273.702	9226.63
273.771	9212.81
273.84	9204.92
273.909	9205.45
273.977	9200.78
274.046	9193.17
274.115	9201.55
274.184	9184.22
274.253	9175.36
274.322	9189.03
274.39	9155.66
274.459	9141.46
274.528	9114.74
274.597	9104.87
274.665	9103.19
274.734	9107.47
274.803	9099.38
274.872	9099.24
274.94	9084.51
275.009	9141.58
275.078	9122.52
275.147	9118.47
275.215	9114.09
275.284	9120.93
275.353	9114.23
275.421	9094.06
275.49	9108.36
275.559	9097.67
275.627	9094.3
275.696	9081.31
275.765	9077.02
275.833	9071.53
275.902	9067.88
275.971	9075
276.039	9090.45
276.108	9094.4
276.177	9090.79
276.245	9079.67
276.314	9064.99
276.383	9076.35
276.451	9010.46
276.52	9012.82
276.588	9024.28
276.657	9029.62
276.725	9015.85
276.794	9012.58
276.863	9018.65
276.931	8992.6
277	8992.65
277.068	9008.58
277.137	9030.92
277.205	9032.22
277.274	9047.53
277.342	9060.82
277.411	9041.13
277.48	9029.53
277.548	9016.72
277.617	9015.57
277.685	9006.18
277.754	9018.12
277.822	9004.4
277.89	9021.01
277.959	9013.79
278.027	8988.27
278.096	8977.49
278.164	9013.02
278.233	9001.33
278.301	8986.45
278.37	8991.31
278.438	8976.39
278.507	8975.24
278.575	8947.6
278.643	8941.73
278.712	8920.84
278.78	8896.04
278.849	8912.07
278.917	8920.83
278.985	8911.73
279.054	8917.85
279.122	8932.39
279.191	8927.24
279.259	8925.55
279.327	8908.22
279.396	8923.77
279.464	8927.52
279.532	8932.53
279.601	8922.22
279.669	8917.22
279.737	8935.85
279.806	8941.96
279.874	8955.63
279.942	8952.26
280.011	8950.53
280.079	8961.07
280.147	8974.98
280.215	8983.5
280.284	8980.23
280.352	8963.43
280.42	8968.82
280.488	8957.99
280.557	8951.39
280.625	8952.21
280.693	8952.26
280.761	8951.92
280.83	8936.47
280.898	8946
280.966	8920.15
281.034	8887.03
281.102	8869.42
281.171	8860.51
281.239	8866.87
281.307	8854.4
281.375	8841.5
281.443	8863.06
281.512	8853.34
281.58	8863.02
281.648	8850.79
281.716	8846.36
281.784	8850.98
281.852	8842.22
281.92	8840.97
281.989	8852.57
282.057	8835.68
282.125	8873.33
282.193	8871.88
282.261	8871.59
282.329	8865.91
282.397	8874.91
282.465	8873.81
282.533	8899.07
282.601	8884.78
282.67	8854.12
282.738	8848.58
282.806	8865.14
282.874	8853.49
282.942	8859.02
283.01	8852.86
283.078	8859.79
283.146	8856.13
283.214	8862.92
283.282	8871.06
283.35	8883.48
283.418	8870.33
283.486	8874.04
283.554	8839.04
283.622	8834.23
283.69	8829.22
283.758	8824.69
283.826	8831.43
283.894	8844.82
283.962	8853.72
284.03	8873.17
284.098	8883.08
284.165	8877.26
284.233	8872.64
284.301	8862.77
284.369	8851.94
284.437	8846.26
284.505	8837.06
284.573	8854.58
284.641	8842.26
284.709	8852.23
284.777	8834.99
284.845	8841.16
284.912	8853.53
284.98	8858.1
285.048	8850.64
285.116	8860.75
285.184	8877.55
285.252	8870.71
285.319	8856.61
285.387	8856.18
285.455	8838.7
285.523	8846.36
285.591	8845.87
285.659	8845.63
285.726	8865.95
285.794	8851.99
285.862	8850.21
285.93	8850.79
285.997	8850.64
286.065	8849.87
286.133	8839.19
286.201	8834.61
286.269	8824.6
286.336	8809.68
286.404	8800.49
286.472	8814.4
286.539	8788.84
286.607	8769.35
286.675	8777.14
286.743	8785.71
286.81	8776.32
286.878	8788.45
286.946	8774.45
287.013	8772.28
287.081	8774.88
287.149	8753.99
287.216	8776.13
287.284	8770.79
287.352	8772.09
287.419	8764.48
287.487	8779.26
287.555	8776.56
287.622	8776.56
287.69	8780.27
287.758	8784.99
287.825	8780.17
287.893	8769
287.96	8781.76
288.028	8797.74
288.096	8799.42
288.163	8802.5
288.231	8789.36
288.298	8790.76
288.366	8807.75
288.433	8808.28
288.501	8797.16
288.569	8797.21
288.636	8783.54
288.704	8795.19
288.771	8807.13
288.839	8790.62
288.906	8780.03
288.974	8788.31
289.041	8790.47
289.109	8778.49
289.176	8790.33
289.244	8797.84
289.311	8813.58
289.379	8823.83
289.446	8820.99
289.514	8819.35
289.581	8812.86
289.649	8820.56
289.716	8818.97
289.783	8808.19
289.851	8825.66
289.918	8823.39
289.986	8835.67
290.053	8845.44
290.121	8843.9
290.188	8842.17
290.255	8882.22
290.323	8877.07
290.39	8872.44
290.458	8873.31
290.525	8887.27
290.592	8884.67
290.66	8888.04
290.727	8884.09
290.794	8896.56
290.862	8898.49
290.929	8900.27
290.996	8902.1
291.064	8914.56
291.131	8928.57
291.198	8940.56
291.266	8941.91
291.333	8950.14
291.4	8958.37
291.468	8976.91
291.535	8969.16
291.602	8971.71
291.669	8963.52
291.737	8967.52
291.804	8966.89
291.871	8988.31
291.938	8996.16
292.006	9023.03
292.073	9037.81
292.14	9047.34
292.207	9042.96
292.275	9046.62
292.342	9055.86
292.409	9083.93
292.476	9103.81
292.543	9093.65
292.611	9101.31
292.678	9116.28
292.745	9140.64
292.812	9145.12
292.879	9137.13
292.946	9145.7
293.014	9158.89
293.081	9161.49
293.148	9180.02
293.215	9196.39
293.282	9185.75
293.349	9192.2
293.416	9173.95
293.484	9183.44
293.551	9187.29
293.618	9203.42
293.685	9228.27
293.752	9221.48
293.819	9218.2
293.886	9205.64
293.953	9208.72
294.02	9218.4
294.087	9222.01
294.154	9214.88
294.221	9232.12
294.288	9238
294.356	9263.13
294.423	9273.53
294.49	9265.06
294.557	9276.95
294.624	9267.9
294.691	9295.44
294.758	9300.69
294.825	9311.04
294.892	9303.91
294.959	9306.9
295.026	9310.08
295.093	9300.16
295.16	9305.79
295.226	9303.33
295.293	9329.29
295.36	9332.76
295.427	9339.88
295.494	9355.78
295.561	9364.97
295.628	9392.52
295.695	9411.69
295.762	9405.24
295.829	9413.42
295.896	9434.27
295.963	9442.17
296.03	9453.39
296.096	9456.33
296.163	9469.28
296.23	9483.87
296.297	9497.6
296.364	9498.8
296.431	9503.9
296.498	9498.56
296.564	9525.96
296.631	9531.54
296.698	9514.01
296.765	9542.43
296.832	9532.84
296.899	9520.95
296.965	9538.91
297.032	9515.55
297.099	9529.52
297.166	9539.63
297.233	9536.07
297.299	9526.29
297.366	9529.95
297.433	9532.65
297.5	9542.76
297.566	9538.76
297.633	9540.69
297.7	9548.59
297.767	9542.14
297.833	9549.02
297.9	9553.79
297.967	9532.17
298.033	9549.99
298.1	9581.15
298.167	9568.82
298.234	9575.8
298.3	9580.57
298.367	9575.8
298.434	9577.87
298.5	9565.21
298.567	9560.58
298.634	9559.91
298.7	9580.04
298.767	9580.52
298.834	9601.13
298.9	9592.75
298.967	9584.32
299.033	9593.91
299.1	9608.69
299.167	9624.92
299.233	9617.89
299.3	9629.3
299.366	9650.93
299.433	9663.4
299.5	9634.55
299.566	9644.18
299.633	9663.88
299.699	9678.57
299.766	9673.9
299.832	9685.32
299.899	9693.12
299.965	9714.21
300.032	9709.64
300.099	9717.35
300.165	9723.27
300.232	9715.66
300.298	9714.55
300.365	9738.2
300.431	9729.63
300.498	9720.43
300.564	9725.92
300.631	9743.01
300.697	9764.25
300.763	9758.72
300.83	9750.96
300.896	9770.85
300.963	9782.22
301.029	9781.26
301.096	9788.87
301.162	9805.63
301.229	9797.25
301.295	9785.59
301.361	9781.35
301.428	9784.63
301.494	9766.9
301.561	9768.78
301.627	9773.16
301.693	9779.71
301.76	9777.69
301.826	9782.65
301.892	9793.44
301.959	9805.19
302.025	9800.42
302.092	9794.6
302.158	9800.71
302.224	9806.35
302.291	9805.87
302.357	9796.76
302.423	9797
302.49	9782.89
302.556	9790.94
302.622	9789.39
302.688	9806.01
302.755	9820.17
302.821	9828.75
302.887	9843.48
302.954	9839.58
303.02	9843.24
303.086	9846.9
303.152	9848.44
303.219	9846.95
303.285	9851.82
303.351	9858.75
303.417	9859.19
303.483	9842.71
303.55	9839.63
303.616	9839.44
303.682	9831.68
303.748	9829.28
303.815	9847.1
303.881	9860.64
303.947	9845.75
304.013	9847.15
304.079	9832.31
304.145	9811.5
304.212	9812.56
304.278	9803.99
304.344	9805.58
304.41	9794.02
304.476	9783.38
304.542	9770.95
304.608	9772.88
304.674	9751.3
304.741	9743.5
304.807	9747.73
304.873	9760.21
304.939	9782.9
305.005	9765.22
305.071	9761.9
305.137	9762.18
305.203	9730.83
305.269	9724.81
305.335	9741.62
305.401	9745.9
305.467	9749.03
305.533	9765.84
305.599	9767.1
305.666	9778.85
305.732	9780.92
305.798	9796.81
305.864	9830.24
305.93	9838
305.996	9833.81
306.062	9838.86
306.128	9834.82
306.194	9826.97
306.259	9822.25
306.325	9808.57
306.391	9820.9
306.457	9827.69
306.523	9832.26
306.589	9858.47
306.655	9848.93
306.721	9823.64
306.787	9802.69
306.853	9819.07
306.919	9795.85
306.985	9789.45
307.051	9780.01
307.117	9768.11
307.183	9759.44
307.248	9725.53
307.314	9733.57
307.38	9735.84
307.446	9741.81
307.512	9729.14
307.578	9726.49
307.644	9723.94
307.709	9721.73
307.775	9718.98
307.841	9714.69
307.907	9713.63
307.973	9694.13
308.039	9693.36
308.104	9701.11
308.17	9704.53
308.236	9682.66
308.302	9683
308.368	9669.71
308.433	9670.67
308.499	9665.71
308.565	9655.02
308.631	9659.11
308.696	9634.45
308.762	9626.79
308.828	9623.18
308.894	9611.48
308.959	9592.65
309.025	9583.4
309.091	9577.48
309.156	9567.17
309.222	9571.07
309.288	9552.58
309.354	9528.31
309.419	9529.52
309.485	9519.45
309.551	9530.14
309.616	9517.81
309.682	9517.33
309.748	9514.68
309.813	9507.7
309.879	9497.59
309.945	9490.03
310.01	9484.39
310.076	9490.46
310.141	9484.73
310.207	9470.86
310.273	9476.69
310.338	9486.75
310.404	9468.12
310.469	9459.64
310.535	9443.31
310.601	9421.64
310.666	9433.25
310.732	9448.61
310.797	9436.19
310.863	9421.21
310.928	9403.58
310.994	9411.53
311.059	9409.41
311.125	9405.61
311.191	9421.12
311.256	9411.44
311.322	9414.04
311.387	9390.93
311.453	9694.81
311.518	9666.93
311.584	9661.34
311.649	9666.25
311.715	9648.73
311.78	9651.52
311.846	9638.76
311.911	9649.98
311.976	9650.7
312.042	9634.28
312.107	9617.28
312.173	9610.01
312.238	9600.19
312.304	9596.1
312.369	9580.26
312.434	9565.23
312.5	9561.48
312.565	9525.36
312.631	9535.47
312.696	9521.22
312.761	9529.64
312.827	9211.8
312.892	9247.91
312.958	9246.18
313.023	9244.2
313.088	9243
313.154	9228.17
313.219	9221.34
313.284	9207.76
313.35	9200.49
313.415	9186.43
313.48	9175.07
313.546	9182.48
313.611	9198.51
313.676	9192.54
313.741	9184.99
313.807	9193.12
313.872	9192.88
313.937	9198.85
314.003	9208.68
314.068	9213.35
314.133	9218.79
314.198	9211.52
314.264	9198.08
314.329	9184.5
314.394	9175.11
314.459	9178.15
314.525	9200.34
314.59	9197.12
314.655	9186.72
314.72	9195.91
314.785	9203.37
314.851	9203.47
314.916	9183.68
314.981	9166.4
315.046	9156.38
315.111	9147
315.176	9132.79
315.242	9139.34
315.307	9132.36
315.372	9108.62
315.437	9090.28
315.502	9074.25
315.567	9081.66
315.632	9059.08
315.698	9062.69
315.763	9061.83
315.828	9050.13
315.893	9041.61
315.958	9040.59
316.023	9032.31
316.088	9013.11
316.153	8991.3
316.218	8984.03
316.283	8957.75
316.348	8942.69
316.413	8939.08
316.479	8923.48
316.544	8886.95
316.609	8855.95
316.674	8821.06
316.739	8788.14
316.804	8762.82
316.869	8730
316.934	8694.43
316.999	8664.88
317.064	8617.91
317.129	8569.97
317.194	8534.12
317.259	8488.3
317.324	8432.68
317.389	8390.86
317.454	8345.2
317.518	8312.1
317.583	8289.33
317.648	8271.82
317.713	8237.8
317.778	8180.6
317.843	8155.44
317.908	8124.75
317.973	8085.88
318.038	8055.53
318.103	8019.07
318.168	7989.4
318.233	7961.5
318.297	7909.26
318.362	7876.22
318.427	7836.7
318.492	7811.83
318.557	7761.73
318.622	7731.67
318.687	7710.85
318.751	7669.89
318.816	7638.26
318.881	7602.97
318.946	7540.12
319.011	7493.44
319.075	7450.22
319.14	7419.41
319.205	7372.78
319.27	7334.86
319.335	7289.44
319.399	7249.07
319.464	7224.85
319.529	7170.46
319.594	7129.07
319.658	7100.39
319.723	7054.84
319.788	7024.28
319.853	6963.69
319.917	6939.43
319.982	6883.75
320.047	6843.68
320.112	6819.09
320.176	6769.28
320.241	6737.43
320.306	6711.69
320.37	6671.83
320.435	6639.32
320.5	6608.68
320.564	6570.12
320.629	6532.91
320.694	6498.3
320.758	6458.26
320.823	6406.84
320.888	6384.33
320.952	6333.64
321.017	6290.68
321.082	6252.28
321.146	6218.97
321.211	6191.91
321.275	6147.57
321.34	6106.65
321.405	6061.45
321.469	6009.35
321.534	5973.18
321.598	5915.04
321.663	5884
321.727	5852.82
321.792	5803.22
321.857	5758.52
321.921	5719.48
321.986	5674.84
322.05	5618.23
322.115	5583.8
322.179	5543.39
322.244	5482.81
322.308	5449.4
322.373	5403.34
322.437	5359.73
322.502	5331.54
322.566	5278.1
322.631	5240.97
322.695	5200.49
322.76	5162.45
322.824	5130.21
322.889	5083.57
322.953	5040.09
323.018	4968.39
323.082	4901.55
323.146	4853.97
323.211	4800.77
323.275	4756
323.34	4709.44
323.404	4675.7
323.468	4627.93
323.533	4581.89
323.597	4537.41
323.662	4484.49
323.726	4446.12
323.79	4403.59
323.855	4336.11
323.919	4292.68
323.983	4248.24
324.048	4179.62
324.112	4342.88
324.177	4212.06
324.241	3996.51
324.305	3786.77
324.37	3581.82
324.434	3382.03
324.498	3335.8
324.562	3283.91
324.627	3221.46
324.691	3166.07
324.755	3099.11
324.82	3021.76
324.884	2943.25
324.948	2872.81
325.012	2779.76
325.077	2657.2
