Data from 20250703_urea_0.1M_MAYP1162681_04-41-05-661.txt Node
Date: Fri Jul 04 04:41:05 BST 2025
User: adleo
Spectrometer: MAYP116268
Trigger mode: 0
Integration Time (sec): 1.000000E0
Scans to average: 1
Electric dark correction enabled: true
Nonlinearity correction enabled: true
Boxcar width: 10
XAxis mode: Wavelengths
Number of Pixels in Spectrum: 2068
>>>>>Begin Spectral Data<<<<<
179.565	1267.33
179.642	1326.92
179.718	1372.57
179.795	1411.35
179.871	1446.96
179.948	1468.44
180.024	1489.63
180.101	1515.95
180.177	1530.51
180.254	1554.3
180.33	1575.69
180.407	1637.13
180.483	1737
180.56	1833.74
180.636	1922.67
180.712	1907.11
180.789	1916.86
180.865	1930.36
180.942	1938.39
181.018	1949.23
181.095	1964.46
181.171	1973.2
181.248	1973.54
181.324	1990.38
181.4	2000.93
181.477	2013.39
181.553	2026.61
181.63	2049.39
181.706	2063.52
181.782	2072.65
181.859	2072.69
181.935	2080.07
182.011	2073.6
182.088	2092.2
182.164	2110.23
182.24	2122.98
182.317	2134.44
182.393	2131.01
182.469	2147.61
182.546	2163.93
182.622	2169.59
182.698	2162.84
182.775	2176.44
182.851	2192.62
182.927	2184.2
183.003	2176.54
183.08	2169.97
183.156	2177.68
183.232	2174.49
183.308	2163.08
183.385	2168.93
183.461	2188.91
183.537	2190.15
183.613	2203.18
183.69	2190.48
183.766	2180.06
183.842	2188.43
183.918	2194.8
183.995	2209.84
184.071	2213.22
184.147	2203.8
184.223	2190.96
184.299	2203.85
184.375	2189.91
184.452	2194.77
184.528	2249.84
184.604	2262.78
184.68	2272.1
184.756	2280.05
184.832	2283.62
184.908	2288.18
184.985	2291.56
185.061	2274.34
185.137	2284.47
185.213	2274
185.289	2279.38
185.365	2273.48
185.441	2274.05
185.517	2285.91
185.593	2283.53
185.669	2276.77
185.745	2289.57
185.822	2308.88
185.898	2300.41
185.974	2310.68
186.05	2300.97
186.126	2263.04
186.202	2256.71
186.278	2251.57
186.354	2243.67
186.43	2253.43
186.506	2253.95
186.582	2252.33
186.658	2259.09
186.734	2237.63
186.81	2241.82
186.886	2244.39
186.962	2257.66
187.038	2253.52
187.114	2244.91
187.19	2255.66
187.266	2248.62
187.341	2251.19
187.417	2246.72
187.493	2247.58
187.569	2253.62
187.645	2250.91
187.721	2236.44
187.797	2243.77
187.873	2252
187.949	2244.2
188.025	2234.92
188.101	2238.58
188.176	2246.43
188.252	2239.58
188.328	2253.04
188.404	2250.61
188.48	2247
188.556	2239.72
188.632	2237.58
188.707	2241.38
188.783	2233.62
188.859	2228.16
188.935	2213.17
189.011	2218.88
189.086	2211.5
189.162	2201.22
189.238	2200.65
189.314	2199.61
189.39	2192.75
189.465	2183.24
189.541	2201.56
189.617	2187.29
189.693	2180.63
189.768	2184.1
189.844	2212.61
189.92	2198.39
189.996	2207.29
190.071	2219.42
190.147	2214.24
190.223	2222.47
190.298	2215.62
190.374	2202.68
190.45	2214.57
190.526	2228.03
190.601	2219.14
190.677	2222.42
190.753	2249.89
190.828	2250.79
190.904	2269.02
190.98	2286.73
191.055	2298.72
191.131	2288.06
191.207	2310.76
191.282	2320.7
191.358	2309.14
191.433	2292.71
191.509	2309.74
191.585	2309.21
191.66	2304.93
191.736	2317.02
191.811	2310.31
191.887	2325.16
191.963	2349.57
192.038	2355.67
192.114	2353.81
192.189	2360.76
192.265	2357.33
192.34	2334.28
192.416	2333.33
192.491	2325.95
192.567	2327.57
192.642	2331.33
192.718	2333.76
192.793	2321.05
192.869	2316.91
192.944	2320.15
193.02	2326.05
193.095	2328.19
193.171	2331.33
193.246	2334.43
193.322	2330.43
193.397	2330.95
193.473	2312.48
193.548	2293.01
193.624	2299.44
193.699	2295.92
193.775	2309.15
193.85	2310.91
193.925	2321.96
194.001	2320.01
194.076	2314.91
194.152	2304.58
194.227	2294.45
194.302	2284.12
194.378	2287.5
194.453	2284.65
194.529	2297.35
194.604	2284.55
194.679	2279.89
194.755	2260.67
194.83	2271.81
194.905	2271.67
194.981	2281.71
195.056	2278.57
195.131	2287.28
195.207	2284.52
195.282	2275.33
195.357	2256.58
195.433	2269.38
195.508	2254.29
195.583	2261.43
195.659	2272.76
195.734	2281.52
195.809	2283.61
195.884	2291.65
195.96	2292.65
196.035	2307.45
196.11	2302.74
196.185	2315.16
196.261	2317.21
196.336	2351.57
196.411	2338.86
196.486	2342.71
196.561	2335.57
196.637	2343.23
196.712	2360.71
196.787	2365.95
196.862	2384.27
196.937	2397.31
197.013	2405.4
197.088	2418.73
197.163	2441.16
197.238	2460.26
197.313	2457.17
197.388	2470.35
197.464	2502.69
197.539	2513.64
197.614	2509.45
197.689	2524.5
197.764	2543.03
197.839	2564.84
197.914	2555.36
197.989	2579.03
198.065	2593.79
198.14	2644.88
198.215	2672.32
198.29	2682.9
198.365	2692.66
198.44	2702.66
198.515	2729.25
198.59	2743.54
198.665	2771.51
198.74	2782.95
198.815	2786.29
198.89	2812.25
198.965	2847.72
199.04	2842.24
199.115	2858.39
199.19	2902.62
199.265	2903.05
199.34	2912.63
199.415	2949.78
199.49	2974.27
199.565	2986.05
199.64	3012.74
199.715	3010.98
199.79	3024.04
199.865	3029.38
199.94	3030.24
200.015	3063.86
200.09	3072.25
200.165	3080.74
200.24	3086.46
200.315	3126.98
200.39	3141.19
200.464	3149.78
200.539	3148.3
200.614	3166.8
200.689	3190.84
200.764	3196.37
200.839	3218.49
200.914	3220.87
200.989	3207.8
201.063	3221.92
201.138	3201.37
201.213	3201.47
201.288	3182.63
201.363	3186.83
201.438	3187.4
201.512	3203.23
201.587	3182.81
201.662	3184.96
201.737	3198.03
201.812	3206.76
201.886	3174.63
201.961	3185.61
202.036	3171.16
202.111	3167.72
202.186	3137.03
202.26	3118.86
202.335	3097.44
202.41	3089.05
202.485	3075.17
202.559	3057.34
202.634	3035.35
202.709	3046.41
202.784	3027.72
202.858	3033.11
202.933	3014.41
203.008	3015.13
203.082	2999.92
203.157	3006.36
203.232	2969.33
203.306	2950.54
203.381	2924.17
203.456	2905.57
203.53	2885.87
203.605	2871.86
203.68	2855.31
203.754	2860.08
203.829	2854.45
203.904	2845.63
203.978	2844.58
204.053	2861.08
204.127	2857.41
204.202	2868.66
204.277	2866.61
204.351	2874.33
204.426	2879.34
204.5	2887.73
204.575	2868.19
204.65	2898.86
204.724	2913.45
204.799	2940.71
204.873	2963.51
204.948	2986.21
205.022	3000.84
205.097	3022.07
205.171	3070.24
205.246	3111.41
205.32	3142.4
205.395	3178.71
205.469	3205.46
205.544	3249.09
205.618	3274.05
205.693	3332.99
205.767	3361.24
205.842	3428.08
205.916	3470.27
205.991	3513.25
206.065	3574.32
206.14	3646.1
206.214	3701.16
206.289	3751.91
206.363	3829.35
206.438	3893.55
206.512	3965.81
206.586	4052.6
206.661	4128.21
206.735	4173.71
206.81	4249.74
206.884	4343.56
206.958	4408.56
207.033	4503.44
207.107	4592.58
207.181	4707.14
207.256	4778.66
207.33	4882.72
207.405	4982.1
207.479	5091.01
207.553	5186.94
207.628	5256.34
207.702	5360.5
207.776	5442.27
207.851	5530.79
207.925	5637.1
207.999	5732.19
208.073	5825.23
208.148	5926.97
208.222	6012.9
208.296	6143.45
208.371	6259.55
208.445	6367.69
208.519	6497.44
208.593	6618.05
208.668	6716.41
208.742	6818.57
208.816	6925.51
208.89	7050.83
208.965	7152.25
209.039	7266.49
209.113	7390.16
209.187	7522.2
209.261	7624.39
209.336	7752.95
209.41	7888.21
209.484	7995.8
209.558	8124.95
209.632	8247.26
209.707	8368.84
209.781	8503.45
209.855	8635.45
209.929	8760.04
210.003	8872.61
210.077	8982.65
210.151	9134.56
210.226	9280.65
210.3	9419.39
210.374	9546.82
210.448	9653.49
210.522	9770.23
210.596	9882.78
210.67	9997.99
210.744	10148.91
210.818	10283.67
210.892	10414.95
210.966	10516.02
211.041	10636.56
211.115	10731.28
211.189	10859.69
211.263	10973.55
211.337	11078.02
211.411	11182.69
211.485	11274.11
211.559	11386.49
211.633	11483.3
211.707	11554.49
211.781	11659.08
211.855	11713.84
211.929	11812.4
212.003	11894.72
212.077	12002.98
212.151	12115.81
212.225	12216.99
212.299	12294.5
212.373	12376.54
212.447	12461.09
212.52	12582.08
212.594	12676.51
212.668	12786.42
212.742	12864.03
212.816	12953.83
212.89	13043.01
212.964	13139.23
213.038	13236.22
213.112	13343.67
213.186	13445.97
213.26	13503.57
213.333	13539.1
213.407	13631.32
213.481	13715.25
213.555	13808.77
213.629	13876.5
213.703	13944.66
213.777	14026.17
213.85	14097.91
213.924	14217.74
213.998	14295.5
214.072	14371.56
214.146	14435.05
214.219	14507.84
214.293	14581.64
214.367	14660.02
214.441	14743.61
214.515	14805.31
214.588	14855.59
214.662	14882.05
214.736	14930.4
214.81	15006.47
214.883	15087.16
214.957	15144.62
215.031	15199.62
215.105	15244.5
215.178	15293.81
215.252	15345.58
215.326	15381.1
215.4	15418.89
215.473	15426.89
215.547	15469.21
215.621	15508.01
215.694	15581.23
215.768	15621.77
215.842	15672.71
215.915	15717.97
215.989	15743.62
216.063	15784.68
216.136	15838.57
216.21	15898.62
216.284	15962.01
216.357	16030.3
216.431	16081.49
216.504	16142.37
216.578	16217.07
216.652	16277.37
216.725	16342.15
216.799	16407.93
216.873	16466.01
216.946	16524.28
217.02	16574.8
217.093	16631.86
217.167	16665.79
217.24	16697.41
217.314	16741.99
217.387	16781.12
217.461	16820.55
217.535	16888.07
217.608	16926.48
217.682	16980.31
217.755	17043.64
217.829	17091.16
217.902	17135.59
217.976	17185.14
218.049	17235.21
218.123	17276.32
218.196	17323.79
218.27	17359.31
218.343	17389.48
218.417	17440.56
218.49	17495.93
218.563	17555.89
218.637	17598.53
218.71	17667.64
218.784	17722.53
218.857	17783.45
218.931	17836.7
219.004	17885.76
219.077	17936.79
219.151	17994.09
219.224	18026.43
219.298	18065.08
219.371	18113.17
219.444	18146.09
219.518	18193.31
219.591	18238.42
219.665	18310.85
219.738	18360.1
219.811	18397.79
219.885	18454.99
219.958	18509.88
220.031	18554.45
220.105	18608.33
220.178	18653.1
220.251	18691.17
220.325	18733.67
220.398	18780.61
220.471	18825.95
220.544	18877.08
220.618	18904.74
220.691	18946.48
220.764	18997.46
220.838	19046.18
220.911	19090.23
220.984	19153.74
221.057	19205.55
221.131	19250.99
221.204	19258.26
221.277	19323.8
221.35	19398.31
221.424	19434.11
221.497	19464.33
221.57	19495.84
221.643	19535.74
221.716	19590.29
221.79	19630.73
221.863	19665.23
221.936	19700.94
222.009	19733.52
222.082	19777.56
222.155	19811.49
222.229	19863.78
222.302	19907.2
222.375	19943.68
222.448	19987.77
222.521	20012.2
222.594	20031.48
222.667	20048.54
222.74	20090.95
222.814	20110.56
222.887	20131.57
222.96	20164.01
223.033	20216.15
223.106	20248.87
223.179	20284.1
223.252	20302.17
223.325	20328.05
223.398	20364.25
223.471	20394.46
223.544	20428.44
223.617	20450.65
223.69	20482.65
223.763	20494.7
223.837	20524.97
223.91	20551.38
223.983	20552.73
224.056	20570.56
224.129	20601.98
224.202	20634.32
224.275	20644.25
224.348	20650.75
224.42	20656.53
224.493	20663.19
224.566	20664
224.639	20689.35
224.712	20690.37
224.785	20702.7
224.858	20705.74
224.931	20711.62
225.004	20700.49
225.077	20715.91
225.15	20704.68
225.223	20717.74
225.296	20755.38
225.369	20736.97
225.442	20735.91
225.514	20758.8
225.587	20762.56
225.66	20774.81
225.733	20786.37
225.806	20799.48
225.879	20811.43
225.952	20816.49
226.025	20848.69
226.097	20876.3
226.17	20883.68
226.243	20877.22
226.316	20887.73
226.389	20907.63
226.461	20928.93
226.534	20951.01
226.607	20948.5
226.68	20975.44
226.753	20988.7
226.825	20971.44
226.898	20996.94
226.971	21004.46
227.044	21013.71
227.117	21028.94
227.189	21037.18
227.262	21053.18
227.335	21063.69
227.407	21073.09
227.48	21085.09
227.553	21084.17
227.626	21083.69
227.698	21080.36
227.771	21089.47
227.844	21079.93
227.916	21089.86
227.989	21077.81
228.062	21076.84
228.134	21097.86
228.207	21097.67
228.28	21091.64
228.352	21093.67
228.425	21095.06
228.498	21115.21
228.57	21099.98
228.643	21110.63
228.716	21103.55
228.788	21096.7
228.861	21092.7
228.934	21096.94
229.006	21092.32
229.079	21078.24
229.151	21063.3
229.224	21054.29
229.296	21060.84
229.369	21099.88
229.442	21099.84
229.514	21089.91
229.587	21099.35
229.659	21082.29
229.732	21083.98
229.804	21090.63
229.877	21110.3
229.949	21114.68
230.022	21126.15
230.094	21133.72
230.167	21129.96
230.239	21121.14
230.312	21116.27
230.384	21130.78
230.457	21128.85
230.529	21134.97
230.602	21146.35
230.674	21146.06
230.747	21158.97
230.819	21171.26
230.892	21126.01
230.964	21115.84
231.037	21112.85
231.109	21105.33
231.181	21107.79
231.254	21086.78
231.326	21081.28
231.399	21067.06
231.471	21047.69
231.544	21008.45
231.616	21003.59
231.688	20999.64
231.761	20987.92
231.833	20983.49
231.905	20951.58
231.978	20946.96
232.05	20928.88
232.122	20916.59
232.195	20896.98
232.267	20889.46
232.339	20864.54
232.412	20874.42
232.484	20868.21
232.556	20856.3
232.629	20864.4
232.701	20861.27
232.773	20859.29
232.846	20838.08
232.918	20822.37
232.99	20817.17
233.062	20812.3
233.135	20803.29
233.207	20764.44
233.279	20753.02
233.351	20735.29
233.424	20720.06
233.496	20689.36
233.568	20691.91
233.64	20662.95
233.713	20657.21
233.785	20637.89
233.857	20630.99
233.929	20596.15
234.001	20595.09
234.074	20592.05
234.146	20556.97
234.218	20535.28
234.29	20512.68
234.362	20494.46
234.434	20457.88
234.507	20426.03
234.579	20391.71
234.651	20363.86
234.723	20362.9
234.795	20353.16
234.867	20334.27
234.939	20329.98
235.012	20314.03
235.084	20293.5
235.156	20282.94
235.228	20248.97
235.3	20227.86
235.372	20196.54
235.444	20178.85
235.516	20127.14
235.588	20104.1
235.66	20078.08
235.732	20042.95
235.804	20080.88
235.876	20059.62
235.948	20051.58
236.02	20026.71
236.092	20012.49
236.164	19995.1
236.236	19971.97
236.308	19947.1
236.38	19924.79
236.452	19881.8
236.524	19856.64
236.596	19848.02
236.668	19823.2
236.74	19792.36
236.812	19774.62
236.884	19765.23
236.956	19731.4
237.028	19698.48
237.1	19661.47
237.172	19653.14
237.244	19646.92
237.316	19568.66
237.388	19537.91
237.46	19498.49
237.532	19489.82
237.604	19445.29
237.675	19416.91
237.747	19391.41
237.819	19347.56
237.891	19311.03
237.963	19282.36
238.035	19250.94
238.107	19169.02
238.178	19156.58
238.25	19128.15
238.322	19115.57
238.394	19055.39
238.466	19040.5
238.538	19020.79
238.609	19001.27
238.681	18947.78
238.753	18902.29
238.825	18875.83
238.897	18840.51
238.968	18832.56
239.04	18791.11
239.112	18788.32
239.184	18750.87
239.255	18711.55
239.327	18686.16
239.399	18654.3
239.471	18631.99
239.542	18603.22
239.614	18603.94
239.686	18542.21
239.758	18530.16
239.829	18479.66
239.901	18467.18
239.973	18432.87
240.044	18395.71
240.116	18356.63
240.188	18321.84
240.259	18296.97
240.331	18265.12
240.403	18246.32
240.474	18200.25
240.546	18160.79
240.618	18109.56
240.689	18073.08
240.761	18045.42
240.833	18029.13
240.904	17997.9
240.976	17962.91
241.048	17926.96
241.119	17899.21
241.191	17874.1
241.262	17845.71
241.334	17811.06
241.405	17775.45
241.477	17734.25
241.549	17707.35
241.62	17673.23
241.692	17645.72
241.763	17621.14
241.835	17585.38
241.906	17544.56
241.978	17497.62
242.049	17470.3
242.121	17449.72
242.192	17432.37
242.264	17380.9
242.335	17333.04
242.407	17307.74
242.478	17266.73
242.55	17245.91
242.621	17200.75
242.693	17167.31
242.764	17132.8
242.836	17095.69
242.907	17070.63
242.979	17038.48
243.05	16999.45
243.122	16971.69
243.193	16935.73
243.264	16878
243.336	16839.58
243.407	16821.03
243.479	16805.56
243.55	16779.1
243.622	16749.46
243.693	16715.19
243.764	16707.92
243.836	16661.98
243.907	16630.03
243.978	16600.2
244.05	16571.91
244.121	16528.14
244.192	16500.04
244.264	16449.97
244.335	16416.86
244.407	16362.44
244.478	16341.86
244.549	16320.17
244.62	16277.23
244.692	16250.72
244.763	16228.02
244.834	16195.1
244.906	16153.55
244.977	16127.62
245.048	16116.63
245.119	16071.66
245.191	16026.65
245.262	15964.18
245.333	15951.07
245.405	15915.4
245.476	15884.31
245.547	15847.35
245.618	15818.67
245.689	15783.29
245.761	15764.54
245.832	15735.38
245.903	15718.41
245.974	15684.72
246.045	15643.12
246.117	15629
246.188	15580.8
246.259	15541.08
246.33	15505.27
246.401	15472.78
246.473	15420.58
246.544	15378.21
246.615	15356.33
246.686	15321.43
246.757	15310.34
246.828	15271.15
246.899	15263.63
246.97	15217.74
247.042	15182.27
247.113	15167.9
247.184	15166.12
247.255	15122.88
247.326	15093.28
247.397	15059.3
247.468	15029.85
247.539	15005.84
247.61	14962.99
247.681	14949.59
247.752	14933.88
247.823	14891.7
247.894	14867.31
247.965	14834.67
248.037	14801.56
248.108	14751.81
248.179	14725.3
248.25	14694.11
248.321	14678.64
248.392	14626.33
248.463	14626.53
248.534	14601.65
248.605	14569.16
248.675	14529.35
248.746	14511.56
248.817	14490.25
248.888	14472.08
248.959	14424.16
249.03	14397.22
249.101	14369.11
249.172	14329.39
249.243	14272.94
249.314	14264.27
249.385	14231
249.456	14207.29
249.527	14173.21
249.598	14160.58
249.669	14127.22
249.739	14100.27
249.81	14070.57
249.881	14031.77
249.952	14004.87
250.023	13972.91
250.094	13936.47
250.165	13898.58
250.235	13864.74
250.306	13840.25
250.377	13798.07
250.448	13781.48
250.519	13731.44
250.59	13725.23
250.66	13697.17
250.731	13692.54
250.802	13665.16
250.873	13645.83
250.944	13627.03
251.014	13593.86
251.085	13599.65
251.156	13581.09
251.227	13570
251.297	13563.83
251.368	13547.15
251.439	13529.75
251.51	13519.29
251.58	13485.59
251.651	13456.52
251.722	13446.4
251.792	13403.54
251.863	13381.75
251.934	13378.52
252.005	13386.29
252.075	13350.18
252.146	13337.64
252.217	13326.61
252.287	13312.34
252.358	13287.7
252.429	13277.48
252.499	13248.85
252.57	13220.17
252.641	13206.48
252.711	13172.06
252.782	13120.72
252.852	13115.03
252.923	13087.5
252.994	13067.74
253.064	13062.15
253.135	13028.69
253.205	12998.9
253.276	12994.32
253.347	12985.4
253.417	12946.02
253.488	12921
253.558	12901.23
253.629	12882.39
253.699	12861.03
253.77	12843.15
253.841	12817.84
253.911	12798.41
253.982	12782.41
254.052	12762.93
254.123	12746.93
254.193	12735.41
254.264	12755.65
254.334	12726.87
254.405	12687.39
254.475	12647.19
254.546	12618.17
254.616	12616.87
254.687	12596.72
254.757	12582.4
254.827	12557.92
254.898	12549.58
254.968	12522.92
255.039	12492.65
255.109	12480.11
255.18	12457.94
255.25	12420.39
255.321	12407.76
255.391	12373.44
255.461	12374.26
255.532	12323.26
255.602	12302
255.673	12258.04
255.743	12223.77
255.813	12179.66
255.884	12179.81
255.954	12173.01
256.024	12173.3
256.095	12151.9
256.165	12117.77
256.235	12105.62
256.306	12077.14
256.376	12066.92
256.446	12064.31
256.517	12052.99
256.587	12047.78
256.657	12026.19
256.728	12008.55
256.798	11982.18
256.868	11967.48
256.938	11938.22
257.009	11936.34
257.079	11923.08
257.149	11935.66
257.219	11900.82
257.29	11892.19
257.36	11847.36
257.43	11839.94
257.5	11798.39
257.571	11768.9
257.641	11762.24
257.711	11728.94
257.781	11717.61
257.852	11700.64
257.922	11654.76
257.992	11633.02
258.062	11605.69
258.132	11594.32
258.202	11570.51
258.273	11561.11
258.343	11555.13
258.413	11525.44
258.483	11509.11
258.553	11474.5
258.623	11443.75
258.693	11427.65
258.764	11427.85
258.834	11433.05
258.904	11406.4
258.974	11381.82
259.044	11369.39
259.114	11356.81
259.184	11334.11
259.254	11317.33
259.324	11274.44
259.394	11269.86
259.464	11267.6
259.535	11248.99
259.605	11227.31
259.675	11205.19
259.745	11190.97
259.815	11156.27
259.885	11137.33
259.955	11148.76
260.025	11126.88
260.095	11113.14
260.165	11097.91
260.235	11091.75
260.305	11063.75
260.375	11032.9
260.445	11045.1
260.515	11045.43
260.585	11040.23
260.655	11027.07
260.725	11022.35
260.795	11018.21
260.865	11017.19
260.934	10991.85
261.004	10978.16
261.074	10961.97
261.144	10966.5
261.214	10956.62
261.284	10942.88
261.354	10938.74
261.424	10906.16
261.494	10910.06
261.564	10894.98
261.634	10887.75
261.703	10850.55
261.773	10844.91
261.843	10842.46
261.913	10823.66
261.983	10787.91
262.053	10776.92
262.123	10755.72
262.192	10725.36
262.262	10720.4
262.332	10690.04
262.402	10680.45
262.472	10665.66
262.541	10624.81
262.611	10614.35
262.681	10589.68
262.751	10579.32
262.821	10561.59
262.89	10530.56
262.96	10518.37
263.03	10520.05
263.1	10506.66
263.169	10492.49
263.239	10479.49
263.309	10485.12
263.379	10470.96
263.448	10463.25
263.518	10458.96
263.588	10451.11
263.657	10458.48
263.727	10451.59
263.797	10439.3
263.867	10424.46
263.936	10398.35
264.006	10404.47
264.076	10385.68
264.145	10367.76
264.215	10351.43
264.285	10351.14
264.354	10319.29
264.424	10300.31
264.494	10268.03
264.563	10252.09
264.633	10263.74
264.702	10253.92
264.772	10219.18
264.842	10198.7
264.911	10185.99
264.981	10155.06
265.05	10138.68
265.12	10111.41
265.19	10102.35
265.259	10100.95
265.329	10095.9
265.398	10080.34
265.468	10092.67
265.537	10071.96
265.607	10067.48
265.676	10057.51
265.746	10041.51
265.815	10043.2
265.885	10026.1
265.955	10001.97
266.024	9983.18
266.094	9942.38
266.163	9940.69
266.232	9938.77
266.302	9925.57
266.371	9914.88
266.441	9896.67
266.51	9889.78
266.58	9875.38
266.649	9843.97
266.719	9839.88
266.788	9827.16
266.858	9836.46
266.927	9790.6
266.996	9789.3
267.066	9775.28
267.135	9756.79
267.205	9755.1
267.274	9750.82
267.343	9754.82
267.413	9739.21
267.482	9738.06
267.552	9746.24
267.621	9722.88
267.69	9688.79
267.76	9677.42
267.829	9669.09
267.898	9658.49
267.968	9641.06
268.037	9635.76
268.106	9637.54
268.176	9612.11
268.245	9604.07
268.314	9580.85
268.384	9584.27
268.453	9575.32
268.522	9570.69
268.592	9571.61
268.661	9548.44
268.73	9534.28
268.799	9510.16
268.869	9525.81
268.938	9501.44
269.007	9473.07
269.076	9464.26
269.146	9470.38
269.215	9467.39
269.284	9475.29
269.353	9460.7
269.422	9448.32
269.492	9427.28
269.561	9380.14
269.63	9373.59
269.699	9354.38
269.768	9347.69
269.838	9344.12
269.907	9333.77
269.976	9307.09
270.045	9273.63
270.114	9270.21
270.183	9262.99
270.253	9256.54
270.322	9225.34
270.391	9210.17
270.46	9220.76
270.529	9217.39
270.598	9209.06
270.667	9195.05
270.736	9163.85
270.806	9158.12
270.875	9157.83
270.944	9147.77
271.013	9177.23
271.082	9166.83
271.151	9163.61
271.22	9135.68
271.289	9127.74
271.358	9121.1
271.427	9117.15
271.496	9110.26
271.565	9098.18
271.634	9084.27
271.703	9114.17
271.772	9121.63
271.841	9113.79
271.91	9090.29
271.979	9072.86
272.048	9057.99
272.117	9056.98
272.186	9048.55
272.255	9046.58
272.324	9041.71
272.393	9043.16
272.462	9021.88
272.531	9016.97
272.6	9003
272.669	9014.12
272.738	9000.45
272.807	8988.03
272.876	8972.87
272.945	9001.95
273.013	9005.51
273.082	9013.4
273.151	8965.16
273.22	8960.3
273.289	8952.74
273.358	8958.52
273.427	8951.73
273.496	8950.19
273.564	8945.52
273.633	8947.49
273.702	8928.91
273.771	8920.78
273.84	8915.48
273.909	8919.14
273.977	8914.85
274.046	8904.84
274.115	8903.98
274.184	8885.11
274.253	8878.8
274.322	8888.29
274.39	8855.69
274.459	8835.96
274.528	8803.61
274.597	8798.75
274.665	8794.37
274.734	8807.56
274.803	8794.51
274.872	8793.84
274.94	8779.21
275.009	8838.11
275.078	8822.41
275.147	8821.6
275.215	8816.54
275.284	8819.38
275.353	8807.69
275.421	8780.06
275.49	8793.97
275.559	8781.98
275.627	8780.97
275.696	8773.8
275.765	8771.69
275.833	8759.85
275.902	8757.83
275.971	8773.27
276.039	8789.59
276.108	8793.25
276.177	8788.58
276.245	8783.34
276.314	8774.19
276.383	8780.64
276.451	8714.47
276.52	8717.65
276.588	8728.29
276.657	8731.7
276.725	8722.8
276.794	8719.82
276.863	8733.87
276.931	8709.37
277	8717.12
277.068	8726.74
277.137	8743.3
277.205	8739.26
277.274	8763.8
277.342	8775.79
277.411	8756.54
277.48	8736.23
277.548	8718.75
277.617	8716.68
277.685	8707.4
277.754	8715.53
277.822	8703.88
277.89	8719.14
277.959	8717.7
278.027	8697.25
278.096	8684.25
278.164	8712.51
278.233	8707.07
278.301	8698.89
278.37	8704.47
278.438	8689.02
278.507	8688.73
278.575	8664.72
278.643	8659.08
278.712	8638.53
278.78	8622.02
278.849	8630.88
278.917	8639.97
278.985	8640.31
279.054	8637.18
279.122	8650.66
279.191	8641.85
279.259	8637.81
279.327	8609.55
279.396	8620.53
279.464	8622.07
279.532	8625
279.601	8618.36
279.669	8607.87
279.737	8615.71
279.806	8619.03
279.874	8630.97
279.942	8629.53
280.011	8629.53
280.079	8643.82
280.147	8657.25
280.215	8663.36
280.284	8661.1
280.352	8648.63
280.42	8655.76
280.488	8645.94
280.557	8641.61
280.625	8647.19
280.693	8647.91
280.761	8652.77
280.83	8635.11
280.898	8648.54
280.966	8631.84
281.034	8592.52
281.102	8582.6
281.171	8582.56
281.239	8591.22
281.307	8586.26
281.375	8573.17
281.443	8590.45
281.512	8582.94
281.58	8589.59
281.648	8573.46
281.716	8572.74
281.784	8572.98
281.852	8563.6
281.92	8572.21
281.989	8577.94
282.057	8559.75
282.125	8605.86
282.193	8602.59
282.261	8604.95
282.329	8604.04
282.397	8610.19
282.465	8617.94
282.533	8635.26
282.601	8623.86
282.67	8599.22
282.738	8591.37
282.806	8605.66
282.874	8593.58
282.942	8593.25
283.01	8586.89
283.078	8593.63
283.146	8592.43
283.214	8603.59
283.282	8609.7
283.35	8618.66
283.418	8619.04
283.486	8623.9
283.554	8577.16
283.622	8579.23
283.69	8576.92
283.758	8560.13
283.826	8565.76
283.894	8578.65
283.962	8595.31
284.03	8607.19
284.098	8610.42
284.165	8595.26
284.233	8594.49
284.301	8587.13
284.369	8581.5
284.437	8571.34
284.505	8567.88
284.573	8582.03
284.641	8566.24
284.709	8575.48
284.777	8558.11
284.845	8563.26
284.912	8571.82
284.98	8577.07
285.048	8571.58
285.116	8574.81
285.184	8595.89
285.252	8596.37
285.319	8582.17
285.387	8578.03
285.455	8557.39
285.523	8567.06
285.591	8567.49
285.659	8564.46
285.726	8580.44
285.794	8568.65
285.862	8565.33
285.93	8567.88
285.997	8562.92
286.065	8558.21
286.133	8543.72
286.201	8542.95
286.269	8525.43
286.336	8510.51
286.404	8503.58
286.472	8511.24
286.539	8493.62
286.607	8468.6
286.675	8468.84
286.743	8476.83
286.81	8466.77
286.878	8479.04
286.946	8461.72
287.013	8471.72
287.081	8472.73
287.149	8457.33
287.216	8470.81
287.284	8466.72
287.352	8465.08
287.419	8459.31
287.487	8479.86
287.555	8483.08
287.622	8475.86
287.69	8480.58
287.758	8492.46
287.825	8487.51
287.893	8473.07
287.96	8480.24
288.028	8498.96
288.096	8502.81
288.163	8503.15
288.231	8493.76
288.298	8494.39
288.366	8514.17
288.433	8505.7
288.501	8495.64
288.569	8499.3
288.636	8495.06
288.704	8506.03
288.771	8511.14
288.839	8500.93
288.906	8492.95
288.974	8504.11
289.041	8503.73
289.109	8499.59
289.176	8514.65
289.244	8525.29
289.311	8544.2
289.379	8553.68
289.446	8554.93
289.514	8555.89
289.581	8556.47
289.649	8557.1
289.716	8562.05
289.783	8557.34
289.851	8580.29
289.918	8582.02
289.986	8594.44
290.053	8595.74
290.121	8597.95
290.188	8602.67
290.255	8627.07
290.323	8617.06
290.39	8610.08
290.458	8621
290.525	8631.78
290.592	8620.28
290.66	8622.78
290.727	8616.57
290.794	8630.15
290.862	8627.64
290.929	8625.77
290.996	8623.94
291.064	8637.17
291.131	8653.01
291.198	8663.93
291.266	8658.98
291.333	8660.03
291.4	8659.55
291.468	8680.49
291.535	8679.91
291.602	8687.52
291.669	8691.9
291.737	8701.38
291.804	8699.31
291.871	8710.57
291.938	8718.27
292.006	8748.31
292.073	8760.49
292.14	8774.01
292.207	8763.9
292.275	8764.15
292.342	8783.78
292.409	8814.4
292.476	8840.11
292.543	8830.09
292.611	8831.35
292.678	8856.33
292.745	8880.92
292.812	8896.62
292.879	8890.31
292.946	8892.76
293.014	8899.41
293.081	8899.12
293.148	8911.49
293.215	8930.79
293.282	8932.96
293.349	8942.25
293.416	8923.71
293.484	8934.59
293.551	8937
293.618	8957.84
293.685	8986.68
293.752	8972
293.819	8969.2
293.886	8953.65
293.953	8955.34
294.02	8964.92
294.087	8964.72
294.154	8958.23
294.221	8973.25
294.288	8979.17
294.356	8995.97
294.423	9004.97
294.49	8998.47
294.557	9011.13
294.624	9004.68
294.691	9018.45
294.758	9015.8
294.825	9025.14
294.892	9021.97
294.959	9024.57
295.026	9024.66
295.093	9011.61
295.16	9013.49
295.226	9015.03
295.293	9039.78
295.36	9053.84
295.427	9064.62
295.494	9078.34
295.561	9086.24
295.628	9111.67
295.695	9121.1
295.762	9127.84
295.829	9133.14
295.896	9151.05
295.963	9167.8
296.03	9179.89
296.096	9187.93
296.163	9203.19
296.23	9216.24
296.297	9226.01
296.364	9229.86
296.431	9240.7
296.498	9244.16
296.564	9266.4
296.631	9269.05
296.698	9258.94
296.765	9276.47
296.832	9265.25
296.899	9250.23
296.965	9271.85
297.032	9245.41
297.099	9265.2
297.166	9270.16
297.233	9269.34
297.299	9263.27
297.366	9256.53
297.433	9256.14
297.5	9265.05
297.566	9261.83
297.633	9259.23
297.7	9265.53
297.767	9262.12
297.833	9268.23
297.9	9273.43
297.967	9262.74
298.033	9271.22
298.1	9300.06
298.167	9289.47
298.234	9300.26
298.3	9310.61
298.367	9304.4
298.434	9305.07
298.5	9292.55
298.567	9290.05
298.634	9290.48
298.7	9312.82
298.767	9316.67
298.834	9329.77
298.9	9323.51
298.967	9320.33
299.033	9330.59
299.1	9342.43
299.167	9363.81
299.233	9356.69
299.3	9367.13
299.366	9382.49
299.433	9405.42
299.5	9378.45
299.566	9381.68
299.633	9395.64
299.699	9407.29
299.766	9407.29
299.832	9423.67
299.899	9436.04
299.965	9447.84
300.032	9442.79
300.099	9447.79
300.165	9456.46
300.232	9459.3
300.298	9461.23
300.365	9474.57
300.431	9471.58
300.498	9459.16
300.564	9463.2
300.631	9479.77
300.697	9492
300.763	9494.12
300.83	9482.13
300.896	9496.57
300.963	9504.23
301.029	9505.34
301.096	9505.63
301.162	9515.26
301.229	9504.04
301.295	9491.42
301.361	9497.97
301.428	9506.35
301.494	9490.46
301.561	9488.87
301.627	9483.62
301.693	9485.54
301.76	9487.76
301.826	9487.09
301.892	9507.94
301.959	9512.95
302.025	9502.69
302.092	9494.36
302.158	9502.98
302.224	9508.76
302.291	9496.28
302.357	9494.41
302.423	9496.67
302.49	9494.02
302.556	9510.2
302.622	9511.07
302.688	9528.36
302.755	9538.91
302.821	9546.32
302.887	9563.13
302.954	9558.84
303.02	9572.52
303.086	9577.96
303.152	9578.06
303.219	9576.28
303.285	9579.5
303.351	9589.91
303.417	9600.45
303.483	9594.1
303.55	9585.53
303.616	9581.77
303.682	9583.65
303.748	9575.22
303.815	9584.47
303.881	9591.4
303.947	9570.4
304.013	9569.73
304.079	9556.1
304.145	9536.35
304.212	9532.5
304.278	9519.4
304.344	9520.61
304.41	9502.93
304.476	9495.81
304.542	9493.93
304.608	9503.51
304.674	9484.01
304.741	9474.13
304.807	9471.39
304.873	9480.1
304.939	9496.82
305.005	9480.54
305.071	9478.47
305.137	9480.2
305.203	9453.23
305.269	9448.13
305.335	9463.39
305.401	9465.27
305.467	9463.35
305.533	9470.47
305.599	9480.1
305.666	9488.48
305.732	9490.55
305.798	9503.51
305.864	9536.79
305.93	9541.61
305.996	9540.64
306.062	9539.34
306.128	9533.23
306.194	9522.87
306.259	9520.08
306.325	9508.14
306.391	9514.68
306.457	9524.85
306.523	9536.16
306.589	9559.61
306.655	9554.32
306.721	9532.36
306.787	9517.14
306.853	9529.42
306.919	9513.67
306.985	9502.84
307.051	9502.16
307.117	9494.36
307.183	9493.06
307.248	9456.89
307.314	9458.53
307.38	9457.18
307.446	9471.68
307.512	9461.56
307.578	9464.16
307.644	9455.02
307.709	9454.53
307.775	9455.98
307.841	9453.52
307.907	9444.95
307.973	9431.95
308.039	9428.19
308.104	9440.95
308.17	9448.66
308.236	9438.4
308.302	9441.48
308.368	9434.98
308.433	9431.27
308.499	9429.73
308.565	9414.08
308.631	9419.28
308.696	9395.88
308.762	9383.89
308.828	9379.79
308.894	9364.58
308.959	9347.68
309.025	9342.48
309.091	9341.57
309.156	9334.29
309.222	9335.83
309.288	9328.95
309.354	9304.15
309.419	9304.97
309.485	9289.08
309.551	9293.7
309.616	9279.45
309.682	9278.34
309.748	9267.66
309.813	9261.78
309.879	9247.43
309.945	9238.19
310.01	9226.54
310.076	9225.33
310.141	9222.11
310.207	9205.64
310.273	9206.99
310.338	9207.23
310.404	9194.95
310.469	9184.6
310.535	9182.05
310.601	9160.71
310.666	9169.38
310.732	9179.54
310.797	9168.61
310.863	9155.32
310.928	9140.01
310.994	9142.61
311.059	9139.24
311.125	9137.27
311.191	9148.24
311.256	9131.3
311.322	9137.75
311.387	9119.36
311.453	9523.13
311.518	9493.38
311.584	9490.16
311.649	9498.15
311.715	9489
311.78	9490.83
311.846	9473.31
311.911	9471.29
311.976	9470.9
312.042	9450.97
312.107	9438.11
312.173	9432.96
312.238	9431.04
312.304	9428.77
312.369	9418.86
312.434	9409.37
312.5	9406.29
312.565	9368.64
312.631	9382.75
312.696	9374.47
312.761	9383.8
312.827	8972.23
312.892	9012.82
312.958	9001.41
313.023	9000.69
313.088	9001.84
313.154	8989.61
313.219	8986.34
313.284	8976.62
313.35	8971.32
313.415	8961.65
313.48	8958.85
313.546	8956.06
313.611	8962.9
313.676	8958.37
313.741	8950
313.807	8955.68
313.872	8960.54
313.937	8969.97
314.003	8975.41
314.068	8973.49
314.133	8975.12
314.198	8964.82
314.264	8943.16
314.329	8941.71
314.394	8935.07
314.459	8932.04
314.525	8950.33
314.59	8946.19
314.655	8932.08
314.72	8937.86
314.785	8942.15
314.851	8934.54
314.916	8918.42
314.981	8903.25
315.046	8895.5
315.111	8886.6
315.176	8874.13
315.242	8871.82
315.307	8873.36
315.372	8856.03
315.437	8843.27
315.502	8829.17
315.567	8842.46
315.632	8824.89
315.698	8824.02
315.763	8823.06
315.828	8815.98
315.893	8808.04
315.958	8805.44
316.023	8799.52
316.088	8781.9
316.153	8763.18
316.218	8753.75
316.283	8734.88
316.348	8719.05
316.413	8712.84
316.479	8699.22
316.544	8661.74
316.609	8630.02
316.674	8593.06
316.739	8559.77
316.804	8532.39
316.869	8501.35
316.934	8466.36
316.999	8442.25
317.064	8391.88
317.129	8345.01
317.194	8308.15
317.259	8264.56
317.324	8213.52
317.389	8164.64
317.454	8126.11
317.518	8089.4
317.583	8071.36
317.648	8055.29
317.713	8018.83
317.778	7958.18
317.843	7932.15
317.908	7900.37
317.973	7865.93
318.038	7836.88
318.103	7803.42
318.168	7771.73
318.233	7744.41
318.297	7698.97
318.362	7656.6
318.427	7621.85
318.492	7596.17
318.557	7548.82
318.622	7520.74
318.687	7497.91
318.751	7461.43
318.816	7432.97
318.881	7398.8
318.946	7344.47
319.011	7298.09
319.075	7262.09
319.14	7226.77
319.205	7179.62
319.27	7146.81
319.335	7102.84
319.399	7059.59
319.464	7030.96
319.529	6983.68
319.594	6945.67
319.658	6913.25
319.723	6874.72
319.788	6849.7
319.853	6799.92
319.917	6769.05
319.982	6711.7
320.047	6675.68
320.112	6649.36
320.176	6594.66
320.241	6563.02
320.306	6531.61
320.37	6492.58
320.435	6461.03
320.5	6436.07
320.564	6397.09
320.629	6355.81
320.694	6327.97
320.758	6290
320.823	6248.29
320.888	6222.47
320.952	6170.98
321.017	6129.81
321.082	6088.12
321.146	6051.84
321.211	6013.26
321.275	5980.07
321.34	5937.72
321.405	5894.26
321.469	5848.84
321.534	5815.41
321.598	5763.1
321.663	5732.34
321.727	5698.96
321.792	5648.66
321.857	5608.05
321.921	5571.66
321.986	5529.72
322.05	5470.09
322.115	5433.23
322.179	5382.72
322.244	5322.35
322.308	5296.57
322.373	5250.71
322.437	5215.16
322.502	5186.16
322.566	5140.94
322.631	5098.4
322.695	5060.81
322.76	5017.23
322.824	4986.05
322.889	4937.55
322.953	4895.95
323.018	4832.59
323.082	4766.77
323.146	4717.72
323.211	4663.67
323.275	4618.3
323.34	4572.61
323.404	4539.88
323.468	4495.61
323.533	4459.26
323.597	4419.29
323.662	4364.55
323.726	4329.96
323.79	4282.38
323.855	4216.64
323.919	4171.5
323.983	4130.67
324.048	4068.03
324.112	4225.64
324.177	4097.34
324.241	3887.28
324.305	3681.28
324.37	3475.37
324.434	3282.9
324.498	3240.23
324.562	3190.74
324.627	3132.19
324.691	3079.21
324.755	3013.08
324.82	2937.06
324.884	2859.5
324.948	2785.91
325.012	2689.61
325.077	2562.66
