Data from 20250703_urea_0.1M_MAYP1162681_12-11-05-411.txt Node
Date: Thu Jul 03 12:11:05 BST 2025
User: adleo
Spectrometer: MAYP116268
Trigger mode: 0
Integration Time (sec): 1.000000E0
Scans to average: 1
Electric dark correction enabled: true
Nonlinearity correction enabled: true
Boxcar width: 10
XAxis mode: Wavelengths
Number of Pixels in Spectrum: 2068
>>>>>Begin Spectral Data<<<<<
179.565	1133.57
179.642	1182.29
179.718	1223.43
179.795	1259.13
179.871	1285.28
179.948	1300.36
180.024	1319.72
180.101	1344.29
180.177	1357.3
180.254	1380.24
180.33	1399.13
180.407	1446.6
180.483	1536.44
180.56	1621.57
180.636	1698.67
180.712	1685.74
180.789	1693.01
180.865	1706.93
180.942	1714.86
181.018	1725.74
181.095	1736.72
181.171	1740
181.248	1743.33
181.324	1756.5
181.4	1762.82
181.477	1776.5
181.553	1789.14
181.63	1808.44
181.706	1821.8
181.782	1828.97
181.859	1826.93
181.935	1835.05
182.011	1832.49
182.088	1844.13
182.164	1862.06
182.24	1877.03
182.317	1888.1
182.393	1886.58
182.469	1899.85
182.546	1912.06
182.622	1915.01
182.698	1911.68
182.775	1924.99
182.851	1937.31
182.927	1928.84
183.003	1924.61
183.08	1918.91
183.156	1929.7
183.232	1927.37
183.308	1914.44
183.385	1925.14
183.461	1942.01
183.537	1941.82
183.613	1953.19
183.69	1947.77
183.766	1934.74
183.842	1940.68
183.918	1943.91
183.995	1958.65
184.071	1960.51
184.147	1955.09
184.223	1947.01
184.299	1958.8
184.375	1947.86
184.452	1954.19
184.528	2001.45
184.604	2012.62
184.68	2023.03
184.756	2028.36
184.832	2034.59
184.908	2038.58
184.985	2035.26
185.061	2018.71
185.137	2026.65
185.213	2016.33
185.289	2017.19
185.365	2015.72
185.441	2014.81
185.517	2029.32
185.593	2025.04
185.669	2023.95
185.745	2033.27
185.822	2048.29
185.898	2039.68
185.974	2046.19
186.05	2039.34
186.126	2011.44
186.202	2006.07
186.278	2003.64
186.354	1994.7
186.43	1997.98
186.506	1998.74
186.582	1999.69
186.658	2007.2
186.734	1989.19
186.81	1992.47
186.886	1994.99
186.962	2003.4
187.038	2000.41
187.114	1989.65
187.19	1996.41
187.266	1986.33
187.341	1989.18
187.417	1982.67
187.493	1983.29
187.569	1986.38
187.645	1979.34
187.721	1964.22
187.797	1970.54
187.873	1974.82
187.949	1969.02
188.025	1963.12
188.101	1964.17
188.176	1966.78
188.252	1962.88
188.328	1969.16
188.404	1969.06
188.48	1964.93
188.556	1960.17
188.632	1959.6
188.707	1962.31
188.783	1961.36
188.859	1957.89
188.935	1944.15
189.011	1951.23
189.086	1942.91
189.162	1936.78
189.238	1935.54
189.314	1933.69
189.39	1927.13
189.465	1920.66
189.541	1935.21
189.617	1920.85
189.693	1919
189.768	1922.57
189.844	1946.35
189.92	1938.94
189.996	1946.97
190.071	1958.91
190.147	1958.91
190.223	1968.75
190.298	1960.86
190.374	1946.59
190.45	1957.62
190.526	1968.32
190.601	1963.85
190.677	1963.47
190.753	1988.73
190.828	1992.44
190.904	2008.09
190.98	2024.49
191.055	2033.24
191.131	2026.21
191.207	2045.37
191.282	2055.4
191.358	2046.27
191.433	2031.85
191.509	2044.07
191.585	2040.46
191.66	2041.45
191.736	2046.49
191.811	2036.6
191.887	2053.73
191.963	2074.89
192.038	2079.41
192.114	2079.27
192.189	2079.55
192.265	2080.22
192.34	2060.23
192.416	2058.71
192.491	2053.76
192.567	2053.81
192.642	2055
192.718	2057.23
192.793	2047.01
192.869	2041.59
192.944	2044.73
193.02	2051.53
193.095	2055.05
193.171	2060.37
193.246	2059.47
193.322	2056.33
193.397	2056.47
193.473	2040.87
193.548	2025.55
193.624	2032.69
193.699	2033.55
193.775	2049.43
193.85	2049.58
193.925	2055.86
194.001	2053.91
194.076	2048.53
194.152	2038.21
194.227	2032.36
194.302	2019.86
194.378	2024.23
194.453	2022.47
194.529	2036.12
194.604	2022.95
194.679	2019.19
194.755	2000.98
194.83	2012.83
194.905	2012.21
194.981	2020.73
195.056	2013.36
195.131	2018.97
195.207	2016.4
195.282	2005.56
195.357	1988.67
195.433	2004.22
195.508	1995.09
195.583	2004.69
195.659	2019.15
195.734	2027.43
195.809	2028.33
195.884	2037.94
195.96	2038.03
196.035	2050.35
196.11	2046.4
196.185	2058.53
196.261	2059.95
196.336	2091.77
196.411	2078.59
196.486	2083.63
196.561	2079.69
196.637	2089.96
196.712	2104.56
196.787	2108.23
196.862	2122.73
196.937	2132.24
197.013	2135.67
197.088	2145.04
197.163	2166.98
197.238	2179.83
197.313	2182.02
197.388	2195.06
197.464	2223.46
197.539	2232.46
197.614	2227.13
197.689	2241.69
197.764	2255.54
197.839	2274.81
197.914	2265.81
197.989	2289.9
198.065	2301.98
198.14	2347.7
198.215	2376.59
198.29	2389.16
198.365	2401.49
198.44	2411.58
198.515	2437.38
198.59	2455.04
198.665	2480.27
198.74	2484.56
198.815	2488.42
198.89	2508.18
198.965	2534.95
199.04	2532.66
199.115	2550.85
199.19	2591.84
199.265	2589.89
199.34	2601.27
199.415	2630.62
199.49	2652.33
199.565	2657.67
199.64	2680.15
199.715	2679.38
199.79	2681.15
199.865	2687.29
199.94	2687.34
200.015	2715.88
200.09	2720.07
200.165	2728.46
200.24	2734.51
200.315	2774.85
200.39	2788.76
200.464	2793.05
200.539	2796.91
200.614	2812.49
200.689	2834.03
200.764	2842.61
200.839	2861.05
200.914	2865.24
200.989	2860.95
201.063	2875.25
201.138	2859.1
201.213	2859.87
201.288	2839.18
201.363	2847.29
201.438	2848.48
201.512	2864.48
201.587	2845.9
201.662	2854.48
201.737	2864.96
201.812	2874.78
201.886	2843.73
201.961	2855.18
202.036	2847.55
202.111	2843.17
202.186	2817.69
202.26	2803.82
202.335	2782.37
202.41	2783.51
202.485	2770.79
202.559	2753.4
202.634	2730.34
202.709	2743.72
202.784	2732.67
202.858	2739.24
202.933	2727.85
203.008	2729.14
203.082	2716.51
203.157	2728.09
203.232	2695.85
203.306	2686.46
203.381	2667.68
203.456	2661.2
203.53	2651.14
203.605	2649.42
203.68	2644.04
203.754	2658.37
203.829	2663.9
203.904	2665.9
203.978	2675.05
204.053	2703.12
204.127	2718.79
204.202	2746
204.277	2765.07
204.351	2793.43
204.426	2820.8
204.5	2847.82
204.575	2857.55
204.65	2912.16
204.724	2952.48
204.799	3009.39
204.873	3056.39
204.948	3107.9
205.022	3151.11
205.097	3209.02
205.171	3285.18
205.246	3359.85
205.32	3429.76
205.395	3503.54
205.469	3571.4
205.544	3654.63
205.618	3727.21
205.693	3829.85
205.767	3911.41
205.842	4021.23
205.916	4107.95
205.991	4205.84
206.065	4321.73
206.14	4442.28
206.214	4548.46
206.289	4656.9
206.363	4791.82
206.438	4913.66
206.512	5049.65
206.586	5204.95
206.661	5348.31
206.735	5468.74
206.81	5616.6
206.884	5776.56
206.958	5911.81
207.033	6080.44
207.107	6244.99
207.181	6431.17
207.256	6584.68
207.33	6760.98
207.405	6942.18
207.479	7131.45
207.553	7301.72
207.628	7457.85
207.702	7639.71
207.776	7810.59
207.851	7991.01
207.925	8184.59
207.999	8370.52
208.073	8559.08
208.148	8742.58
208.222	8921.94
208.296	9139.82
208.371	9346.53
208.445	9546.26
208.519	9764.48
208.593	9971.51
208.668	10161.15
208.742	10354.29
208.816	10548.32
208.89	10757.36
208.965	10950.88
209.039	11158.81
209.113	11374.83
209.187	11589.93
209.261	11792.43
209.336	12016.82
209.41	12240.16
209.484	12436.53
209.558	12657.48
209.632	12864.98
209.707	13074.9
209.781	13286.71
209.855	13494.08
209.929	13697.31
210.003	13896
210.077	14094.36
210.151	14331.47
210.226	14562.56
210.3	14781.83
210.374	14997.78
210.448	15205.14
210.522	15407.11
210.596	15599.77
210.67	15800.18
210.744	16037.9
210.818	16246.6
210.892	16441.66
210.966	16607.17
211.041	16806.13
211.115	16988.16
211.189	17182.92
211.263	17367.03
211.337	17542.69
211.411	17717.83
211.485	17887.51
211.559	18072
211.633	18232.77
211.707	18372.76
211.781	18536.03
211.855	18665.91
211.929	18818.58
212.003	18952.35
212.077	19115.29
212.151	19284.92
212.225	19438.65
212.299	19569.78
212.373	19711.08
212.447	19850.06
212.52	20030.4
212.594	20168.28
212.668	20316.57
212.742	20447.7
212.816	20589.88
212.89	20717.01
212.964	20855.77
213.038	20994.33
213.112	21139.51
213.186	21297.4
213.26	21407.73
213.333	21497.23
213.407	21630.99
213.481	21751.54
213.555	21886.74
213.629	21994.19
213.703	22106.51
213.777	22230.45
213.85	22344.03
213.924	22494.69
213.998	22612.33
214.072	22714.4
214.146	22817.57
214.219	22920.42
214.293	23028.27
214.367	23133.63
214.441	23254.13
214.515	23352.88
214.588	23429.36
214.662	23489.44
214.736	23565.25
214.81	23664.4
214.883	23765.91
214.957	23843.21
215.031	23927.07
215.105	23987.74
215.178	24056.85
215.252	24127.51
215.326	24178.93
215.4	24239.03
215.473	24266.48
215.547	24331.89
215.621	24394.27
215.694	24475.17
215.768	24520.42
215.842	24567.56
215.915	24616.91
215.989	24663.08
216.063	24720.88
216.136	24783.99
216.21	24847.14
216.284	24919.28
216.357	24980.95
216.431	25031.8
216.504	25101.24
216.578	25182.89
216.652	25248.75
216.725	25311.77
216.799	25374.51
216.873	25438.4
216.946	25485.41
217.02	25538.34
217.093	25579.46
217.167	25603.93
217.24	25627.63
217.314	25684.24
217.387	25732.17
217.461	25772.03
217.535	25819.58
217.608	25847.28
217.682	25891.3
217.755	25938.85
217.829	25965.35
217.902	25996.15
217.976	26033.17
218.049	26055.57
218.123	26067.26
218.196	26102.74
218.27	26128.47
218.343	26135.18
218.417	26155.45
218.49	26186.83
218.563	26220.63
218.637	26253.17
218.71	26311.2
218.784	26347.61
218.857	26373.87
218.931	26398.35
219.004	26425.58
219.077	26455.08
219.151	26486.52
219.224	26507.86
219.298	26539.58
219.371	26580.54
219.444	26599.22
219.518	26628.15
219.591	26651.66
219.665	26704.3
219.738	26723.13
219.811	26723.86
219.885	26763.65
219.958	26800.93
220.031	26812.81
220.105	26837.58
220.178	26855.64
220.251	26865.4
220.325	26888.73
220.398	26904.37
220.471	26927.36
220.544	26943.35
220.618	26951.03
220.691	26971.5
220.764	26982.22
220.838	26987.97
220.911	26974.54
220.984	26999.95
221.057	27007.87
221.131	27007.43
221.204	26972.42
221.277	27000.24
221.35	27046.55
221.424	27047.42
221.497	27048.39
221.57	27050.42
221.643	27056.45
221.716	27064.47
221.79	27058.77
221.863	27062.06
221.936	27058
222.009	27055.73
222.082	27062.83
222.155	27049.26
222.229	27047.76
222.302	27043.32
222.375	27034.48
222.448	27047.47
222.521	27037.18
222.594	27030.33
222.667	27023.47
222.74	27031.49
222.814	27017.28
222.887	27001.44
222.96	26990.24
223.033	26984.63
223.106	26981.93
223.179	26973.96
223.252	26960.34
223.325	26949.76
223.398	26928.22
223.471	26919.14
223.544	26903.93
223.617	26881.52
223.69	26872.97
223.763	26848.15
223.837	26841
223.91	26835.45
223.983	26792.57
224.056	26768.52
224.129	26751.95
224.202	26751.28
224.275	26725.59
224.348	26696.91
224.42	26662.43
224.493	26633.16
224.566	26600.28
224.639	26582.99
224.712	26555.13
224.785	26534.89
224.858	26506.89
224.931	26483.37
225.004	26455.03
225.077	26431.28
225.15	26391.74
225.223	26355.58
225.296	26345.97
225.369	26303.53
225.442	26256.31
225.514	26236.61
225.587	26218.65
225.66	26193.45
225.733	26153.43
225.806	26140.97
225.879	26116.21
225.952	26084.11
226.025	26058.38
226.097	26051.91
226.17	26020.05
226.243	25971.05
226.316	25933.93
226.389	25903.71
226.461	25877.26
226.534	25836.23
226.607	25806.3
226.68	25794.28
226.753	25775.08
226.825	25725.89
226.898	25703.69
226.971	25684.43
227.044	25661.16
227.117	25620.77
227.189	25582.73
227.262	25569.7
227.335	25535.87
227.407	25498.95
227.48	25461.88
227.553	25430.47
227.626	25382.54
227.698	25351.07
227.771	25333.12
227.844	25286.12
227.916	25258.42
227.989	25207.08
228.062	25181.55
228.134	25166.3
228.207	25129.82
228.28	25098.41
228.352	25068.25
228.425	25042.2
228.498	25015.8
228.57	24967.26
228.643	24954.81
228.716	24930.64
228.788	24887.4
228.861	24843.64
228.934	24828.2
229.006	24797.23
229.079	24762.49
229.151	24723.9
229.224	24672.28
229.296	24629.44
229.369	24635.28
229.442	24614.43
229.514	24581.58
229.587	24566.2
229.659	24511.58
229.732	24484.67
229.804	24455.48
229.877	24445.88
229.949	24420.84
230.022	24403.71
230.094	24374.77
230.167	24332.51
230.239	24289.73
230.312	24246.27
230.384	24237.39
230.457	24197.31
230.529	24172.08
230.602	24139.04
230.674	24117.62
230.747	24103.59
230.819	24087.24
230.892	24018.99
230.964	23991.06
231.037	23961.45
231.109	23908.06
231.181	23884.91
231.254	23842.08
231.326	23804.46
231.399	23755.07
231.471	23707.81
231.544	23650.94
231.616	23624.23
231.688	23591
231.761	23549.43
231.833	23517.6
231.905	23455.2
231.978	23418.16
232.05	23372.11
232.122	23354.75
232.195	23315.74
232.267	23289.46
232.339	23251.8
232.412	23229.91
232.484	23174.4
232.556	23130.86
232.629	23121.66
232.701	23087.9
232.773	23050
232.846	23013.79
232.918	22987.37
232.99	22952.51
233.062	22921.07
233.135	22884.96
233.207	22831.92
233.279	22807.62
233.351	22770.94
233.424	22737.24
233.496	22688.59
233.568	22672.34
233.64	22609.76
233.713	22564.73
233.785	22526.89
233.857	22486.15
233.929	22427.67
234.001	22415.91
234.074	22393.35
234.146	22335.35
234.218	22299.15
234.29	22263.48
234.362	22211.08
234.434	22146.09
234.507	22094.56
234.579	22039.27
234.651	21999.45
234.723	21976.94
234.795	21931.39
234.867	21915.09
234.939	21893.31
235.012	21860.72
235.084	21829.58
235.156	21796.56
235.228	21752.41
235.3	21705.85
235.372	21670.47
235.444	21647.86
235.516	21578.93
235.588	21536.76
235.66	21498.68
235.732	21441.61
235.804	21450.91
235.876	21426.48
235.948	21413.61
236.02	21380.06
236.092	21342.66
236.164	21307.14
236.236	21260.29
236.308	21215.42
236.38	21164.43
236.452	21108.76
236.524	21069.91
236.596	21046.49
236.668	21014
236.74	20968.85
236.812	20930.1
236.884	20894.53
236.956	20850.14
237.028	20808.36
237.1	20765.46
237.172	20739.44
237.244	20718.33
237.316	20641.94
237.388	20591.72
237.46	20536.05
237.532	20502.03
237.604	20451.81
237.675	20424.63
237.747	20391.86
237.819	20349.74
237.891	20301.6
237.963	20260.92
238.035	20217.99
238.107	20131.67
238.178	20103.33
238.25	20064.69
238.322	20045.22
238.394	19989.65
238.466	19952.59
238.538	19911.63
238.609	19877.17
238.681	19816.02
238.753	19775.2
238.825	19734.62
238.897	19698.77
238.968	19677.66
239.04	19626
239.112	19614
239.184	19554.59
239.255	19504.23
239.327	19470.01
239.399	19429.48
239.471	19394.59
239.542	19358.45
239.614	19335.61
239.686	19270.31
239.758	19254.27
239.829	19201.06
239.901	19168.39
239.973	19123.77
240.044	19098.85
240.116	19055.43
240.188	19022.95
240.259	18974.62
240.331	18929.56
240.403	18892.22
240.474	18835.11
240.546	18793.52
240.618	18736.8
240.689	18694.01
240.761	18659.46
240.833	18625.97
240.904	18583.8
240.976	18546.5
241.048	18507.03
241.119	18476.82
241.191	18446.94
241.262	18416.1
241.334	18374.22
241.405	18328.44
241.477	18285.79
241.549	18235.05
241.62	18198.81
241.692	18167.92
241.763	18141.51
241.835	18099.54
241.906	18062.52
241.978	18015.68
242.049	17989.47
242.121	17959.44
242.192	17936.6
242.264	17882.82
242.335	17827.88
242.407	17797.57
242.478	17747.54
242.55	17712.08
242.621	17666.39
242.693	17622.2
242.764	17570.01
242.836	17532.51
242.907	17514.01
242.979	17488.37
243.05	17465.91
243.122	17434.39
243.193	17389.19
243.264	17324.22
243.336	17290.87
243.407	17264.18
243.479	17236.7
243.55	17205.57
243.622	17172.85
243.693	17131.98
243.764	17117.43
243.836	17080.85
243.907	17047.35
243.978	17017.42
244.05	16982.14
244.121	16922.67
244.192	16899.1
244.264	16852.5
244.335	16812.83
244.407	16754.66
244.478	16718.03
244.549	16671.67
244.62	16630.03
244.692	16595.33
244.763	16576.34
244.834	16534.26
244.906	16485.78
244.977	16459.03
245.048	16439.41
245.119	16403.55
245.191	16359.31
245.262	16299.79
245.333	16281.13
245.405	16241.42
245.476	16201.41
245.547	16175.63
245.618	16159.19
245.689	16118.95
245.761	16086.7
245.832	16049.93
245.903	16027.76
245.974	15994.98
246.045	15955.65
246.117	15927.74
246.188	15882.72
246.259	15840.31
246.33	15803.82
246.401	15773.69
246.473	15724.1
246.544	15684
246.615	15654.4
246.686	15620.61
246.757	15604.22
246.828	15563.54
246.899	15553.28
246.97	15513.61
247.042	15471.67
247.113	15445.45
247.184	15443.04
247.255	15411.13
247.326	15382.74
247.397	15348.9
247.468	15322.01
247.539	15295.78
247.61	15263.34
247.681	15245.75
247.752	15237.03
247.823	15198.08
247.894	15171.47
247.965	15130.16
248.037	15082.2
248.108	15034.62
248.179	15008.69
248.25	14978.42
248.321	14948.82
248.392	14899.02
248.463	14888.85
248.534	14853.09
248.605	14838.14
248.675	14800.4
248.746	14773.17
248.817	14754.56
248.888	14727.23
248.959	14679.84
249.03	14658.58
249.101	14616.21
249.172	14580.59
249.243	14523.27
249.314	14510.45
249.385	14478.73
249.456	14466.34
249.527	14440.22
249.598	14427.73
249.669	14395.43
249.739	14373.64
249.81	14352.77
249.881	14314.01
249.952	14286.2
250.023	14260.51
250.094	14213.6
250.165	14173.69
250.235	14146.64
250.306	14114.59
250.377	14080.41
250.448	14065.56
250.519	14019
250.59	14017.98
250.66	13993.64
250.731	13983.85
250.802	13952.76
250.873	13935.94
250.944	13910.68
251.014	13882.67
251.085	13871.24
251.156	13850.08
251.227	13826.07
251.297	13813.64
251.368	13803.47
251.439	13782.25
251.51	13770.78
251.58	13737.33
251.651	13707.2
251.722	13695.96
251.792	13654.51
251.863	13625.97
251.934	13606.16
252.005	13608.23
252.075	13579.88
252.146	13558.19
252.217	13540.59
252.287	13533.56
252.358	13504.05
252.429	13495.18
252.499	13462.89
252.57	13440.52
252.641	13423.93
252.711	13402
252.782	13361.22
252.852	13354.42
252.923	13330.51
252.994	13301.44
253.064	13286.35
253.135	13251.93
253.205	13216.26
253.276	13209.56
253.347	13199.63
253.417	13169.98
253.488	13137.49
253.558	13110.59
253.629	13087.79
253.699	13067.21
253.77	13049.23
253.841	13023.1
253.911	13001.31
253.982	12987.38
254.052	12977.54
254.123	12954.89
254.193	12937.92
254.264	12958.31
254.334	12922.88
254.405	12893.71
254.475	12864.4
254.546	12836.01
254.616	12829.74
254.687	12811.96
254.757	12794.22
254.827	12768.72
254.898	12748.33
254.968	12731.65
255.039	12696.12
255.109	12682.48
255.18	12647.43
255.25	12600.96
255.321	12592.09
255.391	12558.01
255.461	12557.72
255.532	12504.65
255.602	12477.66
255.673	12439.24
255.743	12404.38
255.813	12358.4
255.884	12350.4
255.954	12343.12
256.024	12343.94
256.095	12322.58
256.165	12289.61
256.235	12273.42
256.306	12246.13
256.376	12236.73
256.446	12227.29
256.517	12215.52
256.587	12205.93
256.657	12197.88
256.728	12181.16
256.798	12155.75
256.868	12133.24
256.938	12102.1
257.009	12093.96
257.079	12090.29
257.149	12092.85
257.219	12051.2
257.29	12042.62
257.36	11994.47
257.43	11980.88
257.5	11944.58
257.571	11921.83
257.641	11914.89
257.711	11886.89
257.781	11879.9
257.852	11867.51
257.922	11819.6
257.992	11801.14
258.062	11778.63
258.132	11764.36
258.202	11747.3
258.273	11730.24
258.343	11728.26
258.413	11699.82
258.483	11686.33
258.553	11651.82
258.623	11620.2
258.693	11603.47
258.764	11600.58
258.834	11606.32
258.904	11586.99
258.974	11557.88
259.044	11534.6
259.114	11515.56
259.184	11495.08
259.254	11474.26
259.324	11439.41
259.394	11438.54
259.464	11437.44
259.535	11413.1
259.605	11387.22
259.675	11361.63
259.745	11348.32
259.815	11315.84
259.885	11289.67
259.955	11289.33
260.025	11260.95
260.095	11243.89
260.165	11231.5
260.235	11227.21
260.305	11200.66
260.375	11173.14
260.445	11185.53
260.515	11193.28
260.585	11194.88
260.655	11185.77
260.725	11179.31
260.795	11166.3
260.865	11164.9
260.934	11140.75
261.004	11135.12
261.074	11117.29
261.144	11119.65
261.214	11103.89
261.284	11086.01
261.354	11090.15
261.424	11065.04
261.494	11080.22
261.564	11061.43
261.634	11057.28
261.703	11023.12
261.773	11015.79
261.843	11003.07
261.913	10977.1
261.983	10939.94
262.053	10922.35
262.123	10903.13
262.192	10877.2
262.262	10869.44
262.332	10836.53
262.402	10822.8
262.472	10804.77
262.541	10769.17
262.611	10763.24
262.681	10744.59
262.751	10744.54
262.821	10723.78
262.89	10696.5
262.96	10669.47
263.03	10676.02
263.1	10661.42
263.169	10645.52
263.239	10631.26
263.309	10637.52
263.379	10627.84
263.448	10614.4
263.518	10602.35
263.588	10579.42
263.657	10583.94
263.727	10576.52
263.797	10565.11
263.867	10549.69
263.936	10526.37
264.006	10528.97
264.076	10505.21
264.145	10491.77
264.215	10466.48
264.285	10463.01
264.354	10426.83
264.424	10407.94
264.494	10374.89
264.563	10355.71
264.633	10356.05
264.702	10346.9
264.772	10311.34
264.842	10293.46
264.911	10287.2
264.981	10262.44
265.05	10256.85
265.12	10234.44
265.19	10221.24
265.259	10211.99
265.329	10201.68
265.398	10182.03
265.468	10197.11
265.537	10181.5
265.607	10178.8
265.676	10178.8
265.746	10161.41
265.815	10167.1
265.885	10155.87
265.955	10136.03
266.024	10114.4
266.094	10082.46
266.163	10082.51
266.232	10088.29
266.302	10078.41
266.371	10072.2
266.441	10061.55
266.51	10053.94
266.58	10036.02
266.649	10019.55
266.719	10014.05
266.788	10008.03
266.858	10012.66
266.927	9972.29
266.996	9964.44
267.066	9949.12
267.135	9916.17
267.205	9911.55
267.274	9895.75
267.343	9895.51
267.413	9884.14
267.482	9886.41
267.552	9891.37
267.621	9859.91
267.69	9827.93
267.76	9816.42
267.829	9802.59
267.898	9786.46
267.968	9763.58
268.037	9756.45
268.106	9747.73
268.176	9729.86
268.245	9715.66
268.314	9697.98
268.384	9701.54
268.453	9689.07
268.522	9682.33
268.592	9687.48
268.661	9664.6
268.73	9660.27
268.799	9639.12
268.869	9640.52
268.938	9615.09
269.007	9591.4
269.076	9587.11
269.146	9583.88
269.215	9571.03
269.284	9576.37
269.353	9562.79
269.422	9552.05
269.492	9533.9
269.561	9499.08
269.63	9489.35
269.699	9471.44
269.768	9463.45
269.838	9452.99
269.907	9456.56
269.976	9423.77
270.045	9392.13
270.114	9394.44
270.183	9376.24
270.253	9371.04
270.322	9347.69
270.391	9335.26
270.46	9336.56
270.529	9329.05
270.598	9323.03
270.667	9310.66
270.736	9290.72
270.806	9278.25
270.875	9280.51
270.944	9270.59
271.013	9290.67
271.082	9280.17
271.151	9277.14
271.22	9252.59
271.289	9238
271.358	9214.55
271.427	9213.1
271.496	9205.98
271.565	9187.68
271.634	9180.02
271.703	9197.41
271.772	9197.94
271.841	9185.61
271.91	9168.04
271.979	9153.45
272.048	9130.49
272.117	9134.63
272.186	9112.19
272.255	9113.64
272.324	9105.21
272.393	9100.35
272.462	9086.24
272.531	9079.31
272.6	9068.14
272.669	9075.31
272.738	9060.34
272.807	9055.57
272.876	9036.32
272.945	9064.67
273.013	9070.69
273.082	9072.71
273.151	9033.57
273.22	9032.89
273.289	9032.03
273.358	9039.97
273.427	9038.53
273.496	9042.57
273.564	9034.77
273.633	9040.6
273.702	9024.37
273.771	9019.46
273.84	9013.59
273.909	9009.3
273.977	9004.59
274.046	8996.11
274.115	8997.94
274.184	8991.78
274.253	8985.14
274.322	8997.03
274.39	8961.45
274.459	8937.33
274.528	8915.62
274.597	8910.09
274.665	8903.78
274.734	8911.05
274.803	8901.47
274.872	8889.48
274.94	8881.2
275.009	8934.57
275.078	8917.67
275.147	8915.65
275.215	8909.49
275.284	8923.83
275.353	8914.06
275.421	8889.61
275.49	8896.4
275.559	8887.01
275.627	8875.03
275.696	8871.9
275.765	8872.33
275.833	8872.28
275.902	8874.16
275.971	8884.22
276.039	8894.28
276.108	8896.93
276.177	8891.58
276.245	8873.58
276.314	8871.46
276.383	8871.37
276.451	8814.88
276.52	8813.63
276.588	8824.84
276.657	8828.74
276.725	8810.06
276.794	8806.21
276.863	8825.7
276.931	8804.91
277	8805.06
277.068	8817.62
277.137	8830.32
277.205	8826.52
277.274	8840.72
277.342	8853.86
277.411	8831.2
277.48	8815.31
277.548	8807.51
277.617	8809.2
277.685	8813.48
277.754	8817.67
277.822	8804.24
277.89	8809.58
277.959	8806.22
278.027	8789.61
278.096	8779.65
278.164	8804.58
278.233	8799.29
278.301	8786.44
278.37	8796.93
278.438	8784.61
278.507	8790.67
278.575	8764.3
278.643	8754.38
278.712	8731.9
278.78	8712.17
278.849	8728.82
278.917	8745.18
278.985	8735.75
279.054	8735.7
279.122	8740.13
279.191	8737.05
279.259	8743.84
279.327	8724.92
279.396	8741.28
279.464	8738.49
279.532	8739.07
279.601	8729.92
279.669	8727.23
279.737	8738.25
279.806	8734.3
279.874	8746.82
279.942	8738.1
280.011	8734.3
280.079	8739.5
280.147	8757.36
280.215	8767.99
280.284	8758.99
280.352	8742.63
280.42	8751.53
280.488	8743.16
280.557	8738.68
280.625	8741.38
280.693	8734.83
280.761	8738.83
280.83	8725.68
280.898	8736.8
280.966	8721.59
281.034	8694.11
281.102	8681.45
281.171	8676.45
281.239	8691.37
281.307	8676.5
281.375	8663.7
281.443	8689.35
281.512	8693.44
281.58	8698.59
281.648	8679.15
281.716	8678.86
281.784	8677.51
281.852	8669.33
281.92	8664.66
281.989	8671.98
282.057	8655.37
282.125	8700.19
282.193	8697.93
282.261	8695.67
282.329	8689.99
282.397	8693.69
282.465	8696.05
282.533	8708.81
282.601	8695.38
282.67	8672.61
282.738	8670.35
282.806	8682.62
282.874	8671.02
282.942	8672.17
283.01	8666.35
283.078	8675.64
283.146	8673.42
283.214	8680.79
283.282	8684.49
283.35	8696.24
283.418	8690.17
283.486	8690.65
283.554	8646.7
283.622	8648.43
283.69	8645.79
283.758	8636.64
283.826	8645.69
283.894	8658.78
283.962	8675.58
284.03	8691.37
284.098	8687.04
284.165	8679.72
284.233	8679.63
284.301	8677.12
284.369	8668.75
284.437	8658.26
284.505	8650.51
284.573	8666.68
284.641	8654.07
284.709	8660.47
284.777	8645.84
284.845	8656.48
284.912	8664.47
284.98	8669.09
285.048	8658.35
285.116	8662.2
285.184	8678.42
285.252	8674.72
285.319	8656.86
285.387	8648.87
285.455	8631.35
285.523	8640.74
285.591	8643
285.659	8640.3
285.726	8648.15
285.794	8637.56
285.862	8637.9
285.93	8638.52
285.997	8637.99
286.065	8638.62
286.133	8630.39
286.201	8627.45
286.269	8612.63
286.336	8608.54
286.404	8600.4
286.472	8612.34
286.539	8592.32
286.607	8574.47
286.675	8582.46
286.743	8591.17
286.81	8584.67
286.878	8600.36
286.946	8593.67
287.013	8593.53
287.081	8595.35
287.149	8578.46
287.216	8592.56
287.284	8582.98
287.352	8583.95
287.419	8568.98
287.487	8583.8
287.555	8583.56
287.622	8576.25
287.69	8580.29
287.758	8586.11
287.825	8584.82
287.893	8564.94
287.96	8575.72
288.028	8585.58
288.096	8581.25
288.163	8583.46
288.231	8575.62
288.298	8574.66
288.366	8587.12
288.433	8582.65
288.501	8581.06
288.569	8582.7
288.636	8580.1
288.704	8598.58
288.771	8607.82
288.839	8606.37
288.906	8600.98
288.974	8616.63
289.041	8620.04
289.109	8617.78
289.176	8633.47
289.244	8639.68
289.311	8659.61
289.379	8667.21
289.446	8668.85
289.514	8673.51
289.581	8673.95
289.649	8674.33
289.716	8671.11
289.783	8664.22
289.851	8683.76
289.918	8680.88
289.986	8693.73
290.053	8701.33
290.121	8701.72
290.188	8702.2
290.255	8728.81
290.323	8723.9
290.39	8714.37
290.458	8721.06
290.525	8725.35
290.592	8715.91
290.66	8717.31
290.727	8713.65
290.794	8726.74
290.862	8731.22
290.929	8733.53
290.996	8731.75
291.064	8746.23
291.131	8762.84
291.198	8773.72
291.266	8773.53
291.333	8775.98
291.4	8780.31
291.468	8791.24
291.535	8783.35
291.602	8787.44
291.669	8782.33
291.737	8789.79
291.804	8784.88
291.871	8800.29
291.938	8813
292.006	8838.22
292.073	8847.17
292.14	8857.48
292.207	8853.96
292.275	8853.96
292.342	8858.58
292.409	8891.13
292.476	8910.82
292.543	8904.61
292.611	8910.43
292.678	8924.34
292.745	8949.95
292.812	8964.39
292.879	8964.49
292.946	8973.83
293.014	8989.42
293.081	8992.31
293.148	9001.75
293.215	9022.49
293.282	9021.63
293.349	9028.32
293.416	9010.55
293.484	9028.46
293.551	9039.68
293.618	9055.76
293.685	9080.65
293.752	9079.98
293.819	9072.85
293.886	9062.26
293.953	9069.29
294.02	9075.98
294.087	9085.75
294.154	9073.72
294.221	9091.58
294.288	9090.91
294.356	9107.56
294.423	9116.09
294.49	9115.65
294.557	9132.21
294.624	9131.35
294.691	9150.85
294.758	9150.46
294.825	9159.56
294.892	9147.14
294.959	9147.48
295.026	9155.71
295.093	9152
295.16	9154.84
295.226	9159.22
295.293	9184.55
295.36	9187.68
295.427	9201.26
295.494	9212
295.561	9228.17
295.628	9240.89
295.695	9255.24
295.762	9258.22
295.829	9264.63
295.896	9279.6
295.963	9285.57
296.03	9289.81
296.096	9297.13
296.163	9312.82
296.23	9325.68
296.297	9346.43
296.364	9343.4
296.431	9340.6
296.498	9337.47
296.564	9360.01
296.631	9358.71
296.698	9344.36
296.765	9367.38
296.832	9358.18
296.899	9351.44
296.965	9371.13
297.032	9350.66
297.099	9368.82
297.166	9377.58
297.233	9373.88
297.299	9369.93
297.366	9370.07
297.433	9371.76
297.5	9379.65
297.566	9382.4
297.633	9380.91
297.7	9384.23
297.767	9388.08
297.833	9401.56
297.9	9402.38
297.967	9386.69
298.033	9404.21
298.1	9428.05
298.167	9416.25
298.234	9418.9
298.3	9419.91
298.367	9408.55
298.434	9420.44
298.5	9416.21
298.567	9411.39
298.634	9411.87
298.7	9425.69
298.767	9425.21
298.834	9442.59
298.9	9434.02
298.967	9428.39
299.033	9441.1
299.1	9454.06
299.167	9465.71
299.233	9459.78
299.3	9477.41
299.366	9489.21
299.433	9498.69
299.5	9477.79
299.566	9478.56
299.633	9500.23
299.699	9518.39
299.766	9521.28
299.832	9526.91
299.899	9522.68
299.965	9533.22
300.032	9532.98
300.099	9542.71
300.165	9556.15
300.232	9555.81
300.298	9564.09
300.365	9577.14
300.431	9579.26
300.498	9569.2
300.564	9578.06
300.631	9591.69
300.697	9606.57
300.763	9616.15
300.83	9618.56
300.896	9636.52
300.963	9655.98
301.029	9653.24
301.096	9651.12
301.162	9660.89
301.229	9654.92
301.295	9652.17
301.361	9658.87
301.428	9665.37
301.494	9652.61
301.561	9657.18
301.627	9661.47
301.693	9657.52
301.76	9661.37
301.826	9656.37
301.892	9668.69
301.959	9677.85
302.025	9677.89
302.092	9668.6
302.158	9669.71
302.224	9668.12
302.291	9663.06
302.357	9656.56
302.423	9655.06
302.49	9646.35
302.556	9659.54
302.622	9659.11
302.688	9673.66
302.755	9681.46
302.821	9691.09
302.887	9705.73
302.954	9702.36
303.02	9704.67
303.086	9707.37
303.152	9700.1
303.219	9700.72
303.285	9706.41
303.351	9708.38
303.417	9706.12
303.483	9694.65
303.55	9690.22
303.616	9687.77
303.682	9684.88
303.748	9677.99
303.815	9693.74
303.881	9706.07
303.947	9702.22
304.013	9703.13
304.079	9693.4
304.145	9680.74
304.212	9677.8
304.278	9671.2
304.344	9662.58
304.41	9648.85
304.476	9640.23
304.542	9637.97
304.608	9643.17
304.674	9623.18
304.741	9619.33
304.807	9618.51
304.873	9626.84
304.939	9640.43
305.005	9622.61
305.071	9615.43
305.137	9617.21
305.203	9590.39
305.269	9585.91
305.335	9592.84
305.401	9588.89
305.467	9586.49
305.533	9591.11
305.599	9594.91
305.666	9598.04
305.732	9598.67
305.798	9615.67
305.864	9646.93
305.93	9649.72
305.996	9647.27
306.062	9654.92
306.128	9652.76
306.194	9644.28
306.259	9643.7
306.325	9635.95
306.391	9645.58
306.457	9655.79
306.523	9663.01
306.589	9687.43
306.655	9682.23
306.721	9661.18
306.787	9651.31
306.853	9662.2
306.919	9646.93
306.985	9639.95
307.051	9632.53
307.117	9632.43
307.183	9627.47
307.248	9592.46
307.314	9601.99
307.38	9597.23
307.446	9599.68
307.512	9590.48
307.578	9594.62
307.644	9590.48
307.709	9587.26
307.775	9586.34
307.841	9583.02
307.907	9580.08
307.973	9559.37
308.039	9558.26
308.104	9556.72
308.17	9560.91
308.236	9549.45
308.302	9555.85
308.368	9542.47
308.433	9546.13
308.499	9536.35
308.565	9522.96
308.631	9527.54
308.696	9494.69
308.762	9489.01
308.828	9487.57
308.894	9463.83
308.959	9445.58
309.025	9439.13
309.091	9435.56
309.156	9425.88
309.222	9428.43
309.288	9415.96
309.354	9394.1
309.419	9392.18
309.485	9377.92
309.551	9377.78
309.616	9362.61
309.682	9352.11
309.748	9344.26
309.813	9332.13
309.879	9325.34
309.945	9311.66
310.01	9309.83
310.076	9317.06
310.141	9303.48
310.207	9289.37
310.273	9298.03
310.338	9297.84
310.404	9279.4
310.469	9268.18
310.535	9258.12
310.601	9231.68
310.666	9240.98
310.732	9251.23
310.797	9241.51
310.863	9235.1
310.928	9225.86
310.994	9229.71
311.059	9228.5
311.125	9224.99
311.191	9233.27
311.256	9222.97
311.322	9225.86
311.387	9205.06
311.453	9504.49
311.518	9484.13
311.584	9479.41
311.649	9481.82
311.715	9470.22
311.78	9471.66
311.846	9460.25
311.911	9465.88
311.976	9470.75
312.042	9447.1
312.107	9437.52
312.173	9427.56
312.238	9419.85
312.304	9418.51
312.369	9405.17
312.434	9399.05
312.5	9391.78
312.565	9361.55
312.631	9363.19
312.696	9355.39
312.761	9353.75
312.827	9044.93
312.892	9080.07
312.958	9079.45
313.023	9075.74
313.088	9078.53
313.154	9064.96
313.219	9054.75
313.284	9045.46
313.35	9039.1
313.415	9030.82
313.48	9019.8
313.546	9019.94
313.611	9027.45
313.676	9014.74
313.741	9008.34
313.807	9007.96
313.872	9015.8
313.937	9024.42
314.003	9034.82
314.068	9031.88
314.133	9042.38
314.198	9034.15
314.264	9014.02
314.329	8996.5
314.394	8993.7
314.459	8991.78
314.525	9015.66
314.59	9015.94
314.655	9005.26
314.72	9009.54
314.785	9014.45
314.851	9009.49
314.916	8991.78
314.981	8983.21
315.046	8978.54
315.111	8969.97
315.176	8958.28
315.242	8955.1
315.307	8952.98
315.372	8930.88
315.437	8927.47
315.502	8917.6
315.567	8926.55
315.632	8913.84
315.698	8918.94
315.763	8908.79
315.828	8899.16
315.893	8883.56
315.958	8874.46
316.023	8864.02
316.088	8844.43
316.153	8817.09
316.218	8811.12
316.283	8793.89
316.348	8771.08
316.413	8763.81
316.479	8745.86
316.544	8715.69
316.609	8685.27
316.674	8644.51
316.739	8616.89
316.804	8578.92
316.869	8542.44
316.934	8504.56
316.999	8471.31
317.064	8421.18
317.129	8376.9
317.194	8335.05
317.259	8286.83
317.324	8238.92
317.389	8196.1
317.454	8154.54
317.518	8123.17
317.583	8094.21
317.648	8072.8
317.713	8039.56
317.778	7981.6
317.843	7951.06
317.908	7910.61
317.973	7876.6
318.038	7843.66
318.103	7801.64
318.168	7771.58
318.233	7735.56
318.297	7684.25
318.362	7645.69
318.427	7604.78
318.492	7578.14
318.557	7532.24
318.622	7507.86
318.687	7483.15
318.751	7439.99
318.816	7407.26
318.881	7371.21
318.946	7313.67
319.011	7262.43
319.075	7223.26
319.14	7188.33
319.205	7144.5
319.27	7108.27
319.335	7061.03
319.399	7020.72
319.464	6988.73
319.529	6932.76
319.594	6894.52
319.658	6863.05
319.723	6818
319.788	6789.47
319.853	6734.13
319.917	6705.13
319.982	6647.2
320.047	6609.6
320.112	6583.29
320.176	6533.54
320.241	6502.47
320.306	6474.48
320.37	6436.07
320.435	6400.35
320.5	6368.67
320.564	6326.71
320.629	6286.26
320.694	6250.16
320.758	6211.53
320.823	6169.73
320.888	6146.22
320.952	6098
321.017	6050.11
321.082	6012.46
321.146	5973.02
321.211	5938.43
321.275	5899.2
321.34	5858.82
321.405	5808.65
321.469	5760.98
321.534	5717.35
321.598	5659.13
321.663	5627.19
321.727	5591.61
321.792	5542.71
321.857	5501.42
321.921	5464.13
321.986	5423.2
322.05	5367.57
322.115	5326.88
322.179	5283.99
322.244	5224.83
322.308	5187.41
322.373	5144.68
322.437	5106.26
322.502	5078.04
322.566	5032.44
322.631	4993.31
322.695	4949.78
322.76	4909.04
322.824	4870.07
322.889	4827.08
322.953	4781.38
323.018	4711.63
323.082	4651.28
323.146	4597.12
323.211	4540.03
323.275	4491.74
323.34	4444.38
323.404	4411.43
323.468	4367.32
323.533	4319.54
323.597	4277.23
323.662	4223.72
323.726	4184.27
323.79	4134.73
323.855	4069.78
323.919	4020.02
323.983	3971.26
324.048	3904.44
324.112	4036.99
324.177	3906.8
324.241	3703.77
324.305	3505.95
324.37	3312.19
324.434	3121.63
324.498	3078.6
324.562	3029.15
324.627	2970.58
324.691	2913.27
324.755	2843.09
324.82	2766.02
324.884	2688.34
324.948	2612.51
325.012	2522.13
325.077	2403.1
