Data from 20250703_urea_0.1M_MAYP1162681_23-11-05-246.txt Node
Date: Thu Jul 03 23:11:05 BST 2025
User: adleo
Spectrometer: MAYP116268
Trigger mode: 0
Integration Time (sec): 1.000000E0
Scans to average: 1
Electric dark correction enabled: true
Nonlinearity correction enabled: true
Boxcar width: 10
XAxis mode: Wavelengths
Number of Pixels in Spectrum: 2068
>>>>>Begin Spectral Data<<<<<
179.565	1370.65
179.642	1434.34
179.718	1484.63
179.795	1530.16
179.871	1567.28
179.948	1590.97
180.024	1614.04
180.101	1641.1
180.177	1658.58
180.254	1686.39
180.33	1711.94
180.407	1777.72
180.483	1884.67
180.56	1988.5
180.636	2086.7
180.712	2073.61
180.789	2087.22
180.865	2103.2
180.942	2113.18
181.018	2121.41
181.095	2135.26
181.171	2138.54
181.248	2139.83
181.324	2158.15
181.4	2167.28
181.477	2178.56
181.553	2194.4
181.63	2219.05
181.706	2235.51
181.782	2245.64
181.859	2244.36
181.935	2250.07
182.011	2248.02
182.088	2267.96
182.164	2285.67
182.24	2299.09
182.317	2307.13
182.393	2306.08
182.469	2318.03
182.546	2335.26
182.622	2341.06
182.698	2335.35
182.775	2349.63
182.851	2365.38
182.927	2356.63
183.003	2350.77
183.08	2346.49
183.156	2350.68
183.232	2344.73
183.308	2333.4
183.385	2341.54
183.461	2359.24
183.537	2357.58
183.613	2371.24
183.69	2361.48
183.766	2352.29
183.842	2360.19
183.918	2367.48
183.995	2384.57
184.071	2389.33
184.147	2380.85
184.223	2369.29
184.299	2386.15
184.375	2374.25
184.452	2380.49
184.528	2431.77
184.604	2442.19
184.68	2453.42
184.756	2462.18
184.832	2468.56
184.908	2475.46
184.985	2473.46
185.061	2455.85
185.137	2469.14
185.213	2458.09
185.289	2458.47
185.365	2450.76
185.441	2450.48
185.517	2464.43
185.593	2458.05
185.669	2452.67
185.745	2464.86
185.822	2483.51
185.898	2472.04
185.974	2484.22
186.05	2476.93
186.126	2442.56
186.202	2435.04
186.278	2431.18
186.354	2422.8
186.43	2429.09
186.506	2425.04
186.582	2426.09
186.658	2437.99
186.734	2411.67
186.81	2415.57
186.886	2419.71
186.962	2436.95
187.038	2430.23
187.114	2421.47
187.19	2428.42
187.266	2420.33
187.341	2422.23
187.417	2414.9
187.493	2417.24
187.569	2418.24
187.645	2410.1
187.721	2396.95
187.797	2407.33
187.873	2413
187.949	2407.09
188.025	2398.28
188.101	2402.09
188.176	2408.85
188.252	2400.95
188.328	2415.37
188.404	2413.7
188.48	2408.56
188.556	2401.37
188.632	2402.99
188.707	2402.61
188.783	2398.32
188.859	2392.85
188.935	2379.95
189.011	2389.42
189.086	2381.33
189.162	2373.19
189.238	2373.52
189.314	2372.24
189.39	2364.19
189.465	2353.57
189.541	2372.1
189.617	2357.2
189.693	2353.06
189.768	2353.15
189.844	2380.63
189.92	2367.12
189.996	2374.93
190.071	2385.26
190.147	2378.55
190.223	2388.64
190.298	2380.21
190.374	2368.5
190.45	2383.07
190.526	2392.21
190.601	2383.78
190.677	2386.11
190.753	2419.51
190.828	2423.98
190.904	2439.08
190.98	2454.41
191.055	2470.88
191.131	2459.74
191.207	2482.16
191.282	2493.63
191.358	2486.35
191.433	2468.34
191.509	2485.23
191.585	2482.8
191.66	2486.28
191.736	2497.13
191.811	2488.37
191.887	2509
191.963	2532.99
192.038	2535.71
192.114	2538.09
192.189	2541.23
192.265	2537.04
192.34	2510.12
192.416	2504.79
192.491	2506.22
192.567	2509.79
192.642	2510.7
192.718	2512.89
192.793	2499.65
192.869	2490.23
192.944	2491.32
193.02	2499.7
193.095	2503.46
193.171	2509.7
193.246	2508.61
193.322	2505.85
193.397	2503.18
193.473	2487.03
193.548	2467.55
193.624	2474.46
193.699	2470.6
193.775	2489.65
193.85	2493.37
193.925	2504.03
194.001	2505.89
194.076	2490.37
194.152	2481.7
194.227	2472.65
194.302	2463.27
194.378	2468.27
194.453	2470.03
194.529	2481.6
194.604	2466.65
194.679	2463.08
194.755	2445.61
194.83	2457.9
194.905	2455.47
194.981	2470.28
195.056	2462.38
195.131	2468.19
195.207	2466.57
195.282	2456.81
195.357	2436.8
195.433	2451.37
195.508	2438.61
195.583	2445.7
195.659	2462.42
195.734	2468.99
195.809	2469.8
195.884	2478.7
195.96	2479.75
196.035	2495.18
196.11	2493.18
196.185	2506.94
196.261	2508.46
196.336	2539.42
196.411	2525.03
196.486	2531.46
196.561	2519.46
196.637	2530.5
196.712	2550.08
196.787	2555.32
196.862	2571.6
196.937	2583.18
197.013	2588.08
197.088	2600.18
197.163	2624.81
197.238	2644.93
197.313	2643.55
197.388	2657.88
197.464	2689
197.539	2699.91
197.614	2690.81
197.689	2703.72
197.764	2720.92
197.839	2745.03
197.914	2737.45
197.989	2763.62
198.065	2777.15
198.14	2833.31
198.215	2860.28
198.29	2873.92
198.365	2891.46
198.44	2904.33
198.515	2936.46
198.59	2957.91
198.665	2985.99
198.74	2995.29
198.815	2995.34
198.89	3019.79
198.965	3052.27
199.04	3050.75
199.115	3072.48
199.19	3121.78
199.265	3124.88
199.34	3136.52
199.415	3173.69
199.49	3200.96
199.565	3209.21
199.64	3238.16
199.715	3235.25
199.79	3244.65
199.865	3252.23
199.94	3244.89
200.015	3280.72
200.09	3284.49
200.165	3292.13
200.24	3297.52
200.315	3341.07
200.39	3356.48
200.464	3365.36
200.539	3370.56
200.614	3386.68
200.689	3411.65
200.764	3417.52
200.839	3437.45
200.914	3443.61
200.989	3431.86
201.063	3445.08
201.138	3425.29
201.213	3425.72
201.288	3403.11
201.363	3407.78
201.438	3407.5
201.512	3423.81
201.587	3403.38
201.662	3409.01
201.737	3419.37
201.812	3431.64
201.886	3399.25
201.961	3410.95
202.036	3398.21
202.111	3392.53
202.186	3362.73
202.26	3343.68
202.335	3319.15
202.41	3313.14
202.485	3292.63
202.559	3268.39
202.634	3241.72
202.709	3255.31
202.784	3237.18
202.858	3242.19
202.933	3223.49
203.008	3218.86
203.082	3200.74
203.157	3203.36
203.232	3162.21
203.306	3147.27
203.381	3114.92
203.456	3096.75
203.53	3081.66
203.605	3070.74
203.68	3053.66
203.754	3053.95
203.829	3049.94
203.904	3040.83
203.978	3043.94
204.053	3066.59
204.127	3070.98
204.202	3087.15
204.277	3089.49
204.351	3100.36
204.426	3118.4
204.5	3137.19
204.575	3127.18
204.65	3169.79
204.724	3190.08
204.799	3227.99
204.873	3252.57
204.948	3287.31
205.022	3306.44
205.097	3331.99
205.171	3385.92
205.246	3435.77
205.32	3479.61
205.395	3521.25
205.469	3558.42
205.544	3613.32
205.618	3644.89
205.693	3712.86
205.767	3755.42
205.842	3834.75
205.916	3886.45
205.991	3932.71
206.065	4002.6
206.14	4082.1
206.214	4143.09
206.289	4210.25
206.363	4296.24
206.438	4374.57
206.512	4461.42
206.586	4561.7
206.661	4652.28
206.735	4714.88
206.81	4807.42
206.884	4916.09
206.958	4995.91
207.033	5110.87
207.107	5214.89
207.181	5346.54
207.256	5442.55
207.33	5565.21
207.405	5682.37
207.479	5808.96
207.553	5927.4
207.628	6014.39
207.702	6144.84
207.776	6255.65
207.851	6372.38
207.925	6503.94
207.999	6618.22
208.073	6733.33
208.148	6863.46
208.222	6975.97
208.296	7133.86
208.371	7278.08
208.445	7412.04
208.519	7576.85
208.593	7718.19
208.668	7838.8
208.742	7970.08
208.816	8096.74
208.89	8239.19
208.965	8365.08
209.039	8500.19
209.113	8651.29
209.187	8805.38
209.261	8928.05
209.336	9081.32
209.41	9232.77
209.484	9364.08
209.558	9526.69
209.632	9674.37
209.707	9821.07
209.781	9981.4
209.855	10131.84
209.929	10276.96
210.003	10418.88
210.077	10540.63
210.151	10725.71
210.226	10897.63
210.3	11060.56
210.374	11215.04
210.448	11353.49
210.522	11499.37
210.596	11648.19
210.67	11781.88
210.744	11961.17
210.818	12127.54
210.892	12276.34
210.966	12398.72
211.041	12542.07
211.115	12662.86
211.189	12814.22
211.263	12952.71
211.337	13079.97
211.411	13218.99
211.485	13335.27
211.559	13466.82
211.633	13597.16
211.707	13680.8
211.781	13811.29
211.855	13892.66
211.929	14016.65
212.003	14114.41
212.077	14237.38
212.151	14359.1
212.225	14487.18
212.299	14591.78
212.373	14685.93
212.447	14791.25
212.52	14934.46
212.594	15045.86
212.668	15168.44
212.742	15260.7
212.816	15353.58
212.89	15454.76
212.964	15558.68
213.038	15663.61
213.112	15784.21
213.186	15896.47
213.26	15977.68
213.333	16024.73
213.407	16126.96
213.481	16212.32
213.555	16319.27
213.629	16394.32
213.703	16474.47
213.777	16572.16
213.85	16647.44
213.924	16780.03
213.998	16873.09
214.072	16952.47
214.146	17032.18
214.219	17105.77
214.293	17187.66
214.367	17281.39
214.441	17385.83
214.515	17452.57
214.588	17516.82
214.662	17561.25
214.736	17628.33
214.81	17713.06
214.883	17800.82
214.957	17873.44
215.031	17946.36
215.105	17998.89
215.178	18066.98
215.252	18132.71
215.326	18173.92
215.4	18222.11
215.473	18232.18
215.547	18277.19
215.621	18328.75
215.694	18400.32
215.768	18449.86
215.842	18500.36
215.915	18542.96
215.989	18561.8
216.063	18609.22
216.136	18660.93
216.21	18716.49
216.284	18788.39
216.357	18852.43
216.431	18905.2
216.504	18973.29
216.578	19060.71
216.652	19130.2
216.725	19189.67
216.799	19254.72
216.873	19305.76
216.946	19370.48
217.02	19429.75
217.093	19482.76
217.167	19518.56
217.24	19550.61
217.314	19592.87
217.387	19633.11
217.461	19682.22
217.535	19755.9
217.608	19795.47
217.682	19859.46
217.755	19922.74
217.829	19952.95
217.902	19985.92
217.976	20032.08
218.049	20062.15
218.123	20081.62
218.196	20127.07
218.27	20174.59
218.343	20196.66
218.417	20240.95
218.49	20294.49
218.563	20357.53
218.637	20404.9
218.71	20468.71
218.784	20518.3
218.857	20570.54
218.931	20626.92
219.004	20679.07
219.077	20723.89
219.151	20773.34
219.224	20805.29
219.298	20845.49
219.371	20900.09
219.444	20953.3
219.518	21004
219.591	21041.06
219.665	21114.13
219.738	21153.89
219.811	21178.76
219.885	21241.61
219.958	21294.29
220.031	21327.36
220.105	21359.07
220.178	21399.7
220.251	21436.53
220.325	21484.2
220.398	21535
220.471	21586.67
220.544	21630.05
220.618	21656.46
220.691	21704.23
220.764	21734.55
220.838	21766.36
220.911	21784.2
220.984	21824.78
221.057	21859.39
221.131	21908.9
221.204	21908.32
221.277	21966.89
221.35	22033.12
221.424	22051.29
221.497	22082
221.57	22107.45
221.643	22152.04
221.716	22188.29
221.79	22203.28
221.863	22237.08
221.936	22256.41
222.009	22280.95
222.082	22295.22
222.155	22314.31
222.229	22343.95
222.302	22378.42
222.375	22403.3
222.448	22443.26
222.521	22466.11
222.594	22492.34
222.667	22495.38
222.74	22529.6
222.814	22542.82
222.887	22562.92
222.96	22603.47
223.033	22636.83
223.106	22658.38
223.179	22680.9
223.252	22701.05
223.325	22725.64
223.398	22740.39
223.471	22751.62
223.544	22764.11
223.617	22794.15
223.69	22816.9
223.763	22825.44
223.837	22840.53
223.91	22865.74
223.983	22862.61
224.056	22859.57
224.129	22871.38
224.202	22901.32
224.275	22904.7
224.348	22899.11
224.42	22887.53
224.493	22873.26
224.566	22867.81
224.639	22880.3
224.712	22878.66
224.785	22874.95
224.858	22887.05
224.931	22881.17
225.004	22884.59
225.077	22883.14
225.15	22857.35
225.223	22862.94
225.296	22897.71
225.369	22884.5
225.442	22875.58
225.514	22873.27
225.587	22886.81
225.66	22883.54
225.733	22882.91
225.806	22884.98
225.879	22885.03
225.952	22870.71
226.025	22888.36
226.097	22906.1
226.17	22903.4
226.243	22880.5
226.316	22878.04
226.389	22874.38
226.461	22877.61
226.534	22880.98
226.607	22879.87
226.68	22911.16
226.753	22908.56
226.825	22875.82
226.898	22895.59
226.971	22887.2
227.044	22897.18
227.117	22899.15
227.189	22904.46
227.262	22906.48
227.335	22900.36
227.407	22891.58
227.48	22892.45
227.553	22888.79
227.626	22885.61
227.698	22881.27
227.771	22881.03
227.844	22874.32
227.916	22861.31
227.989	22838.21
228.062	22830.06
228.134	22840.96
228.207	22823.27
228.28	22798.1
228.352	22780.6
228.425	22759.14
228.498	22760.68
228.57	22740.34
228.643	22731.37
228.716	22718.74
228.788	22700.9
228.861	22692.56
228.934	22699.5
229.006	22691.55
229.079	22669.8
229.151	22641.11
229.224	22613.83
229.296	22609.2
229.369	22624.87
229.442	22629.5
229.514	22618.7
229.587	22617.78
229.659	22589.92
229.732	22584.52
229.804	22592.33
229.877	22610.07
229.949	22618.36
230.022	22626.32
230.094	22620.82
230.167	22619.04
230.239	22594.74
230.312	22582.21
230.384	22597.1
230.457	22588.57
230.529	22579.46
230.602	22575.79
230.674	22573.72
230.747	22577.72
230.819	22583.89
230.892	22535.88
230.964	22523.49
231.037	22518.23
231.109	22504.64
231.181	22499.38
231.254	22467.66
231.326	22454.64
231.399	22437.09
231.471	22406.96
231.544	22363.77
231.616	22352.05
231.688	22325.44
231.761	22313.73
231.833	22287.26
231.905	22233.8
231.978	22208.2
232.05	22190.12
232.122	22169.2
232.195	22144.57
232.267	22146.64
232.339	22122.39
232.412	22128.76
232.484	22105.13
232.556	22073.75
232.629	22078.82
232.701	22063.29
232.773	22048.11
232.846	22018.71
232.918	21981.25
232.99	21963.37
233.062	21959.51
233.135	21943.46
233.207	21912.08
233.279	21884.89
233.351	21875.11
233.424	21849.8
233.496	21818.13
233.568	21815.58
233.64	21787.09
233.713	21757.74
233.785	21719.22
233.857	21688.42
233.929	21637.86
234.001	21636.89
234.074	21631.78
234.146	21580.01
234.218	21556.88
234.29	21533.07
234.362	21498.61
234.434	21466.02
234.507	21422.89
234.579	21378.11
234.651	21345.91
234.723	21325.09
234.795	21305.57
234.867	21281.09
234.939	21277.47
235.012	21254.05
235.084	21228.79
235.156	21195.2
235.228	21162.81
235.3	21132.4
235.372	21109.5
235.444	21094.66
235.516	21032.92
235.588	21008.14
235.66	20981.63
235.732	20937.54
235.804	20969.83
235.876	20957.01
235.948	20942.41
236.02	20918.02
236.092	20883.95
236.164	20850.31
236.236	20813.44
236.308	20783.61
236.38	20751.36
236.452	20704.47
236.524	20679.41
236.596	20662.2
236.668	20653.43
236.74	20623.46
236.812	20595.6
236.884	20561.58
236.956	20539.5
237.028	20503.99
237.1	20455.31
237.172	20442.88
237.244	20433.48
237.316	20351.69
237.388	20308.03
237.46	20270
237.532	20255.07
237.604	20219.98
237.675	20214.58
237.747	20201.43
237.819	20167.45
237.891	20134.15
237.963	20103.31
238.035	20067.12
238.107	19994.93
238.178	19958.06
238.25	19926.64
238.322	19914.02
238.394	19867.7
238.466	19825.25
238.538	19798.41
238.609	19777.3
238.681	19723.61
238.753	19676.68
238.825	19650.03
238.897	19623.43
238.968	19607.47
239.04	19566.99
239.112	19564.39
239.184	19507.72
239.255	19465.7
239.327	19430.71
239.399	19396.5
239.471	19370.52
239.542	19340.12
239.614	19316.65
239.686	19264.89
239.758	19240.22
239.829	19180.9
239.901	19164.66
239.973	19125.09
240.044	19093.34
240.116	19052.76
240.188	19009.15
240.259	18976.86
240.331	18934.02
240.403	18903.76
240.474	18848.92
240.546	18803.38
240.618	18741.5
240.689	18699.48
240.761	18664.45
240.833	18645.56
240.904	18607.49
240.976	18565.9
241.048	18531.78
241.119	18509.37
241.191	18477.66
241.262	18462.67
241.334	18436.94
241.405	18399.64
241.477	18363.74
241.549	18323.36
241.62	18293
241.692	18275.26
241.763	18249.63
241.835	18213.72
241.906	18179.7
241.978	18131.9
242.049	18112.86
242.121	18085.68
242.192	18065.73
242.264	18012.24
242.335	17963.47
242.407	17941.97
242.478	17901.25
242.55	17871.37
242.621	17829.25
242.693	17797.69
242.764	17747.57
242.836	17711.23
242.907	17682.03
242.979	17656.39
243.05	17628.68
243.122	17599.48
243.193	17556.87
243.264	17492.15
243.336	17446.03
243.407	17412.2
243.479	17398.13
243.55	17366.27
243.622	17339.86
243.693	17301.26
243.764	17287.91
243.836	17239.33
243.907	17195.72
243.978	17163.96
244.05	17137.45
244.121	17083.42
244.192	17061.21
244.264	17005.16
244.335	16966.46
244.407	16905.1
244.478	16868.38
244.549	16826.45
244.62	16774.21
244.692	16730.15
244.763	16714.39
244.834	16682.59
244.906	16655.89
244.977	16626.68
245.048	16606.24
245.119	16560.8
245.191	16519.44
245.262	16458.09
245.333	16449.65
245.405	16413.65
245.476	16387.24
245.547	16351.19
245.618	16333.35
245.689	16296.2
245.761	16281.54
245.832	16252.67
245.903	16239.8
245.974	16210.02
246.045	16178.3
246.117	16167.17
246.188	16125.96
246.259	16080.89
246.33	16050.43
246.401	16006.62
246.473	15958.42
246.544	15914.85
246.615	15896.58
246.686	15863.66
246.757	15853.15
246.828	15803.17
246.899	15785.72
246.97	15734.48
247.042	15692.6
247.113	15660.98
247.184	15648.4
247.255	15600.68
247.326	15559.57
247.397	15518.93
247.468	15491.17
247.539	15466.39
247.61	15425.23
247.681	15417.66
247.752	15400.65
247.823	15354.95
247.894	15324.73
247.965	15280.53
248.037	15243.89
248.108	15201.04
248.179	15166.67
248.25	15129.36
248.321	15103.48
248.392	15062.02
248.463	15058.12
248.534	15022.4
248.605	15006.98
248.675	14970.83
248.746	14947.78
248.817	14924.74
248.888	14908.64
248.959	14861.21
249.03	14834.7
249.101	14809.63
249.172	14767.7
249.243	14720.02
249.314	14719.15
249.385	14697.32
249.456	14681.46
249.527	14654.8
249.598	14631.37
249.669	14606.21
249.739	14586.11
249.81	14568.51
249.881	14529.32
249.952	14504.35
250.023	14475.53
250.094	14428.72
250.165	14396.57
250.235	14370.73
250.306	14349.33
250.377	14309.94
250.448	14288.49
250.519	14246.6
250.59	14230.55
250.66	14200.51
250.731	14193.28
250.802	14160.7
250.873	14133.03
250.944	14106.42
251.014	14075.18
251.085	14073.25
251.156	14044.91
251.227	14033.34
251.297	14015.69
251.368	14007.5
251.439	13993.95
251.51	13989.42
251.58	13961.94
251.651	13930.42
251.722	13920.49
251.792	13880.67
251.863	13848.03
251.934	13842.2
252.005	13840.9
252.075	13809.08
252.146	13798.14
252.217	13782.09
252.287	13765.45
252.358	13739.04
252.429	13738.75
252.499	13707.41
252.57	13690.93
252.641	13688.95
252.711	13663.88
252.782	13629.46
252.852	13626.09
252.923	13591.72
252.994	13567.04
253.064	13551.71
253.135	13509.24
253.205	13478.34
253.276	13473.9
253.347	13473.47
253.417	13444.74
253.488	13414.12
253.558	13392.82
253.629	13366.4
253.699	13349.09
253.77	13338.2
253.841	13309.56
253.911	13284.93
253.982	13266.76
254.052	13249.11
254.123	13232.63
254.193	13210.84
254.264	13231.66
254.334	13192.62
254.405	13163.02
254.475	13127.97
254.546	13103.53
254.616	13111.1
254.687	13095.43
254.757	13078.7
254.827	13048
254.898	13023.65
254.968	13006.15
255.039	12975.98
255.109	12965.23
255.18	12933.41
255.25	12883.62
255.321	12869.59
255.391	12841.29
255.461	12842.16
255.532	12786.72
255.602	12752.98
255.673	12712.29
255.743	12668.81
255.813	12615.69
255.884	12612.99
255.954	12599.73
256.024	12598.05
256.095	12573.51
256.165	12536.92
256.235	12521.79
256.306	12497.01
256.376	12489.01
256.446	12481.39
256.517	12468.81
256.587	12461.39
256.657	12447.36
256.728	12436.9
256.798	12418.63
256.868	12383.39
256.938	12352.35
257.009	12347.38
257.079	12344.2
257.149	12349.36
257.219	12311.42
257.29	12307.76
257.36	12258.11
257.43	12249.1
257.5	12205.52
257.571	12178.43
257.641	12168.89
257.711	12134.28
257.781	12128.5
257.852	12116.44
257.922	12070.65
257.992	12048.96
258.062	12021.58
258.132	12010.54
258.202	11989.53
258.273	11975.26
258.343	11985.29
258.413	11955.5
258.483	11930.96
258.553	11887.39
258.623	11858.81
258.693	11847.19
258.764	11845.02
258.834	11844.88
258.904	11828.3
258.974	11809.11
259.044	11790.32
259.114	11773.59
259.184	11755.52
259.254	11725.97
259.324	11680.33
259.394	11673.24
259.464	11676.52
259.535	11653.62
259.605	11620.22
259.675	11588.12
259.745	11572.12
259.815	11536.5
259.885	11513.23
259.955	11529.28
260.025	11512.07
260.095	11492.12
260.165	11479.15
260.235	11475.63
260.305	11447.44
260.375	11420.35
260.445	11418.57
260.515	11417.08
260.585	11411.29
260.655	11397.56
260.725	11395.53
260.795	11392.11
260.865	11389.75
260.934	11362.76
261.004	11357.7
261.074	11348.2
261.144	11351.96
261.214	11349.65
261.284	11327.62
261.354	11329.12
261.424	11295.62
261.494	11290.66
261.564	11276.1
261.634	11268.73
261.703	11234.75
261.773	11228.44
261.843	11219.67
261.913	11206.03
261.983	11168.87
262.053	11160.49
262.123	11144.83
262.192	11108.01
262.262	11096.11
262.332	11072.25
262.402	11063.86
262.472	11047.19
262.541	11006.86
262.611	11001.41
262.681	10969.65
262.751	10971.2
262.821	10950.62
262.89	10923.34
262.96	10916.07
263.03	10921.46
263.1	10908.45
263.169	10895.15
263.239	10886.62
263.309	10880.55
263.379	10873.13
263.448	10866.53
263.518	10855.54
263.588	10840.02
263.657	10847.16
263.727	10850.63
263.797	10831.98
263.867	10809.81
263.936	10783.98
264.006	10788.66
264.076	10769.72
264.145	10756.66
264.215	10731.6
264.285	10727.17
264.354	10693.69
264.424	10673.11
264.494	10637.6
264.563	10611.14
264.633	10622.56
264.702	10611.19
264.772	10579.87
264.842	10556.6
264.911	10547.93
264.981	10517.86
265.05	10499.65
265.12	10483.75
265.19	10462.59
265.259	10462.4
265.329	10462.11
265.398	10449.83
265.468	10466.55
265.537	10443.18
265.607	10437.16
265.676	10438.31
265.746	10422.46
265.815	10427.57
265.885	10409.94
265.955	10384.79
266.024	10370.82
266.094	10318.11
266.163	10316.43
266.232	10327.75
266.302	10313.15
266.371	10297.83
266.441	10281.98
266.51	10273.45
266.58	10257.41
266.649	10238.28
266.719	10227.3
266.788	10212.75
266.858	10221.13
266.927	10170.26
266.996	10166.64
267.066	10156.58
267.135	10129.12
267.205	10131.91
267.274	10117.55
267.343	10122.81
267.413	10124.68
267.482	10125.5
267.552	10137.5
267.621	10107.63
267.69	10067.55
267.76	10054.3
267.829	10044.19
267.898	10032.14
267.968	10008.88
268.037	10007.87
268.106	10007.58
268.176	9984.31
268.245	9968.7
268.314	9948.66
268.384	9956.37
268.453	9943.22
268.522	9936.19
268.592	9933.68
268.661	9911.43
268.73	9903.72
268.799	9876.7
268.869	9878.29
268.938	9849.87
269.007	9831.85
269.076	9828.82
269.146	9831.66
269.215	9823.38
269.284	9835.08
269.353	9826.51
269.422	9823.04
269.492	9803.05
269.561	9755.52
269.63	9753.3
269.699	9740.49
269.768	9730.9
269.838	9726.57
269.907	9725.8
269.976	9698.59
270.045	9671.33
270.114	9666.37
270.183	9650.33
270.253	9649.61
270.322	9616.33
270.391	9604.77
270.46	9612.33
270.529	9609.35
270.598	9605.49
270.667	9591.77
270.736	9561.09
270.806	9550.4
270.875	9549.77
270.944	9535.13
271.013	9562.48
271.082	9554.49
271.151	9549.48
271.22	9513.99
271.289	9495.5
271.358	9480.76
271.427	9473.25
271.496	9463.04
271.565	9442.43
271.634	9435.83
271.703	9461.41
271.772	9466.51
271.841	9456.69
271.91	9425.63
271.979	9413.73
272.048	9390.19
272.117	9395.58
272.186	9387.01
272.255	9387.25
272.324	9385.47
272.393	9380.12
272.462	9361.29
272.531	9352.62
272.6	9336.83
272.669	9344.63
272.738	9334.32
272.807	9328.4
272.876	9303.94
272.945	9336.88
273.013	9346.42
273.082	9354.94
273.151	9307.26
273.22	9306.68
273.289	9301.34
273.358	9318
273.427	9305
273.496	9309.33
273.564	9302.54
273.633	9298.11
273.702	9282.42
273.771	9272.06
273.84	9268.02
273.909	9269.56
273.977	9260.99
274.046	9257.71
274.115	9260.22
274.184	9244.38
274.253	9238.31
274.322	9248.37
274.39	9209.51
274.459	9188.04
274.528	9158.19
274.597	9146.64
274.665	9137.58
274.734	9149.52
274.803	9135.32
274.872	9128.92
274.94	9110.48
275.009	9177.91
275.078	9164.34
275.147	9161.93
275.215	9162.41
275.284	9172.28
275.353	9161.45
275.421	9136.27
275.49	9143.11
275.559	9128.67
275.627	9119.33
275.696	9105.8
275.765	9105.7
275.833	9103.97
275.902	9103.49
275.971	9114.42
276.039	9134.78
276.108	9140.56
276.177	9137.19
276.245	9126.02
276.314	9124.29
276.383	9133.58
276.451	9059.49
276.52	9067.05
276.588	9077.07
276.657	9081.06
276.725	9066.04
276.794	9057.14
276.863	9069.55
276.931	9049.62
277	9067.2
277.068	9080.14
277.137	9098.58
277.205	9100.51
277.274	9119
277.342	9132.48
277.411	9117.02
277.48	9099.45
277.548	9081.49
277.617	9075.81
277.685	9067.15
277.754	9067.92
277.822	9057.28
277.89	9072.64
277.959	9064.89
278.027	9047.12
278.096	9029.84
278.164	9058.54
278.233	9054.45
278.301	9050.4
278.37	9058.35
278.438	9034.9
278.507	9032.97
278.575	9008.13
278.643	9005.25
278.712	8976.75
278.78	8957.1
278.849	8963.79
278.917	8976.31
278.985	8983.58
279.054	8986.23
279.122	8999.8
279.191	8995.86
279.259	8988.35
279.327	8959.07
279.396	8974.72
279.464	8968.13
279.532	8977.03
279.601	8969.47
279.669	8967.21
279.737	8977.66
279.806	8974.67
279.874	8987.04
279.942	8991.57
280.011	8982.81
280.079	8989.31
280.147	9011.64
280.215	9018
280.284	9012.9
280.352	8993.74
280.42	8995.76
280.488	8984.78
280.557	8973.23
280.625	8971.78
280.693	8974.53
280.761	8986.03
280.83	8965.96
280.898	8978.62
280.966	8959.27
281.034	8923.69
281.102	8909.68
281.171	8893.36
281.239	8903.23
281.307	8895.19
281.375	8877.43
281.443	8907.33
281.512	8899.53
281.58	8902.61
281.648	8888.7
281.716	8882.01
281.784	8887.35
281.852	8886.43
281.92	8881.67
281.989	8896.45
282.057	8881.86
282.125	8928.28
282.193	8919.57
282.261	8919.28
282.329	8914.99
282.397	8917.3
282.465	8927.22
282.533	8937.71
282.601	8936.27
282.67	8910.8
282.738	8904.45
282.806	8917.73
282.874	8902.18
282.942	8907.04
283.01	8904.39
283.078	8913.59
283.146	8919.22
283.214	8923.89
283.282	8921.14
283.35	8938.52
283.418	8932.99
283.486	8939.2
283.554	8890.76
283.622	8890.57
283.69	8886.28
283.758	8875.55
283.826	8883.01
283.894	8885.51
283.962	8913.97
284.03	8929.9
284.098	8932.79
284.165	8919.7
284.233	8922.2
284.301	8918.93
284.369	8913.78
284.437	8900.54
284.505	8889.51
284.573	8902.27
284.641	8893.03
284.709	8895.34
284.777	8871.22
284.845	8874.49
284.912	8882.92
284.98	8892.59
285.048	8888.36
285.116	8898.66
285.184	8922.05
285.252	8919.98
285.319	8907.47
285.387	8893.46
285.455	8873.39
285.523	8883.16
285.591	8885.66
285.659	8886.86
285.726	8899.33
285.794	8879.5
285.862	8876.95
285.93	8883.54
285.997	8882.73
286.065	8878.06
286.133	8874.3
286.201	8880.08
286.269	8865.15
286.336	8848.02
286.404	8839.55
286.472	8848.21
286.539	8818.52
286.607	8796.81
286.675	8793.77
286.743	8805.13
286.81	8795.12
286.878	8813.85
286.946	8807.78
287.013	8806.87
287.081	8799.55
287.149	8780.34
287.216	8797.96
287.284	8792.28
287.352	8788.57
287.419	8781.5
287.487	8799.31
287.555	8797.14
287.622	8792.37
287.69	8801.33
287.758	8820.58
287.825	8813.12
287.893	8802.1
287.96	8817.11
288.028	8825.2
288.096	8828.28
288.163	8823.61
288.231	8813.65
288.298	8808.3
288.366	8820.48
288.433	8822.55
288.501	8814.37
288.569	8823.85
288.636	8813.6
288.704	8827.51
288.771	8834.88
288.839	8825.63
288.906	8821.35
288.974	8833.14
289.041	8830.93
289.109	8815.05
289.176	8825.93
289.244	8834.69
289.311	8848.12
289.379	8860.39
289.446	8868.57
289.514	8871.66
289.581	8874.21
289.649	8879.21
289.716	8885.57
289.783	8873.39
289.851	8893.46
289.918	8898.42
289.986	8904.58
290.053	8915.84
290.121	8916.52
290.188	8918.78
290.255	8949.97
290.323	8939.67
290.39	8936.4
290.458	8937.6
290.525	8958.59
290.592	8942.94
290.66	8946.84
290.727	8938.08
290.794	8951.03
290.862	8946.84
290.929	8951.17
290.996	8949.06
291.064	8957.19
291.131	8963.74
291.198	8977.84
291.266	8976.59
291.333	8978.37
291.4	8986.32
291.468	9005.05
291.535	9001.15
291.602	9005.57
291.669	8996.09
291.737	8997.77
291.804	8992.96
291.871	9015.49
291.938	9018.47
292.006	9058.58
292.073	9070.33
292.14	9083.04
292.207	9075.48
292.275	9071.82
292.342	9074.47
292.409	9101.53
292.476	9127.67
292.543	9121.94
292.611	9125.65
292.678	9140.53
292.745	9164.89
292.812	9169.37
292.879	9156.46
292.946	9157.57
293.014	9170.95
293.081	9175.19
293.148	9191.7
293.215	9216.31
293.282	9211.25
293.349	9225.31
293.416	9199.4
293.484	9214.23
293.551	9222.47
293.618	9241.05
293.685	9274.95
293.752	9270.71
293.819	9264.16
293.886	9254.68
293.953	9254.87
294.02	9266.19
294.087	9274.13
294.154	9269.85
294.221	9287.18
294.288	9296.67
294.356	9321.08
294.423	9327.96
294.49	9320.02
294.557	9337.45
294.624	9320.79
294.691	9339.91
294.758	9331.77
294.825	9335.38
294.892	9326.86
294.959	9326.86
295.026	9337.26
295.093	9326.95
295.16	9326.57
295.226	9333.65
295.293	9358.98
295.36	9368.75
295.427	9380.89
295.494	9393.89
295.561	9402.27
295.628	9427.41
295.695	9441.86
295.762	9438.78
295.829	9446.48
295.896	9464.3
295.963	9476.58
296.03	9494.73
296.096	9499.16
296.163	9517.46
296.23	9537.3
296.297	9550.83
296.364	9556.52
296.431	9556.71
296.498	9549.58
296.564	9583.24
296.631	9583
296.698	9565.85
296.765	9584.11
296.832	9570.43
296.899	9548.9
296.965	9570.82
297.032	9541.77
297.099	9562.1
297.166	9575.2
297.233	9565.8
297.299	9565.85
297.366	9561.81
297.433	9562.77
297.5	9574.96
297.566	9572.98
297.633	9573.03
297.7	9575
297.767	9571.87
297.833	9573.94
297.9	9583.82
297.967	9567.35
298.033	9582.95
298.1	9613.97
298.167	9600.19
298.234	9604.38
298.3	9627.11
298.367	9619.31
298.434	9630.1
298.5	9615.84
298.567	9609
298.634	9617.96
298.7	9633.18
298.767	9634.29
298.834	9641.22
298.9	9633.76
298.967	9628.03
299.033	9634.91
299.1	9653.07
299.167	9670.41
299.233	9669.69
299.3	9679.41
299.366	9700.51
299.433	9714.77
299.5	9683.07
299.566	9695.55
299.633	9716.06
299.699	9723.58
299.766	9721.41
299.832	9729.21
299.899	9741.74
299.965	9759.8
300.032	9750.94
300.099	9760.14
300.165	9767.7
300.232	9769.1
300.298	9771.31
300.365	9788.55
300.431	9788.02
300.498	9778.53
300.564	9788.99
300.631	9797.32
300.697	9814.37
300.763	9814.51
300.83	9815.09
300.896	9838.26
300.963	9853.05
301.029	9857.24
301.096	9859.07
301.162	9868.75
301.229	9864.7
301.295	9847.31
301.361	9844.76
301.428	9852.42
301.494	9836.28
301.561	9838.31
301.627	9840.33
301.693	9845.1
301.76	9851.5
301.826	9846.83
301.892	9863.74
301.959	9870.34
302.025	9874.24
302.092	9867.98
302.158	9872.84
302.224	9870.05
302.291	9856.61
302.357	9848.28
302.423	9844.81
302.49	9839.51
302.556	9852.13
302.622	9851.51
302.688	9869.81
302.755	9887.15
302.821	9897.6
302.887	9906.94
302.954	9906.27
303.02	9918.12
303.086	9921.73
303.152	9918.26
303.219	9918.41
303.285	9921.35
303.351	9920.72
303.417	9915.13
303.483	9905.36
303.55	9894.18
303.616	9900.78
303.682	9897.31
303.748	9896.35
303.815	9910.03
303.881	9921.78
303.947	9909.84
304.013	9911.67
304.079	9900.74
304.145	9874.82
304.212	9875.93
304.278	9869.43
304.344	9864.18
304.41	9850.4
304.476	9845.87
304.542	9841.78
304.608	9848.95
304.674	9829.35
304.741	9832.14
304.807	9839.22
304.873	9850.25
304.939	9866.2
305.005	9841.2
305.071	9840.96
305.137	9841.25
305.203	9812.97
305.269	9810.76
305.335	9822.17
305.401	9819.28
305.467	9818.22
305.533	9830.5
305.599	9839.22
305.666	9847.46
305.732	9847.03
305.798	9858.49
305.864	9887.59
305.93	9895.92
305.996	9887.35
306.062	9890.77
306.128	9883.92
306.194	9867.98
306.259	9865.96
306.325	9856.18
306.391	9868.27
306.457	9876.02
306.523	9875.88
306.589	9902.18
306.655	9889.99
306.721	9872.89
306.787	9860.13
306.853	9877.28
306.919	9861.82
306.985	9841.39
307.051	9835.28
307.117	9827.19
307.183	9824.1
307.248	9783.4
307.314	9784.07
307.38	9796.6
307.446	9806.57
307.512	9792.55
307.578	9802.67
307.644	9793.71
307.709	9798.86
307.775	9796.79
307.841	9797.99
307.907	9800.35
307.973	9779.79
308.039	9777.67
308.104	9784.27
308.17	9783.45
308.236	9771.45
308.302	9772.8
308.368	9768.03
308.433	9763.27
308.499	9761.77
308.565	9746.99
308.631	9761.05
308.696	9734.03
308.762	9715.05
308.828	9705.23
308.894	9686.49
308.959	9662.17
309.025	9656.2
309.091	9650.47
309.156	9646.38
309.222	9644.93
309.288	9629.95
309.354	9605.06
309.419	9604.62
309.485	9589.84
309.551	9599.9
309.616	9581.17
309.682	9578.04
309.748	9574.57
309.813	9571.39
309.879	9559.11
309.945	9550.11
310.01	9537.82
310.076	9542.25
310.141	9537.68
310.207	9522.12
310.273	9528.67
310.338	9535.89
310.404	9518.99
310.469	9500.35
310.535	9488.6
310.601	9467.22
310.666	9475.99
310.732	9484.27
310.797	9470.98
310.863	9458.5
310.928	9449.79
310.994	9450.32
311.059	9446.22
311.125	9440.06
311.191	9461.11
311.256	9451.96
311.322	9455.19
311.387	9429.14
311.453	9748.01
311.518	9722.68
311.584	9720.08
311.649	9723.07
311.715	9707.37
311.78	9709.73
311.846	9704.58
311.911	9711.94
311.976	9716.9
312.042	9698.03
312.107	9689.02
312.173	9682.14
312.238	9677.22
312.304	9669.66
312.369	9664.51
312.434	9652.38
312.5	9647.42
312.565	9598.49
312.631	9603.16
312.696	9592.37
312.761	9603.11
312.827	9278.94
312.892	9316.02
312.958	9308.99
313.023	9308.61
313.088	9314.14
313.154	9299.07
313.219	9288.63
313.284	9270.66
313.35	9263.1
313.415	9256.07
313.48	9251.21
313.546	9261.08
313.611	9269.75
313.676	9265.51
313.741	9252.71
313.807	9263.54
313.872	9268.02
313.937	9281.79
314.003	9293.58
314.068	9301.24
314.133	9304.13
314.198	9293.87
314.264	9272.78
314.329	9266.09
314.394	9256.26
314.459	9255.69
314.525	9278.65
314.59	9275.96
314.655	9265.89
314.72	9271.82
314.785	9271.67
314.851	9266.52
314.916	9245.72
314.981	9228.72
315.046	9215.44
315.111	9208.26
315.176	9194.97
315.242	9199.98
315.307	9194.44
315.372	9173.84
315.437	9156.98
315.502	9152.84
315.567	9162.09
315.632	9148.56
315.698	9153.33
315.763	9152.99
315.828	9139.32
315.893	9132.67
315.958	9128.05
316.023	9120.49
316.088	9098.3
316.153	9077.45
316.218	9072.35
316.283	9046.02
316.348	9034.56
316.413	9035.86
316.479	9019.4
316.544	8988.79
316.609	8953.31
316.674	8916.25
316.739	8879.28
316.804	8848.14
316.869	8808.58
316.934	8767.23
316.999	8738.3
317.064	8683.82
317.129	8641.17
317.194	8600.85
317.259	8548.86
317.324	8501.08
317.389	8461.58
317.454	8424.86
317.518	8386.27
317.583	8365.29
317.648	8351.14
317.713	8309.52
317.778	8245.58
317.843	8219.02
317.908	8175.58
317.973	8136.32
318.038	8113.04
318.103	8077.4
318.168	8049.6
318.233	8021.22
318.297	7970.76
318.362	7934.54
318.427	7898.33
318.492	7870.14
318.557	7825.81
318.622	7801.52
318.687	7774.6
318.751	7730.51
318.816	7696.61
318.881	7669.35
318.946	7605.63
319.011	7556.39
319.075	7517.64
319.14	7485.29
319.205	7438.23
319.27	7410.83
319.335	7367.14
319.399	7319.65
319.464	7296.49
319.529	7238
319.594	7197.77
319.658	7170.57
319.723	7128.52
319.788	7100.84
319.853	7048.36
319.917	7024.97
319.982	6973.26
320.047	6936.8
320.112	6911.77
320.176	6862.58
320.241	6830.15
320.306	6803.2
320.37	6758.92
320.435	6731.21
320.5	6706.38
320.564	6667.19
320.629	6624.6
320.694	6593.92
320.758	6558.39
320.823	6512.2
320.888	6495.25
320.952	6443.4
321.017	6402.98
321.082	6365.83
321.146	6330.78
321.211	6296.61
321.275	6251.74
321.34	6210.95
321.405	6168.57
321.469	6121.55
321.534	6079.24
321.598	6025.45
321.663	5994.54
321.727	5964.04
321.792	5910.69
321.857	5866.02
321.921	5831.73
321.986	5788.28
322.05	5730.17
322.115	5693.48
322.179	5650.96
322.244	5582.46
322.308	5550.19
322.373	5503.31
322.437	5458.35
322.502	5432.35
322.566	5383.41
322.631	5349.67
322.695	5303.2
322.76	5254.38
322.824	5222.18
322.889	5183.86
322.953	5137.69
323.018	5066.36
323.082	5004.11
323.146	4952.78
323.211	4895.07
323.275	4851.35
323.34	4804.1
323.404	4770.79
323.468	4726.4
323.533	4681.55
323.597	4639.61
323.662	4588.3
323.726	4554.13
323.79	4509.53
323.855	4442.56
323.919	4393.2
323.983	4347.36
324.048	4284.21
324.112	4429.17
324.177	4296.03
324.241	4072.29
324.305	3856
324.37	3645.45
324.434	3440.41
324.498	3396.33
324.562	3344.82
324.627	3277.36
324.691	3219.88
324.755	3149.44
324.82	3065.25
324.884	2982.95
324.948	2911.46
325.012	2811.41
325.077	2671.72
