Data from 20250703_urea_0.1M_MAYP1162681_16-01-05-316.txt Node
Date: Thu Jul 03 16:01:05 BST 2025
User: adleo
Spectrometer: MAYP116268
Trigger mode: 0
Integration Time (sec): 1.000000E0
Scans to average: 1
Electric dark correction enabled: true
Nonlinearity correction enabled: true
Boxcar width: 10
XAxis mode: Wavelengths
Number of Pixels in Spectrum: 2068
>>>>>Begin Spectral Data<<<<<
179.565	1293.73
179.642	1351.79
179.718	1398.7
179.795	1441.04
179.871	1477.94
179.948	1494.88
180.024	1518.22
180.101	1542.79
180.177	1556.85
180.254	1584.77
180.33	1608.18
180.407	1667.64
180.483	1769.69
180.56	1867.76
180.636	1958.11
180.712	1944.6
180.789	1955.54
180.865	1968.94
180.942	1977.17
181.018	1983.45
181.095	1997.53
181.171	2005.28
181.248	2008.27
181.324	2025.3
181.4	2032.77
181.477	2045.28
181.553	2062.35
181.63	2085.23
181.706	2100.55
181.782	2111.86
181.859	2107.87
181.935	2114.43
182.011	2111.67
182.088	2131.18
182.164	2151.36
182.24	2164.58
182.317	2174.57
182.393	2171.95
182.469	2186.27
182.546	2203.35
182.622	2211.25
182.698	2202.78
182.775	2215.48
182.851	2229.28
182.927	2219.76
183.003	2216.43
183.08	2207.35
183.156	2214.86
183.232	2209.2
183.308	2198.5
183.385	2207.34
183.461	2227
183.537	2227.47
183.613	2239.46
183.69	2228.09
183.766	2213.9
183.842	2224.18
183.918	2231.6
183.995	2245.88
184.071	2248.12
184.147	2239.26
184.223	2228.04
184.299	2243.41
184.375	2230.09
184.452	2238.75
184.528	2290.82
184.604	2300.91
184.68	2313.71
184.756	2324.18
184.832	2328.84
184.908	2334.89
184.985	2333.84
185.061	2315.95
185.137	2325.89
185.213	2314
185.289	2316.33
185.365	2312.57
185.441	2310
185.517	2321.71
185.593	2315.86
185.669	2314.62
185.745	2326.52
185.822	2345.02
185.898	2334.12
185.974	2344.83
186.05	2333.83
186.126	2299.99
186.202	2293.09
186.278	2291.19
186.354	2278.2
186.43	2285.34
186.506	2282.1
186.582	2278.44
186.658	2284.86
186.734	2262.02
186.81	2268.21
186.886	2268.64
186.962	2279.15
187.038	2277.11
187.114	2268.63
187.19	2277.29
187.266	2268.97
187.341	2269.35
187.417	2261.69
187.493	2262.68
187.569	2267.25
187.645	2263.83
187.721	2252.02
187.797	2258.97
187.873	2261.97
187.949	2257.45
188.025	2250.54
188.101	2255.16
188.176	2263.87
188.252	2258.59
188.328	2268.81
188.404	2266.91
188.48	2265.01
188.556	2258.01
188.632	2255.11
188.707	2255.44
188.783	2252.87
188.859	2245.31
188.935	2233.74
189.011	2243.59
189.086	2238.74
189.162	2227.32
189.238	2223.09
189.314	2218.85
189.39	2213.28
189.465	2206.57
189.541	2223.04
189.617	2207.96
189.693	2202.49
189.768	2204.91
189.844	2232.57
189.92	2222.73
189.996	2231.91
190.071	2244.57
190.147	2242.48
190.223	2250.85
190.298	2244.38
190.374	2232.2
190.45	2243.52
190.526	2252.23
190.601	2245.85
190.677	2245.23
190.753	2274.51
190.828	2279.65
190.904	2295.88
190.98	2310.97
191.055	2320.63
191.131	2311.78
191.207	2334.24
191.282	2345.42
191.358	2334.29
191.433	2318.14
191.509	2333.65
191.585	2329.75
191.66	2329.56
191.736	2342.69
191.811	2337.41
191.887	2351.93
191.963	2375.49
192.038	2384.3
192.114	2385.87
192.189	2390.72
192.265	2388.96
192.34	2365.44
192.416	2363.63
192.491	2360.2
192.567	2363.63
192.642	2368.15
192.718	2368.91
192.793	2355.87
192.869	2349.92
192.944	2356.06
193.02	2362.53
193.095	2363.91
193.171	2371.91
193.246	2369.2
193.322	2363.25
193.397	2359.63
193.473	2346.97
193.548	2327.4
193.624	2331.07
193.699	2327.5
193.775	2343.21
193.85	2345.16
193.925	2353.97
194.001	2351.78
194.076	2342.78
194.152	2330.98
194.227	2321.74
194.302	2311.27
194.378	2314.08
194.453	2310.09
194.529	2320.61
194.604	2306.56
194.679	2302.09
194.755	2281.16
194.83	2295.68
194.905	2291.78
194.981	2303.15
195.056	2293.83
195.131	2301.82
195.207	2301.96
195.282	2293.59
195.357	2273.74
195.433	2289.35
195.508	2279.4
195.583	2289.77
195.659	2304.67
195.734	2312.1
195.809	2310.48
195.884	2318.71
195.96	2321.8
196.035	2339.51
196.11	2334.99
196.185	2345.07
196.261	2350.12
196.336	2382.68
196.411	2367.91
196.486	2375.86
196.561	2368.72
196.637	2379.05
196.712	2395.33
196.787	2399.33
196.862	2415.61
196.937	2426.61
197.013	2431.94
197.088	2440.7
197.163	2463.28
197.238	2482.48
197.313	2484
197.388	2498.81
197.464	2533.96
197.539	2541.86
197.614	2533.49
197.689	2550.25
197.764	2571.06
197.839	2589.73
197.914	2584.35
197.989	2607.12
198.065	2623.21
198.14	2677.12
198.215	2707.61
198.29	2719.76
198.365	2734.58
198.44	2743.58
198.515	2772.93
198.59	2790.75
198.665	2821.06
198.74	2828.64
198.815	2828.64
198.89	2850.98
198.965	2880.92
199.04	2875.1
199.115	2891.78
199.19	2938.2
199.265	2936.1
199.34	2945.06
199.415	2982.98
199.49	3004.18
199.565	3012.34
199.64	3034.89
199.715	3030.5
199.79	3038.36
199.865	3046.33
199.94	3043.32
200.015	3081.76
200.09	3085.63
200.165	3089.96
200.24	3094.4
200.315	3140.04
200.39	3156.49
200.464	3164.69
200.539	3171.61
200.614	3189.02
200.689	3217.02
200.764	3226.8
200.839	3249.92
200.914	3255.17
200.989	3242.42
201.063	3257.78
201.138	3239.58
201.213	3239.63
201.288	3221.98
201.363	3228.85
201.438	3227.89
201.512	3245.92
201.587	3225.35
201.662	3231.41
201.737	3247.82
201.812	3261.75
201.886	3224.04
201.961	3235.49
202.036	3222.76
202.111	3217.27
202.186	3187.67
202.26	3171.3
202.335	3147.26
202.41	3139.58
202.485	3126.14
202.559	3110.88
202.634	3088.84
202.709	3105.19
202.784	3090.59
202.858	3096.17
202.933	3078
203.008	3076.24
203.082	3060.6
203.157	3064.41
203.232	3028.28
203.306	3013.87
203.381	2985.83
203.456	2971.05
203.53	2957.92
203.605	2951.63
203.68	2941.42
203.754	2946.47
203.829	2942.94
203.904	2938.41
203.978	2945.66
204.053	2971.85
204.127	2978.14
204.202	3001.03
204.277	3008.61
204.351	3026.36
204.426	3039.81
204.5	3059.89
204.575	3057.03
204.65	3101.45
204.724	3134.15
204.799	3179.35
204.873	3215.11
204.948	3257.53
205.022	3292.92
205.097	3331.94
205.171	3398.62
205.246	3462.33
205.32	3524.61
205.395	3586.89
205.469	3640.3
205.544	3714.71
205.618	3764.16
205.693	3850.37
205.767	3907.67
205.842	4007.16
205.916	4084.17
205.991	4165.74
206.065	4258.75
206.14	4370.72
206.214	4464.02
206.289	4554.3
206.363	4670.75
206.438	4779.59
206.512	4891.97
206.586	5023.52
206.661	5147.88
206.735	5239.51
206.81	5361.72
206.884	5498.32
206.958	5612.89
207.033	5762.35
207.107	5896.51
207.181	6066.28
207.256	6199.7
207.33	6362.86
207.405	6517.37
207.479	6686.15
207.553	6840.44
207.628	6978.5
207.702	7139.05
207.776	7281.25
207.851	7450.2
207.925	7624.98
207.999	7778.84
208.073	7939.97
208.148	8107.93
208.222	8261.35
208.296	8463.22
208.371	8646.59
208.445	8828.17
208.519	9024.48
208.593	9199.11
208.668	9366.94
208.742	9537
208.816	9704.41
208.89	9887.19
208.965	10059.26
209.039	10235.42
209.113	10424.49
209.187	10621.6
209.261	10791.14
209.336	10991.96
209.41	11179.12
209.484	11355.02
209.558	11557.23
209.632	11748.46
209.707	11932.71
209.781	12122.6
209.855	12315.02
209.929	12506.91
210.003	12692.05
210.077	12866.16
210.151	13099.17
210.226	13310.4
210.3	13507.99
210.374	13706.05
210.448	13884.31
210.522	14064.02
210.596	14246.28
210.67	14424.45
210.744	14642.13
210.818	14843.33
210.892	15022.94
210.966	15180.27
211.041	15359.15
211.115	15516.28
211.189	15699.16
211.263	15871.04
211.337	16038.59
211.411	16209.83
211.485	16360.79
211.559	16524.51
211.633	16674.8
211.707	16797.16
211.781	16953.17
211.855	17066.72
211.929	17211.25
212.003	17342.2
212.077	17501.43
212.151	17654.92
212.225	17811.31
212.299	17934.49
212.373	18053.86
212.447	18184.99
212.52	18351.15
212.594	18482.37
212.668	18632.97
212.742	18744.48
212.816	18874.12
212.89	19002.11
212.964	19122.64
213.038	19246.97
213.112	19380.17
213.186	19527.54
213.26	19619.96
213.333	19694.51
213.407	19821.5
213.481	19941.11
213.555	20065.2
213.629	20165.97
213.703	20261.39
213.777	20370.26
213.85	20466.89
213.924	20616.15
213.998	20740.73
214.072	20845.23
214.146	20939.4
214.219	21024.42
214.293	21125.39
214.367	21228.53
214.441	21333.55
214.515	21421.08
214.588	21486.63
214.662	21544.62
214.736	21608.14
214.81	21716.01
214.883	21820.08
214.957	21894.69
215.031	21965.93
215.105	22031.49
215.178	22100.04
215.252	22184.49
215.326	22245.38
215.4	22296.81
215.473	22331.96
215.547	22374.38
215.621	22436.05
215.694	22524.09
215.768	22569.21
215.842	22631.16
215.915	22686.6
215.989	22731.64
216.063	22786.36
216.136	22859.5
216.21	22924.44
216.284	23007.71
216.357	23064.51
216.431	23120.98
216.504	23191.14
216.578	23273.83
216.652	23346.35
216.725	23407.5
216.799	23462.19
216.873	23512.24
216.946	23579.32
217.02	23619.73
217.093	23666.45
217.167	23687.1
217.24	23711.36
217.314	23759.96
217.387	23802.93
217.461	23840.07
217.535	23897.12
217.608	23936.43
217.682	23981.09
217.755	24025.71
217.829	24053.97
217.902	24099.65
217.976	24134.77
218.049	24160.91
218.123	24177.84
218.196	24209.14
218.27	24236.64
218.343	24262.11
218.417	24299.88
218.49	24330.9
218.563	24395.93
218.637	24440.69
218.71	24504.81
218.784	24548.95
218.857	24596.13
218.931	24634.09
219.004	24676.55
219.077	24720.55
219.151	24760.4
219.224	24790.36
219.298	24827.56
219.371	24865.19
219.444	24880.3
219.518	24910.02
219.591	24946.39
219.665	25014.96
219.738	25054.77
219.811	25075.85
219.885	25112.86
219.958	25150.74
220.031	25182.83
220.105	25209.13
220.178	25239.34
220.251	25250.1
220.325	25272.88
220.398	25315.97
220.471	25340.44
220.544	25365.63
220.618	25380.69
220.691	25404.72
220.764	25423.59
220.838	25451.43
220.911	25468.86
220.984	25512.15
221.057	25534.34
221.131	25559.44
221.204	25537.86
221.277	25566.82
221.35	25619.09
221.424	25635.5
221.497	25650.51
221.57	25658.04
221.643	25667.36
221.716	25679.42
221.79	25693.08
221.863	25708.58
221.936	25711.23
222.009	25713.64
222.082	25723.78
222.155	25710.99
222.229	25736.82
222.302	25751.25
222.375	25755.16
222.448	25768.58
222.521	25763.99
222.594	25772.1
222.667	25761.29
222.74	25774.46
222.814	25777.46
222.887	25758.63
222.96	25768.72
223.033	25767.17
223.106	25774.17
223.179	25784.55
223.252	25786.14
223.325	25782.96
223.398	25774.7
223.471	25764.76
223.544	25767.42
223.617	25762.83
223.69	25770.75
223.763	25740.96
223.837	25738.07
223.91	25740.19
223.983	25717.84
224.056	25698.2
224.129	25688.64
224.202	25690.82
224.275	25674.6
224.348	25649.45
224.42	25631.98
224.493	25594.24
224.566	25578.36
224.639	25570.73
224.712	25542.54
224.785	25529.85
224.858	25512.23
224.931	25500.07
225.004	25476.76
225.077	25467.06
225.15	25425.51
225.223	25408.53
225.296	25424.94
225.369	25387.2
225.442	25355.35
225.514	25335.8
225.587	25323.93
225.66	25310.13
225.733	25298.55
225.806	25294.73
225.879	25272.73
225.952	25253.57
226.025	25251.3
226.097	25246
226.17	25221
226.243	25189.15
226.316	25157.74
226.389	25140.99
226.461	25128.59
226.534	25109.34
226.607	25081.84
226.68	25091.49
226.753	25063.74
226.825	25015.97
226.898	25014.81
226.971	24997.24
227.044	24988.37
227.117	24974.95
227.189	24952.81
227.262	24936.88
227.335	24907.55
227.407	24880.53
227.48	24864.8
227.553	24839.32
227.626	24809.99
227.698	24785.33
227.771	24766.13
227.844	24738.49
227.916	24711.04
227.989	24660.09
228.062	24639.64
228.134	24648.32
228.207	24604.23
228.28	24580.64
228.352	24556.66
228.425	24533.6
228.498	24514.93
228.57	24470.26
228.643	24446.28
228.716	24416.18
228.788	24382.32
228.861	24356.22
228.934	24344.3
229.006	24303.74
229.079	24272.57
229.151	24241.22
229.224	24194.19
229.296	24170.17
229.369	24184.5
229.442	24176.69
229.514	24154.84
229.587	24142.44
229.659	24080.41
229.732	24077.61
229.804	24059.19
229.877	24053.93
229.949	24037.05
230.022	24027.3
230.094	24008.59
230.167	23994.99
230.239	23955.78
230.312	23933.01
230.384	23930.31
230.457	23909.67
230.529	23892.79
230.602	23867.86
230.674	23844.18
230.747	23844.71
230.819	23835.78
230.892	23767.68
230.964	23742.41
231.037	23717.72
231.109	23679.14
231.181	23666.79
231.254	23617.56
231.326	23588.38
231.399	23546.81
231.471	23497.67
231.544	23442.69
231.616	23426.87
231.688	23391.67
231.761	23360.47
231.833	23332.21
231.905	23280.76
231.978	23244.88
232.05	23215.9
232.122	23188.08
232.195	23149.79
232.267	23134.46
232.339	23088.02
232.412	23071.05
232.484	23026.73
232.556	22994.58
232.629	22996.41
232.701	22974.42
232.773	22944.24
232.846	22904.99
232.918	22883.54
232.99	22861.26
233.062	22835.56
233.135	22808.9
233.207	22764.98
233.279	22763.63
233.351	22727.23
233.424	22679.26
233.496	22631.24
233.568	22615.91
233.64	22580.19
233.713	22548.08
233.785	22506.42
233.857	22476.2
233.929	22423.99
234.001	22412.42
234.074	22390.29
234.146	22334.27
234.218	22295.03
234.29	22262.92
234.362	22225.23
234.434	22162.7
234.507	22111.07
234.579	22069.52
234.651	22022.52
234.723	21984.34
234.795	21938.45
234.867	21901.77
234.939	21886.58
235.012	21864.7
235.084	21823.63
235.156	21790.85
235.228	21743.71
235.3	21702.16
235.372	21663.07
235.444	21645.33
235.516	21575.68
235.588	21544.64
235.66	21499.62
235.732	21453.39
235.804	21473.78
235.876	21454.94
235.948	21436.14
236.02	21410.4
236.092	21367.8
236.164	21337.58
236.236	21298.87
236.308	21252.17
236.38	21217.47
236.452	21163.25
236.524	21132.11
236.596	21112.59
236.668	21089.21
236.74	21065.45
236.812	21032.73
236.884	21007.67
236.956	20964.97
237.028	20927.62
237.1	20869.3
237.172	20854.07
237.244	20829.64
237.316	20747.6
237.388	20693.82
237.46	20650.59
237.532	20626.87
237.604	20578.3
237.675	20542.63
237.747	20522.87
237.819	20475.31
237.891	20431.65
237.963	20388.95
238.035	20339.41
238.107	20258.59
238.178	20225.62
238.25	20175.74
238.322	20168.03
238.394	20112.85
238.466	20073.14
238.538	20038.98
238.609	20013.15
238.681	19955.7
238.753	19908.91
238.825	19878.55
238.897	19842.55
238.968	19820.86
239.04	19768.43
239.112	19769.35
239.184	19719.66
239.255	19669.54
239.327	19643.09
239.399	19602.75
239.471	19578.95
239.542	19546.76
239.614	19533.36
239.686	19466.23
239.758	19448.11
239.829	19380.5
239.901	19354.57
239.973	19316.12
240.044	19278.82
240.116	19242.96
240.188	19199.5
240.259	19165.72
240.331	19128.42
240.403	19094.54
240.474	19034.83
240.546	18993.25
240.618	18927.95
240.689	18884.96
240.761	18848.77
240.833	18825.74
240.904	18787.52
240.976	18742.42
241.048	18703.67
241.119	18666.28
241.191	18636.11
241.262	18611.29
241.334	18572.74
241.405	18537.75
241.477	18495.44
241.549	18467.73
241.62	18431.01
241.692	18403.64
241.763	18373.86
241.835	18327.84
241.906	18289.58
241.978	18241.34
242.049	18209.19
242.121	18180.52
242.192	18161.53
242.264	18109.77
242.335	18050.6
242.407	18024.19
242.478	17984.77
242.55	17952.19
242.621	17903.32
242.693	17864.82
242.764	17814.94
242.836	17770.61
242.907	17734.7
242.979	17697.88
243.05	17659.48
243.122	17621.89
243.193	17584.44
243.264	17523.38
243.336	17482.47
243.407	17452.68
243.479	17432.49
243.55	17404.97
243.622	17373.31
243.693	17332.88
243.764	17312.15
243.836	17272.01
243.907	17225.5
243.978	17192.29
244.05	17151.71
244.121	17104
244.192	17070.99
244.264	17023.08
244.335	16986.65
244.407	16928.09
244.478	16899.32
244.549	16862.79
244.62	16820.38
244.692	16781.63
244.763	16759.46
244.834	16716.47
244.906	16678.59
244.977	16652.13
245.048	16626.39
245.119	16582.44
245.191	16542.1
245.262	16488.98
245.333	16470.67
245.405	16445.94
245.476	16412.69
245.547	16386.85
245.618	16372.73
245.689	16345.69
245.761	16312.44
245.832	16275.28
245.903	16259.32
245.974	16228.62
246.045	16184.95
246.117	16168.81
246.188	16112.85
246.259	16067.16
246.33	16033.03
246.401	15992.4
246.473	15940.97
246.544	15907.43
246.615	15888.1
246.686	15848.86
246.757	15826.31
246.828	15777.38
246.899	15751.93
246.97	15701.85
247.042	15657.6
247.113	15627.05
247.184	15611.77
247.255	15574.31
247.326	15548.58
247.397	15515.61
247.468	15488.04
247.539	15463.45
247.61	15409.9
247.681	15395.78
247.752	15382.96
247.823	15349.94
247.894	15323.62
247.965	15287.61
248.037	15241.05
248.108	15193.86
248.179	15157.61
248.25	15125.46
248.321	15110.42
248.392	15072.77
248.463	15073.79
248.534	15037.92
248.605	15016.57
248.675	14981.29
248.746	14961.38
248.817	14946.53
248.888	14914.72
248.959	14868.2
249.03	14847.86
249.101	14823.13
249.172	14789.43
249.243	14737.13
249.314	14720.89
249.385	14702.19
249.456	14679.63
249.527	14648.82
249.598	14622.94
249.669	14606.74
249.739	14587.8
249.81	14556.9
249.881	14515.25
249.952	14482.18
250.023	14457.88
250.094	14418.74
250.165	14383.45
250.235	14353.04
250.306	14319.58
250.377	14288.2
250.448	14263.09
250.519	14208.95
250.59	14202.01
250.66	14167.45
250.731	14156.45
250.802	14125.41
250.873	14094.51
250.944	14073.64
251.014	14046.98
251.085	14048.62
251.156	14015.64
251.227	14000.99
251.297	13992.22
251.368	13981.51
251.439	13966.09
251.51	13952.01
251.58	13915.95
251.651	13883.42
251.722	13871.22
251.792	13826.63
251.863	13794.09
251.934	13792.11
252.005	13795
252.075	13764.73
252.146	13756.87
252.217	13752.39
252.287	13741.21
252.358	13712.96
252.429	13708.67
252.499	13676.95
252.57	13647.93
252.641	13638.72
252.711	13616.3
252.782	13571.57
252.852	13569.06
252.923	13537.63
252.994	13521.05
253.064	13500.41
253.135	13466.72
253.205	13439.19
253.276	13435.67
253.347	13434.13
253.417	13394.6
253.488	13363.75
253.558	13334.15
253.629	13316.12
253.699	13288.59
253.77	13269.31
253.841	13248.39
253.911	13221.15
253.982	13202.64
254.052	13184.13
254.123	13163.16
254.193	13140.7
254.264	13157.76
254.334	13115.2
254.405	13081.89
254.475	13044.33
254.546	13022.74
254.616	13024.95
254.687	13010.54
254.757	12989.76
254.827	12958.33
254.898	12944.21
254.968	12921.31
255.039	12889.98
255.109	12874.65
255.18	12843.85
255.25	12798.1
255.321	12784.5
255.391	12747.53
255.461	12749.46
255.532	12707.23
255.602	12681.2
255.673	12635.12
255.743	12606.72
255.813	12563.58
255.884	12554.9
255.954	12544.59
256.024	12543
256.095	12515.62
256.165	12478.06
256.235	12467.7
256.306	12443.36
256.376	12436.56
256.446	12433.38
256.517	12430.05
256.587	12420.61
256.657	12399.54
256.728	12378.57
256.798	12353.12
256.868	12330.37
256.938	12293.4
257.009	12288.14
257.079	12278.31
257.149	12287.61
257.219	12243.75
257.29	12235.22
257.36	12201.14
257.43	12190.72
257.5	12147.25
257.571	12122.9
257.641	12110.42
257.711	12078.37
257.781	12061.78
257.852	12041.49
257.922	11995.07
257.992	11967.12
258.062	11942.68
258.132	11938.68
258.202	11925.76
258.273	11913.95
258.343	11917.42
258.413	11902
258.483	11875.63
258.553	11837.55
258.623	11807.52
258.693	11790.03
258.764	11786.99
258.834	11781.83
258.904	11761.59
258.974	11743.37
259.044	11724.43
259.114	11709.53
259.184	11694.88
259.254	11672.23
259.324	11629.86
259.394	11625.96
259.464	11630.73
259.535	11608.99
259.605	11578
259.675	11550.43
259.745	11539.01
259.815	11507.83
259.885	11479.49
259.955	11490.48
260.025	11476.21
260.095	11466.76
260.165	11464.35
260.235	11462.76
260.305	11442.14
260.375	11412.59
260.445	11414.09
260.515	11413.17
260.585	11403.15
260.655	11380.25
260.725	11383.43
260.795	11379.63
260.865	11381.65
260.934	11354.23
261.004	11342.95
261.074	11327.53
261.144	11331.19
261.214	11318.95
261.284	11302.47
261.354	11298.13
261.424	11271.38
261.494	11271.23
261.564	11248.05
261.634	11238.32
261.703	11196.34
261.773	11187.81
261.843	11175.91
261.913	11157.07
261.983	11122.51
262.053	11118.46
262.123	11101.69
262.192	11060.78
262.262	11053.12
262.332	11018.18
262.402	11006.42
262.472	10989.12
262.541	10953.75
262.611	10947.87
262.681	10922.96
262.751	10911.2
262.821	10891.59
262.89	10860.31
262.96	10848.7
263.03	10848.55
263.1	10831.16
263.169	10821.33
263.239	10806.68
263.309	10807.06
263.379	10797.14
263.448	10781.86
263.518	10766.54
263.588	10755.46
263.657	10762.15
263.727	10755.79
263.797	10743.07
263.867	10726.83
263.936	10695.42
264.006	10699.42
264.076	10677.78
264.145	10655.57
264.215	10640.68
264.285	10632.97
264.354	10598.86
264.424	10570.53
264.494	10536.9
264.563	10517.19
264.633	10526.25
264.702	10516.76
264.772	10484.38
264.842	10468.24
264.911	10463.56
264.981	10437.73
265.05	10420.97
265.12	10403.38
265.19	10393.36
265.259	10390.42
265.329	10382.62
265.398	10376.64
265.468	10388.74
265.537	10374.72
265.607	10372.07
265.676	10361.61
265.746	10351.01
265.815	10356.41
265.885	10347.93
265.955	10329.67
266.024	10306.45
266.094	10262.66
266.163	10268.34
266.232	10276.77
266.302	10255.72
266.371	10244.74
266.441	10230.48
266.51	10229.85
266.58	10215.83
266.649	10189.29
266.719	10184.13
266.788	10171.8
266.858	10171.41
266.927	10123.24
266.996	10107.58
267.066	10100.4
267.135	10076.9
267.205	10080.27
267.274	10070.01
267.343	10067.26
267.413	10054.64
267.482	10059.27
267.552	10066.35
267.621	10027.18
267.69	9995.63
267.76	9990.19
267.829	9980.46
267.898	9965.33
267.968	9944.71
268.037	9935.75
268.106	9926.89
268.176	9896.98
268.245	9884.55
268.314	9869.04
268.384	9881.9
268.453	9872.99
268.522	9860.99
268.592	9869.57
268.661	9844.71
268.73	9841.48
268.799	9820.53
268.869	9823.66
268.938	9794.62
269.007	9775.02
269.076	9772.37
269.146	9772.46
269.215	9767.31
269.284	9769.96
269.353	9752.76
269.422	9731.58
269.492	9718.14
269.561	9682.31
269.63	9681.92
269.699	9663.81
269.768	9649.08
269.838	9632.99
269.907	9632.12
269.976	9610.55
270.045	9572.5
270.114	9559.31
270.183	9534.89
270.253	9523.81
270.322	9500.41
270.391	9489.77
270.46	9492.66
270.529	9486.44
270.598	9480.09
270.667	9464.82
270.736	9446.76
270.806	9442.09
270.875	9452.54
270.944	9436.55
271.013	9462.22
271.082	9449.6
271.151	9446.9
271.22	9419.27
271.289	9409.59
271.358	9394.95
271.427	9390.42
271.496	9384.93
271.565	9378.29
271.634	9372.22
271.703	9398.85
271.772	9405.55
271.841	9396.59
271.91	9372.08
271.979	9359.41
272.048	9339.67
272.117	9335.53
272.186	9315.11
272.255	9318.2
272.324	9313.81
272.393	9317.09
272.462	9303.94
272.531	9298.31
272.6	9282.32
272.669	9299.36
272.738	9284.87
272.807	9277.79
272.876	9253
272.945	9278.52
273.013	9278.13
273.082	9282.61
273.151	9244.09
273.22	9236.62
273.289	9229.59
273.358	9239.75
273.427	9227.14
273.496	9220.11
273.564	9224.3
273.633	9224.92
273.702	9206.87
273.771	9194.25
273.84	9187.27
273.909	9180.05
273.977	9176.97
274.046	9170.13
274.115	9169.99
274.184	9154.92
274.253	9152.51
274.322	9163.25
274.39	9127.81
274.459	9114.28
274.528	9087.51
274.597	9070.18
274.665	9062.24
274.734	9067.01
274.803	9056.17
274.872	9055.26
274.94	9045.82
275.009	9101.36
275.078	9087.26
275.147	9083.5
275.215	9080.66
275.284	9088.6
275.353	9079.22
275.421	9054.04
275.49	9065.16
275.559	9050.76
275.627	9044.17
275.696	9027.66
275.765	9028.72
275.833	9026.31
275.902	9024.67
275.971	9038.49
276.039	9060.01
276.108	9071.37
276.177	9071.32
276.245	9050.77
276.314	9044.41
276.383	9048.75
276.451	8977.56
276.52	8978.52
276.588	8991.76
276.657	8994.79
276.725	8983.05
276.794	8978.28
276.863	8988.73
276.931	8967.93
277	8977.12
277.068	8982.95
277.137	9007.31
277.205	9008.85
277.274	9022.28
277.342	9027.62
277.411	9005.72
277.48	8987.86
277.548	8963.55
277.617	8964.13
277.685	8968.65
277.754	8971.83
277.822	8962.64
277.89	8974
277.959	8971.74
278.027	8947.33
278.096	8932.5
278.164	8955.47
278.233	8952.48
278.301	8940.16
278.37	8945.79
278.438	8928.37
278.507	8935.15
278.575	8904.15
278.643	8890.77
278.712	8871.32
278.78	8857.6
278.849	8869.78
278.917	8883.11
278.985	8884.46
279.054	8884.94
279.122	8892.02
279.191	8894.04
279.259	8889.95
279.327	8864.14
279.396	8879.45
279.464	8880.56
279.532	8887.2
279.601	8881.86
279.669	8877.72
279.737	8893.31
279.806	8894.85
279.874	8903.38
279.942	8901.69
280.011	8892.21
280.079	8902.75
280.147	8924.08
280.215	8925.52
280.284	8922.54
280.352	8904.63
280.42	8908.72
280.488	8899.67
280.557	8890.14
280.625	8888.7
280.693	8891.2
280.761	8899.57
280.83	8880.65
280.898	8888.26
280.966	8871.51
281.034	8839.21
281.102	8823.37
281.171	8816.58
281.239	8827.61
281.307	8817.12
281.375	8799.5
281.443	8833.92
281.512	8829.2
281.58	8830.79
281.648	8820.49
281.716	8816.49
281.784	8817.89
281.852	8815.82
281.92	8812.74
281.989	8825.83
282.057	8807.16
282.125	8859.88
282.193	8856.51
282.261	8855.69
282.329	8853.43
282.397	8861.66
282.465	8861.71
282.533	8877.93
282.601	8865.7
282.67	8840.77
282.738	8834.22
282.806	8847.26
282.874	8833.3
282.942	8834.94
283.01	8830.12
283.078	8833.97
283.146	8835.56
283.214	8844.28
283.282	8848.03
283.35	8860.26
283.418	8855.44
283.486	8860.06
283.554	8801.71
283.622	8804.02
283.69	8801.76
283.758	8793.43
283.826	8793.96
283.894	8805.94
283.962	8826.12
284.03	8842.34
284.098	8840.75
284.165	8839.98
284.233	8841.37
284.301	8832.76
284.369	8821.16
284.437	8809.17
284.505	8809.75
284.573	8821.3
284.641	8813.55
284.709	8820.82
284.777	8801.57
284.845	8806.14
284.912	8813.46
284.98	8823.71
285.048	8815.48
285.116	8825.54
285.184	8842.96
285.252	8837.09
285.319	8820.24
285.387	8803.68
285.455	8785.15
285.523	8796.46
285.591	8797.09
285.659	8800.51
285.726	8809.17
285.794	8796.75
285.862	8795.79
285.93	8793.48
285.997	8792.57
286.065	8788.72
286.133	8778.7
286.201	8779.38
286.269	8763.68
286.336	8755.79
286.404	8756.22
286.472	8761.09
286.539	8729.85
286.607	8708.87
286.675	8711.99
286.743	8719.31
286.81	8716.86
286.878	8730.72
286.946	8720.51
287.013	8714.69
287.081	8712.43
287.149	8699.34
287.216	8724.03
287.284	8718.49
287.352	8717.48
287.419	8708.09
287.487	8721.23
287.555	8725.18
287.622	8724.22
287.69	8731.15
287.758	8741.11
287.825	8730.14
287.893	8725.09
287.96	8738.22
288.028	8748.38
288.096	8757.23
288.163	8761.47
288.231	8751.99
288.298	8755.26
288.366	8773.55
288.433	8776.01
288.501	8766.72
288.569	8770.47
288.636	8759.55
288.704	8772.3
288.771	8778.32
288.839	8772.25
288.906	8764.69
288.974	8766.96
289.041	8765.75
289.109	8751.75
289.176	8761.71
289.244	8767.63
289.311	8783.95
289.379	8796.08
289.446	8806.33
289.514	8803.35
289.581	8805.56
289.649	8803.78
289.716	8798.01
289.783	8787.9
289.851	8804.7
289.918	8803.59
289.986	8815.67
290.053	8819.81
290.121	8816.78
290.188	8818.7
290.255	8841.33
290.323	8833.48
290.39	8834.06
290.458	8835.45
290.525	8849.7
290.592	8842.77
290.66	8845.03
290.727	8831.31
290.794	8847
290.862	8842.43
290.929	8846.91
290.996	8843.54
291.064	8857.79
291.131	8873.91
291.198	8880.65
291.266	8879.16
291.333	8887.15
291.4	8889.27
291.468	8907.85
291.535	8906.26
291.602	8913.1
291.669	8910.98
291.737	8920.41
291.804	8919.93
291.871	8938.85
291.938	8951.22
292.006	8980.78
292.073	8996.52
292.14	9011.45
292.207	9006.58
292.275	9008.08
292.342	9010.92
292.409	9041.39
292.476	9063.73
292.543	9054.2
292.611	9054.35
292.678	9073.07
292.745	9098.97
292.812	9110.77
292.879	9108.41
292.946	9115.25
293.014	9129.35
293.081	9137.01
293.148	9145.62
293.215	9158.14
293.282	9153.71
293.349	9163.25
293.416	9142.01
293.484	9148.61
293.551	9158.96
293.618	9172.05
293.685	9195.7
293.752	9190.64
293.819	9184.19
293.886	9168.4
293.953	9176.44
294.02	9189.63
294.087	9196.22
294.154	9186.74
294.221	9197.19
294.288	9193.67
294.356	9209.95
294.423	9216.59
294.49	9205.18
294.557	9223.04
294.624	9212.64
294.691	9231.42
294.758	9231.33
294.825	9238.98
294.892	9235.51
294.959	9233.64
295.026	9240.14
295.093	9236.04
295.16	9244.61
295.226	9247.45
295.293	9277.98
295.36	9281.83
295.427	9287.66
295.494	9297.63
295.561	9306.63
295.628	9333.27
295.695	9352.53
295.762	9351.85
295.829	9359.22
295.896	9384.26
295.963	9394.04
296.03	9407.32
296.096	9417.15
296.163	9431.11
296.23	9448.11
296.297	9461.5
296.364	9463.57
296.431	9473.83
296.498	9464.63
296.564	9483.22
296.631	9486.3
296.698	9466.89
296.765	9490.63
296.832	9489.09
296.899	9478.64
296.965	9496.07
297.032	9473.53
297.099	9492.56
297.166	9503.34
297.233	9496.89
297.299	9484.08
297.366	9484.47
297.433	9485.86
297.5	9494
297.566	9493.76
297.633	9487.5
297.7	9493.66
297.767	9489.67
297.833	9490.44
297.9	9495.06
297.967	9478.16
298.033	9485.62
298.1	9523.82
298.167	9515.53
298.234	9519.91
298.3	9529.45
298.367	9526.7
298.434	9529.11
298.5	9517.7
298.567	9517.41
298.634	9521.26
298.7	9543.46
298.767	9547.65
298.834	9564.17
298.9	9561.42
298.967	9557.91
299.033	9575.39
299.1	9587.05
299.167	9605.25
299.233	9600.58
299.3	9616.81
299.366	9637.27
299.433	9656.44
299.5	9622.92
299.566	9626.72
299.633	9643.44
299.699	9658.37
299.766	9656.63
299.832	9665.16
299.899	9672.29
299.965	9687.65
300.032	9682.35
300.099	9694.63
300.165	9697.72
300.232	9701.28
300.298	9695.74
300.365	9707.64
300.431	9707.11
300.498	9699.59
300.564	9703.01
300.631	9717.8
300.697	9734.27
300.763	9734.22
300.83	9731.58
300.896	9748.48
300.963	9760.95
301.029	9765.53
301.096	9762.83
301.162	9780.7
301.229	9778.53
301.295	9771.55
301.361	9774.25
301.428	9785.56
301.494	9767.26
301.561	9775.4
301.627	9773.09
301.693	9780.51
301.76	9783.88
301.826	9779.83
301.892	9794.28
301.959	9806.71
302.025	9807.77
302.092	9805.07
302.158	9806.85
302.224	9807.29
302.291	9801.12
302.357	9790.04
302.423	9784.22
302.49	9778.2
302.556	9780.65
302.622	9777.52
302.688	9789.13
302.755	9797.7
302.821	9804.98
302.887	9815.86
302.954	9808.73
303.02	9812.01
303.086	9817.55
303.152	9818.65
303.219	9812.83
303.285	9814.13
303.351	9818.51
303.417	9815.67
303.483	9805.31
303.55	9806.37
303.616	9805.46
303.682	9806.08
303.748	9809.98
303.815	9827.86
303.881	9836.72
303.947	9830.02
304.013	9835.56
304.079	9827.52
304.145	9803.77
304.212	9792.98
304.278	9782.72
304.344	9776.42
304.41	9768.23
304.476	9755.56
304.542	9751.8
304.608	9758.31
304.674	9739.14
304.741	9733.98
304.807	9736.92
304.873	9740.2
304.939	9753.83
305.005	9734.61
305.071	9728.2
305.137	9731.43
305.203	9703.25
305.269	9704.12
305.335	9707.11
305.401	9703.93
305.467	9701.57
305.533	9713.75
305.599	9729.98
305.666	9740.44
305.732	9740.96
305.798	9749.54
305.864	9779.88
305.93	9783.74
305.996	9788.84
306.062	9788.94
306.128	9782.58
306.194	9765.77
306.259	9768.04
306.325	9756.72
306.391	9773.86
306.457	9785.08
306.523	9780.75
306.589	9811.05
306.655	9802.09
306.721	9782.87
306.787	9772.27
306.853	9787.21
306.919	9772.18
306.985	9759.75
307.051	9749.83
307.117	9746.03
307.183	9746.85
307.248	9712.89
307.314	9713.76
307.38	9709.08
307.446	9715.49
307.512	9705.95
307.578	9713.75
307.644	9700.46
307.709	9704.94
307.775	9694.97
307.841	9696.42
307.907	9699.4
307.973	9672.09
308.039	9670.55
308.104	9681.72
308.17	9680.66
308.236	9664.82
308.302	9667.03
308.368	9655.33
308.433	9656.05
308.499	9654.7
308.565	9637.7
308.631	9645.41
308.696	9622.48
308.762	9605.92
308.828	9610.97
308.894	9598.16
308.959	9577.89
309.025	9572.74
309.091	9566.72
309.156	9559.25
309.222	9551.45
309.288	9536.09
309.354	9513.26
309.419	9509.02
309.485	9493.08
309.551	9495.44
309.616	9481.09
309.682	9474.64
309.748	9469.49
309.813	9461.69
309.879	9450.61
309.945	9438.38
310.01	9432.02
310.076	9433.61
310.141	9429.9
310.207	9410.4
310.273	9409.92
310.338	9408.66
310.404	9391.91
310.469	9380.98
310.535	9370.05
310.601	9349.87
310.666	9358.68
310.732	9368.36
310.797	9355.41
310.863	9344.38
310.928	9342.69
310.994	9346.88
311.059	9342.6
311.125	9343.66
311.191	9354.73
311.256	9339.95
311.322	9345.73
311.387	9325.51
311.453	9669.53
311.518	9641.56
311.584	9633.81
311.649	9635.4
311.715	9629.47
311.78	9631.26
311.846	9627.11
311.911	9641.27
311.976	9643.73
312.042	9625.62
312.107	9608.63
312.173	9598.66
312.238	9594.13
312.304	9582.86
312.369	9569.48
312.434	9560.72
312.5	9550.56
312.565	9519.93
312.631	9527.59
312.696	9524.41
312.761	9528.31
312.827	9174.41
312.892	9219.1
312.958	9220.83
313.023	9220.64
313.088	9219.43
313.154	9204.51
313.219	9191.61
313.284	9176.15
313.35	9177.21
313.415	9165.46
313.48	9167.87
313.546	9174.95
313.611	9185.39
313.676	9174.46
313.741	9164.93
313.807	9173.5
313.872	9177.6
313.937	9181.21
314.003	9194.3
314.068	9191.08
314.133	9198.44
314.198	9187.32
314.264	9163.15
314.329	9154.92
314.394	9148.85
314.459	9146.68
314.525	9169.07
314.59	9162.86
314.655	9150.92
314.72	9161.17
314.785	9167.87
314.851	9157.61
314.916	9135.95
314.981	9118.57
315.046	9112.74
315.111	9105.67
315.176	9091.9
315.242	9093.92
315.307	9086.7
315.372	9060.17
315.437	9049.82
315.502	9033.69
315.567	9049.14
315.632	9030.46
315.698	9028.68
315.763	9026.76
315.828	9021.61
315.893	9015.15
315.958	9012.27
316.023	8996.14
316.088	8966.87
316.153	8942.27
316.218	8937.51
316.283	8923.26
316.348	8909.3
316.413	8909.16
316.479	8895.05
316.544	8863.19
316.609	8832.1
316.674	8805.43
316.739	8778.15
316.804	8744.5
316.869	8713.37
316.934	8669.71
316.999	8647.19
317.064	8596.03
317.129	8548.05
317.194	8505.6
317.259	8460.46
317.324	8406.67
317.389	8369.43
317.454	8333.82
317.518	8302.93
317.583	8275.99
317.648	8249.09
317.713	8215.36
317.778	8149.89
317.843	8121.6
317.908	8087.35
317.973	8049.2
318.038	8015.73
318.103	7976.1
318.168	7948.82
318.233	7918.9
318.297	7867.35
318.362	7828.3
318.427	7791.85
318.492	7771.27
318.557	7726.6
318.622	7699.81
318.687	7678.42
318.751	7634.72
318.816	7599.77
318.881	7559.33
318.946	7507.27
319.011	7464.05
319.075	7416.46
319.14	7387.09
319.205	7341.19
319.27	7300.39
319.335	7250.79
319.399	7212.24
319.464	7181.58
319.529	7120.13
319.594	7079.42
319.658	7056.5
319.723	7010.76
319.788	6984.1
319.853	6924.13
319.917	6891.37
319.982	6835.74
320.047	6800.67
320.112	6782.7
320.176	6731.45
320.241	6699.61
320.306	6668.87
320.37	6629.93
320.435	6600.2
320.5	6571.87
320.564	6533.89
320.629	6494.91
320.694	6465.58
320.758	6421.99
320.823	6376.1
320.888	6358.63
320.952	6307.22
321.017	6265.99
321.082	6228.27
321.146	6195.87
321.211	6162.23
321.275	6124.13
321.34	6080.62
321.405	6032.26
321.469	5978.09
321.534	5934.01
321.598	5886.28
321.663	5852.22
321.727	5822.91
321.792	5770.11
321.857	5725.36
321.921	5683.3
321.986	5643.66
322.05	5587.14
322.115	5551.32
322.179	5510.06
322.244	5454.6
322.308	5422.2
322.373	5370.72
322.437	5330.71
322.502	5296.19
322.566	5249.32
322.631	5212.62
322.695	5174.92
322.76	5131.24
322.824	5096.84
322.889	5054.75
322.953	5005.39
323.018	4938.53
323.082	4871.07
323.146	4824.92
323.211	4772.59
323.275	4727.78
323.34	4686.19
323.404	4652.74
323.468	4607.17
323.533	4561.48
323.597	4514.32
323.662	4461.64
323.726	4421.02
323.79	4375.29
323.855	4309.97
323.919	4262.67
323.983	4217.95
324.048	4148.22
324.112	4303.42
324.177	4174.24
324.241	3961.16
324.305	3752.38
324.37	3547.82
324.434	3347.41
324.498	3302.99
324.562	3250.72
324.627	3191.03
324.691	3127.97
324.755	3059.54
324.82	2979.98
324.884	2903.76
324.948	2827.85
325.012	2731.19
325.077	2614.38
