Data from 20250703_urea_0.1M_MAYP1162681_20-11-05-112.txt Node
Date: Thu Jul 03 20:11:05 BST 2025
User: adleo
Spectrometer: MAYP116268
Trigger mode: 0
Integration Time (sec): 1.000000E0
Scans to average: 1
Electric dark correction enabled: true
Nonlinearity correction enabled: true
Boxcar width: 10
XAxis mode: Wavelengths
Number of Pixels in Spectrum: 2068
>>>>>Begin Spectral Data<<<<<
179.565	1373.75
179.642	1443.92
179.718	1495.91
179.795	1543.62
179.871	1582.77
179.948	1604.66
180.024	1630.15
180.101	1655.53
180.177	1673.45
180.254	1699.71
180.33	1726
180.407	1793.59
180.483	1901.25
180.56	2005.93
180.636	2101.28
180.712	2088.86
180.789	2100.52
180.865	2117.63
180.942	2126.96
181.018	2136.66
181.095	2153.79
181.171	2159.98
181.248	2158.36
181.324	2176.06
181.4	2183.06
181.477	2195.14
181.553	2207.65
181.63	2230.16
181.706	2246.96
181.782	2256.76
181.859	2255.28
181.935	2262.76
182.011	2259.52
182.088	2278.89
182.164	2300.12
182.24	2317.39
182.317	2329.24
182.393	2325.34
182.469	2340.1
182.546	2354.14
182.622	2364.27
182.698	2360.04
182.775	2373.55
182.851	2390.12
182.927	2380.46
183.003	2377.31
183.08	2370.51
183.156	2380.31
183.232	2373.65
183.308	2362.13
183.385	2372.93
183.461	2395.69
183.537	2395.45
183.613	2407.06
183.69	2397.02
183.766	2383.35
183.842	2394.21
183.918	2396.16
183.995	2411.77
184.071	2414.44
184.147	2405.01
184.223	2391.07
184.299	2406.41
184.375	2393.84
184.452	2400.6
184.528	2452.26
184.604	2463.64
184.68	2476.73
184.756	2488.68
184.832	2496.44
184.908	2502.92
184.985	2500.01
185.061	2479.49
185.137	2489.78
185.213	2480.31
185.289	2480.69
185.365	2471.36
185.441	2463.36
185.517	2475.88
185.593	2472.69
185.669	2467.79
185.745	2484.26
185.822	2499.4
185.898	2487.2
185.974	2497.96
186.05	2487.1
186.126	2452.72
186.202	2443.87
186.278	2440.2
186.354	2428.78
186.43	2438.21
186.506	2437.02
186.582	2436.35
186.658	2445.25
186.734	2422.59
186.81	2424.59
186.886	2428.21
186.962	2446.06
187.038	2445.53
187.114	2438.63
187.19	2446.58
187.266	2438.49
187.341	2438.06
187.417	2436.06
187.493	2437.97
187.569	2439.54
187.645	2435.78
187.721	2424.58
187.797	2431.3
187.873	2436.72
187.949	2431.54
188.025	2421.53
188.101	2422.34
188.176	2428.63
188.252	2422.49
188.328	2430.05
188.404	2429.91
188.48	2426.86
188.556	2420.29
188.632	2419.24
188.707	2422.63
188.783	2417.1
188.859	2411.82
188.935	2399.44
189.011	2405.92
189.086	2398.11
189.162	2389.4
189.238	2387.73
189.314	2383.4
189.39	2378.59
189.465	2366.74
189.541	2385.4
189.617	2369.36
189.693	2367.7
189.768	2370.7
189.844	2398.7
189.92	2391.33
189.996	2402.99
190.071	2413.94
190.147	2412.23
190.223	2422.32
190.298	2415.08
190.374	2401.42
190.45	2414.65
190.526	2425.94
190.601	2418.03
190.677	2420.37
190.753	2450.8
190.828	2455.56
190.904	2472.37
190.98	2487.51
191.055	2501.51
191.131	2490.51
191.207	2514.51
191.282	2520.6
191.358	2512.31
191.433	2496.97
191.509	2512.06
191.585	2506.58
191.66	2506.92
191.736	2513.2
191.811	2506.39
191.887	2521.01
191.963	2550.2
192.038	2555.68
192.114	2553.06
192.189	2563.92
192.265	2559.63
192.34	2536.38
192.416	2533.43
192.491	2530.77
192.567	2534.48
192.642	2535.77
192.718	2533.58
192.793	2517.34
192.869	2516.43
192.944	2517.96
193.02	2522.96
193.095	2527.2
193.171	2534.24
193.246	2534.67
193.322	2531.72
193.397	2528.44
193.473	2514.48
193.548	2492.24
193.624	2495.19
193.699	2496.24
193.775	2509.15
193.85	2509.15
193.925	2520.15
194.001	2518.82
194.076	2509.29
194.152	2501.43
194.227	2492.24
194.302	2483.58
194.378	2488.91
194.453	2483.15
194.529	2497.49
194.604	2482.16
194.679	2473.59
194.755	2452.83
194.83	2467.89
194.905	2467.6
194.981	2476.6
195.056	2468.08
195.131	2475.89
195.207	2476.32
195.282	2464.75
195.357	2444.07
195.433	2461.93
195.508	2446.45
195.583	2454.93
195.659	2468.21
195.734	2471.12
195.809	2473.74
195.884	2482.4
195.96	2484.02
196.035	2502.06
196.11	2496.16
196.185	2511.92
196.261	2515.01
196.336	2546.87
196.411	2530.81
196.486	2534.05
196.561	2531.91
196.637	2542.14
196.712	2560.48
196.787	2566.87
196.862	2585.96
196.937	2597.63
197.013	2605.02
197.088	2617.59
197.163	2639.51
197.238	2660.91
197.313	2663.05
197.388	2678.34
197.464	2715.37
197.539	2725.28
197.614	2719.13
197.689	2732.33
197.764	2747.49
197.839	2771.4
197.914	2766.78
197.989	2787.41
198.065	2804.52
198.14	2856.88
198.215	2888.81
198.29	2901.16
198.365	2915.27
198.44	2923.56
198.515	2954.27
198.59	2971.24
198.665	3002.23
198.74	3016.63
198.815	3018.82
198.89	3045.09
198.965	3077.91
199.04	3068.8
199.115	3089.53
199.19	3137.69
199.265	3140.32
199.34	3152.67
199.415	3192.13
199.49	3216.64
199.565	3232.9
199.64	3260.86
199.715	3258.33
199.79	3262.19
199.865	3266.53
199.94	3264.15
200.015	3299.12
200.09	3301.17
200.165	3309.14
200.24	3317.06
200.315	3361.19
200.39	3377.7
200.464	3382.62
200.539	3383.57
200.614	3399.84
200.689	3422.32
200.764	3425.56
200.839	3444.88
200.914	3451.61
200.989	3437.86
201.063	3449.93
201.138	3430.66
201.213	3429.95
201.288	3408.33
201.363	3413.96
201.438	3419.73
201.512	3434.9
201.587	3417.86
201.662	3427.93
201.737	3441.49
201.812	3448.89
201.886	3410.48
201.961	3422.9
202.036	3410.02
202.111	3406.87
202.186	3378.11
202.26	3364.94
202.335	3344.08
202.41	3339.55
202.485	3324.19
202.559	3304.29
202.634	3279.29
202.709	3292.88
202.784	3273.42
202.858	3275.8
202.933	3258.01
203.008	3255.29
203.082	3243.03
203.157	3246.66
203.232	3202.54
203.306	3187.18
203.381	3161.03
203.456	3144.09
203.53	3123.75
203.605	3113.93
203.68	3099.47
203.754	3104.95
203.829	3101.13
203.904	3094.46
203.978	3096.37
204.053	3114.21
204.127	3119.36
204.202	3137.1
204.277	3136.82
204.351	3151.75
204.426	3169.64
204.5	3191.21
204.575	3179.19
204.65	3217.14
204.724	3239.1
204.799	3281.68
204.873	3312.53
204.948	3346.42
205.022	3370.75
205.097	3401.36
205.171	3457.54
205.246	3514.48
205.32	3561.96
205.395	3609.39
205.469	3650.73
205.544	3714.81
205.618	3755.51
205.693	3827.72
205.767	3877.31
205.842	3963.11
205.916	4027.78
205.991	4088.84
206.065	4162.57
206.14	4256.77
206.214	4331.43
206.289	4407.09
206.363	4503.35
206.438	4594.56
206.512	4691.11
206.586	4802.68
206.661	4911.57
206.735	4989.8
206.81	5089.96
206.884	5210.38
206.958	5299.87
207.033	5429.9
207.107	5546.63
207.181	5691.02
207.256	5801.67
207.33	5942.53
207.405	6080.25
207.479	6218.01
207.553	6347.24
207.628	6457.46
207.702	6597.59
207.776	6715.05
207.851	6847.12
207.925	6995.49
207.999	7117.72
208.073	7252.03
208.148	7396.85
208.222	7517.13
208.296	7688.39
208.371	7845.24
208.445	7997.45
208.519	8176.06
208.593	8329.81
208.668	8464.3
208.742	8621.7
208.816	8769.52
208.89	8928.32
208.965	9072.82
209.039	9227.75
209.113	9395.05
209.187	9566.96
209.261	9718.35
209.336	9887.92
209.41	10061.55
209.484	10218.55
209.558	10397.36
209.632	10555.08
209.707	10714.74
209.781	10889.39
209.855	11052.7
209.929	11223.97
210.003	11380.74
210.077	11523.68
210.151	11720.85
210.226	11914.31
210.3	12085.18
210.374	12262.74
210.448	12415.58
210.522	12566.31
210.596	12725.23
210.67	12880.35
210.744	13075.23
210.818	13245.3
210.892	13417.87
210.966	13553.03
211.041	13709.03
211.115	13840.34
211.189	14012.09
211.263	14170.01
211.337	14322.1
211.411	14472.59
211.485	14600.62
211.559	14750.2
211.633	14898.57
211.707	15002.16
211.781	15145.27
211.855	15237.96
211.929	15356.59
212.003	15462.73
212.077	15604.3
212.151	15746.54
212.225	15879.28
212.299	15998.42
212.373	16115.93
212.447	16225.63
212.52	16373.26
212.594	16498.96
212.668	16632.56
212.742	16731.8
212.816	16845.1
212.89	16948.39
212.964	17066.56
213.038	17181.98
213.112	17301.07
213.186	17425.17
213.26	17515.24
213.333	17574.42
213.407	17689.03
213.481	17793.17
213.555	17914.72
213.629	18007.05
213.703	18097.51
213.777	18199.33
213.85	18272.15
213.924	18405.35
213.998	18509.73
214.072	18604.95
214.146	18682.01
214.219	18781.33
214.293	18874.48
214.367	18968.55
214.441	19070.71
214.515	19150.08
214.588	19209.11
214.662	19260.72
214.736	19312.96
214.81	19403.22
214.883	19491.6
214.957	19555.07
215.031	19619.84
215.105	19683.64
215.178	19748.89
215.252	19818.33
215.326	19866.96
215.4	19924.45
215.473	19941.56
215.547	19995.05
215.621	20058.33
215.694	20130.57
215.768	20168.16
215.842	20212.25
215.915	20268.73
215.989	20308.73
216.063	20360.98
216.136	20430.37
216.21	20489.94
216.284	20572.64
216.357	20636.35
216.431	20695
216.504	20766.67
216.578	20858.48
216.652	20927.69
216.725	20985.04
216.799	21051.99
216.873	21113.25
216.946	21176
217.02	21226.51
217.093	21273.45
217.167	21298.71
217.24	21338.57
217.314	21378.95
217.387	21437.61
217.461	21472.94
217.535	21538.64
217.608	21571.37
217.682	21611.42
217.755	21681.46
217.829	21717.51
217.902	21763.3
217.976	21804.8
218.049	21842.64
218.123	21866.94
218.196	21911.91
218.27	21952.79
218.343	21973.09
218.417	22020.81
218.49	22066.51
218.563	22122.28
218.637	22173.67
218.71	22239.23
218.784	22291.54
218.857	22357.77
218.931	22398.41
219.004	22439.68
219.077	22475.11
219.151	22521.15
219.224	22561.55
219.298	22590.04
219.371	22634.73
219.444	22661.83
219.518	22701.46
219.591	22735.83
219.665	22800.3
219.738	22835.06
219.811	22861.38
219.885	22911.53
219.958	22958.78
220.031	22984.43
220.105	23028.69
220.178	23054.39
220.251	23073.44
220.325	23115.2
220.398	23152.09
220.471	23195.19
220.544	23238.21
220.618	23264.39
220.691	23303.01
220.764	23328.52
220.838	23366.62
220.911	23392.56
220.984	23438.42
221.057	23478.44
221.131	23515.43
221.204	23514.61
221.277	23559.22
221.35	23614.77
221.424	23631.75
221.497	23657.21
221.57	23684.26
221.643	23707.61
221.716	23751.64
221.79	23770.54
221.863	23778.79
221.936	23787.18
222.009	23806.81
222.082	23825.23
222.155	23842.64
222.229	23871.68
222.302	23908.67
222.375	23916.87
222.448	23945.47
222.521	23957.38
222.594	23966.21
222.667	23966.35
222.74	23987.67
222.814	24002.77
222.887	24015.31
222.96	24047.87
223.033	24056.41
223.106	24081.78
223.179	24105.41
223.252	24107.25
223.325	24125.19
223.398	24135.32
223.471	24148.68
223.544	24159.05
223.617	24179.26
223.69	24195.71
223.763	24197.97
223.837	24205.59
223.91	24228.89
223.983	24213.5
224.056	24218.62
224.129	24219.53
224.202	24236.61
224.275	24233.71
224.348	24212.39
224.42	24191.17
224.493	24160.59
224.566	24163.34
224.639	24158.42
224.712	24151.71
224.785	24150.65
224.858	24148.67
224.931	24146.02
225.004	24137.19
225.077	24136.47
225.15	24097.64
225.223	24083.99
225.296	24100.44
225.369	24075.17
225.442	24052.88
225.514	24053.66
225.587	24055.78
225.66	24062
225.733	24059.44
225.806	24060.22
225.879	24065.09
225.952	24060.75
226.025	24074.69
226.097	24084.91
226.17	24083.66
226.243	24051.15
226.316	24040.88
226.389	24027.13
226.461	24027.95
226.534	24033.26
226.607	24011.74
226.68	24030.17
226.753	24029.44
226.825	24000.26
226.898	24009.38
226.971	24006.43
227.044	24002.14
227.117	23983.86
227.189	23974.36
227.262	23973.35
227.335	23961.53
227.407	23939.59
227.48	23933.32
227.553	23919.62
227.626	23889.13
227.698	23872.3
227.771	23863.38
227.844	23837.77
227.916	23828.95
227.989	23792.34
228.062	23764.42
228.134	23777.2
228.207	23757.13
228.28	23729.5
228.352	23708.28
228.425	23693.23
228.498	23684.65
228.57	23651.32
228.643	23650.94
228.716	23633.53
228.788	23615.15
228.861	23604.64
228.934	23603.29
229.006	23589.79
229.079	23568.9
229.151	23548.94
229.224	23514.46
229.296	23496.04
229.369	23509.4
229.442	23500.53
229.514	23476.95
229.587	23477.14
229.659	23433.64
229.732	23421.06
229.804	23423.56
229.877	23436.05
229.949	23422.65
230.022	23425.78
230.094	23414.35
230.167	23394
230.239	23361.94
230.312	23336.77
230.384	23335.37
230.457	23313.76
230.529	23285.75
230.602	23279.09
230.674	23265.5
230.747	23264.43
230.819	23272.97
230.892	23219.74
230.964	23205.22
231.037	23204.26
231.109	23173.83
231.181	23175.86
231.254	23136.95
231.326	23109.65
231.399	23068.04
231.471	23050.44
231.544	23006.32
231.616	23001.21
231.688	22978.21
231.761	22955.69
231.833	22929.56
231.905	22885.39
231.978	22859.55
232.05	22838
232.122	22812.49
232.195	22779.47
232.267	22765.97
232.339	22726.96
232.412	22731.06
232.484	22698.95
232.556	22660.57
232.629	22667.18
232.701	22651.31
232.773	22636.71
232.846	22599.68
232.918	22588.98
232.99	22557.69
233.062	22535.95
233.135	22509.19
233.207	22479.64
233.279	22463.1
233.351	22442.32
233.424	22407.28
233.496	22377
233.568	22364.9
233.64	22319.01
233.713	22294.81
233.785	22264.01
233.857	22237.35
233.929	22182.92
234.001	22171.93
234.074	22167.16
234.146	22114.03
234.218	22076
234.29	22037.68
234.362	22011.6
234.434	21958.09
234.507	21915.33
234.579	21867.28
234.651	21829.58
234.723	21799.55
234.795	21766.29
234.867	21728.4
234.939	21718.33
235.012	21687.53
235.084	21669.69
235.156	21643.23
235.228	21607.66
235.3	21574.5
235.372	21548.52
235.444	21534.83
235.516	21472.65
235.588	21436.88
235.66	21406.71
235.732	21362.32
235.804	21401.65
235.876	21370.76
235.948	21355.24
236.02	21324.35
236.092	21295.09
236.164	21262.46
236.236	21231.28
236.308	21209.73
236.38	21187.42
236.452	21145.63
236.524	21120.42
236.596	21096.66
236.668	21080.8
236.74	21046.34
236.812	21012.99
236.884	20986.73
236.956	20945.9
237.028	20913.76
237.1	20868.17
237.172	20858.53
237.244	20841.9
237.316	20761.65
237.388	20722.18
237.46	20687.09
237.532	20666.03
237.604	20620.83
237.675	20602.13
237.747	20557.45
237.819	20503.33
237.891	20465.55
237.963	20416.44
238.035	20368.68
238.107	20292.35
238.178	20260.54
238.25	20224.78
238.322	20209.94
238.394	20151.87
238.466	20114.03
238.538	20089.55
238.609	20064.06
238.681	20001.55
238.753	19957.12
238.825	19923.63
238.897	19891.63
238.968	19866.81
239.04	19827.29
239.112	19828.11
239.184	19780.12
239.255	19752.26
239.327	19723.44
239.399	19693.13
239.471	19673.52
239.542	19650.72
239.614	19640.89
239.686	19579.45
239.758	19555.98
239.829	19507.02
239.901	19488.32
239.973	19457.92
240.044	19427.41
240.116	19394.88
240.188	19355.08
240.259	19310.74
240.331	19265.93
240.403	19241.4
240.474	19189.64
240.546	19140.39
240.618	19081.5
240.689	19033.65
240.761	18998.23
240.833	18979.25
240.904	18928.94
240.976	18878.87
241.048	18842.92
241.119	18806.24
241.191	18787.16
241.262	18766.3
241.334	18727.79
241.405	18690.97
241.477	18653.1
241.549	18606.64
241.62	18563.17
241.692	18525.2
241.763	18504.43
241.835	18466.55
241.906	18429.45
241.978	18373.93
242.049	18361.69
242.121	18329.4
242.192	18309.36
242.264	18247.38
242.335	18188.54
242.407	18162.23
242.478	18124.01
242.55	18089.75
242.621	18044.93
242.693	17998.86
242.764	17953.23
242.836	17912.79
242.907	17881.57
242.979	17838.82
243.05	17813.09
243.122	17779.11
243.193	17742.1
243.264	17684.94
243.336	17647.02
243.407	17625.57
243.479	17617.77
243.55	17581.24
243.622	17546.49
243.693	17511.84
243.764	17502.06
243.836	17453.77
243.907	17425.52
243.978	17386.63
244.05	17348.61
244.121	17294.82
244.192	17262.53
244.264	17206.1
244.335	17173.14
244.407	17112.03
244.478	17091.69
244.549	17055.45
244.62	17013.81
244.692	16984.89
244.763	16967.39
244.834	16927.73
244.906	16881.32
244.977	16843.49
245.048	16813.85
245.119	16781.75
245.191	16739.82
245.262	16688.83
245.333	16687.48
245.405	16640.59
245.476	16626.08
245.547	16594.65
245.618	16584.68
245.689	16552.48
245.761	16529.16
245.832	16490.36
245.903	16468.38
245.974	16433.39
246.045	16395.31
246.117	16381.82
246.188	16332.41
246.259	16279.01
246.33	16244.12
246.401	16206.47
246.473	16157.89
246.544	16124.39
246.615	16099.09
246.686	16056.24
246.757	16040.29
246.828	15988.42
246.899	15976.23
246.97	15923.11
247.042	15887.98
247.113	15849.66
247.184	15844.69
247.255	15801.84
247.326	15773.65
247.397	15748.1
247.468	15716.29
247.539	15678.4
247.61	15627.65
247.681	15611.12
247.752	15600.66
247.823	15560.41
247.894	15530.57
247.965	15489.7
248.037	15446.94
248.108	15400.14
248.179	15378.35
248.25	15344.95
248.321	15327.64
248.392	15283.49
248.463	15276.74
248.534	15240.74
248.605	15214.37
248.675	15180.63
248.746	15170.56
248.817	15146.31
248.888	15113.05
248.959	15067.21
249.03	15051.54
249.101	15024.79
249.172	14990.66
249.243	14938.94
249.314	14933.73
249.385	14903.99
249.456	14886.49
249.527	14857.57
249.598	14842.24
249.669	14810.23
249.739	14783.19
249.81	14756.97
249.881	14718.02
249.952	14685.34
250.023	14656.46
250.094	14614.57
250.165	14572.01
250.235	14535.76
250.306	14503.46
250.377	14467.5
250.448	14444.51
250.519	14393.41
250.59	14378.37
250.66	14348.48
250.731	14340.58
250.802	14307.17
250.873	14287.45
250.944	14258.96
251.014	14223.2
251.085	14213.75
251.156	14189.79
251.227	14181.55
251.297	14167.13
251.368	14155.71
251.439	14143.32
251.51	14137.97
251.58	14102.49
251.651	14069.9
251.722	14058.33
251.792	14017.89
251.863	13992.96
251.934	13985.68
252.005	13989.2
252.075	13965.2
252.146	13955.36
252.217	13935.65
252.287	13920.7
252.358	13895.83
252.429	13890.77
252.499	13866.61
252.57	13849.45
252.641	13844.49
252.711	13814.65
252.782	13768.23
252.852	13767.26
252.923	13745.38
252.994	13719.1
253.064	13709.22
253.135	13678.75
253.205	13646.7
253.276	13645.88
253.347	13635.56
253.417	13604.61
253.488	13579.3
253.558	13552.65
253.629	13523.96
253.699	13506.51
253.77	13490.36
253.841	13459.66
253.911	13437.96
253.982	13413.23
254.052	13390.72
254.123	13366.57
254.193	13342.56
254.264	13364.88
254.334	13324.34
254.405	13287.85
254.475	13245.91
254.546	13228.7
254.616	13227.06
254.687	13207.92
254.757	13187.14
254.827	13169.5
254.898	13150.03
254.968	13128.48
255.039	13096.47
255.109	13080.27
255.18	13056.75
255.25	13006.52
255.321	12991.96
255.391	12960.09
255.461	12971.33
255.532	12922.11
255.602	12889.86
255.673	12848.88
255.743	12817.36
255.813	12771.32
255.884	12762.21
255.954	12754.59
256.024	12754.88
256.095	12723.11
256.165	12691.2
256.235	12675.05
256.306	12644.2
256.376	12631.57
256.446	12614.36
256.517	12607.04
256.587	12603.85
256.657	12580.76
256.728	12573.24
256.798	12551.99
256.868	12535.55
256.938	12499.49
257.009	12491.87
257.079	12487.2
257.149	12493.66
257.219	12446.08
257.29	12437.07
257.36	12392.53
257.43	12386.6
257.5	12338.39
257.571	12317.62
257.641	12301.28
257.711	12268.45
257.781	12256.79
257.852	12244.45
257.922	12205.98
257.992	12180
258.062	12150.88
258.132	12134.35
258.202	12114.49
258.273	12097.96
258.343	12089.62
258.413	12062.77
258.483	12039.1
258.553	12003.14
258.623	11976.87
258.693	11967.52
258.764	11968.87
258.834	11969.07
258.904	11948.1
258.974	11924.96
259.044	11908.19
259.114	11899.46
259.184	11887.17
259.254	11867.07
259.324	11828.22
259.394	11822.1
259.464	11821.77
259.535	11801.43
259.605	11778.67
259.675	11747.15
259.745	11738.04
259.815	11712.59
259.885	11688.45
259.955	11697.61
260.025	11676.4
260.095	11660.59
260.165	11650.13
260.235	11639.48
260.305	11614.71
260.375	11586.17
260.445	11597.4
260.515	11597.11
260.585	11594.36
260.655	11581.59
260.725	11575.33
260.795	11569.35
260.865	11577.69
260.934	11555.28
261.004	11550.22
261.074	11526.94
261.144	11530.89
261.214	11520.33
261.284	11503.61
261.354	11496.38
261.424	11473.15
261.494	11474.11
261.564	11451.03
261.634	11435.32
261.703	11400.08
261.773	11389.43
261.843	11375.8
261.913	11344.52
261.983	11306.54
262.053	11289.82
262.123	11267.21
262.192	11231.17
262.262	11219.55
262.332	11178.78
262.402	11164.18
262.472	11140.42
262.541	11112.76
262.611	11100.08
262.681	11071.36
262.751	11059.17
262.821	11040.85
262.89	11006.54
262.96	10993.63
263.03	11005.91
263.1	10998.16
263.169	10987.12
263.239	10973.92
263.309	10983.94
263.379	10974.83
263.448	10968.28
263.518	10955.7
263.588	10938.98
263.657	10950.16
263.727	10951.03
263.797	10934.79
263.867	10915.99
263.936	10892.38
264.006	10894.55
264.076	10878.99
264.145	10868.58
264.215	10845.35
264.285	10843.57
264.354	10809.84
264.424	10791.05
264.494	10760.83
264.563	10741.51
264.633	10751.53
264.702	10740.4
264.772	10700.07
264.842	10682.96
264.911	10672.07
264.981	10642.15
265.05	10629.96
265.12	10603.26
265.19	10588.76
265.259	10593
265.329	10588.33
265.398	10573.15
265.468	10583.03
265.537	10563.51
265.607	10553.2
265.676	10552.24
265.746	10544.19
265.815	10543.71
265.885	10526.56
265.955	10490.47
266.024	10467.78
266.094	10426.05
266.163	10431.98
266.232	10435.06
266.302	10426.15
266.371	10414.4
266.441	10404.71
266.51	10405.58
266.58	10393.2
266.649	10366.12
266.719	10355.95
266.788	10345.3
266.858	10356.14
266.927	10316.44
266.996	10309.03
267.066	10292.36
267.135	10264.03
267.205	10258.87
267.274	10250.59
267.343	10250.06
267.413	10237.82
267.482	10240.81
267.552	10245.29
267.621	10209.35
267.69	10182.23
267.76	10170.04
267.829	10159.73
267.898	10144.22
267.968	10120.56
268.037	10112.81
268.106	10108.71
268.176	10085.01
268.245	10068.78
268.314	10046.66
268.384	10049.79
268.453	10045.89
268.522	10048.73
268.592	10049.55
268.661	10019.2
268.73	10013.23
268.799	9991.89
268.869	10010.77
268.938	9978.21
269.007	9952.78
269.076	9943.14
269.146	9940.16
269.215	9939.15
269.284	9942.52
269.353	9925.95
269.422	9911.11
269.492	9900.76
269.561	9858.23
269.63	9857.41
269.699	9843.2
269.768	9835.49
269.838	9819.5
269.907	9808.62
269.976	9772.83
270.045	9742.92
270.114	9748.37
270.183	9736.37
270.253	9728.96
270.322	9696.35
270.391	9687.05
270.46	9698.13
270.529	9698.56
270.598	9693.22
270.667	9680.98
270.736	9659.93
270.806	9660.37
270.875	9660.37
270.944	9640.96
271.013	9666.58
271.082	9647.56
271.151	9641.01
271.22	9611.29
271.289	9604.02
271.358	9597.28
271.427	9599.88
271.496	9592.17
271.565	9571.46
271.634	9559.76
271.703	9584.47
271.772	9584.33
271.841	9575.47
271.91	9547.49
271.979	9535.49
272.048	9518.21
272.117	9513.77
272.186	9498.12
272.255	9497.21
272.324	9494.32
272.393	9488.68
272.462	9472.41
272.531	9468.22
272.6	9457.77
272.669	9472.98
272.738	9460.8
272.807	9453.24
272.876	9426.52
272.945	9460.32
273.013	9465.28
273.082	9478.09
273.151	9430.65
273.22	9428.63
273.289	9420.35
273.358	9434.51
273.427	9424.59
273.496	9420.01
273.564	9413.9
273.633	9419.77
273.702	9395.21
273.771	9382.69
273.84	9382.26
273.909	9378.94
273.977	9379.71
274.046	9372.15
274.115	9368.39
274.184	9352.99
274.253	9344.37
274.322	9359.92
274.39	9320.62
274.459	9299.97
274.528	9263.61
274.597	9259.09
274.665	9255.48
274.734	9266.45
274.803	9254.03
274.872	9247.62
274.94	9235.15
275.009	9270.08
275.078	9251.92
275.147	9252.79
275.215	9246.34
275.284	9256.4
275.353	9246.34
275.421	9219.13
275.49	9231.65
275.559	9215.23
275.627	9203.25
275.696	9195.35
275.765	9192.37
275.833	9186.25
275.902	9189.34
275.971	9203.49
276.039	9220.39
276.108	9220.2
276.177	9215.86
276.245	9198.58
276.314	9196.41
276.383	9199.01
276.451	9149.12
276.52	9154.94
276.588	9170.64
276.657	9181.67
276.725	9167.46
276.794	9163.99
276.863	9175.6
276.931	9150.99
277	9161.63
277.068	9177.95
277.137	9192.3
277.205	9187.68
277.274	9204.62
277.342	9213.44
277.411	9190.19
277.48	9171.26
277.548	9158.22
277.617	9154.12
277.685	9152.39
277.754	9155.47
277.822	9148.25
277.89	9167.17
277.959	9155.67
278.027	9130.77
278.096	9119.51
278.164	9147.44
278.233	9141.32
278.301	9130.73
278.37	9135.55
278.438	9120.38
278.507	9125.39
278.575	9098.62
278.643	9096.02
278.712	9073.2
278.78	9054.13
278.849	9070.31
278.917	9091.11
278.985	9087.54
279.054	9090.77
279.122	9106.51
279.191	9099.48
279.259	9095.2
279.327	9071.75
279.396	9085.57
279.464	9082.39
279.532	9084.41
279.601	9075.31
279.669	9071.12
279.737	9085.37
279.806	9089.95
279.874	9100.49
279.942	9095.72
280.011	9094.18
280.079	9104.92
280.147	9125.57
280.215	9138.72
280.284	9128.61
280.352	9103.09
280.42	9113.92
280.488	9107.95
280.557	9093.17
280.625	9099.04
280.693	9097.12
280.761	9097.94
280.83	9082.15
280.898	9094.04
280.966	9076.13
281.034	9042.52
281.102	9027.94
281.171	9021.53
281.239	9032.22
281.307	9024.95
281.375	9015.33
281.443	9039.64
281.512	9033.43
281.58	9041.76
281.648	9020.96
281.716	9022.21
281.784	9025.49
281.852	9010.27
281.92	9008.88
281.989	9018.26
282.057	8996.84
282.125	9049.96
282.193	9048.41
282.261	9053.57
282.329	9046.3
282.397	9048.7
282.465	9050.63
282.533	9062.71
282.601	9051.49
282.67	9025.69
282.738	9009.9
282.806	9021.26
282.874	9007.97
282.942	9010.91
283.01	9004.65
283.078	9009.85
283.146	9009.94
283.214	9022.32
283.282	9030.74
283.35	9034.69
283.418	9030.88
283.486	9037.82
283.554	8983.74
283.622	8986.77
283.69	8979.74
283.758	8975.89
283.826	8977.24
283.894	8989.66
283.962	9016.86
284.03	9030.87
284.098	9032.27
284.165	9033.38
284.233	9032.13
284.301	9020.04
284.369	9008.73
284.437	8994.62
284.505	8988.94
284.573	9000.01
284.641	8985.81
284.709	8991.44
284.777	8977.48
284.845	8983.89
284.912	8989.66
284.98	9000.45
285.048	8993.03
285.116	8999.72
285.184	9017.06
285.252	9015.18
285.319	9000.64
285.387	8984.17
285.455	8960.1
285.523	8970.69
285.591	8968.82
285.659	8965.06
285.726	8981.67
285.794	8965.98
285.862	8959.29
285.93	8963.19
285.997	8959.91
286.065	8955.15
286.133	8943.16
286.201	8944.51
286.269	8929.49
286.336	8920.97
286.404	8913.79
286.472	8926.17
286.539	8900.42
286.607	8883.09
286.675	8886.17
286.743	8897.77
286.81	8891.75
286.878	8909.22
286.946	8893.63
287.013	8892.66
287.081	8893.82
287.149	8879.62
287.216	8903.35
287.284	8900.41
287.352	8897.19
287.419	8890.54
287.487	8901.9
287.555	8906.43
287.622	8904.75
287.69	8915.77
287.758	8928.43
287.825	8916.69
287.893	8897.77
287.96	8911.96
288.028	8919.67
288.096	8924.72
288.163	8921.54
288.231	8913.55
288.298	8910.91
288.366	8926.12
288.433	8925.2
288.501	8918.17
288.569	8918.08
288.636	8913.02
288.704	8932.62
288.771	8942.63
288.839	8934.01
288.906	8926.31
288.974	8940.71
289.041	8935.8
289.109	8922.8
289.176	8929.78
289.244	8940.85
289.311	8954.91
289.379	8966.56
289.446	8968.29
289.514	8969.44
289.581	8967.86
289.649	8970.7
289.716	8974.4
289.783	8971.47
289.851	8993.51
289.918	8994.43
289.986	9006.7
290.053	9007.91
290.121	9002.47
290.188	9003.96
290.255	9041.9
290.323	9043.05
290.39	9032.32
290.458	9039.39
290.525	9049.93
290.592	9042.09
290.66	9045.55
290.727	9037.22
290.794	9043.29
290.862	9043.24
290.929	9046.95
290.996	9049.93
291.064	9063.27
291.131	9074.39
291.198	9084.36
291.266	9076.51
291.333	9081.18
291.4	9085.56
291.468	9101.3
291.535	9101.02
291.602	9105.25
291.669	9095.67
291.737	9097.69
291.804	9097.26
291.871	9116.42
291.938	9122.49
292.006	9149.21
292.073	9168.85
292.14	9184.12
292.207	9180.79
292.275	9182.38
292.342	9192.2
292.409	9223.79
292.476	9244.4
292.543	9233.47
292.611	9236.27
292.678	9260.77
292.745	9288.65
292.812	9301.89
292.879	9300.35
292.946	9303.43
293.014	9320.09
293.081	9323.03
293.148	9335.36
293.215	9355.2
293.282	9348.21
293.349	9361.79
293.416	9348.16
293.484	9354.28
293.551	9370.46
293.618	9383.32
293.685	9413.17
293.752	9404.79
293.819	9396.61
293.886	9383.99
293.953	9395.64
294.02	9407.05
294.087	9407.44
294.154	9399.59
294.221	9413.65
294.288	9414.91
294.356	9437.01
294.423	9439.27
294.49	9435.85
294.557	9455.11
294.624	9444.13
294.691	9462.82
294.758	9462.87
294.825	9468.31
294.892	9457.81
294.959	9451.74
295.026	9468.21
295.093	9460.84
295.16	9463.4
295.226	9465.27
295.293	9491.86
295.36	9497.73
295.427	9505.73
295.494	9523.88
295.561	9528.84
295.628	9552.45
295.695	9569.93
295.762	9570.94
295.829	9578.98
295.896	9597.62
295.963	9606.05
296.03	9620.64
296.096	9630.03
296.163	9638.51
296.23	9654.45
296.297	9675.06
296.364	9675.11
296.431	9673.09
296.498	9665.72
296.564	9692.88
296.631	9690.33
296.698	9672.02
296.765	9692.11
296.832	9682.19
296.899	9661.09
296.965	9681.46
297.032	9659.93
297.099	9677.22
297.166	9684.21
297.233	9685.75
297.299	9675.54
297.366	9672.31
297.433	9672.94
297.5	9681.56
297.566	9685.17
297.633	9686.18
297.7	9681.41
297.767	9683.77
297.833	9696.01
297.9	9696.88
297.967	9677.27
298.033	9699.53
298.1	9734.54
298.167	9725.44
298.234	9735.17
298.3	9752.46
298.367	9745.81
298.434	9753.95
298.5	9742.15
298.567	9738.49
298.634	9734.78
298.7	9752.31
298.767	9758.19
298.834	9773.46
298.9	9760.98
298.967	9755.54
299.033	9764.31
299.1	9788.63
299.167	9801.54
299.233	9797.11
299.3	9814.59
299.366	9835.01
299.433	9845.41
299.5	9816.22
299.566	9819.88
299.633	9844.31
299.699	9855.72
299.766	9853.99
299.832	9858.32
299.899	9869.31
299.965	9880.14
300.032	9878.12
300.099	9890.79
300.165	9897.24
300.232	9891.9
300.298	9901.96
300.365	9916.32
300.431	9921.9
300.498	9905.82
300.564	9910.92
300.631	9918.2
300.697	9936.11
300.763	9935.54
300.83	9929.66
300.896	9945.02
300.963	9958.66
301.029	9949.36
301.096	9952.34
301.162	9971.76
301.229	9963.57
301.295	9955.33
301.361	9957.59
301.428	9962.99
301.494	9942.37
301.561	9946.18
301.627	9944.78
301.693	9949.02
301.76	9953.36
301.826	9943.43
301.892	9957.16
301.959	9963.81
302.025	9963.23
302.092	9955.91
302.158	9970.17
302.224	9979.13
302.291	9971.76
302.357	9968.34
302.423	9966.99
302.49	9962.03
302.556	9967.61
302.622	9966.99
302.688	9968.82
302.755	9989.63
302.821	9998.88
302.887	10006.3
302.954	10000.51
303.02	10011.35
303.086	10015.93
303.152	10011.26
303.219	10011.3
303.285	10019.69
303.351	10031.73
303.417	10029.76
303.483	10022.14
303.55	10002.3
303.616	9994.93
303.682	9990.59
303.748	9983.32
303.815	9999.6
303.881	10004.18
303.947	9987.75
304.013	9991.8
304.079	9984.43
304.145	9960.2
304.212	9960.39
304.278	9952.97
304.344	9949.7
304.41	9937.22
304.476	9928.65
304.542	9929.03
304.608	9933.22
304.674	9913.76
304.741	9907.65
304.807	9914.73
304.873	9917.28
304.939	9941.65
305.005	9919.35
305.071	9921.52
305.137	9919.35
305.203	9884.24
305.269	9882.02
305.335	9896.37
305.401	9898.06
305.467	9901.14
305.533	9909.62
305.599	9919.06
305.666	9933.56
305.732	9933.37
305.798	9946.18
305.864	9973.69
305.93	9977.73
305.996	9979.81
306.062	9982.26
306.128	9976.92
306.194	9958.71
306.259	9961.74
306.325	9952.73
306.391	9971.95
306.457	9978.6
306.523	9983.99
306.589	10015.93
306.655	10007.74
306.721	9993.39
306.787	9977.68
306.853	9993.68
306.919	9972.19
306.985	9961.16
307.051	9957.79
307.117	9953.07
307.183	9951.05
307.248	9917.13
307.314	9913.23
307.38	9907.45
307.446	9912.51
307.512	9899.99
307.578	9913.52
307.644	9906.2
307.709	9906.39
307.775	9902.78
307.841	9904.99
307.907	9901.53
307.973	9881.54
308.039	9885
308.104	9887.8
308.17	9890.93
308.236	9873.15
308.302	9880.43
308.368	9865.06
308.433	9858.13
308.499	9851.53
308.565	9837.99
308.631	9841.65
308.696	9826.72
308.762	9816.7
308.828	9815.26
308.894	9794.4
308.959	9764.16
309.025	9757.75
309.091	9754.77
309.156	9740.46
309.222	9738.1
309.288	9728.08
309.354	9704.77
309.419	9698.42
309.485	9681.99
309.551	9681.8
309.616	9670
309.682	9669.71
309.748	9668.46
309.813	9667.54
309.879	9657.67
309.945	9643.46
310.01	9634.89
310.076	9636
310.141	9632.48
310.207	9615.82
310.273	9622.27
310.338	9634.31
310.404	9614.81
310.469	9594.62
310.535	9588.22
310.601	9559.04
310.666	9564.67
310.732	9574.59
310.797	9562.41
310.863	9550.51
310.928	9542.32
310.994	9550.7
311.059	9543.43
311.125	9542.03
311.191	9552.63
311.256	9541.22
311.322	9555.86
311.387	9534.19
311.453	9868.97
311.518	9843.49
311.584	9845.66
311.649	9855.39
311.715	9844.55
311.78	9848.65
311.846	9839.64
311.911	9850.33
311.976	9860.11
312.042	9845.81
312.107	9832.71
312.173	9827.07
312.238	9822.98
312.304	9818.26
312.369	9800.88
312.434	9793.65
312.5	9781.04
312.565	9744.82
312.631	9750.79
312.696	9737.02
312.761	9747.8
312.827	9402.77
312.892	9447.36
312.958	9437.01
313.023	9430.22
313.088	9425.93
313.154	9410.33
313.219	9403.54
313.284	9387.02
313.35	9383.12
313.415	9371.57
313.48	9369.59
313.546	9376.48
313.611	9382.74
313.676	9376.96
313.741	9371.42
313.807	9378.12
313.872	9383.08
313.937	9393.96
314.003	9407.15
314.068	9409.61
314.133	9410.43
314.198	9402
314.264	9374.89
314.329	9368.58
314.394	9365.79
314.459	9369.73
314.525	9390.2
314.59	9386.83
314.655	9376.09
314.72	9381.63
314.785	9387.26
314.851	9378.31
314.916	9349.75
314.981	9340.41
315.046	9331.21
315.111	9320.81
315.176	9309.64
315.242	9320.67
315.307	9312.77
315.372	9288.94
315.437	9275.41
315.502	9261.15
315.567	9271.27
315.632	9252.05
315.698	9252.25
315.763	9248.92
315.828	9236.02
315.893	9232.6
315.958	9226.97
316.023	9224.56
316.088	9205.3
316.153	9183.78
316.218	9180.17
316.283	9163.04
316.348	9145.56
316.413	9141.76
316.479	9125.29
316.544	9084.23
316.609	9040.13
316.674	9002.49
316.739	8966.44
316.804	8937.22
316.869	8906.8
316.934	8869.39
316.999	8842.25
317.064	8790.46
317.129	8738.37
317.194	8701.36
317.259	8650.39
317.324	8601.3
317.389	8550.1
317.454	8507.89
317.518	8473.97
317.583	8444.37
317.648	8426.47
317.713	8388.21
317.778	8326.04
317.843	8296.74
317.908	8260.85
317.973	8227.56
318.038	8204.37
318.103	8173.49
318.168	8142.65
318.233	8113.49
318.297	8057.79
318.362	8019.98
318.427	7979.35
318.492	7960.97
318.557	7913.89
318.622	7891.43
318.687	7869.93
318.751	7830.5
318.816	7798.76
318.881	7764.38
318.946	7710.33
319.011	7660.85
319.075	7618.15
319.14	7586.33
319.205	7540.7
319.27	7509.07
319.335	7464.65
319.399	7420.09
319.464	7389.76
319.529	7328.43
319.594	7288.68
319.658	7258.26
319.723	7214.43
319.788	7187.91
319.853	7127.35
319.917	7100.83
319.982	7040.9
320.047	7001.78
320.112	6973.87
320.176	6922.94
320.241	6887.58
320.306	6857.22
320.37	6819.42
320.435	6788.05
320.5	6761.35
320.564	6722.2
320.629	6680.57
320.694	6645.27
320.758	6606.04
320.823	6564.93
320.888	6547.6
320.952	6497.81
321.017	6460.08
321.082	6420.33
321.146	6383.94
321.211	6353.32
321.275	6306.67
321.34	6258.63
321.405	6215.63
321.469	6168.85
321.534	6125
321.598	6071.35
321.663	6039.15
321.727	6005.75
321.792	5955.95
321.857	5911.23
321.921	5874.11
321.986	5835.07
322.05	5777
322.115	5741.79
322.179	5697.15
322.244	5636.78
322.308	5606.14
322.373	5557
322.437	5521.15
322.502	5495.78
322.566	5446.88
322.631	5411.99
322.695	5375.38
322.76	5327.95
322.824	5292.97
322.889	5250.77
322.953	5207.75
323.018	5140.53
323.082	5076.02
323.146	5024.74
323.211	4965.69
323.275	4917.41
323.34	4864.8
323.404	4833.11
323.468	4780.39
323.533	4731.89
323.597	4686.44
323.662	4629.86
323.726	4594.68
323.79	4543.91
323.855	4475.55
323.919	4425.89
323.983	4377.47
324.048	4309.3
324.112	4471.02
324.177	4339.27
324.241	4115.96
324.305	3895.94
324.37	3680.8
324.434	3473.36
324.498	3427.93
324.562	3377.56
324.627	3315.01
324.691	3258.8
324.755	3186.4
324.82	3107.17
324.884	3025.43
324.948	2947.04
325.012	2845.87
325.077	2713.44
