Data from 20250703_urea_0.1M_MAYP1162681_07-51-04-766.txt Node
Date: Fri Jul 04 07:51:04 BST 2025
User: adleo
Spectrometer: MAYP116268
Trigger mode: 0
Integration Time (sec): 1.000000E0
Scans to average: 1
Electric dark correction enabled: true
Nonlinearity correction enabled: true
Boxcar width: 10
XAxis mode: Wavelengths
Number of Pixels in Spectrum: 2068
>>>>>Begin Spectral Data<<<<<
179.565	1229.7
179.642	1285.32
179.718	1336.68
179.795	1379.43
179.871	1412.41
179.948	1428.68
180.024	1448.13
180.101	1472.58
180.177	1488.78
180.254	1510.85
180.33	1533.09
180.407	1589.88
180.483	1686.89
180.56	1780.3
180.636	1867.9
180.712	1855.02
180.789	1863.91
180.865	1877.12
180.942	1887.57
181.018	1894.89
181.095	1907.78
181.171	1910.2
181.248	1911.35
181.324	1924.33
181.4	1929.28
181.477	1941.02
181.553	1957.75
181.63	1981.2
181.706	1995.8
181.782	2002.02
181.859	2001.26
181.935	2008.25
182.011	2003.55
182.088	2018.29
182.164	2037.56
182.24	2049.97
182.317	2065.09
182.393	2065.47
182.469	2079.4
182.546	2091.82
182.622	2100.14
182.698	2097.85
182.775	2112.27
182.851	2126.68
182.927	2119.11
183.003	2115.31
183.08	2105.85
183.156	2111.65
183.232	2104.99
183.308	2092.62
183.385	2103.8
183.461	2123.54
183.537	2124.78
183.613	2139.81
183.69	2133.67
183.766	2121.92
183.842	2129.62
183.918	2133.05
183.995	2144.28
184.071	2148.94
184.147	2142.99
184.223	2129.3
184.299	2142.19
184.375	2134.3
184.452	2143.81
184.528	2191.92
184.604	2200.71
184.68	2217.93
184.756	2227.74
184.832	2236.92
184.908	2242.01
184.985	2240.15
185.061	2223.03
185.137	2232.88
185.213	2219.94
185.289	2220.22
185.365	2213.04
185.441	2211.56
185.517	2224.56
185.593	2220.23
185.669	2220.99
185.745	2233.27
185.822	2252.81
185.898	2244.01
185.974	2251.67
186.05	2240.63
186.126	2206.85
186.202	2202.28
186.278	2199.71
186.354	2186.82
186.43	2192.91
186.506	2192.15
186.582	2190.34
186.658	2198.62
186.734	2174.64
186.81	2178.16
186.886	2182.11
186.962	2194.34
187.038	2190.77
187.114	2179.96
187.19	2189.38
187.266	2172.4
187.341	2171.83
187.417	2165.12
187.493	2165.84
187.569	2167.5
187.645	2162.13
187.721	2152.47
187.797	2158.17
187.873	2156.32
187.949	2153.65
188.025	2145.94
188.101	2148.56
188.176	2153.89
188.252	2147.47
188.328	2157.5
188.404	2159.92
188.48	2154.79
188.556	2149.6
188.632	2150.03
188.707	2152.22
188.783	2146.41
188.859	2143.75
188.935	2135.95
189.011	2142.13
189.086	2135
189.162	2126.15
189.238	2124.58
189.314	2123.01
189.39	2118.35
189.465	2114.35
189.541	2128.34
189.617	2113.5
189.693	2110.41
189.768	2117.73
189.844	2144.43
189.92	2138.96
189.996	2144.29
190.071	2156.66
190.147	2155.28
190.223	2162.7
190.298	2156.47
190.374	2147.53
190.45	2159.32
190.526	2166.08
190.601	2158.66
190.677	2157.8
190.753	2187.36
190.828	2190.41
190.904	2204.63
190.98	2219.48
191.055	2227.33
191.131	2223.57
191.207	2242.98
191.282	2252.4
191.358	2238.98
191.433	2223.99
191.509	2236.4
191.585	2234.78
191.66	2234.26
191.736	2241.06
191.811	2233.45
191.887	2250.2
191.963	2274.09
192.038	2281.37
192.114	2281.23
192.189	2284.13
192.265	2284.37
192.34	2259.61
192.416	2258.19
192.491	2253.05
192.567	2256.95
192.642	2261.95
192.718	2258.81
192.793	2245.67
192.869	2241.3
192.944	2244.72
193.02	2252
193.095	2255.57
193.171	2258.81
193.246	2258.33
193.322	2257.38
193.397	2256.38
193.473	2240.91
193.548	2221.83
193.624	2228.49
193.699	2226.92
193.775	2246.39
193.85	2248.43
193.925	2258.28
194.001	2256.29
194.076	2248.43
194.152	2237.87
194.227	2231.49
194.302	2221.45
194.378	2225.5
194.453	2221.88
194.529	2234.3
194.604	2218.98
194.679	2209.56
194.755	2193.48
194.83	2208.86
194.905	2205.29
194.981	2215.52
195.056	2210.62
195.131	2215.71
195.207	2211.81
195.282	2203.58
195.357	2183.35
195.433	2195.05
195.508	2183.11
195.583	2192.29
195.659	2206.09
195.734	2212.38
195.809	2210.19
195.884	2220.6
195.96	2222.84
196.035	2238.97
196.11	2234.21
196.185	2247.96
196.261	2252.91
196.336	2280.84
196.411	2263.56
196.486	2269.41
196.561	2265.27
196.637	2271.65
196.712	2287.97
196.787	2293.07
196.862	2305.3
196.937	2315.96
197.013	2323.05
197.088	2333.04
197.163	2357.04
197.238	2374.95
197.313	2375.05
197.388	2390.37
197.464	2417.8
197.539	2426.36
197.614	2420.65
197.689	2434.89
197.764	2450.7
197.839	2470.64
197.914	2468.07
197.989	2491.83
198.065	2508.26
198.14	2557.24
198.215	2585.53
198.29	2597.3
198.365	2611.11
198.44	2622.73
198.515	2653.46
198.59	2668.89
198.665	2696.09
198.74	2708.29
198.815	2709.62
198.89	2734.35
198.965	2762.8
199.04	2763.85
199.115	2782.09
199.19	2827.07
199.265	2829.45
199.34	2840.41
199.415	2875.26
199.49	2896.41
199.565	2903.61
199.64	2923.82
199.715	2922.24
199.79	2931.44
199.865	2939.02
199.94	2936.4
200.015	2971.3
200.09	2971.82
200.165	2980.21
200.24	2988.03
200.315	3025.11
200.39	3037.27
200.464	3043.23
200.539	3050.34
200.614	3065.69
200.689	3091.25
200.764	3098.31
200.839	3117.66
200.914	3122.09
200.989	3112.17
201.063	3127.29
201.138	3113.47
201.213	3115.66
201.288	3098.54
201.363	3102.69
201.438	3101.17
201.512	3118.04
201.587	3095.2
201.662	3100.73
201.737	3113.65
201.812	3122.09
201.886	3089.02
201.961	3105.34
202.036	3092.28
202.111	3086.17
202.186	3054.53
202.26	3036.74
202.335	3014.61
202.41	3010.41
202.485	2992.64
202.559	2974.43
202.634	2948.11
202.709	2955.78
202.784	2938.9
202.858	2939.14
202.933	2922.74
203.008	2920.31
203.082	2902.39
203.157	2909.78
203.232	2871.57
203.306	2854.45
203.381	2828.13
203.456	2809.83
203.53	2791.03
203.605	2777.22
203.68	2758.34
203.754	2762.24
203.829	2755.57
203.904	2742.37
203.978	2740.8
204.053	2758.67
204.127	2753.72
204.202	2763.73
204.277	2763.73
204.351	2769.4
204.426	2775.4
204.5	2782.74
204.575	2762.88
204.65	2789.81
204.724	2800.49
204.799	2827.17
204.873	2842.19
204.948	2863.97
205.022	2878.03
205.097	2895.73
205.171	2940.06
205.246	2978.13
205.32	3009.82
205.395	3043.35
205.469	3069.43
205.544	3111.28
205.618	3132.56
205.693	3186.65
205.767	3217.18
205.842	3279.61
205.916	3320.45
205.991	3360.02
206.065	3414.44
206.14	3483.94
206.214	3532.71
206.289	3579.33
206.363	3646.17
206.438	3706.51
206.512	3770.15
206.586	3844.47
206.661	3908.33
206.735	3946.79
206.81	4010.96
206.884	4088.76
206.958	4140.91
207.033	4230.3
207.107	4304.37
207.181	4405.52
207.256	4470.24
207.33	4560.57
207.405	4644.32
207.479	4737.36
207.553	4819.93
207.628	4878.32
207.702	4972.31
207.776	5047.8
207.851	5131.67
207.925	5234.89
207.999	5320.77
208.073	5401.95
208.148	5495.42
208.222	5569.34
208.296	5692.14
208.371	5801.67
208.445	5899.18
208.519	6020.62
208.593	6118.5
208.668	6202.77
208.742	6299.14
208.816	6401.07
208.89	6514.15
208.965	6612.62
209.039	6715.5
209.113	6828.17
209.187	6946.42
209.261	7034.7
209.336	7142.84
209.41	7261.44
209.484	7350.94
209.558	7462.36
209.632	7578.54
209.707	7692.25
209.781	7816.67
209.855	7927.96
209.929	8038.57
210.003	8141.02
210.077	8236.74
210.151	8384.63
210.226	8521
210.3	8642.01
210.374	8756.39
210.448	8848.65
210.522	8949.84
210.596	9060.99
210.67	9165.02
210.744	9307.39
210.818	9431.78
210.892	9551.34
210.966	9638.74
211.041	9753.64
211.115	9848.27
211.189	9959.96
211.263	10066.27
211.337	10154.94
211.411	10262.42
211.485	10345.43
211.559	10456.95
211.633	10548.38
211.707	10600.42
211.781	10695.35
211.855	10753.37
211.929	10833.83
212.003	10909.04
212.077	11009.03
212.151	11107.06
212.225	11201.75
212.299	11271.35
212.373	11344.79
212.447	11432.41
212.52	11547.55
212.594	11631.85
212.668	11725.44
212.742	11793.89
212.816	11862.67
212.89	11942.38
212.964	12023.85
213.038	12111
213.112	12199.5
213.186	12300.62
213.26	12359.57
213.333	12386.42
213.407	12470.82
213.481	12554.41
213.555	12639.14
213.629	12698.24
213.703	12747.94
213.777	12821.36
213.85	12886.73
213.924	12994.56
213.998	13067.35
214.072	13130.5
214.146	13189.61
214.219	13258.83
214.293	13329.02
214.367	13406.15
214.441	13491.14
214.515	13541.13
214.588	13584.61
214.662	13615.65
214.736	13653.01
214.81	13730.77
214.883	13813.35
214.957	13867.82
215.031	13918.24
215.105	13960.28
215.178	14016.2
215.252	14075.73
215.326	14116.95
215.4	14151.47
215.473	14163.47
215.547	14199.72
215.621	14252.7
215.694	14322.93
215.768	14365.98
215.842	14403.48
215.915	14442.62
215.989	14472.75
216.063	14513.92
216.136	14566.8
216.21	14626.28
216.284	14697
216.357	14752.77
216.431	14800.69
216.504	14855.78
216.578	14928.43
216.652	14999.48
216.725	15054.09
216.799	15118.15
216.873	15164.24
216.946	15222.61
217.02	15273.32
217.093	15327.07
217.167	15348.71
217.24	15374.88
217.314	15410.74
217.387	15460.78
217.461	15505.51
217.535	15575.54
217.608	15622.97
217.682	15678.74
217.755	15734.41
217.829	15766.66
217.902	15811.34
217.976	15857.56
218.049	15897.76
218.123	15937.57
218.196	15982.3
218.27	16017.05
218.343	16050.5
218.417	16111.09
218.49	16158.76
218.563	16221.61
218.637	16268.94
218.71	16348.56
218.784	16398.15
218.857	16461.58
218.931	16513.73
219.004	16563.9
219.077	16606.94
219.151	16661.26
219.224	16703.14
219.298	16752.4
219.371	16818.47
219.444	16857.08
219.518	16906.62
219.591	16952.7
219.665	17025.95
219.738	17075.83
219.811	17116.27
219.885	17171.45
219.958	17218.63
220.031	17265.04
220.105	17314.92
220.178	17359.21
220.251	17389.09
220.325	17451.79
220.398	17502.39
220.471	17554.05
220.544	17614.44
220.618	17653.14
220.691	17698.77
220.764	17737.95
220.838	17788.36
220.911	17821.9
220.984	17888.17
221.057	17936.5
221.131	17988.5
221.204	17994.72
221.277	18052.02
221.35	18136.11
221.424	18174.33
221.497	18215.63
221.57	18260.44
221.643	18307.62
221.716	18360.29
221.79	18390.17
221.863	18417.93
221.936	18450.02
222.009	18486.79
222.082	18524.91
222.155	18563.03
222.229	18625.34
222.302	18682.73
222.375	18716.08
222.448	18756.99
222.521	18791.02
222.594	18827.5
222.667	18846.19
222.74	18901.95
222.814	18928.26
222.887	18943.68
222.96	18988.4
223.033	19030.23
223.106	19055.1
223.179	19090.47
223.252	19118.08
223.325	19164.15
223.398	19195.62
223.471	19228.77
223.544	19258.65
223.617	19285.68
223.69	19317.25
223.763	19327.85
223.837	19346.69
223.91	19382.55
223.983	19399.08
224.056	19409.68
224.129	19436.57
224.202	19475.99
224.275	19480.23
224.348	19499.31
224.42	19514.15
224.493	19516.47
224.566	19529.77
224.639	19573.43
224.712	19588.51
224.785	19608.99
224.858	19623.98
224.931	19647.01
225.004	19660.55
225.077	19689.47
225.15	19684.02
225.223	19699.16
225.296	19739.92
225.369	19748.45
225.442	19745.76
225.514	19765.47
225.587	19791.68
225.66	19816.45
225.733	19847.73
225.806	19879.44
225.879	19895.29
225.952	19897.7
226.025	19918.62
226.097	19949.02
226.17	19953.31
226.243	19940.83
226.316	19945.6
226.389	19951
226.461	19964.06
226.534	19981.79
226.607	19984.69
226.68	20021.6
226.753	20033.17
226.825	20018.08
226.898	20044.92
226.971	20063.91
227.044	20081.6
227.117	20094.71
227.189	20104.01
227.262	20115.48
227.335	20124.3
227.407	20122.75
227.48	20137.64
227.553	20165.98
227.626	20162.61
227.698	20170.85
227.771	20193.45
227.844	20198.56
227.916	20217.69
227.989	20221.35
228.062	20227.04
228.134	20259.71
228.207	20266.65
228.28	20277.69
228.352	20278.9
228.425	20287.38
228.498	20303.76
228.57	20301.16
228.643	20317.02
228.716	20317.64
228.788	20305.4
228.861	20306.12
228.934	20329.35
229.006	20335.81
229.079	20322.51
229.151	20323.42
229.224	20312.82
229.296	20318.08
229.369	20358.56
229.442	20374.51
229.514	20369.5
229.587	20390.7
229.659	20376.82
229.732	20368.58
229.804	20370.99
229.877	20397.5
229.949	20405.11
230.022	20424.58
230.094	20425.45
230.167	20424.73
230.239	20422.03
230.312	20434.08
230.384	20462.75
230.457	20473.6
230.529	20479.81
230.602	20488.05
230.674	20494.94
230.747	20521.11
230.819	20536.2
230.892	20486.61
230.964	20488.49
231.037	20486.9
231.109	20467.57
231.181	20472.82
231.254	20469.4
231.326	20463.72
231.399	20452.15
231.471	20448.92
231.544	20411.96
231.616	20420
231.688	20414.65
231.761	20405.79
231.833	20387.28
231.905	20353.74
231.978	20343.28
232.05	20336.58
232.122	20330.22
232.195	20322.03
232.267	20319.91
232.339	20309.06
232.412	20329.64
232.484	20313.98
232.556	20307.28
232.629	20326.61
232.701	20319.18
232.773	20306.89
232.846	20291.47
232.918	20296.44
232.99	20279.52
233.062	20289.11
233.135	20274.51
233.207	20246.99
233.279	20238.66
233.351	20238.66
233.424	20222.7
233.496	20208.29
233.568	20217.93
233.64	20190.66
233.713	20160.68
233.785	20144.25
233.857	20121.89
233.929	20082.37
234.001	20080.97
234.074	20082.08
234.146	20041.46
234.218	20027.34
234.29	20016.78
234.362	19998.13
234.434	19961.51
234.507	19923.39
234.579	19881.17
234.651	19860.11
234.723	19862.23
234.795	19852.16
234.867	19827.87
234.939	19830.81
235.012	19803.78
235.084	19779.34
235.156	19764.07
235.228	19753.61
235.3	19720.07
235.372	19703.01
235.444	19701.18
235.516	19659.06
235.588	19633.28
235.66	19619.3
235.732	19591.16
235.804	19630.44
235.876	19628.85
235.948	19614.78
236.02	19602.29
236.092	19590.2
236.164	19563.31
236.236	19524.37
236.308	19500.08
236.38	19484.95
236.452	19441.68
236.524	19420.04
236.596	19415.32
236.668	19407.37
236.74	19381.87
236.812	19361.06
236.884	19347.66
236.956	19327.51
237.028	19285.73
237.1	19258.27
237.172	19242.32
237.244	19223.67
237.316	19152.34
237.388	19108.78
237.46	19085.55
237.532	19074.66
237.604	19037.46
237.675	19031.77
237.747	19018.09
237.819	18983.44
237.891	18944.93
237.963	18917.56
238.035	18882.48
238.107	18806.29
238.178	18795.5
238.25	18768.32
238.322	18765.33
238.394	18719.36
238.466	18681.14
238.538	18670.73
238.609	18645.34
238.681	18600.18
238.753	18563.27
238.825	18536.57
238.897	18516.24
238.968	18493.06
239.04	18459.76
239.112	18459.76
239.184	18423.91
239.255	18387.28
239.327	18356.54
239.399	18338.17
239.471	18314.37
239.542	18294.47
239.614	18295.43
239.686	18235.29
239.758	18214.71
239.829	18176.64
239.901	18165.41
239.973	18137.8
240.044	18107.34
240.116	18079.49
240.188	18053.22
240.259	18025.51
240.331	17989.42
240.403	17963.4
240.474	17915.11
240.546	17879.16
240.618	17827.06
240.689	17784.99
240.761	17757.71
240.833	17749.28
240.904	17705.67
240.976	17671.74
241.048	17645.33
241.119	17613.48
241.191	17588.13
241.262	17571.89
241.334	17533.72
241.405	17490.1
241.477	17452.47
241.549	17419.65
241.62	17389.72
241.692	17357.33
241.763	17339.6
241.835	17313.28
241.906	17274.3
241.978	17229.09
242.049	17209.14
242.121	17189.91
242.192	17172.22
242.264	17123.26
242.335	17072.46
242.407	17056.12
242.478	17014.58
242.55	16976.65
242.621	16929.37
242.693	16897.22
242.764	16851.39
242.836	16818.09
242.907	16793.36
242.979	16770.09
243.05	16750.33
243.122	16728.2
243.193	16696.59
243.264	16641.89
243.336	16604.53
243.407	16594.32
243.479	16581.21
243.55	16543.9
243.622	16515.23
243.693	16483.47
243.764	16471.66
243.836	16428.52
243.907	16391.89
243.978	16363.16
244.05	16341.43
244.121	16298.15
244.192	16271.93
244.264	16231.15
244.335	16193.36
244.407	16147.62
244.478	16117.4
244.549	16076.05
244.62	16024.81
244.692	15993.1
244.763	15973.19
244.834	15935.36
244.906	15887.74
244.977	15858.72
245.048	15846.53
245.119	15811.05
245.191	15763.96
245.262	15718.6
245.333	15706.07
245.405	15682.26
245.476	15657.1
245.547	15628.81
245.618	15617.34
245.689	15595.16
245.761	15563.35
245.832	15538
245.903	15511.53
245.974	15485.36
246.045	15456.78
246.117	15441.69
246.188	15401.3
246.259	15354.73
246.33	15323.45
246.401	15290.43
246.473	15253.36
246.544	15210.18
246.615	15184.1
246.686	15155.32
246.757	15138.35
246.828	15094.83
246.899	15072.27
246.97	15024.45
247.042	14979.77
247.113	14952.63
247.184	14931.76
247.255	14902.26
247.326	14871.74
247.397	14846.48
247.468	14814.52
247.539	14783.34
247.61	14738.6
247.681	14715.42
247.752	14704.57
247.823	14659.07
247.894	14628.21
247.965	14588.11
248.037	14551.14
248.108	14499.6
248.179	14473.24
248.25	14436.79
248.321	14414.09
248.392	14371.09
248.463	14374.56
248.534	14346.55
248.605	14328.09
248.675	14295.17
248.746	14277.72
248.817	14250.14
248.888	14222.04
248.959	14175.23
249.03	14144.09
249.101	14113.38
249.172	14078.92
249.243	14031.34
249.314	14023.77
249.385	14000.1
249.456	13984.43
249.527	13956.66
249.598	13942.68
249.669	13912.75
249.739	13893.18
249.81	13872.83
249.881	13831.09
249.952	13797.49
250.023	13766.92
250.094	13723.97
250.165	13687
250.235	13650.12
250.306	13627.7
250.377	13593.96
250.448	13586.29
250.519	13546.72
250.59	13551.15
250.66	13525.51
250.731	13507.91
250.802	13483.42
250.873	13459.32
250.944	13437.05
251.014	13406.72
251.085	13406
251.156	13385.03
251.227	13365.85
251.297	13360.35
251.368	13347.77
251.439	13329.69
251.51	13329.3
251.58	13294.98
251.651	13265.09
251.722	13254.97
251.792	13217.9
251.863	13191.63
251.934	13176.88
252.005	13187.43
252.075	13153.83
252.146	13139.32
252.217	13134.36
252.287	13119.66
252.358	13102.98
252.429	13097.96
252.499	13064.41
252.57	13037.99
252.641	13025.46
252.711	13008.25
252.782	12959.08
252.852	12957.49
252.923	12932.57
252.994	12899.4
253.064	12895.35
253.135	12867.78
253.205	12840.83
253.276	12840.11
253.347	12835.58
253.417	12804.05
253.488	12771.7
253.558	12739.17
253.629	12718.1
253.699	12698.24
253.77	12684.98
253.841	12652.69
253.911	12622.41
253.982	12609.3
254.052	12603.9
254.123	12587.37
254.193	12562.21
254.264	12583.08
254.334	12556.23
254.405	12526.68
254.475	12497.37
254.546	12466.62
254.616	12455.14
254.687	12438.03
254.757	12411.57
254.827	12386.16
254.898	12371.51
254.968	12353.39
255.039	12331.21
255.109	12320.46
255.18	12285.23
255.25	12239.96
255.321	12229.41
255.391	12195.04
255.461	12197.55
255.532	12134.64
255.602	12108.9
255.673	12069.76
255.743	12028.84
255.813	11977.07
255.884	11974.61
255.954	11965.07
256.024	11972.25
256.095	11956.49
256.165	11925.35
256.235	11917.59
256.306	11891.66
256.376	11882.84
256.446	11867.22
256.517	11850.3
256.587	11834.15
256.657	11820.51
256.728	11801.38
256.798	11785.96
256.868	11771.5
256.938	11741.85
257.009	11741.8
257.079	11728.02
257.149	11738.82
257.219	11706.72
257.29	11703.68
257.36	11660.35
257.43	11649.94
257.5	11596.15
257.571	11568.63
257.641	11557.74
257.711	11525.83
257.781	11517.3
257.852	11501.92
257.922	11464.96
257.992	11450.26
258.062	11434.93
258.132	11424.95
258.202	11410.69
258.273	11391.99
258.343	11387.6
258.413	11362.59
258.483	11349.24
258.553	11321.72
258.623	11294.92
258.693	11281.76
258.764	11278.05
258.834	11279.64
258.904	11254.63
258.974	11233.62
259.044	11215.4
259.114	11203.45
259.184	11184.37
259.254	11159.31
259.324	11120.66
259.394	11113.04
259.464	11104.47
259.535	11079.12
259.605	11054.54
259.675	11028.85
259.745	11008.76
259.815	10984.32
259.885	10966.5
259.955	10968.81
260.025	10941.82
260.095	10922.26
260.165	10909.92
260.235	10906.21
260.305	10873.59
260.375	10846.6
260.445	10855.66
260.515	10855.57
260.585	10853.3
260.655	10838.12
260.725	10833.54
260.795	10826.17
260.865	10829.59
260.934	10804.63
261.004	10795.04
261.074	10780.01
261.144	10789.41
261.214	10792.68
261.284	10768.83
261.354	10762.23
261.424	10739.19
261.494	10744.01
261.564	10724.79
261.634	10719.92
261.703	10677.23
261.773	10670.05
261.843	10669.33
261.913	10649.67
261.983	10619.65
262.053	10603.84
262.123	10587.99
262.192	10557.64
262.262	10548.68
262.332	10521.69
262.402	10515.91
262.472	10505.12
262.541	10470.58
262.611	10459.49
262.681	10429.96
262.751	10428.17
262.821	10411.89
262.89	10376.43
262.96	10366.02
263.03	10373.05
263.1	10355.56
263.169	10348.96
263.239	10349.3
263.309	10354.75
263.379	10345.11
263.448	10328.44
263.518	10316.06
263.588	10295.15
263.657	10299.25
263.727	10294
263.797	10273.43
263.867	10261.81
263.936	10230.94
264.006	10232.57
264.076	10210.03
264.145	10196.73
264.215	10169.22
264.285	10156.46
264.354	10131.02
264.424	10109.73
264.494	10080.92
264.563	10061.7
264.633	10070.23
264.702	10054.76
264.772	10017.38
264.842	9998.45
264.911	9994.35
264.981	9970.31
265.05	9960.68
265.12	9940.79
265.19	9929.51
265.259	9930.04
265.329	9918.19
265.398	9913.66
265.468	9920.46
265.537	9898.4
265.607	9894.25
265.676	9897.24
265.746	9888.57
265.815	9889.63
265.885	9874.46
265.955	9849.75
266.024	9832.27
266.094	9794.74
266.163	9794.21
266.232	9795.8
266.302	9782.99
266.371	9772.16
266.441	9759.78
266.51	9758.77
266.58	9741.91
266.649	9723.32
266.719	9714.36
266.788	9707.71
266.858	9709.44
266.927	9679.82
266.996	9671.2
267.066	9653.67
267.135	9633.88
267.205	9629.74
267.274	9614.85
267.343	9617.7
267.413	9608.5
267.482	9615.05
267.552	9617.46
267.621	9586.92
267.69	9552.25
267.76	9542.57
267.829	9533.52
267.898	9514.06
267.968	9492.2
268.037	9494.17
268.106	9491.23
268.176	9466.38
268.245	9450.92
268.314	9431.85
268.384	9431.85
268.453	9423.86
268.522	9419.33
268.592	9409.03
268.661	9387.65
268.73	9382.59
268.799	9354.76
268.869	9361.98
268.938	9334.34
269.007	9313.2
269.076	9301.55
269.146	9310.22
269.215	9303.48
269.284	9311.71
269.353	9300.01
269.422	9283.31
269.492	9261.54
269.561	9215.18
269.63	9215.08
269.699	9197.84
269.768	9188.55
269.838	9176.03
269.907	9175.5
269.976	9150.22
270.045	9128.46
270.114	9126.68
270.183	9112
270.253	9105.07
270.322	9075.79
270.391	9057.89
270.46	9066.89
270.529	9066.17
270.598	9061.16
270.667	9049.03
270.736	9023.07
270.806	9022.74
270.875	9033.33
270.944	9027.89
271.013	9052.92
271.082	9042.47
271.151	9038.14
271.22	9006.56
271.289	8996.41
271.358	8985.48
271.427	8979.07
271.496	8970.75
271.565	8958.42
271.634	8951.93
271.703	8984.71
271.772	8988.37
271.841	8980.53
271.91	8953.91
271.979	8947.12
272.048	8921.7
272.117	8923.1
272.186	8904.52
272.255	8899.56
272.324	8895.51
272.393	8885.5
272.462	8868.75
272.531	8861.53
272.6	8850.55
272.669	8858.44
272.738	8847.42
272.807	8837.36
272.876	8817.77
272.945	8843.62
273.013	8846.46
273.082	8848.77
273.151	8801.64
273.22	8797.69
273.289	8794.28
273.358	8805.93
273.427	8793.22
273.496	8796.25
273.564	8795.67
273.633	8801.3
273.702	8779.79
273.771	8768.91
273.84	8766.17
273.909	8766.84
273.977	8766.17
274.046	8757.55
274.115	8766.75
274.184	8748.22
274.253	8746.05
274.322	8752.69
274.39	8722.32
274.459	8705.04
274.528	8674.48
274.597	8666.06
274.665	8664.57
274.734	8673.52
274.803	8659.9
274.872	8653.21
274.94	8632.27
275.009	8657.65
275.078	8640.61
275.147	8638.97
275.215	8634.98
275.284	8640.23
275.353	8628.34
275.421	8600.71
275.49	8618.14
275.559	8603.17
275.627	8599.94
275.696	8585.99
275.765	8592.34
275.833	8585.8
275.902	8584.06
275.971	8606.58
276.039	8619.43
276.108	8625.84
276.177	8620.45
276.245	8611.88
276.314	8608.13
276.383	8616.74
276.451	8578.08
276.52	8585.92
276.588	8601.08
276.657	8603.15
276.725	8589.2
276.794	8587.03
276.863	8600.26
276.931	8574.76
277	8585.73
277.068	8596.03
277.137	8614.46
277.205	8605.07
277.274	8619.27
277.342	8624.42
277.411	8602.33
277.48	8592.66
277.548	8574.32
277.617	8576.39
277.685	8569.22
277.754	8572.45
277.822	8567.73
277.89	8584.87
277.959	8576.78
278.027	8554.79
278.096	8540.11
278.164	8567.55
278.233	8560.38
278.301	8551.47
278.37	8564.71
278.438	8545.99
278.507	8547.77
278.575	8521.97
278.643	8519.04
278.712	8503.3
278.78	8492.95
278.849	8500.32
278.917	8512.44
278.985	8506.57
279.054	8503.4
279.122	8514.18
279.191	8511.29
279.259	8503.93
279.327	8474.76
279.396	8487.42
279.464	8489.24
279.532	8501.76
279.601	8496.94
279.669	8496.36
279.737	8504.21
279.806	8496.8
279.874	8507.62
279.942	8505.56
280.011	8501.8
280.079	8511.19
280.147	8523.7
280.215	8528.65
280.284	8528.13
280.352	8512.48
280.42	8526.68
280.488	8517.2
280.557	8512.77
280.625	8517.54
280.693	8523.22
280.761	8527.35
280.83	8515.13
280.898	8527.35
280.966	8506.47
281.034	8478.32
281.102	8457.96
281.171	8449.64
281.239	8460.76
281.307	8456.52
281.375	8448.1
281.443	8476.78
281.512	8471.63
281.58	8478.85
281.648	8460.42
281.716	8456.96
281.784	8458.26
281.852	8448.83
281.92	8448.06
281.989	8462.4
282.057	8444.98
282.125	8485.27
282.193	8487.1
282.261	8486.23
282.329	8484.11
282.397	8488.39
282.465	8490.08
282.533	8510.38
282.601	8498.74
282.67	8477.03
282.738	8461.25
282.806	8473.04
282.874	8457.06
282.942	8462.93
283.01	8459.52
283.078	8470.25
283.146	8468.61
283.214	8471.5
283.282	8470.77
283.35	8484.54
283.418	8474.29
283.486	8478.42
283.554	8435.01
283.622	8433.23
283.69	8432.8
283.758	8421.01
283.826	8428.95
283.894	8440.98
283.962	8462.78
284.03	8478.46
284.098	8477.12
284.165	8476.92
284.233	8475
284.301	8468.94
284.369	8466.39
284.437	8452.38
284.505	8444.54
284.573	8456.38
284.641	8446.37
284.709	8452.05
284.777	8439.44
284.845	8442.42
284.912	8449.3
284.98	8461.57
285.048	8450.02
285.116	8452.86
285.184	8467.59
285.252	8469.37
285.319	8447.09
285.387	8430.63
285.455	8416.1
285.523	8426.93
285.591	8422.5
285.659	8424.86
285.726	8440.06
285.794	8425.58
285.862	8426.59
285.93	8436.89
285.997	8437.56
286.065	8436.46
286.133	8430.1
286.201	8420.91
286.269	8409.12
286.336	8398.68
286.404	8384.78
286.472	8396.04
286.539	8376.5
286.607	8357.11
286.675	8358.7
286.743	8371.21
286.81	8368.46
286.878	8383.62
286.946	8371.98
287.013	8377.12
287.081	8374.43
287.149	8354.89
287.216	8367.4
287.284	8363.12
287.352	8355.52
287.419	8348.2
287.487	8362.54
287.555	8369.09
287.622	8370.53
287.69	8379.77
287.758	8396.08
287.825	8396.9
287.893	8388.38
287.96	8397.62
288.028	8412.92
288.096	8405.37
288.163	8409.02
288.231	8399.93
288.298	8400.55
288.366	8417.73
288.433	8415.28
288.501	8403.92
288.569	8410.32
288.636	8401.66
288.704	8415.67
288.771	8424.04
288.839	8415.09
288.906	8406.52
288.974	8413.26
289.041	8410.42
289.109	8396.47
289.176	8403.4
289.244	8408.07
289.311	8422.69
289.379	8429.77
289.446	8432.46
289.514	8436.12
289.581	8432.13
289.649	8434.34
289.716	8435.97
289.783	8428.23
289.851	8444.73
289.918	8450.74
289.986	8458.16
290.053	8465.18
290.121	8462.97
290.188	8467.59
290.255	8501.22
290.323	8500.26
290.39	8494.82
290.458	8502.62
290.525	8517.29
290.592	8508.44
290.66	8509.69
290.727	8497.9
290.794	8513.44
290.862	8505.22
290.929	8501.03
290.996	8501.03
291.064	8511.71
291.131	8519.22
291.198	8526.77
291.266	8527.06
291.333	8530.38
291.4	8534.28
291.468	8555.07
291.535	8548.43
291.602	8549.68
291.669	8537.65
291.737	8538.76
291.804	8539.43
291.871	8555.79
291.938	8556.28
292.006	8585.11
292.073	8599.4
292.14	8616.87
292.207	8606.38
292.275	8611.86
292.342	8627.75
292.409	8652.82
292.476	8680.31
292.543	8671.84
292.611	8675.35
292.678	8691.76
292.745	8711.69
292.812	8724.06
292.879	8713.27
292.946	8722.8
293.014	8731.18
293.081	8742.39
293.148	8754.57
293.215	8769.87
293.282	8762.99
293.349	8781.57
293.416	8759.23
293.484	8771.8
293.551	8782
293.618	8806.5
293.685	8837.98
293.752	8834.13
293.819	8843.04
293.886	8822.58
293.953	8832.2
294.02	8847.03
294.087	8855.74
294.154	8849.44
294.221	8861.62
294.288	8865.57
294.356	8879.43
294.423	8889.73
294.49	8879.43
294.557	8892.71
294.624	8885.11
294.691	8913.36
294.758	8911.29
294.825	8919.67
294.892	8909.03
294.959	8909.85
295.026	8911.34
295.093	8897.09
295.16	8902.96
295.226	8898.68
295.293	8927.95
295.36	8932.23
295.427	8941.28
295.494	8947.01
295.561	8956.06
295.628	8976.67
295.695	8988.75
295.762	8992.17
295.829	9007.1
295.896	9028.28
295.963	9045.66
296.03	9055.48
296.096	9054.66
296.163	9065.97
296.23	9083.45
296.297	9095.87
296.364	9092.84
296.431	9100.88
296.498	9102.75
296.564	9124.18
296.631	9124.37
296.698	9112.91
296.765	9138.43
296.832	9126.44
296.899	9118.2
296.965	9136.16
297.032	9119.02
297.099	9140.93
297.166	9153.21
297.233	9142.61
297.299	9131.59
297.366	9128.56
297.433	9128.17
297.5	9138.52
297.566	9140.21
297.633	9139.48
297.7	9144.25
297.767	9139.15
297.833	9142.62
297.9	9145.6
297.967	9128.56
298.033	9143.53
298.1	9168.47
298.167	9159.81
298.234	9164.77
298.3	9179.55
298.367	9175.26
298.434	9181.71
298.5	9171.89
298.567	9163.18
298.634	9169.87
298.7	9180.65
298.767	9178.82
298.834	9196.59
298.9	9188.5
298.967	9181.04
299.033	9193.07
299.1	9207.62
299.167	9224.99
299.233	9220.66
299.3	9238.48
299.366	9256.43
299.433	9270.98
299.5	9247.38
299.566	9243
299.633	9259.66
299.699	9266.59
299.766	9262.89
299.832	9268.23
299.899	9281.14
299.965	9295
300.032	9289.9
300.099	9307.14
300.165	9319.37
300.232	9316.67
300.298	9322.69
300.365	9337.81
300.431	9340.6
300.498	9330.68
300.564	9342.24
300.631	9354.81
300.697	9364.34
300.763	9364.25
300.83	9360.39
300.896	9374.21
300.963	9396.41
301.029	9401.95
301.096	9406.96
301.162	9420.92
301.229	9417.45
301.295	9404.84
301.361	9404.21
301.428	9406.23
301.494	9389.38
301.561	9388.99
301.627	9393.86
301.693	9397.71
301.76	9405.41
301.826	9397.23
301.892	9411.96
301.959	9424.63
302.025	9413.12
302.092	9407.63
302.158	9412.01
302.224	9415.91
302.291	9402.24
302.357	9393.43
302.423	9384.37
302.49	9372
302.556	9378.35
302.622	9382.4
302.688	9389.24
302.755	9407.68
302.821	9414.37
302.887	9423.43
302.954	9425.3
303.02	9431.42
303.086	9432.29
303.152	9424.24
303.219	9419
303.285	9425.88
303.351	9426.94
303.417	9439.8
303.483	9433.06
303.55	9427.71
303.616	9430.36
303.682	9439.65
303.748	9431.32
303.815	9455.12
303.881	9468.12
303.947	9461.57
304.013	9462.05
304.079	9454.35
304.145	9429.5
304.212	9430.07
304.278	9433.83
304.344	9428.82
304.41	9410.57
304.476	9407.59
304.542	9406.82
304.608	9412.98
304.674	9391.02
304.741	9379.99
304.807	9377.34
304.873	9381.92
304.939	9402.91
305.005	9377.34
305.071	9371.85
305.137	9374.07
305.203	9344.69
305.269	9339.83
305.335	9352.93
305.401	9346.33
305.467	9349.03
305.533	9361.64
305.599	9370.36
305.666	9372.38
305.732	9372.77
305.798	9387.89
305.864	9407.97
305.93	9406.38
305.996	9406.28
306.062	9412.93
306.128	9410.14
306.194	9398.19
306.259	9400.12
306.325	9386.54
306.391	9402.91
306.457	9412.88
306.523	9417.74
306.589	9442.21
306.655	9442.4
306.721	9424.05
306.787	9421.74
306.853	9430.79
306.919	9416.68
306.985	9407.92
307.051	9400.94
307.117	9392.03
307.183	9384.61
307.248	9363.52
307.314	9371.32
307.38	9375.13
307.446	9379.41
307.512	9374.31
307.578	9381.96
307.644	9375.94
307.709	9375.85
307.775	9365.35
307.841	9359.72
307.907	9361.88
307.973	9339.97
308.039	9333.61
308.104	9336.36
308.17	9331.16
308.236	9319.79
308.302	9324.27
308.368	9318.64
308.433	9317.34
308.499	9310.84
308.565	9304.39
308.631	9305.64
308.696	9281.08
308.762	9267.22
308.828	9263.17
308.894	9246.51
308.959	9228.7
309.025	9209.39
309.091	9209.3
309.156	9201.06
309.222	9201.98
309.288	9184.69
309.354	9166.64
309.419	9163.7
309.485	9147.33
309.551	9148.54
309.616	9131.59
309.682	9125.71
309.748	9116.71
309.813	9108.09
309.879	9098.13
309.945	9084.26
310.01	9073.19
310.076	9079.93
310.141	9077.76
310.207	9065.63
310.273	9066.16
310.338	9069.58
310.404	9063.75
310.469	9044.83
310.535	9037.75
310.601	9014.36
310.666	9022.49
310.732	9032.46
310.797	9014.88
310.863	9011.85
310.928	9001.84
310.994	9006.17
311.059	9003.28
311.125	9001.69
311.191	9013.54
311.256	9010.6
311.322	9013.59
311.387	8995.87
311.453	9396.56
311.518	9366.52
311.584	9364.6
311.649	9372.01
311.715	9358.53
311.78	9357.04
311.846	9353.72
311.911	9362
311.976	9367.05
312.042	9348.76
312.107	9334.17
312.173	9329.55
312.238	9317.04
312.304	9313.57
312.369	9307.7
312.434	9298.07
312.5	9291.28
312.565	9255.66
312.631	9256.81
312.696	9249.88
312.761	9253.25
312.827	8840.24
312.892	8879.23
312.958	8875.19
313.023	8866.57
313.088	8867.97
313.154	8858
313.219	8848.81
313.284	8839.04
313.35	8834.08
313.415	8829.41
313.48	8821.85
313.546	8830.13
313.611	8839.33
313.676	8836.63
313.741	8825.18
313.807	8826.28
313.872	8826.04
313.937	8837.79
314.003	8848.14
314.068	8854.92
314.133	8860.8
314.198	8852.66
314.264	8831.86
314.329	8823.54
314.394	8820.7
314.459	8818.05
314.525	8836.58
314.59	8829.5
314.655	8817.52
314.72	8824.64
314.785	8825.85
314.851	8825.56
314.916	8802.74
314.981	8792.25
315.046	8782.48
315.111	8778.25
315.176	8769.1
315.242	8771.7
315.307	8768.81
315.372	8750.33
315.437	8731.12
315.502	8724.82
315.567	8734.2
315.632	8719.14
315.698	8721.54
315.763	8716.06
315.828	8706.67
315.893	8703.06
315.958	8703.49
316.023	8691.42
316.088	8671.25
316.153	8647.24
316.218	8640.45
316.283	8625.82
316.348	8603.35
316.413	8595.51
316.479	8581.79
316.544	8553.84
316.609	8517.89
316.674	8481.85
316.739	8446.92
316.804	8419.98
316.869	8381.34
316.934	8346.45
316.999	8318.02
317.064	8262.59
317.129	8216.55
317.194	8181.48
317.259	8133.03
317.324	8079.44
317.389	8041.06
317.454	7999.45
317.518	7966.41
317.583	7939.81
317.648	7920.33
317.713	7886.71
317.778	7832.99
317.843	7797.25
317.908	7758.54
317.973	7723.78
318.038	7699.92
318.103	7662.76
318.168	7635.74
318.233	7609.1
318.297	7559.77
318.362	7523.47
318.427	7489.34
318.492	7471.65
318.557	7425.75
318.622	7396.57
318.687	7375.18
318.751	7339.38
318.816	7312.7
318.881	7279.16
318.946	7222.25
319.011	7174.38
319.075	7137.19
319.14	7100.29
319.205	7059.74
319.27	7026.92
319.335	6984.46
319.399	6939.24
319.464	6914.98
319.529	6863.3
319.594	6824.67
319.658	6796.23
319.723	6761.07
319.788	6730
319.853	6673.32
319.917	6649.89
319.982	6598.12
320.047	6564.07
320.112	6534.11
320.176	6484.75
320.241	6456.71
320.306	6428.09
320.37	6390.6
320.435	6366.45
320.5	6341.64
320.564	6305.64
320.629	6263.74
320.694	6237.54
320.758	6203.42
320.823	6157.88
320.888	6134.13
320.952	6080.96
321.017	6040.8
321.082	5997.96
321.146	5972.96
321.211	5941.83
321.275	5902.45
321.34	5862.21
321.405	5819.34
321.469	5774.02
321.534	5733.88
321.598	5682.57
321.663	5654.76
321.727	5622.49
321.792	5568.98
321.857	5525.64
321.921	5486.76
321.986	5446.17
322.05	5390.82
322.115	5352.57
322.179	5313.18
322.244	5252.72
322.308	5224.21
322.373	5172.81
322.437	5133.39
322.502	5103.38
322.566	5056.34
322.631	5014.39
322.695	4975.12
322.76	4931.79
322.824	4897.74
322.889	4854.03
322.953	4811
323.018	4748.38
323.082	4686.4
323.146	4638.02
323.211	4587.15
323.275	4542.74
323.34	4499.54
323.404	4462.23
323.468	4413.47
323.533	4368.51
323.597	4329.07
323.662	4275.17
323.726	4247.86
323.79	4204.92
323.855	4138.95
323.919	4093.15
323.983	4050.74
324.048	3989.16
324.112	4135.23
324.177	4009.82
324.241	3803.63
324.305	3600.69
324.37	3399.08
324.434	3207.95
324.498	3165.22
324.562	3116.51
324.627	3057.42
324.691	3002.47
324.755	2939.6
324.82	2868.21
324.884	2794.29
324.948	2721.27
325.012	2633.57
325.077	2508.49
