Data from 20250703_urea_0.1M_MAYP1162681_12-21-05-345.txt Node
Date: Thu Jul 03 12:21:05 BST 2025
User: adleo
Spectrometer: MAYP116268
Trigger mode: 0
Integration Time (sec): 1.000000E0
Scans to average: 1
Electric dark correction enabled: true
Nonlinearity correction enabled: true
Boxcar width: 10
XAxis mode: Wavelengths
Number of Pixels in Spectrum: 2068
>>>>>Begin Spectral Data<<<<<
179.565	1138.58
179.642	1194.76
179.718	1233.94
179.795	1270.94
179.871	1302.54
179.948	1320.96
180.024	1340.56
180.101	1362.03
180.177	1376.14
180.254	1397.03
180.33	1420.11
180.407	1470.48
180.483	1562.07
180.56	1648.49
180.636	1728.63
180.712	1718.07
180.789	1728.67
180.865	1738.55
180.942	1747.67
181.018	1757.89
181.095	1772.43
181.171	1775.19
181.248	1773.76
181.324	1789.26
181.4	1795.39
181.477	1805.99
181.553	1816.35
181.63	1837.12
181.706	1852.76
181.782	1861.98
181.859	1862.36
181.935	1867.26
182.011	1864.17
182.088	1879.19
182.164	1898.4
182.24	1910.24
182.317	1919.08
182.393	1917.13
182.469	1931.63
182.546	1944.04
182.622	1948.6
182.698	1943.89
182.775	1954.88
182.851	1971.37
182.927	1966.48
183.003	1964.53
183.08	1957.49
183.156	1967.19
183.232	1963.53
183.308	1952.31
183.385	1960.29
183.461	1975.7
183.537	1975.18
183.613	1984.64
183.69	1975.89
183.766	1963.33
183.842	1970.89
183.918	1973.46
183.995	1987.63
184.071	1992.53
184.147	1988.3
184.223	1978.6
184.299	1991.82
184.375	1982.74
184.452	1989.54
184.528	2036.63
184.604	2044.09
184.68	2057.55
184.756	2065.68
184.832	2068.82
184.908	2074.24
184.985	2073.29
185.061	2058.26
185.137	2070.53
185.213	2062.97
185.289	2066.06
185.365	2060.79
185.441	2059.45
185.517	2072.2
185.593	2068.78
185.669	2064.54
185.745	2072.58
185.822	2085.85
185.898	2074.86
185.974	2083.51
186.05	2075.09
186.126	2040.18
186.202	2037.09
186.278	2032.76
186.354	2021.87
186.43	2029.01
186.506	2026.3
186.582	2024.4
186.658	2032.62
186.734	2008.94
186.81	2008.8
186.886	2008.94
186.962	2018.69
187.038	2017.83
187.114	2011.74
187.19	2020.45
187.266	2011.18
187.341	2013.6
187.417	2007.28
187.493	2008.13
187.569	2010.94
187.645	2003.19
187.721	1992.72
187.797	1997.34
187.873	1999.76
187.949	1997.58
188.025	1991.06
188.101	1994.62
188.176	2000.19
188.252	1994.58
188.328	2004.27
188.404	2006.17
188.48	2005.37
188.556	2000.04
188.632	1998.23
188.707	1998.95
188.783	1993.24
188.859	1990.34
188.935	1978.88
189.011	1989.1
189.086	1985.87
189.162	1976.79
189.238	1974.55
189.314	1972.6
189.39	1967.37
189.465	1963.09
189.541	1977.98
189.617	1966.09
189.693	1962.05
189.768	1965.48
189.844	1987.83
189.92	1979.13
189.996	1985.89
190.071	1992.45
190.147	1992.59
190.223	2000.87
190.298	1996.87
190.374	1986.51
190.45	1998.15
190.526	2007.43
190.601	2001.39
190.677	2000.06
190.753	2026.13
190.828	2028.12
190.904	2041.87
190.98	2057.75
191.055	2067.31
191.131	2057.75
191.207	2074.83
191.282	2083
191.358	2075.96
191.433	2062.88
191.509	2075.62
191.585	2074.34
191.66	2078.47
191.736	2088.22
191.811	2078.14
191.887	2089.18
191.963	2111.11
192.038	2114.01
192.114	2116.62
192.189	2119.53
192.265	2116.48
192.34	2095.93
192.416	2098.92
192.491	2095.02
192.567	2094.64
192.642	2096.78
192.718	2096.83
192.793	2085.42
192.869	2080.66
192.944	2080.37
193.02	2090.13
193.095	2092.79
193.171	2098.59
193.246	2097.4
193.322	2093.36
193.397	2097.02
193.473	2084.27
193.548	2066.34
193.624	2071.71
193.699	2067.91
193.775	2082.33
193.85	2085.46
193.925	2094.45
194.001	2091.46
194.076	2084.7
194.152	2079.33
194.227	2070.48
194.302	2061.59
194.378	2064.2
194.453	2064.01
194.529	2076.95
194.604	2060.3
194.679	2053.65
194.755	2034.1
194.83	2043.86
194.905	2039.96
194.981	2045.33
195.056	2040.96
195.131	2045
195.207	2045.05
195.282	2037.39
195.357	2019.27
195.433	2033.39
195.508	2022.36
195.583	2028.73
195.659	2043.86
195.734	2049.04
195.809	2050.75
195.884	2058.98
195.96	2061.69
196.035	2075.39
196.11	2069.2
196.185	2081.9
196.261	2086.75
196.336	2116.15
196.411	2103.96
196.486	2110.67
196.561	2106.87
196.637	2112.43
196.712	2127.75
196.787	2127.46
196.862	2141.78
196.937	2151.77
197.013	2158.57
197.088	2171.32
197.163	2195.02
197.238	2210.26
197.313	2210.97
197.388	2223.29
197.464	2252.76
197.539	2264.13
197.614	2256.09
197.689	2268.74
197.764	2285.64
197.839	2304.87
197.914	2301.2
197.989	2320.76
198.065	2334.04
198.14	2382.14
198.215	2408.84
198.29	2424.22
198.365	2440.79
198.44	2448.83
198.515	2477.11
198.59	2491.68
198.665	2515.97
198.74	2520.35
198.815	2522.64
198.89	2546.11
198.965	2573.26
199.04	2571.69
199.115	2584.36
199.19	2625.78
199.265	2629.92
199.34	2640.5
199.415	2672.23
199.49	2691.28
199.565	2705.62
199.64	2724.29
199.715	2721.24
199.79	2728.34
199.865	2734.44
199.94	2732.63
200.015	2764.79
200.09	2771.08
200.165	2777.61
200.24	2785.04
200.315	2828.58
200.39	2842.12
200.464	2844.6
200.539	2849.89
200.614	2862.23
200.689	2885.77
200.764	2893.4
200.839	2911.69
200.914	2917.03
200.989	2910.35
201.063	2922.7
201.138	2906.22
201.213	2909.98
201.288	2892.35
201.363	2898.5
201.438	2894.73
201.512	2909.6
201.587	2895.96
201.662	2896.39
201.737	2909.69
201.812	2918.32
201.886	2883.93
201.961	2895.71
202.036	2887.84
202.111	2883.12
202.186	2861.97
202.26	2850.01
202.335	2831.51
202.41	2828.94
202.485	2814.98
202.559	2798.68
202.634	2777.48
202.709	2788.91
202.784	2773.33
202.858	2779.05
202.933	2766.71
203.008	2770.76
203.082	2760.23
203.157	2764.99
203.232	2737.56
203.306	2723.87
203.381	2702.14
203.456	2691.66
203.53	2683.41
203.605	2678.41
203.68	2672.93
203.754	2681.59
203.829	2684.31
203.904	2686.22
203.978	2694.99
204.053	2722.77
204.127	2736.88
204.202	2763.99
204.277	2775.62
204.351	2802.93
204.426	2830.11
204.5	2860.81
204.575	2868.15
204.65	2919.48
204.724	2956.41
204.799	3007.93
204.873	3053.59
204.948	3105.34
205.022	3152.41
205.097	3203.4
205.171	3274.54
205.246	3349.12
205.32	3415.01
205.395	3490.08
205.469	3558.96
205.544	3642.85
205.618	3712.95
205.693	3813.06
205.767	3896.93
205.842	4013.67
205.916	4105.79
205.991	4197.56
206.065	4303.6
206.14	4425.72
206.214	4533.05
206.289	4641.86
206.363	4776.23
206.438	4903.72
206.512	5037.45
206.586	5185.76
206.661	5327.85
206.735	5448.83
206.81	5591.99
206.884	5747.41
206.958	5874.78
207.033	6040.39
207.107	6204.61
207.181	6390.88
207.256	6546.99
207.33	6719.89
207.405	6889.6
207.479	7073.77
207.553	7250.43
207.628	7407.4
207.702	7591.82
207.776	7760.58
207.851	7940.51
207.925	8130.56
207.999	8307.68
208.073	8488
208.148	8678.9
208.222	8849.86
208.296	9065.65
208.371	9264.98
208.445	9466.47
208.519	9683.07
208.593	9882.15
208.668	10069.96
208.742	10264.93
208.816	10458.53
208.89	10673.31
208.965	10875.21
209.039	11081.44
209.113	11296.26
209.187	11517.91
209.261	11710.72
209.336	11930.48
209.41	12142.74
209.484	12338.81
209.558	12559.42
209.632	12773.57
209.707	12984.41
209.781	13208.98
209.855	13421.9
209.929	13645.03
210.003	13848.26
210.077	14048.88
210.151	14294.48
210.226	14520.4
210.3	14739.77
210.374	14956.68
210.448	15154.02
210.522	15348.18
210.596	15546.57
210.67	15743.14
210.744	15971.94
210.818	16189.41
210.892	16392.62
210.966	16571.34
211.041	16766.2
211.115	16939.9
211.189	17144.83
211.263	17327.15
211.337	17507.2
211.411	17691.64
211.485	17847.97
211.559	18037.71
211.633	18201.03
211.707	18335.2
211.781	18510.42
211.855	18637.07
211.929	18783.37
212.003	18922.26
212.077	19093.14
212.151	19253.19
212.225	19409.18
212.299	19552.94
212.373	19694.57
212.447	19843.77
212.52	20024.4
212.594	20170.23
212.668	20320.25
212.742	20438.52
212.816	20576.88
212.89	20706.43
212.964	20842.1
213.038	20985.59
213.112	21132.84
213.186	21283.74
213.26	21395.07
213.333	21475.57
213.407	21608.69
213.481	21740.76
213.555	21868.83
213.629	21980.62
213.703	22087.34
213.777	22209.35
213.85	22308.13
213.924	22459.66
213.998	22564.77
214.072	22677.59
214.146	22782.89
214.219	22898.51
214.293	23010.6
214.367	23104.58
214.441	23217.02
214.515	23309.07
214.588	23388.45
214.662	23441.78
214.736	23527.95
214.81	23632.74
214.883	23741.24
214.957	23824.53
215.031	23896.28
215.105	23962.06
215.178	24031.18
215.252	24111.14
215.326	24173.22
215.4	24236.45
215.473	24260.96
215.547	24320.24
215.621	24377.22
215.694	24455.71
215.768	24504.24
215.842	24548.48
215.915	24613.17
215.989	24656.98
216.063	24700.98
216.136	24757.33
216.21	24821.54
216.284	24888.8
216.357	24949.5
216.431	25001.33
216.504	25066.52
216.578	25152.03
216.652	25224.16
216.725	25283.13
216.799	25345.24
216.873	25397.79
216.946	25449.33
217.02	25498.07
217.093	25550.92
217.167	25579.01
217.24	25607.39
217.314	25651.06
217.387	25694.16
217.461	25740.54
217.535	25795.08
217.608	25841.56
217.682	25881.96
217.755	25932.65
217.829	25950.99
217.902	25986.18
217.976	26012.73
218.049	26034.89
218.123	26050.09
218.196	26087.56
218.27	26113.58
218.343	26140.23
218.417	26171.85
218.49	26197.77
218.563	26237.21
218.637	26266.33
218.71	26315.67
218.784	26349.52
218.857	26386.02
218.931	26422.52
219.004	26449.02
219.077	26485.43
219.151	26512.14
219.224	26544.29
219.298	26566.02
219.371	26618.22
219.444	26630.44
219.518	26670.18
219.591	26702.77
219.665	26757.06
219.738	26785.36
219.811	26799.02
219.885	26826.7
219.958	26854.9
220.031	26871.7
220.105	26894.83
220.178	26909.13
220.251	26921.01
220.325	26948.49
220.398	26971.53
220.471	27001.47
220.544	27027.41
220.618	27033.11
220.691	27048.51
220.764	27040.35
220.838	27057.69
220.911	27058.61
220.984	27094.44
221.057	27107.29
221.131	27121.78
221.204	27097.82
221.277	27121.4
221.35	27156.8
221.424	27148.3
221.497	27155.5
221.57	27168.73
221.643	27175.2
221.716	27189.45
221.79	27186.12
221.863	27187.32
221.936	27185.2
222.009	27179.6
222.082	27177.91
222.155	27166.65
222.229	27175.83
222.302	27196.11
222.375	27189.5
222.448	27187.85
222.521	27182.73
222.594	27166.31
222.667	27143.32
222.74	27137.62
222.814	27118.3
222.887	27104.92
222.96	27107.82
223.033	27099.85
223.106	27102.12
223.179	27097.58
223.252	27085.79
223.325	27074.92
223.398	27051.07
223.471	27028.17
223.544	27015.57
223.617	27005.04
223.69	26996.3
223.763	26973.65
223.837	26962.25
223.91	26954.28
223.983	26918.69
224.056	26881.26
224.129	26861.94
224.202	26841.28
224.275	26824.08
224.348	26788.2
224.42	26752.47
224.493	26702.49
224.566	26667.19
224.639	26638.56
224.712	26602.48
224.785	26566.12
224.858	26534.74
224.931	26508.76
225.004	26484.09
225.077	26453.62
225.15	26399.44
225.223	26369.36
225.296	26355.26
225.369	26307.85
225.442	26266.08
225.514	26245.23
225.587	26221.13
225.66	26203.9
225.733	26194.39
225.806	26165.18
225.879	26147.27
225.952	26115.6
226.025	26116.56
226.097	26103.92
226.17	26070.99
226.243	26029.62
226.316	26008.24
226.389	25983.67
226.461	25957.31
226.534	25925.02
226.607	25886.74
226.68	25867.34
226.753	25838.38
226.825	25797.3
226.898	25779.83
226.971	25750.91
227.044	25716.89
227.117	25688.8
227.189	25655.2
227.262	25625.37
227.335	25594.96
227.407	25562.77
227.48	25530.63
227.553	25495.44
227.626	25456.2
227.698	25428.41
227.771	25402.49
227.844	25358.53
227.916	25333.87
227.989	25290.83
228.062	25260.04
228.134	25257.34
228.207	25233.69
228.28	25207.05
228.352	25183.02
228.425	25148.76
228.498	25129.84
228.57	25094.14
228.643	25073.97
228.716	25034.64
228.788	24995.56
228.861	24966.12
228.934	24937.03
229.006	24904.08
229.079	24871.22
229.151	24830.4
229.224	24782.35
229.296	24752.01
229.369	24750.22
229.442	24732.22
229.514	24698.94
229.587	24673.66
229.659	24603.42
229.732	24572.97
229.804	24540.51
229.877	24513.68
229.949	24499.88
230.022	24479.57
230.094	24448.94
230.167	24418.89
230.239	24383.48
230.312	24347.01
230.384	24326.75
230.457	24306.25
230.529	24282.76
230.602	24248.27
230.674	24225.5
230.747	24206.11
230.819	24184.17
230.892	24115.19
230.964	24074.04
231.037	24046.7
231.109	24019.59
231.181	24009.32
231.254	23961.33
231.326	23914.55
231.399	23875.58
231.471	23821.94
231.544	23761.36
231.616	23739.76
231.688	23698.09
231.761	23663.75
231.833	23629.56
231.905	23573.23
231.978	23524.13
232.05	23477.79
232.122	23437.48
232.195	23396.82
232.267	23372.33
232.339	23332.5
232.412	23309.01
232.484	23270.72
232.556	23230.61
232.629	23213.39
232.701	23180.6
232.773	23140.1
232.846	23098.83
232.918	23059.19
232.99	23024.76
233.062	23005.81
233.135	22964.44
233.207	22917.67
233.279	22883.3
233.351	22843.52
233.424	22794.11
233.496	22753.99
233.568	22743.77
233.64	22696.86
233.713	22665.91
233.785	22626.76
233.857	22598.07
233.929	22551.21
234.001	22524.07
234.074	22496.54
234.146	22433
234.218	22392.79
234.29	22363.67
234.362	22325.59
234.434	22278.88
234.507	22228.7
234.579	22169.21
234.651	22134.07
234.723	22107.74
234.795	22068.6
234.867	22031.44
234.939	22013.22
235.012	21973.01
235.084	21931.46
235.156	21903.84
235.228	21850.19
235.3	21802.85
235.372	21759.76
235.444	21728.48
235.516	21667.55
235.588	21631.35
235.66	21592.98
235.732	21550.9
235.804	21571.92
235.876	21549.51
235.948	21532.2
236.02	21490.61
236.092	21448
236.164	21400.33
236.236	21355.75
236.308	21305.77
236.38	21268.03
236.452	21223.25
236.524	21184.41
236.596	21156.5
236.668	21130.57
236.74	21091.53
236.812	21057.6
236.884	21016.44
236.956	20981.36
237.028	20933.55
237.1	20887.13
237.172	20863.62
237.244	20832.58
237.316	20743.55
237.388	20688.66
237.46	20630.63
237.532	20613.77
237.604	20571.12
237.675	20554.05
237.747	20513.24
237.819	20473.38
237.891	20428.71
237.963	20387.74
238.035	20338.25
238.107	20259.45
238.178	20219.89
238.25	20181.29
238.322	20159.79
238.394	20107.99
238.466	20058.11
238.538	20025.77
238.609	19988.91
238.681	19911.56
238.753	19864.23
238.825	19817.78
238.897	19788.48
238.968	19765.93
239.04	19716.77
239.112	19700.34
239.184	19638.36
239.255	19595.04
239.327	19560.1
239.399	19529.98
239.471	19496.64
239.542	19463.19
239.614	19447.39
239.686	19383
239.758	19345.32
239.829	19299.49
239.901	19275.69
239.973	19234
240.044	19190
240.116	19148.99
240.188	19120.51
240.259	19086.15
240.331	19048.37
240.403	19009.92
240.474	18944.77
240.546	18889.3
240.618	18834.41
240.689	18797.26
240.761	18756.1
240.833	18733.31
240.904	18687.48
240.976	18646.28
241.048	18618.86
241.119	18578.09
241.191	18548.84
241.262	18535.35
241.334	18483.93
241.405	18438.44
241.477	18402.48
241.549	18370.2
241.62	18336.03
241.692	18304.08
241.763	18266.11
241.835	18227.31
241.906	18195.41
241.978	18153.39
242.049	18133.1
242.121	18100.72
242.192	18071.95
242.264	18028.81
242.335	17972
242.407	17936.29
242.478	17889.73
242.55	17850.07
242.621	17802.32
242.693	17756.15
242.764	17703.43
242.836	17663.91
242.907	17636.25
242.979	17607.62
243.05	17570.03
243.122	17526.51
243.193	17493.93
243.264	17437.21
243.336	17398.8
243.407	17358.75
243.479	17338.13
243.55	17294.61
243.622	17259.77
243.693	17220.34
243.764	17199.28
243.836	17158.22
243.907	17123.14
243.978	17090.46
244.05	17052.05
244.121	17000.14
244.192	16977.97
244.264	16927.32
244.335	16893.44
244.407	16832.62
244.478	16789.77
244.549	16753.96
244.62	16711.74
244.692	16673.57
244.763	16649.57
244.834	16607.26
244.906	16563.73
244.977	16530.38
245.048	16511.54
245.119	16466.04
245.191	16420.64
245.262	16361.45
245.333	16335.28
245.405	16299.23
245.476	16265.4
245.547	16234.79
245.618	16208.48
245.689	16176.95
245.761	16154.73
245.832	16116.47
245.903	16094.44
245.974	16065.09
246.045	16026.19
246.117	16008.65
246.188	15962.18
246.259	15918.56
246.33	15884.87
246.401	15848.28
246.473	15797.72
246.544	15760.13
246.615	15744.03
246.686	15706.24
246.757	15687.78
246.828	15643.05
246.899	15621.79
246.97	15568.14
247.042	15522.45
247.113	15501.29
247.184	15482.83
247.255	15432.41
247.326	15405.27
247.397	15373.7
247.468	15343.38
247.539	15313.69
247.61	15267.9
247.681	15252.91
247.752	15237.63
247.823	15200.56
247.894	15173.23
247.965	15138.33
248.037	15105.55
248.108	15052.38
248.179	15017.1
248.25	14980.27
248.321	14963.98
248.392	14923.44
248.463	14924.93
248.534	14894.08
248.605	14869.5
248.675	14832.58
248.746	14815.27
248.817	14796.67
248.888	14771.84
248.959	14728.7
249.03	14714.14
249.101	14685.55
249.172	14643.13
249.243	14585.48
249.314	14566.68
249.385	14545.09
249.456	14522.91
249.527	14488.06
249.598	14468.58
249.669	14445.54
249.739	14430.65
249.81	14407.7
249.881	14364.36
249.952	14331.87
250.023	14310.13
250.094	14266.94
250.165	14229.49
250.235	14202.64
250.306	14168.94
250.377	14122.9
250.448	14100.58
250.519	14040.23
250.59	14024.85
250.66	13995.88
250.731	13988.41
250.802	13963.92
250.873	13935.53
250.944	13916.1
251.014	13885.83
251.085	13885.63
251.156	13865.05
251.227	13839.02
251.297	13826.77
251.368	13817.37
251.439	13799.25
251.51	13781.07
251.58	13748.1
251.651	13720.43
251.722	13707.8
251.792	13657.28
251.863	13628.74
251.934	13620.93
252.005	13627.97
252.075	13602.81
252.146	13597.45
252.217	13585.74
252.287	13563.9
252.358	13536.38
252.429	13522.73
252.499	13497.33
252.57	13468.16
252.641	13448.54
252.711	13434.08
252.782	13393.68
252.852	13382.55
252.923	13359.84
252.994	13338.05
253.064	13328.65
253.135	13291.73
253.205	13260.88
253.276	13262.08
253.347	13263.91
253.417	13222.12
253.488	13196.52
253.558	13175.02
253.629	13144.6
253.699	13125.08
253.77	13110.04
253.841	13093.02
253.911	13073.93
253.982	13048.62
254.052	13039.32
254.123	13022.88
254.193	12996.95
254.264	13010.01
254.334	12977.9
254.405	12942.71
254.475	12911.14
254.546	12882.6
254.616	12882.94
254.687	12863.66
254.757	12848.09
254.827	12821.86
254.898	12819.93
254.968	12798.43
255.039	12766.28
255.109	12750.09
255.18	12718.03
255.25	12684.43
255.321	12666.59
255.391	12629.04
255.461	12623.74
255.532	12575.1
255.602	12548.2
255.673	12502.41
255.743	12461.63
255.813	12416.85
255.884	12404.99
255.954	12391.44
256.024	12389.32
256.095	12370.71
256.165	12338.03
256.235	12322.9
256.306	12300.39
256.376	12283.18
256.446	12268.67
256.517	12258.93
256.587	12252.57
256.657	12234.73
256.728	12212.51
256.798	12187.49
256.868	12166.09
256.938	12135.92
257.009	12121.5
257.079	12111
257.149	12123.63
257.219	12092.25
257.29	12080.2
257.36	12043.32
257.43	12027.61
257.5	11988.57
257.571	11960.32
257.641	11950.44
257.711	11914.72
257.781	11902.72
257.852	11889.61
257.922	11849.17
257.992	11824.25
258.062	11795.23
258.132	11786.65
258.202	11767.37
258.273	11751.03
258.343	11750.65
258.413	11734.36
258.483	11716.52
258.553	11687.02
258.623	11660.37
258.693	11644.71
258.764	11646.59
258.834	11640.03
258.904	11619.64
258.974	11595.64
259.044	11576.41
259.114	11564.55
259.184	11550.38
259.254	11527.59
259.324	11486.43
259.394	11472.26
259.464	11478.23
259.535	11465.37
259.605	11441.31
259.675	11416.88
259.745	11405.36
259.815	11377.02
259.885	11349.99
259.955	11359.43
260.025	11333.89
260.095	11310.47
260.165	11298.03
260.235	11291.14
260.305	11267.05
260.375	11242.71
260.445	11245.21
260.515	11242.66
260.585	11231.33
260.655	11216.3
260.725	11210.51
260.795	11204.35
260.865	11210.03
260.934	11177.16
261.004	11170.18
261.074	11153.6
261.144	11153.45
261.214	11148.58
261.284	11129.21
261.354	11123.33
261.424	11096.39
261.494	11099.14
261.564	11087.28
261.634	11075.57
261.703	11038.95
261.773	11034.08
261.843	11023.33
261.913	11005.26
261.983	10968.74
262.053	10961.17
262.123	10937.94
262.192	10905.27
262.262	10897.51
262.332	10863.49
262.402	10858.92
262.472	10836.6
262.541	10804.13
262.611	10791.12
262.681	10762.06
262.751	10758.01
262.821	10738.35
262.89	10706.93
262.96	10692.53
263.03	10690.79
263.1	10678.12
263.169	10668.96
263.239	10659.18
263.309	10663.86
263.379	10657.93
263.448	10651.52
263.518	10639.23
263.588	10623.62
263.657	10627.09
263.727	10616.54
263.797	10600.83
263.867	10578.38
263.936	10556.26
264.006	10551.73
264.076	10537.86
264.145	10518.63
264.215	10494.78
264.285	10492.71
264.354	10464.09
264.424	10443.04
264.494	10414.95
264.563	10396.54
264.633	10397.6
264.702	10387.24
264.772	10349.37
264.842	10325.04
264.911	10311.03
264.981	10277.78
265.05	10268.24
265.12	10251.14
265.19	10242.18
265.259	10238.85
265.329	10234.8
265.398	10214.28
265.468	10224.35
265.537	10202.38
265.607	10196.56
265.676	10191.45
265.746	10183.6
265.815	10186.92
265.885	10180.08
265.955	10159.41
266.024	10139.28
266.094	10107.24
266.163	10103.87
266.232	10112.78
266.302	10101.51
266.371	10097.17
266.441	10089.8
266.51	10085.42
266.58	10069.57
266.649	10039.75
266.719	10038.31
266.788	10027.56
266.858	10033.54
266.927	9995.82
266.996	9989.08
267.066	9972.99
267.135	9949.92
267.205	9940.52
267.274	9925.64
267.343	9917.59
267.413	9903.96
267.482	9907.77
267.552	9906.18
267.621	9872.12
267.69	9836.29
267.76	9820.63
267.829	9808.5
267.898	9792.22
267.968	9773.53
268.037	9766.54
268.106	9768.28
268.176	9740.44
268.245	9721.07
268.314	9700.8
268.384	9706.58
268.453	9702.24
268.522	9697.04
268.592	9698.29
268.661	9675.7
268.73	9667.37
268.799	9647.62
268.869	9656.53
268.938	9627.59
269.007	9615.26
269.076	9613.96
269.146	9612.95
269.215	9612.03
269.284	9618.54
269.353	9605.68
269.422	9594.99
269.492	9576.45
269.561	9534.74
269.63	9532.87
269.699	9518.76
269.768	9512.93
269.838	9499.25
269.907	9493.09
269.976	9472.33
270.045	9440.12
270.114	9441.42
270.183	9423.94
270.253	9415.85
270.322	9382.28
270.391	9374.68
270.46	9372.85
270.529	9366.44
270.598	9368.13
270.667	9359.36
270.736	9332.25
270.806	9324.3
270.875	9316.41
270.944	9310.34
271.013	9335.48
271.082	9323.82
271.151	9320.79
271.22	9291.18
271.289	9281.02
271.358	9266.52
271.427	9262.05
271.496	9254.05
271.565	9233.06
271.634	9229.26
271.703	9253.53
271.772	9257.09
271.841	9241.93
271.91	9219.58
271.979	9208.9
272.048	9180.58
272.117	9178.71
272.186	9164.41
272.255	9161.81
272.324	9165.56
272.393	9159.98
272.462	9143.36
272.531	9136.38
272.6	9123.82
272.669	9129.02
272.738	9120.93
272.807	9116.16
272.876	9092.19
272.945	9116.6
273.013	9121.46
273.082	9123.34
273.151	9084.62
273.22	9081.16
273.289	9081.78
273.358	9087.37
273.427	9077.02
273.496	9077.98
273.564	9067.58
273.633	9071.91
273.702	9057.18
273.771	9042.16
273.84	9035.13
273.909	9031.23
273.977	9026.18
274.046	9010.29
274.115	9012.6
274.184	8992.19
274.253	8979.82
274.322	8986.32
274.39	8952.52
274.459	8934.32
274.528	8904
274.597	8891.73
274.665	8883.73
274.734	8887.68
274.803	8874.92
274.872	8864.96
274.94	8851.96
275.009	8905.13
275.078	8893.05
275.147	8887.9
275.215	8882.75
275.284	8885.88
275.353	8873.27
275.421	8854.54
275.49	8873.56
275.559	8867.63
275.627	8862.1
275.696	8860.42
275.765	8859.6
275.833	8860.75
275.902	8865.9
275.971	8883.28
276.039	8897.29
276.108	8900.46
276.177	8896.51
276.245	8892.42
276.314	8895.74
276.383	8905.08
276.451	8843.34
276.52	8838.05
276.588	8849.07
276.657	8852.39
276.725	8842.14
276.794	8836.8
276.863	8849.51
276.931	8823.13
277	8827.27
277.068	8835.21
277.137	8846.04
277.205	8847.05
277.274	8860.09
277.342	8863.42
277.411	8840.03
277.48	8822.22
277.548	8811.58
277.617	8804.79
277.685	8797.48
277.754	8793.14
277.822	8783.13
277.89	8795.5
277.959	8791.41
278.027	8775
278.096	8763.11
278.164	8783.81
278.233	8789.11
278.301	8771.54
278.37	8779.67
278.438	8761.19
278.507	8767.11
278.575	8738.09
278.643	8737.7
278.712	8721.34
278.78	8707.62
278.849	8717.48
278.917	8732.11
278.985	8731.58
279.054	8732.11
279.122	8742.13
279.191	8742.41
279.259	8735.39
279.327	8716.37
279.396	8732.16
279.464	8727.4
279.532	8734.09
279.601	8736.3
279.669	8724.61
279.737	8736.35
279.806	8738.71
279.874	8749.73
279.942	8742.7
280.011	8747.95
280.079	8750.11
280.147	8765.23
280.215	8770.91
280.284	8769.75
280.352	8755.22
280.42	8766.24
280.488	8764.51
280.557	8757.67
280.625	8767.78
280.693	8772.74
280.761	8772.93
280.83	8754.78
280.898	8761.38
280.966	8750.93
281.034	8716.85
281.102	8705.25
281.171	8704.87
281.239	8715.84
281.307	8704.68
281.375	8695.1
281.443	8717.82
281.512	8717.1
281.58	8722.49
281.648	8709.83
281.716	8711.95
281.784	8712.09
281.852	8696.69
281.92	8691.54
281.989	8700.25
282.057	8675.9
282.125	8718.12
282.193	8715.19
282.261	8720.29
282.329	8722.21
282.397	8724.28
282.465	8726.74
282.533	8744.64
282.601	8731.69
282.67	8710.61
282.738	8711.38
282.806	8725.29
282.874	8705.55
282.942	8706.18
283.01	8693.04
283.078	8696.36
283.146	8695.88
283.214	8703.82
283.282	8713.01
283.35	8727.79
283.418	8720.76
283.486	8729.04
283.554	8684.17
283.622	8681.76
283.69	8678.59
283.758	8671.22
283.826	8671.17
283.894	8678.97
283.962	8694.37
284.03	8711.46
284.098	8713.1
284.165	8702.94
284.233	8700.49
284.301	8700.87
284.369	8694.42
284.437	8689.56
284.505	8686.39
284.573	8700.34
284.641	8690.04
284.709	8697.36
284.777	8682.2
284.845	8688.26
284.912	8696.49
284.98	8700.15
285.048	8702.17
285.116	8705.97
285.184	8718.49
285.252	8718.44
285.319	8705.54
285.387	8698.42
285.455	8680.08
285.523	8681.19
285.591	8683.69
285.659	8680.27
285.726	8685.9
285.794	8667.33
285.862	8662.47
285.93	8665.89
285.997	8653.37
286.065	8651.54
286.133	8637.73
286.201	8631.62
286.269	8618.81
286.336	8607.12
286.404	8600.04
286.472	8601.15
286.539	8581.76
286.607	8569.53
286.675	8569.63
286.743	8576.27
286.81	8568.52
286.878	8580.31
286.946	8574.58
287.013	8570.49
287.081	8568.28
287.149	8559.62
287.216	8581.46
287.284	8581.56
287.352	8579.83
287.419	8583.2
287.487	8591.57
287.555	8597.93
287.622	8596.63
287.69	8597.25
287.758	8609.67
287.825	8606.06
287.893	8603.41
287.96	8610.87
288.028	8621.27
288.096	8622.28
288.163	8631.09
288.231	8619.73
288.298	8617.8
288.366	8628.73
288.433	8629.45
288.501	8628.82
288.569	8628.29
288.636	8624.01
288.704	8639.12
288.771	8644.47
288.839	8631.62
288.906	8632.05
288.974	8631.86
289.041	8632.48
289.109	8630.08
289.176	8639.03
289.244	8643.99
289.311	8648.75
289.379	8657.41
289.446	8661.02
289.514	8662.23
289.581	8653.32
289.649	8657.03
289.716	8661.22
289.783	8655.78
289.851	8678.49
289.918	8675.8
289.986	8686.14
290.053	8691.01
290.121	8690.28
290.188	8694.86
290.255	8722.29
290.323	8715.6
290.39	8714.35
290.458	8721.33
290.525	8731.15
290.592	8723.49
290.66	8730.47
290.727	8728.59
290.794	8746.5
290.862	8743.71
290.929	8747.51
290.996	8752.56
291.064	8765.99
291.131	8780.05
291.198	8792.08
291.266	8787.27
291.333	8787.12
291.4	8798.24
291.468	8814.75
291.535	8806.43
291.602	8809.51
291.669	8801.57
291.737	8808.93
291.804	8812.54
291.871	8829.58
291.938	8839.88
292.006	8869.87
292.073	8875.89
292.14	8882.39
292.207	8869.34
292.275	8867.18
292.342	8880.22
292.409	8903.28
292.476	8923.6
292.543	8911.8
292.611	8917.87
292.678	8938.71
292.745	8967.5
292.812	8971.78
292.879	8961.43
292.946	8969.71
293.014	8983.87
293.081	8995.56
293.148	9005.34
293.215	9020.16
293.282	9011.11
293.349	9019.2
293.416	8996.14
293.484	9013.28
293.551	9028.1
293.618	9045.34
293.685	9075.86
293.752	9069.94
293.819	9067.44
293.886	9057.13
293.953	9066.28
294.02	9079.42
294.087	9079.33
294.154	9074.32
294.221	9089.87
294.288	9097
294.356	9114.71
294.423	9115.53
294.49	9109.27
294.557	9122.08
294.624	9117.46
294.691	9142.15
294.758	9138.88
294.825	9146.05
294.892	9139.89
294.959	9135.8
295.026	9144.95
295.093	9137.34
295.16	9141.05
295.226	9144.9
295.293	9170.71
295.36	9176.19
295.427	9183.08
295.494	9198.25
295.561	9208.12
295.628	9230.37
295.695	9243.8
295.762	9243.22
295.829	9254.44
295.896	9273.46
295.963	9279.43
296.03	9293.25
296.096	9296.91
296.163	9312.37
296.23	9333.99
296.297	9349.97
296.364	9356.76
296.431	9359.99
296.498	9353.73
296.564	9375.78
296.631	9372.46
296.698	9353.49
296.765	9372.41
296.832	9365.43
296.899	9354.16
296.965	9368.36
297.032	9346.16
297.099	9362.73
297.166	9376.74
297.233	9372.31
297.299	9363.88
297.366	9368.7
297.433	9368.41
297.5	9378.04
297.566	9384.25
297.633	9379.53
297.7	9381.51
297.767	9373.47
297.833	9383
297.9	9391.28
297.967	9369.52
298.033	9388.35
298.1	9423.31
298.167	9420.04
298.234	9421.72
298.3	9433.95
298.367	9430.05
298.434	9438.48
298.5	9431.06
298.567	9425.81
298.634	9430.29
298.7	9443.44
298.767	9447.58
298.834	9459.04
298.9	9448.06
298.967	9441.95
299.033	9450.28
299.1	9468
299.167	9489.52
299.233	9482.25
299.3	9494.34
299.366	9518.65
299.433	9534.11
299.5	9505.07
299.566	9505.27
299.633	9521.45
299.699	9526.79
299.766	9528.82
299.832	9530.5
299.899	9540.81
299.965	9555.93
300.032	9550.87
300.099	9555.01
300.165	9564.89
300.232	9568.36
300.298	9577.12
300.365	9586.51
300.431	9587.81
300.498	9577.5
300.564	9584.39
300.631	9595.37
300.697	9608.28
300.763	9602.02
300.83	9597.63
300.896	9610.4
300.963	9623.16
301.029	9630.58
301.096	9631.88
301.162	9638.67
301.229	9640.45
301.295	9629.08
301.361	9629.42
301.428	9637.27
301.494	9630.53
301.561	9625.9
301.627	9623.35
301.693	9629.13
301.76	9634.67
301.826	9631.83
301.892	9637.46
301.959	9646.28
302.025	9644.59
302.092	9637.51
302.158	9650.51
302.224	9659.81
302.291	9655.28
302.357	9653.36
302.423	9642.18
302.49	9634.76
302.556	9645.46
302.622	9642.38
302.688	9653.21
302.755	9668.29
302.821	9673.92
302.887	9682.98
302.954	9685.29
303.02	9692.13
303.086	9693.67
303.152	9683.51
303.219	9679.8
303.285	9692.22
303.351	9695.55
303.417	9694.2
303.483	9691.94
303.55	9687.7
303.616	9681.39
303.682	9680.57
303.748	9670.55
303.815	9690.59
303.881	9705.76
303.947	9692.85
304.013	9694.06
304.079	9679.42
304.145	9658.22
304.212	9655.09
304.278	9650.9
304.344	9645.32
304.41	9633.61
304.476	9623.26
304.542	9625.62
304.608	9631.11
304.674	9607.27
304.741	9599.18
304.807	9604.57
304.873	9607.89
304.939	9620.95
305.005	9600.24
305.071	9601.49
305.137	9599.51
305.203	9568.16
305.269	9561.9
305.335	9571.82
305.401	9568.88
305.467	9578.85
305.533	9582.85
305.599	9585.88
305.666	9590.02
305.732	9595.32
305.798	9606.25
305.864	9634.24
305.93	9636.55
305.996	9637.99
306.062	9642.81
306.128	9639.49
306.194	9624.94
306.259	9620.32
306.325	9610.4
306.391	9622.82
306.457	9626.68
306.523	9628.31
306.589	9656.58
306.655	9654.8
306.721	9642.81
306.787	9637.66
306.853	9646.76
306.919	9636.16
306.985	9630.29
307.051	9621.09
307.117	9609.92
307.183	9606.98
307.248	9578.85
307.314	9589.11
307.38	9586.46
307.446	9593.64
307.512	9585.5
307.578	9594.84
307.644	9592.58
307.709	9592.48
307.775	9584.15
307.841	9581.74
307.907	9593.16
307.973	9572.64
308.039	9569.99
308.104	9573.65
308.17	9572.78
308.236	9559.06
308.302	9555.69
308.368	9547.93
308.433	9549.28
308.499	9546.1
308.565	9536.71
308.631	9533.39
308.696	9505.7
308.762	9496.21
308.828	9495.15
308.894	9478.2
308.959	9458.99
309.025	9446.66
309.091	9441.07
309.156	9439.53
309.222	9440.83
309.288	9421.19
309.354	9402.79
309.419	9395.18
309.485	9374.48
309.551	9379.49
309.616	9365.47
309.682	9366.72
309.748	9360.85
309.813	9355.31
309.879	9346.02
309.945	9335.86
310.01	9334.61
310.076	9338.56
310.141	9331.48
310.207	9311.01
310.273	9315.78
310.338	9317.08
310.404	9307.01
310.469	9293.29
310.535	9279.76
310.601	9250.68
310.666	9256.41
310.732	9270.18
310.797	9258.05
310.863	9252.56
310.928	9238.78
310.994	9238.3
311.059	9232.67
311.125	9232.19
311.191	9245.67
311.256	9234.94
311.322	9236.81
311.387	9217.22
311.453	9513.91
311.518	9492.29
311.584	9494.46
311.649	9494.99
311.715	9488.97
311.78	9489.45
311.846	9482.23
311.911	9489.55
311.976	9497.39
312.042	9480.97
312.107	9462.73
312.173	9458.06
312.238	9452.04
312.304	9450.88
312.369	9444.05
312.434	9436.39
312.5	9427.05
312.565	9394.36
312.631	9397.44
312.696	9384.58
312.761	9384.2
312.827	9076.68
312.892	9115.77
312.958	9113.32
313.023	9111.73
313.088	9106.34
313.154	9091.46
313.219	9080.05
313.284	9071.48
313.35	9065.66
313.415	9058.15
313.48	9049.82
313.546	9047.89
313.611	9055.26
313.676	9041.06
313.741	9030.61
313.807	9032.05
313.872	9037.06
313.937	9044.72
314.003	9052.51
314.068	9053.33
314.133	9056.27
314.198	9045.34
314.264	9012.79
314.329	8993.1
314.394	8983.33
314.459	8978.85
314.525	8994.79
314.59	8992.09
314.655	8976.83
314.72	8986.46
314.785	8991.75
314.851	8982.99
314.916	8967.83
314.981	8952.47
315.046	8946.65
315.111	8937.7
315.176	8924.89
315.242	8920.65
315.307	8916.08
315.372	8895.43
315.437	8887.2
315.502	8885.7
315.567	8892.01
315.632	8886.33
315.698	8892.11
315.763	8890.47
315.828	8881.42
315.893	8880.79
315.958	8880.22
316.023	8874.25
316.088	8852.63
316.153	8826.45
316.218	8819.28
316.283	8805.03
316.348	8789.25
316.413	8786.36
316.479	8771.25
316.544	8735.4
316.609	8709.94
316.674	8672.59
316.739	8642.28
316.804	8609.31
316.869	8568.79
316.934	8530.92
316.999	8496.03
317.064	8442.86
317.129	8398.11
317.194	8362.6
317.259	8308.99
317.324	8254.68
317.389	8207.05
317.454	8164.86
317.518	8131.67
317.583	8108.91
317.648	8080.28
317.713	8045.22
317.778	7984.27
317.843	7953.1
317.908	7916.7
317.973	7873.94
318.038	7843.21
318.103	7803.25
318.168	7771.65
318.233	7735.49
318.297	7688.8
318.362	7651.44
318.427	7612.16
318.492	7585.81
318.557	7534.28
318.622	7507.79
318.687	7480.97
318.751	7442.33
318.816	7409.44
318.881	7372.86
318.946	7315.32
319.011	7269.81
319.075	7229.15
319.14	7192.67
319.205	7150.14
319.27	7117.47
319.335	7068.94
319.399	7022.77
319.464	6993.17
319.529	6937.73
319.594	6899.01
319.658	6869.42
319.723	6828.15
319.788	6801.12
319.853	6742.8
319.917	6716.87
319.982	6663.41
320.047	6625.52
320.112	6598.91
320.176	6545.13
320.241	6509.55
320.306	6479.78
320.37	6435.71
320.435	6401.86
320.5	6372.05
320.564	6328.95
320.629	6287
320.694	6257
320.758	6217.8
320.823	6172.78
320.888	6145.48
320.952	6097.6
321.017	6054.51
321.082	6010.08
321.146	5974.38
321.211	5943.44
321.275	5902.86
321.34	5858.11
321.405	5812.7
321.469	5763.15
321.534	5726.67
321.598	5675.55
321.663	5641.25
321.727	5616.17
321.792	5563.92
321.857	5522.92
321.921	5484.95
321.986	5443.74
322.05	5386.24
322.115	5355.75
322.179	5311.96
322.244	5256.19
322.308	5222.85
322.373	5174.7
322.437	5133.65
322.502	5109.35
322.566	5062.16
322.631	5025.57
322.695	4986.26
322.76	4942.3
322.824	4902.23
322.889	4856.8
322.953	4809.94
323.018	4745.55
323.082	4678.2
323.146	4629.93
323.211	4574.17
323.275	4526.6
323.34	4477.09
323.404	4444.57
323.468	4392.08
323.533	4348.36
323.597	4304.48
323.662	4255.5
323.726	4216.86
323.79	4172.82
323.855	4100.02
323.919	4051.93
323.983	4004.69
324.048	3940.05
324.112	4072.74
324.177	3944.17
324.241	3738.7
324.305	3539.4
324.37	3341.43
324.434	3150.24
324.498	3106.1
324.562	3055.84
324.627	2997.03
324.691	2944.65
324.755	2877.31
324.82	2801.6
324.884	2725.04
324.948	2651.2
325.012	2552.86
325.077	2433.53
