Data from 20250703_urea_0.1M_MAYP1162681_19-21-05-388.txt Node
Date: Thu Jul 03 19:21:05 BST 2025
User: adleo
Spectrometer: MAYP116268
Trigger mode: 0
Integration Time (sec): 1.000000E0
Scans to average: 1
Electric dark correction enabled: true
Nonlinearity correction enabled: true
Boxcar width: 10
XAxis mode: Wavelengths
Number of Pixels in Spectrum: 2068
>>>>>Begin Spectral Data<<<<<
179.565	1363.44
179.642	1428.36
179.718	1480.99
179.795	1525.1
179.871	1561.86
179.948	1583.92
180.024	1607.56
180.101	1632.72
180.177	1649.04
180.254	1677.51
180.33	1702.94
180.407	1772.09
180.483	1879
180.56	1980.59
180.636	2077.22
180.712	2060.37
180.789	2075.36
180.865	2091.29
180.942	2101.65
181.018	2111.26
181.095	2123.82
181.171	2131.1
181.248	2132.58
181.324	2147
181.4	2155.99
181.477	2169.64
181.553	2184.96
181.63	2207.8
181.706	2227.36
181.782	2237.91
181.859	2236.34
181.935	2242.44
182.011	2236.82
182.088	2255.38
182.164	2277.8
182.24	2290.55
182.317	2299.88
182.393	2294.36
182.469	2308.39
182.546	2324.53
182.622	2334.19
182.698	2329.43
182.775	2340.66
182.851	2356.46
182.927	2348.18
183.003	2343.95
183.08	2336.85
183.156	2345.71
183.232	2343.28
183.308	2331.19
183.385	2338.85
183.461	2357.32
183.537	2357.27
183.613	2369.36
183.69	2359.98
183.766	2349.7
183.842	2361.12
183.918	2372.02
183.995	2386.3
184.071	2393.59
184.147	2384.07
184.223	2370.51
184.299	2386.74
184.375	2376.7
184.452	2383.42
184.528	2438.99
184.604	2449.27
184.68	2461.78
184.756	2470.64
184.832	2476.12
184.908	2482.07
184.985	2480.35
185.061	2462.45
185.137	2472.78
185.213	2461.93
185.289	2463.45
185.365	2452.65
185.441	2450.41
185.517	2461.04
185.593	2458.94
185.669	2453.27
185.745	2468.27
185.822	2488.54
185.898	2476.59
185.974	2488.63
186.05	2479.49
186.126	2442.39
186.202	2436.54
186.278	2431.21
186.354	2419.97
186.43	2423.78
186.506	2419.45
186.582	2421.02
186.658	2427.4
186.734	2407.59
186.81	2411.12
186.886	2413.78
186.962	2428.54
187.038	2421.21
187.114	2412.01
187.19	2418.73
187.266	2409.16
187.341	2411.3
187.417	2400.88
187.493	2400.83
187.569	2399.12
187.645	2395.26
187.721	2383.55
187.797	2390.35
187.873	2399.11
187.949	2391.93
188.025	2386.02
188.101	2387.92
188.176	2394.26
188.252	2391.5
188.328	2399.44
188.404	2396.68
188.48	2393.64
188.556	2385.4
188.632	2385.07
188.707	2388.97
188.783	2387.59
188.859	2382.98
188.935	2368.74
189.011	2380.78
189.086	2374.64
189.162	2366.36
189.238	2361.32
189.314	2356.84
189.39	2351.03
189.465	2342.37
189.541	2361.46
189.617	2343.9
189.693	2341.42
189.768	2343.8
189.844	2370.05
189.92	2360.91
189.996	2372.57
190.071	2381.81
190.147	2384.14
190.223	2397.71
190.298	2386.42
190.374	2372.33
190.45	2382.33
190.526	2393.66
190.601	2384.76
190.677	2386.52
190.753	2417.67
190.828	2423.23
190.904	2440.28
190.98	2454.18
191.055	2463.32
191.131	2453.47
191.207	2479.6
191.282	2491.45
191.358	2482.12
191.433	2467.12
191.509	2483.15
191.585	2480.01
191.66	2480.96
191.736	2487.01
191.811	2478.63
191.887	2498.3
191.963	2522.63
192.038	2530.58
192.114	2531.68
192.189	2535.15
192.265	2532.35
192.34	2507.76
192.416	2503.29
192.491	2501.38
192.567	2507.15
192.642	2511.48
192.718	2512.58
192.793	2497.29
192.869	2491.1
192.944	2495.2
193.02	2504.15
193.095	2505.48
193.171	2510.01
193.246	2510.58
193.322	2509.91
193.397	2508.63
193.473	2491.2
193.548	2472
193.624	2479.43
193.699	2475.86
193.775	2496.77
193.85	2493.4
193.925	2506.49
194.001	2505.97
194.076	2495.4
194.152	2485.92
194.227	2476.63
194.302	2465.97
194.378	2473.45
194.453	2471.35
194.529	2484.35
194.604	2467.68
194.679	2461.73
194.755	2441.46
194.83	2455.37
194.905	2451.13
194.981	2461.61
195.056	2455.28
195.131	2459.75
195.207	2458.08
195.282	2449.04
195.357	2423.42
195.433	2443.98
195.508	2426.84
195.583	2437.79
195.659	2454.07
195.734	2461.36
195.809	2463.17
195.884	2473.4
195.96	2470.17
196.035	2487.69
196.11	2482.02
196.185	2494.88
196.261	2500.35
196.336	2535.54
196.411	2518.2
196.486	2523.82
196.561	2514.72
196.637	2524.86
196.712	2545.77
196.787	2549.16
196.862	2565.16
196.937	2579.11
197.013	2585.35
197.088	2598.87
197.163	2623.6
197.238	2643.1
197.313	2644.77
197.388	2659.44
197.464	2692.27
197.539	2705.27
197.614	2696.22
197.689	2710.47
197.764	2725.29
197.839	2746.68
197.914	2737.15
197.989	2765.88
198.065	2783.03
198.14	2837.53
198.215	2865.12
198.29	2880
198.365	2894.53
198.44	2906.35
198.515	2937.39
198.59	2957.7
198.665	2983.1
198.74	2988.3
198.815	2990.3
198.89	3010.28
198.965	3041.99
199.04	3037.18
199.115	3055.05
199.19	3102.87
199.265	3103.73
199.34	3115.41
199.415	3153.35
199.49	3178.61
199.565	3187.91
199.64	3215.29
199.715	3212.71
199.79	3220.54
199.865	3225.78
199.94	3222.11
200.015	3254.46
200.09	3259.04
200.165	3262.33
200.24	3272.92
200.315	3318.48
200.39	3333.6
200.464	3343.43
200.539	3346.06
200.614	3366.76
200.689	3392.29
200.764	3398.12
200.839	3419
200.914	3427.55
200.989	3414.51
201.063	3428.44
201.138	3410.66
201.213	3410.37
201.288	3392.29
201.363	3399.87
201.438	3398.92
201.512	3416.33
201.587	3400.72
201.662	3405.87
201.737	3418.24
201.812	3430.65
201.886	3397.64
201.961	3411.06
202.036	3399.52
202.111	3398.13
202.186	3366.99
202.26	3348.42
202.335	3326.56
202.41	3323.22
202.485	3307.19
202.559	3287.83
202.634	3264.93
202.709	3274.56
202.784	3256
202.858	3258.81
202.933	3243.12
203.008	3240.54
203.082	3224.89
203.157	3225.61
203.232	3187.56
203.306	3175.34
203.381	3147.18
203.456	3128.15
203.53	3113.4
203.605	3101.05
203.68	3085.87
203.754	3088.59
203.829	3086.54
203.904	3080.72
203.978	3081.67
204.053	3103.24
204.127	3108.25
204.202	3124.03
204.277	3127.71
204.351	3142.78
204.426	3158.19
204.5	3171.46
204.575	3162.49
204.65	3203.3
204.724	3231.66
204.799	3273.72
204.873	3300.7
204.948	3336.54
205.022	3362.26
205.097	3394.46
205.171	3454.17
205.246	3509.15
205.32	3560.74
205.395	3615.81
205.469	3655.38
205.544	3719.61
205.618	3758.31
205.693	3834.81
205.767	3885.65
205.842	3978.29
205.916	4044.83
205.991	4102.77
206.065	4188.55
206.14	4281.84
206.214	4357.75
206.289	4436.57
206.363	4537.78
206.438	4633.43
206.512	4734.64
206.586	4853.26
206.661	4957.37
206.735	5034.65
206.81	5135.91
206.884	5256.4
206.958	5347.82
207.033	5480.83
207.107	5607.36
207.181	5758.29
207.256	5866.54
207.33	6016.49
207.405	6155.1
207.479	6298.26
207.553	6441.36
207.628	6547.52
207.702	6693.18
207.776	6821.51
207.851	6956.15
207.925	7110.9
207.999	7246.41
208.073	7382.57
208.148	7525.77
208.222	7656.5
208.296	7835.23
208.371	7996.51
208.445	8152.93
208.519	8333.35
208.593	8499.24
208.668	8641.6
208.742	8800.27
208.816	8957.05
208.89	9117.71
208.965	9262.22
209.039	9419.52
209.113	9588.92
209.187	9774.76
209.261	9922.02
209.336	10098.35
209.41	10274.85
209.484	10427.48
209.558	10605.54
209.632	10777.01
209.707	10942.46
209.781	11124.8
209.855	11295.82
209.929	11477.76
210.003	11642.34
210.077	11790.58
210.151	11996.63
210.226	12188.47
210.3	12372.36
210.374	12552.67
210.448	12705.38
210.522	12868.06
210.596	13026.02
210.67	13176.03
210.744	13367.59
210.818	13554.77
210.892	13722.81
210.966	13862.85
211.041	14024.67
211.115	14169.96
211.189	14338.44
211.263	14505.37
211.337	14649.45
211.411	14806.11
211.485	14941.51
211.559	15095.57
211.633	15240.47
211.707	15342.42
211.781	15483.02
211.855	15569.49
211.929	15689.03
212.003	15800.66
212.077	15945.5
212.151	16101.62
212.225	16251.32
212.299	16366.56
212.373	16470.43
212.447	16590.82
212.52	16747.65
212.594	16875.61
212.668	17010.51
212.742	17117.5
212.816	17234.51
212.89	17350.42
212.964	17460.59
213.038	17572.4
213.112	17702.51
213.186	17833.31
213.26	17920.15
213.333	17981.98
213.407	18104.87
213.481	18222.75
213.555	18345.3
213.629	18433.59
213.703	18511.8
213.777	18612.81
213.85	18704.08
213.924	18863.49
213.998	18972.41
214.072	19059.77
214.146	19142.13
214.219	19230.61
214.293	19322.27
214.367	19410.69
214.441	19511.56
214.515	19604.23
214.588	19675.45
214.662	19719.11
214.736	19788.32
214.81	19882.19
214.883	19986.91
214.957	20060.69
215.031	20117.65
215.105	20175.05
215.178	20244.44
215.252	20318.85
215.326	20370.9
215.4	20417.98
215.473	20424.53
215.547	20471.38
215.621	20537.12
215.694	20607.38
215.768	20648.4
215.842	20705.12
215.915	20757.37
215.989	20793.8
216.063	20835.54
216.136	20893.33
216.21	20960.08
216.284	21031.94
216.357	21094.31
216.431	21140.29
216.504	21204.92
216.578	21298.86
216.652	21369.27
216.725	21418.39
216.799	21489.92
216.873	21548.09
216.946	21618.32
217.02	21665.94
217.093	21718.58
217.167	21743.64
217.24	21776.13
217.314	21822.54
217.387	21854.55
217.461	21891.23
217.535	21949.75
217.608	21992.94
217.682	22046.02
217.755	22098.75
217.829	22128.74
217.902	22175.3
217.976	22222.4
218.049	22247.37
218.123	22268.63
218.196	22331.26
218.27	22381.44
218.343	22410.18
218.417	22462.92
218.49	22502.36
218.563	22580.8
218.637	22622.98
218.71	22681.46
218.784	22728.03
218.857	22776.29
218.931	22826.82
219.004	22875.17
219.077	22928.41
219.151	22965.96
219.224	22998.12
219.298	23030.53
219.371	23075.42
219.444	23094.32
219.518	23118.52
219.591	23164.86
219.665	23237.77
219.738	23259.76
219.811	23281.75
219.885	23321.77
219.958	23353.55
220.031	23389.76
220.105	23413.49
220.178	23450.58
220.251	23478.84
220.325	23523.3
220.398	23565.88
220.471	23602.09
220.544	23642.22
220.618	23659.44
220.691	23701.78
220.764	23734.24
220.838	23777.06
220.911	23813.52
220.984	23872.99
221.057	23921.12
221.131	23953.34
221.204	23941.57
221.277	23982.32
221.35	24043.43
221.424	24055.68
221.497	24072.32
221.57	24083.61
221.643	24112.5
221.716	24145.26
221.79	24161.12
221.863	24185.48
221.936	24211.14
222.009	24219.73
222.082	24239.36
222.155	24260.1
222.229	24289.82
222.302	24306.12
222.375	24316.98
222.448	24336.9
222.521	24347.42
222.594	24358.22
222.667	24356.92
222.74	24391.84
222.814	24405.64
222.887	24396.86
222.96	24430.29
223.033	24464.64
223.106	24489.67
223.179	24492.52
223.252	24493.15
223.325	24510.61
223.398	24512.88
223.471	24521.56
223.544	24543.41
223.617	24555.47
223.69	24557.4
223.763	24550.36
223.837	24554.89
223.91	24565.75
223.983	24541.09
224.056	24521.41
224.129	24523.78
224.202	24541.24
224.275	24529.27
224.348	24508.34
224.42	24498.93
224.493	24470.71
224.566	24461.88
224.639	24461.06
224.712	24455.22
224.785	24444.32
224.858	24431.15
224.931	24420.54
225.004	24397.14
225.077	24394.06
225.15	24354.31
225.223	24339.02
225.296	24350.11
225.369	24328.84
225.442	24302.02
225.514	24294.93
225.587	24296.81
225.66	24292.47
225.733	24275.88
225.806	24265.55
225.879	24254.36
225.952	24242.93
226.025	24253.35
226.097	24244.62
226.17	24229.28
226.243	24207.57
226.316	24205.64
226.389	24196.82
226.461	24183.7
226.534	24178
226.607	24157.65
226.68	24179.5
226.753	24171.35
226.825	24129.04
226.898	24131.65
226.971	24118.63
227.044	24121.47
227.117	24114
227.189	24100.54
227.262	24109.8
227.335	24098.75
227.407	24083.27
227.48	24080.04
227.553	24070.15
227.626	24046.76
227.698	24033.44
227.771	24025.63
227.844	23997.08
227.916	23984.39
227.989	23956.95
228.062	23940.36
228.134	23950.83
228.207	23921.64
228.28	23904.09
228.352	23888.75
228.425	23867.87
228.498	23872.16
228.57	23845.15
228.643	23846.46
228.716	23827.65
228.788	23797.36
228.861	23776.62
228.934	23775.08
229.006	23747.34
229.079	23719.76
229.151	23699.55
229.224	23663.62
229.296	23645.97
229.369	23661.84
229.442	23665.36
229.514	23643.03
229.587	23639.27
229.659	23600.93
229.732	23588.49
229.804	23584.92
229.877	23602.43
229.949	23591.82
230.022	23584.49
230.094	23569.68
230.167	23546.73
230.239	23516.64
230.312	23492.14
230.384	23503.04
230.457	23491.46
230.529	23488.33
230.602	23481.19
230.674	23468.17
230.747	23477.19
230.819	23472.51
230.892	23410.79
230.964	23377.8
231.037	23367.82
231.109	23347.47
231.181	23333.82
231.254	23297.66
231.326	23269.21
231.399	23237.38
231.471	23215.59
231.544	23170.84
231.616	23153.14
231.688	23120.16
231.761	23096.25
231.833	23073.44
231.905	23014.66
231.978	22986.89
232.05	22945.76
232.122	22911.77
232.195	22874.59
232.267	22851.26
232.339	22819.19
232.412	22809.36
232.484	22781.58
232.556	22755.17
232.629	22744.7
232.701	22720.16
232.773	22695.48
232.846	22672.24
232.918	22653.92
232.99	22640.9
233.062	22627.79
233.135	22616.31
233.207	22575.04
233.279	22555.09
233.351	22533.87
233.424	22505.72
233.496	22465.23
233.568	22457.9
233.64	22410.94
233.713	22378.45
233.785	22347.5
233.857	22315.01
233.929	22270.56
234.001	22259.62
234.074	22235.47
234.146	22174.78
234.218	22141.23
234.29	22112.06
234.362	22066.08
234.434	22006.11
234.507	21951.63
234.579	21900.97
234.651	21838.4
234.723	21819.94
234.795	21786.97
234.867	21750.48
234.939	21729.46
235.012	21706.62
235.084	21673.74
235.156	21654.75
235.228	21620.96
235.3	21578.79
235.372	21550.2
235.444	21532.8
235.516	21479.97
235.588	21454.43
235.66	21429.41
235.732	21398.13
235.804	21423.58
235.876	21411.48
235.948	21393.79
236.02	21362.76
236.092	21329.02
236.164	21301.31
236.236	21263.47
236.308	21232.82
236.38	21195.85
236.452	21162.83
236.524	21126.74
236.596	21116.08
236.668	21090.01
236.74	21073.48
236.812	21045.86
236.884	21019.93
236.956	20985.76
237.028	20937.18
237.1	20897.08
237.172	20875.4
237.244	20851.35
237.316	20778.47
237.388	20727.09
237.46	20678.13
237.532	20663.43
237.604	20617.5
237.675	20605.36
237.747	20576.54
237.819	20522.85
237.891	20496.49
237.963	20447.43
238.035	20405.74
238.107	20323.14
238.178	20302.95
238.25	20250.85
238.322	20234.61
238.394	20173.36
238.466	20132.15
238.538	20110.42
238.609	20071.67
238.681	20018.18
238.753	19966.42
238.825	19930.95
238.897	19893.32
238.968	19878.43
239.04	19821.27
239.112	19821.37
239.184	19769.85
239.255	19731.78
239.327	19705.66
239.399	19670.92
239.471	19652.46
239.542	19626
239.614	19614.58
239.686	19546.92
239.758	19529.43
239.829	19480.56
239.901	19459.31
239.973	19427.12
240.044	19384.43
240.116	19350.98
240.188	19315.56
240.259	19277.78
240.331	19232.1
240.403	19209.88
240.474	19160.97
240.546	19118.23
240.618	19052.01
240.689	19013.56
240.761	18972.35
240.833	18953.27
240.904	18907.3
240.976	18858.43
241.048	18822.97
241.119	18793.28
241.191	18763.89
241.262	18741.57
241.334	18700.56
241.405	18662.59
241.477	18619.65
241.549	18581.97
241.62	18547.85
241.692	18520.38
241.763	18498.31
241.835	18464.63
241.906	18432.05
241.978	18374.9
242.049	18356.97
242.121	18332.44
242.192	18301.89
242.264	18248.4
242.335	18187.05
242.407	18166.13
242.478	18121.32
242.55	18083.44
242.621	18033.22
242.693	17993.37
242.764	17943.83
242.836	17903.25
242.907	17874.19
242.979	17840.41
243.05	17813.13
243.122	17788.08
243.193	17740.7
243.264	17680.9
243.336	17637.19
243.407	17602.1
243.479	17587.5
243.55	17551.21
243.622	17524.47
243.693	17491.21
243.764	17479.69
243.836	17434.92
243.907	17386.01
243.978	17356.27
244.05	17327.84
244.121	17272.17
244.192	17241.91
244.264	17186.82
244.335	17147.59
244.407	17091.11
244.478	17055.01
244.549	17014.72
244.62	16960.46
244.692	16931.68
244.763	16912.89
244.834	16876.31
244.906	16840.45
244.977	16813.8
245.048	16793.22
245.119	16746.86
245.191	16711.87
245.262	16650.42
245.333	16640.1
245.405	16604.29
245.476	16574.41
245.547	16542.02
245.618	16524.48
245.689	16498.5
245.761	16474.74
245.832	16440.28
245.903	16414.83
245.974	16387.22
246.045	16353.24
246.117	16335.26
246.188	16283.44
246.259	16241.22
246.33	16209.99
246.401	16167.67
246.473	16117.11
246.544	16072.24
246.615	16053.25
246.686	16009.87
246.757	16000.28
246.828	15958.49
246.899	15945.43
246.97	15893.52
247.042	15845.66
247.113	15815.87
247.184	15802.86
247.255	15764.25
247.326	15739.28
247.397	15699.47
247.468	15678.5
247.539	15651.03
247.61	15604.08
247.681	15584.56
247.752	15563.59
247.823	15519.1
247.894	15494.76
247.965	15446.8
248.037	15414.98
248.108	15362.16
248.179	15326.05
248.25	15292.7
248.321	15265.41
248.392	15220.49
248.463	15219.33
248.534	15186.75
248.605	15164.62
248.675	15124.62
248.746	15097.04
248.817	15074.49
248.888	15059.25
248.959	15003.97
249.03	14979.77
249.101	14959.47
249.172	14923.71
249.243	14869.72
249.314	14862.05
249.385	14829.66
249.456	14819.3
249.527	14789.56
249.598	14773.45
249.669	14740.19
249.739	14712.77
249.81	14697.68
249.881	14656.75
249.952	14628.12
250.023	14603.49
250.094	14566.18
250.165	14532.53
250.235	14510.98
250.306	14482.25
250.377	14443.74
250.448	14417.7
250.519	14368.29
250.59	14360.77
250.66	14337.73
250.731	14331.37
250.802	14299.41
250.873	14273.71
250.944	14252.26
251.014	14219.34
251.085	14214.81
251.156	14205.7
251.227	14193.6
251.297	14183.18
251.368	14172.1
251.439	14160.43
251.51	14145.58
251.58	14104.66
251.651	14074.19
251.722	14059.49
251.792	14012.97
251.863	13986.55
251.934	13982.02
252.005	13990.84
252.075	13957.05
252.146	13941.05
252.217	13927.26
252.287	13917.86
252.358	13899.15
252.429	13890.96
252.499	13855
252.57	13836.29
252.641	13816.24
252.711	13792.62
252.782	13744.17
252.852	13737.61
252.923	13703.82
252.994	13688.01
253.064	13689.55
253.135	13656.82
253.205	13625.87
253.276	13631.51
253.347	13630.4
253.417	13602.01
253.488	13563.97
253.558	13539.63
253.629	13518.81
253.699	13502.32
253.77	13478.17
253.841	13448.76
253.911	13425.57
253.982	13411.98
254.052	13397.47
254.123	13384.6
254.193	13365.07
254.264	13388.74
254.334	13352.2
254.405	13314.17
254.475	13275.94
254.546	13242.97
254.616	13233.04
254.687	13215.68
254.757	13189.17
254.827	13164.73
254.898	13145.54
254.968	13130.12
255.039	13091.74
255.109	13084.95
255.18	13051.4
255.25	13007.87
255.321	12990.7
255.391	12954.12
255.461	12958.21
255.532	12900.41
255.602	12869.71
255.673	12823.86
255.743	12788.09
255.813	12742.83
255.884	12739.46
255.954	12727.69
256.024	12728.42
256.095	12707.45
256.165	12672.93
256.235	12655.1
256.306	12616.82
256.376	12609.21
256.446	12592.48
256.517	12584.62
256.587	12568.91
256.657	12550.64
256.728	12538.63
256.798	12522.05
256.868	12500.17
256.938	12465.65
257.009	12460.64
257.079	12446.85
257.149	12457.36
257.219	12409.3
257.29	12405.16
257.36	12364.91
257.43	12357.24
257.5	12313.14
257.571	12287.06
257.641	12276.6
257.711	12247.29
257.781	12240.83
257.852	12223.57
257.922	12185.16
257.992	12164.33
258.062	12140.76
258.132	12128.57
258.202	12103.55
258.273	12085.28
258.343	12090.25
258.413	12069.66
258.483	12052.7
258.553	12024.59
258.623	11993.79
258.693	11983.67
258.764	11984.44
258.834	11986.42
258.904	11964.73
258.974	11938.07
259.044	11924.53
259.114	11906.26
259.184	11886.89
259.254	11869.15
259.324	11831.55
259.394	11822.83
259.464	11828.27
259.535	11804.32
259.605	11779.21
259.675	11757.23
259.745	11740.26
259.815	11705.08
259.885	11675.58
259.955	11684.83
260.025	11657.8
260.095	11636.93
260.165	11617.36
260.235	11604.97
260.305	11569.84
260.375	11539.18
260.445	11548.29
260.515	11546.03
260.585	11542.7
260.655	11528.53
260.725	11523.13
260.795	11511.03
260.865	11516.63
260.934	11479.22
261.004	11475.42
261.074	11459.99
261.144	11461.34
261.214	11455.7
261.284	11436.47
261.354	11433.15
261.424	11402.25
261.494	11411.65
261.564	11392.76
261.634	11385.87
261.703	11350.92
261.773	11351.26
261.843	11347.12
261.913	11324.23
261.983	11286.63
262.053	11282.15
262.123	11262.25
262.192	11224.76
262.262	11219.36
262.332	11186.01
262.402	11177.77
262.472	11155.69
262.541	11116.42
262.611	11110.64
262.681	11084.23
262.751	11078.25
262.821	11061.29
262.89	11030.59
262.96	11013.19
263.03	11024.95
263.1	11022.4
263.169	11006.98
263.239	10991.6
263.309	10996.47
263.379	10990.26
263.448	10977.53
263.518	10958.69
263.588	10947.32
263.657	10956.14
263.727	10947.51
263.797	10928.04
263.867	10908.91
263.936	10882.02
264.006	10887.71
264.076	10865.16
264.145	10849.78
264.215	10825.4
264.285	10823.76
264.354	10792.49
264.424	10767.63
264.494	10731.54
264.563	10707.97
264.633	10718.24
264.702	10708.6
264.772	10671.3
264.842	10652.6
264.911	10646.49
264.981	10613.77
265.05	10599.12
265.12	10579.94
265.19	10573.68
265.259	10575.6
265.329	10567.89
265.398	10559.42
265.468	10570.45
265.537	10547.85
265.607	10539.37
265.676	10543.37
265.746	10524.97
265.815	10526.89
265.885	10517.31
265.955	10498.85
266.024	10473.22
266.094	10432.51
266.163	10438.15
266.232	10434.87
266.302	10417.09
266.371	10405.43
266.441	10392.43
266.51	10391.03
266.58	10372.67
266.649	10344.15
266.719	10336.92
266.788	10329.74
266.858	10329.4
266.927	10291.87
266.996	10288.5
267.066	10283.15
267.135	10244.42
267.205	10239.55
267.274	10223.42
267.343	10223.22
267.413	10213.59
267.482	10221.97
267.552	10227.61
267.621	10192.68
267.69	10162.96
267.76	10156.79
267.829	10151.78
267.898	10148.17
267.968	10126.39
268.037	10120.85
268.106	10123.55
268.176	10100.81
268.245	10089.59
268.314	10073.83
268.384	10073.54
268.453	10062.18
268.522	10053.55
268.592	10058.08
268.661	10034.33
268.73	10030.67
268.799	10008.56
268.869	10014.29
268.938	9982.69
269.007	9963.28
269.076	9951.67
269.146	9958.85
269.215	9948.4
269.284	9951.33
269.353	9934.67
269.422	9918.2
269.492	9895.75
269.561	9848.6
269.63	9840.46
269.699	9820.85
269.768	9805.34
269.838	9797.64
269.907	9797.15
269.976	9764.93
270.045	9738.11
270.114	9737.53
270.183	9724.72
270.253	9721.44
270.322	9688.06
270.391	9677.81
270.46	9681.27
270.529	9684.16
270.598	9674.53
270.667	9661.29
270.736	9633.88
270.806	9625.26
270.875	9628.72
270.944	9619.58
271.013	9647.32
271.082	9635.66
271.151	9630.84
271.22	9605.85
271.289	9590.54
271.358	9576.09
271.427	9574.21
271.496	9567.23
271.565	9548.97
271.634	9539.78
271.703	9534.96
271.772	9541.12
271.841	9526.73
271.91	9500.05
271.979	9482.85
272.048	9456.95
272.117	9456.56
272.186	9439.66
272.255	9438.6
272.324	9439.95
272.393	9436.58
272.462	9415.43
272.531	9409.94
272.6	9401.32
272.669	9406.09
272.738	9396.41
272.807	9389.76
272.876	9370.55
272.945	9399.11
273.013	9403.73
273.082	9408.55
273.151	9390.2
273.22	9383.85
273.289	9373.3
273.358	9387.17
273.427	9378.65
273.496	9378.74
273.564	9375.08
273.633	9380.96
273.702	9359.87
273.771	9340.94
273.84	9336.08
273.909	9332.47
273.977	9335.79
274.046	9322.93
274.115	9332.66
274.184	9313.65
274.253	9298.29
274.322	9309.74
274.39	9271.66
274.459	9258.61
274.528	9232.89
274.597	9224.47
274.665	9216.67
274.734	9230.82
274.803	9221.38
274.872	9208.43
274.94	9200.78
275.009	9257.33
275.078	9242.74
275.147	9238.5
275.215	9237.54
275.284	9247.6
275.353	9232.05
275.421	9198.78
275.49	9218.86
275.559	9204.03
275.627	9200.66
275.696	9198.06
275.765	9190.98
275.833	9184
275.902	9180.78
275.971	9186.94
276.039	9199.22
276.108	9204.18
276.177	9198.79
276.245	9184.49
276.314	9186.31
276.383	9194.55
276.451	9131.01
276.52	9132.79
276.588	9147.33
276.657	9155.52
276.725	9141.41
276.794	9148.78
276.863	9161.73
276.931	9135.39
277	9144.2
277.068	9148.29
277.137	9159.9
277.205	9164.52
277.274	9187.19
277.342	9196.44
277.411	9174.83
277.48	9163.66
277.548	9155.18
277.617	9159.03
277.685	9152.73
277.754	9156.67
277.822	9144.35
277.89	9155.47
277.959	9146.76
278.027	9123.55
278.096	9107.76
278.164	9136.22
278.233	9124.67
278.301	9120.14
278.37	9122.45
278.438	9104.3
278.507	9110.65
278.575	9090.29
278.643	9078.49
278.712	9058.61
278.78	9040.31
278.849	9049.22
278.917	9058.51
278.985	9049.12
279.054	9050.23
279.122	9058.27
279.191	9052.64
279.259	9047.78
279.327	9025.58
279.396	9039.78
279.464	9042.19
279.532	9054.75
279.601	9046.66
279.669	9045.07
279.737	9050.37
279.806	9053.31
279.874	9063.08
279.942	9064.86
280.011	9061.59
280.079	9073.09
280.147	9089.42
280.215	9095.96
280.284	9093.89
280.352	9079.16
280.42	9083.73
280.488	9070.88
280.557	9067.32
280.625	9078.01
280.693	9075.79
280.761	9074.35
280.83	9055.28
280.898	9068.28
280.966	9035.55
281.034	8999.48
281.102	8984.9
281.171	8977.49
281.239	8987.16
281.307	8979.22
281.375	8969.11
281.443	8995.4
281.512	8989.23
281.58	8994.53
281.648	8979.7
281.716	8977.1
281.784	8977.35
281.852	8974.99
281.92	8974.89
281.989	8985.63
282.057	8962.76
282.125	9018.23
282.193	9015.25
282.261	9021.17
282.329	9015.2
282.397	9027.18
282.465	9035.61
282.533	9045.19
282.601	9035.61
282.67	9016.06
282.738	9007.11
282.806	9015.87
282.874	9001.52
282.942	9002.82
283.01	8992.28
283.078	8993.19
283.146	8991.22
283.214	8999.79
283.282	9008.84
283.35	9020.34
283.418	9011.05
283.486	9012.35
283.554	8961.69
283.622	8967.8
283.69	8967.95
283.758	8961.64
283.826	8962.65
283.894	8971.9
283.962	9000.59
284.03	9018.64
284.098	9014.12
284.165	9007.43
284.233	9005.21
284.301	8994.96
284.369	8983.79
284.437	8971.28
284.505	8973.25
284.573	8991.98
284.641	8979.07
284.709	8982.16
284.777	8964.97
284.845	8971.08
284.912	8978.3
284.98	8979.36
285.048	8965.84
285.116	8966.08
285.184	8974.6
285.252	8975.66
285.319	8960.92
285.387	8948.41
285.455	8928.62
285.523	8937.48
285.591	8934.73
285.659	8934.64
285.726	8948.36
285.794	8939.65
285.862	8945.13
285.93	8940.42
285.997	8935.55
286.065	8939.31
286.133	8927.9
286.201	8922.32
286.269	8909.03
286.336	8898.53
286.404	8890.78
286.472	8906.72
286.539	8889.49
286.607	8876.83
286.675	8877.79
286.743	8887.22
286.81	8883.18
286.878	8898.05
286.946	8890.93
287.013	8892.42
287.081	8891.12
287.149	8878.8
287.216	8904.26
287.284	8898.01
287.352	8901.76
287.419	8898.05
287.487	8908.12
287.555	8909.08
287.622	8914.76
287.69	8923.04
287.758	8941.76
287.825	8935.99
287.893	8922.46
287.96	8927.61
288.028	8936.61
288.096	8935.17
288.163	8935.5
288.231	8917.79
288.298	8916.54
288.366	8923.52
288.433	8920.58
288.501	8908.89
288.569	8909.08
288.636	8896.46
288.704	8912.5
288.771	8924.1
288.839	8913.41
288.906	8904.31
288.974	8913.6
289.041	8911.49
289.109	8897.33
289.176	8900.61
289.244	8909.9
289.311	8926.55
289.379	8933.92
289.446	8942.87
289.514	8950.34
289.581	8949.66
289.649	8954.33
289.716	8957.12
289.783	8953.95
289.851	8972.72
289.918	8974.59
289.986	8986.34
290.053	8988.55
290.121	8982.63
290.188	8980.23
290.255	9012.77
290.323	9003
290.39	8998.71
290.458	9002.32
290.525	9016.38
290.592	9014.65
290.66	9015.51
290.727	9001.02
290.794	9015.08
290.862	9010.89
290.929	9010.89
290.996	9011.23
291.064	9025.72
291.131	9040.74
291.198	9059.9
291.266	9063.23
291.333	9067.41
291.4	9071.65
291.468	9093.89
291.535	9082.77
291.602	9087.78
291.669	9081.18
291.737	9096.3
291.804	9095.53
291.871	9114.64
291.938	9127.11
292.006	9157.35
292.073	9173.53
292.14	9190.48
292.207	9181.91
292.275	9184.12
292.342	9193.66
292.409	9220.28
292.476	9244.55
292.543	9230.2
292.611	9224.57
292.678	9244.07
292.745	9270.98
292.812	9282.54
292.879	9278.88
292.946	9292.7
293.014	9304.88
293.081	9311.67
293.148	9321.3
293.215	9337.48
293.282	9329.92
293.349	9336.32
293.416	9311.9
293.484	9320.81
293.551	9326.45
293.618	9349.37
293.685	9376.96
293.752	9373.3
293.819	9372.67
293.886	9357.79
293.953	9366.7
294.02	9379.17
294.087	9381.92
294.154	9381.63
294.221	9396.36
294.288	9396.32
294.356	9415.24
294.423	9416.78
294.49	9407.92
294.557	9420.92
294.624	9408.88
294.691	9433.3
294.758	9434.6
294.825	9445.05
294.892	9439.41
294.959	9446.88
295.026	9453.33
295.093	9440.47
295.16	9438.55
295.226	9436.91
295.293	9466.19
295.36	9477.07
295.427	9484.59
295.494	9499.18
295.561	9500.05
295.628	9524.42
295.695	9541.81
295.762	9544.02
295.829	9558.76
295.896	9580.57
295.963	9589.24
296.03	9605.08
296.096	9612.55
296.163	9621.7
296.23	9633.79
296.297	9649.15
296.364	9648.72
296.431	9652.95
296.498	9657.91
296.564	9680.16
296.631	9684.01
296.698	9663.11
296.765	9679.68
296.832	9671.68
296.899	9652.04
296.965	9666.68
297.032	9642.11
297.099	9658.63
297.166	9665.81
297.233	9661.42
297.299	9647.41
297.366	9645.19
297.433	9647.8
297.5	9651.84
297.566	9656.42
297.633	9656.99
297.7	9665.13
297.767	9663.69
297.833	9673.71
297.9	9674.82
297.967	9661.62
298.033	9674.53
298.1	9706.08
298.167	9696.69
298.234	9707.28
298.3	9724.71
298.367	9722.07
298.434	9729.1
298.5	9711.08
298.567	9710.5
298.634	9714.65
298.7	9740.17
298.767	9746.63
298.834	9764.4
298.9	9761.61
298.967	9750.82
299.033	9764.5
299.1	9769.6
299.167	9784.77
299.233	9775.96
299.3	9788.29
299.366	9808.71
299.433	9822.39
299.5	9796.47
299.566	9806.64
299.633	9816.56
299.699	9830.82
299.766	9833.66
299.832	9844.21
299.899	9860.2
299.965	9876.14
300.032	9869.59
300.099	9868.24
300.165	9877.49
300.232	9872.53
300.298	9870.56
300.365	9889.34
300.431	9889.29
300.498	9887.65
300.564	9892.09
300.631	9909.96
300.697	9923.3
300.763	9922.38
300.83	9920.07
300.896	9936.5
300.963	9945.07
301.029	9955.96
301.096	9953.79
301.162	9966.65
301.229	9959.62
301.295	9948.01
301.361	9951.04
301.428	9957.4
301.494	9944.93
301.561	9950.13
301.627	9952.68
301.693	9956.1
301.76	9960.34
301.826	9952.54
301.892	9967.47
301.959	9975.56
302.025	9965.74
302.092	9960.58
302.158	9968.29
302.224	9976
302.291	9964.92
302.357	9956.44
302.423	9943.19
302.49	9933.17
302.556	9944.93
302.622	9943.77
302.688	9958.66
302.755	9970.94
302.821	9981.63
302.887	9997.05
302.954	9991.36
303.02	10001.62
303.086	10011.64
303.152	10007.21
303.219	10004.18
303.285	10010.3
303.351	10014.68
303.417	10023.59
303.483	10011.93
303.55	10012.61
303.616	10003.98
303.682	10003.41
303.748	9998.16
303.815	10018.97
303.881	10032.94
303.947	10015.69
304.013	10018.73
304.079	10007.69
304.145	9982.74
304.212	9977.35
304.278	9972.87
304.344	9969.45
304.41	9954.8
304.476	9942.71
304.542	9941.36
304.608	9945.36
304.674	9921.37
304.741	9917.47
304.807	9917.47
304.873	9928.36
304.939	9938.57
305.005	9921.32
305.071	9921.04
305.137	9922
305.203	9898.54
305.269	9891.75
305.335	9906.1
305.401	9901.19
305.467	9897.53
305.533	9904.99
305.599	9913.9
305.666	9919.11
305.732	9914.87
305.798	9930.43
305.864	9957.07
305.93	9957.69
305.996	9963.81
306.062	9968.29
306.128	9962.27
306.194	9948.35
306.259	9942.47
306.325	9930.52
306.391	9943.24
306.457	9956.39
306.523	9962.17
306.589	9983.56
306.655	9977.92
306.721	9958.51
306.787	9944.69
306.853	9963.28
306.919	9949.75
306.985	9940.4
307.051	9931.06
307.117	9924.46
307.183	9919.45
307.248	9893.15
307.314	9898.93
307.38	9898.16
307.446	9904.42
307.512	9897.67
307.578	9905.57
307.644	9896.76
307.709	9900.42
307.775	9899.17
307.841	9889.49
307.907	9890.79
307.973	9868.53
308.039	9866.8
308.104	9881.34
308.17	9886.35
308.236	9873.35
308.302	9877.1
308.368	9865.59
308.433	9868.96
308.499	9868.92
308.565	9851.09
308.631	9850.9
308.696	9820.7
308.762	9810.4
308.828	9808.95
308.894	9785.3
308.959	9762.09
309.025	9758.67
309.091	9749.76
309.156	9738.34
309.222	9745.57
309.288	9731.26
309.354	9706.13
309.419	9704.44
309.485	9679.44
309.551	9683.87
309.616	9660.22
309.682	9656.37
309.748	9654.01
309.813	9638.74
309.879	9630.89
309.945	9626.99
310.01	9616.35
310.076	9622.42
310.141	9616.11
310.207	9599.73
310.273	9609.8
310.338	9612.25
310.404	9595.16
310.469	9584.27
310.535	9574.69
310.601	9547.38
310.666	9553.93
310.732	9565.63
310.797	9551.91
310.863	9541.26
310.928	9530.33
310.994	9539.62
311.059	9535.05
311.125	9530.52
311.191	9553.3
311.256	9540.59
311.322	9541.31
311.387	9527.88
311.453	10004.77
311.518	9971.35
311.584	9964.37
311.649	9970.92
311.715	9960.33
311.78	9963.7
311.846	9952.33
311.911	9957.82
311.976	9961.1
312.042	9942.8
312.107	9930.04
312.173	9920.79
312.238	9916.75
312.304	9910.63
312.369	9901.14
312.434	9889.58
312.5	9880.24
312.565	9840.32
312.631	9842.05
312.696	9830.21
312.761	9833.77
312.827	9340.02
312.892	9391.17
312.958	9393.67
313.023	9390.25
313.088	9391.26
313.154	9377.3
313.219	9361.7
313.284	9351.78
313.35	9346.77
313.415	9335.07
313.48	9337.43
313.546	9344.36
313.611	9355.44
313.676	9347.01
313.741	9334.88
313.807	9341.81
313.872	9345.76
313.937	9357.13
314.003	9371.19
314.068	9376.92
314.133	9381.06
314.198	9381.25
314.264	9350.86
314.329	9341.61
314.394	9333.19
314.459	9328.42
314.525	9353.65
314.59	9362.7
314.655	9358.46
314.72	9364
314.785	9366.36
314.851	9356.49
314.916	9336.27
314.981	9317.87
315.046	9312.29
315.111	9302.13
315.176	9285.33
315.242	9283.83
315.307	9276.76
315.372	9253.02
315.437	9240.88
315.502	9227.98
315.567	9240.5
315.632	9223.07
315.698	9218.59
315.763	9217.87
315.828	9210.74
315.893	9204.29
315.958	9192.35
316.023	9175.3
316.088	9152.68
316.153	9134.96
316.218	9119.56
316.283	9105.64
316.348	9090.77
316.413	9090.19
316.479	9075.75
316.544	9049.18
316.609	9024.96
316.674	8989.87
316.739	8958.06
316.804	8924.55
316.869	8891.39
316.934	8847.58
316.999	8825.73
317.064	8776.92
317.129	8729.22
317.194	8692.16
317.259	8641.33
317.324	8592.73
317.389	8549.37
317.454	8513.47
317.518	8476.95
317.583	8462.32
317.648	8434.41
317.713	8395.82
317.778	8333.21
317.843	8303.77
317.908	8259.65
317.973	8218.95
318.038	8187.15
318.103	8147.71
318.168	8116.68
318.233	8084.11
318.297	8039.71
318.362	7998.87
318.427	7955.88
318.492	7930
318.557	7885.51
318.622	7859.15
318.687	7840.11
318.751	7797.27
318.816	7768.61
318.881	7732.83
318.946	7669.69
319.011	7624.83
319.075	7585.26
319.14	7549.74
319.205	7507.09
319.27	7476.91
319.335	7429.8
319.399	7389.66
319.464	7362.79
319.529	7311.32
319.594	7272.24
319.658	7241.53
319.723	7201.01
319.788	7174.44
319.853	7115.62
319.917	7089
319.982	7028.98
320.047	6989.91
320.112	6968.01
320.176	6910.26
320.241	6876.68
320.306	6852.27
320.37	6814.85
320.435	6787.95
320.5	6759.23
320.564	6714.76
320.629	6677.11
320.694	6645.23
320.758	6604.65
320.823	6556.45
320.888	6527.02
320.952	6475.89
321.017	6430.57
321.082	6388.56
321.146	6353.76
321.211	6323.33
321.275	6274.18
321.34	6233.01
321.405	6187.42
321.469	6137.51
321.534	6095.72
321.598	6044.24
321.663	6010.45
321.727	5975.28
321.792	5919.68
321.857	5874.92
321.921	5838.9
321.986	5794.15
322.05	5735.37
322.115	5701.6
322.179	5661.62
322.244	5606.87
322.308	5574.94
322.373	5532.22
322.437	5489.56
322.502	5465.29
322.566	5420.28
322.631	5389.65
322.695	5349.12
322.76	5304.94
322.824	5270.87
322.889	5230.39
322.953	5187.43
323.018	5119.45
323.082	5055.94
323.146	5003.46
323.211	4948.97
323.275	4901.94
323.34	4852.54
323.404	4820.23
323.468	4769.38
323.533	4722.47
323.597	4677.59
323.662	4626.52
323.726	4591.15
323.79	4546.79
323.855	4473.74
323.919	4422.64
323.983	4369.67
324.048	4302.89
324.112	4471.02
324.177	4337.73
324.241	4114.46
324.305	3895.11
324.37	3681.65
324.434	3474.26
324.498	3432.06
324.562	3381.97
324.627	3321.58
324.691	3266.25
324.755	3197.29
324.82	3119.07
324.884	3042.38
324.948	2964.54
325.012	2863.51
325.077	2727.6
