Data from 20250703_urea_0.1M_MAYP1162681_03-21-05-063.txt Node
Date: Fri Jul 04 03:21:05 BST 2025
User: adleo
Spectrometer: MAYP116268
Trigger mode: 0
Integration Time (sec): 1.000000E0
Scans to average: 1
Electric dark correction enabled: true
Nonlinearity correction enabled: true
Boxcar width: 10
XAxis mode: Wavelengths
Number of Pixels in Spectrum: 2068
>>>>>Begin Spectral Data<<<<<
179.565	1301.05
179.642	1358.03
179.718	1408.01
179.795	1446.36
179.871	1479.67
179.948	1502.44
180.024	1527.71
180.101	1551.5
180.177	1567.53
180.254	1592.14
180.33	1616.93
180.407	1677.28
180.483	1781.48
180.56	1879.26
180.636	1969.28
180.712	1951.59
180.789	1963.19
180.865	1973.6
180.942	1984.25
181.018	1997.38
181.095	2014.07
181.171	2020.4
181.248	2023.4
181.324	2036.43
181.4	2046.94
181.477	2060.12
181.553	2072.34
181.63	2092.6
181.706	2109.63
181.782	2118.95
181.859	2117.1
181.935	2121.04
182.011	2119.71
182.088	2133.6
182.164	2154.83
182.24	2169.53
182.317	2180.7
182.393	2176.42
182.469	2192.98
182.546	2207.34
182.622	2211.53
182.698	2203.54
182.775	2214.34
182.851	2229.75
182.927	2222.85
183.003	2217.38
183.08	2211.15
183.156	2220.76
183.232	2214.67
183.308	2204.3
183.385	2211.96
183.461	2234.75
183.537	2236.04
183.613	2248.5
183.69	2241.41
183.766	2229.75
183.842	2240.51
183.918	2248.31
183.995	2259.49
184.071	2265.2
184.147	2257.97
184.223	2246.74
184.299	2261.64
184.375	2254.07
184.452	2260.5
184.528	2316.34
184.604	2329.09
184.68	2342.6
184.756	2351.74
184.832	2360.26
184.908	2365.31
184.985	2364.93
185.061	2344.46
185.137	2354.98
185.213	2341.85
185.289	2341.09
185.365	2333.43
185.441	2328.76
185.517	2342.09
185.593	2342
185.669	2335.67
185.745	2348.18
185.822	2366.26
185.898	2355.79
185.974	2363.5
186.05	2355.41
186.126	2318.32
186.202	2311.37
186.278	2309.75
186.354	2297.71
186.43	2303.57
186.506	2303.14
186.582	2303.04
186.658	2314.22
186.734	2294.33
186.81	2297.57
186.886	2302.33
186.962	2318.13
187.038	2314.42
187.114	2306.75
187.19	2316.22
187.266	2306.66
187.341	2304.71
187.417	2295.81
187.493	2295.47
187.569	2298.95
187.645	2290.43
187.721	2275.06
187.797	2283.91
187.873	2285.81
187.949	2280.44
188.025	2274.63
188.101	2275.53
188.176	2283.19
188.252	2274.82
188.328	2281.52
188.404	2282.76
188.48	2276.39
188.556	2265.82
188.632	2265.34
188.707	2262.63
188.783	2258.63
188.859	2254.26
188.935	2244.64
189.011	2253.4
189.086	2245.88
189.162	2234.6
189.238	2236.55
189.314	2234.79
189.39	2228.23
189.465	2219.04
189.541	2237.89
189.617	2220.47
189.693	2217.86
189.768	2221
189.844	2248.18
189.92	2242.24
189.996	2253.42
190.071	2267.32
190.147	2268.17
190.223	2279.55
190.298	2275.65
190.374	2262.46
190.45	2275.31
190.526	2283.83
190.601	2277.16
190.677	2281.3
190.753	2311.35
190.828	2314.49
190.904	2331.15
190.98	2345.57
191.055	2359.71
191.131	2348.09
191.207	2370.55
191.282	2378.74
191.358	2367.55
191.433	2349.5
191.509	2360.78
191.585	2353.83
191.66	2355.73
191.736	2363.59
191.811	2354.5
191.887	2371.16
191.963	2394.68
192.038	2401.63
192.114	2400.91
192.189	2407.19
192.265	2405.39
192.34	2383.67
192.416	2381.67
192.491	2377
192.567	2381.29
192.642	2381.53
192.718	2382.96
192.793	2370.01
192.869	2367.58
192.944	2369.15
193.02	2378.05
193.095	2382.72
193.171	2385.86
193.246	2386.24
193.322	2382
193.397	2382.53
193.473	2366.1
193.548	2345.72
193.624	2349.2
193.699	2349.82
193.775	2364.49
193.85	2364.68
193.925	2374.63
194.001	2375.86
194.076	2372.29
194.152	2361.72
194.227	2355.01
194.302	2343.88
194.378	2348.02
194.453	2343.31
194.529	2356.35
194.604	2342.4
194.679	2333.17
194.755	2320.7
194.83	2329.89
194.905	2328.66
194.981	2335.89
195.056	2329.52
195.131	2338.32
195.207	2335.75
195.282	2325.66
195.357	2307.81
195.433	2324.94
195.508	2312.56
195.583	2315.7
195.659	2326.99
195.734	2333.46
195.809	2335.18
195.884	2346.45
195.96	2345.64
196.035	2363.3
196.11	2357.97
196.185	2371.54
196.261	2378.77
196.336	2407.28
196.411	2390.86
196.486	2394.43
196.561	2388.9
196.637	2398.66
196.712	2417.19
196.787	2422.9
196.862	2439.56
196.937	2450.46
197.013	2456.99
197.088	2468.65
197.163	2492.84
197.238	2514.29
197.313	2514.15
197.388	2523.91
197.464	2556.78
197.539	2568.73
197.614	2558.25
197.689	2574.68
197.764	2591.17
197.839	2612.55
197.914	2607.31
197.989	2633.12
198.065	2650.6
198.14	2701.46
198.215	2728.51
198.29	2736.81
198.365	2749.81
198.44	2760.87
198.515	2790.22
198.59	2806.52
198.665	2832.73
198.74	2840.02
198.815	2835.64
198.89	2857.56
198.965	2888.49
199.04	2882.77
199.115	2903.41
199.19	2949.97
199.265	2950.87
199.34	2963.98
199.415	3000.33
199.49	3024.25
199.565	3035.12
199.64	3061.06
199.715	3058.25
199.79	3068.45
199.865	3077.42
199.94	3076.84
200.015	3107.17
200.09	3114.47
200.165	3122.58
200.24	3130.64
200.315	3176.42
200.39	3197.98
200.464	3207.28
200.539	3210.76
200.614	3227.64
200.689	3250.35
200.764	3259.94
200.839	3279.92
200.914	3281.54
200.989	3270.89
201.063	3284.3
201.138	3267.19
201.213	3266.9
201.288	3246.58
201.363	3252.45
201.438	3254.98
201.512	3272.1
201.587	3255.5
201.662	3257.79
201.737	3270.24
201.812	3277.16
201.886	3240.68
201.961	3246.17
202.036	3235.06
202.111	3234.15
202.186	3204.17
202.26	3186.09
202.335	3164.42
202.41	3156.79
202.485	3142.73
202.559	3120.46
202.634	3094.13
202.709	3105.09
202.784	3086.49
202.858	3090.88
202.933	3072.19
203.008	3069.8
203.082	3050.16
203.157	3052.92
203.232	3010.79
203.306	2992.8
203.381	2964.29
203.456	2948.79
203.53	2934.28
203.605	2918.89
203.68	2898.91
203.754	2900.48
203.829	2895.66
203.904	2881.13
203.978	2883.32
204.053	2897.62
204.127	2899.86
204.202	2913.12
204.277	2907.35
204.351	2916.41
204.426	2923.51
204.5	2934.1
204.575	2916.08
204.65	2947.75
204.724	2965.3
204.799	3000.52
204.873	3021.37
204.948	3050.22
205.022	3066.24
205.097	3090.54
205.171	3135.61
205.246	3183.14
205.32	3220.38
205.395	3257.75
205.469	3290.85
205.544	3339.16
205.618	3366.66
205.693	3424.42
205.767	3462.85
205.842	3537.96
205.916	3581.45
205.991	3632.12
206.065	3693.21
206.14	3768.5
206.214	3825.67
206.289	3879.53
206.363	3954.75
206.438	4025.09
206.512	4098.43
206.586	4184.37
206.661	4260.3
206.735	4310.49
206.81	4381.99
206.884	4472.91
206.958	4535.2
207.033	4635.14
207.107	4722.49
207.181	4842.54
207.256	4921.27
207.33	5024.37
207.405	5122.81
207.479	5235.96
207.553	5328.52
207.628	5408.34
207.702	5509.56
207.776	5600.65
207.851	5697.59
207.925	5812.58
207.999	5907.32
208.073	6006.91
208.148	6118.85
208.222	6209.99
208.296	6350.57
208.371	6476.96
208.445	6599.65
208.519	6743.78
208.593	6862.99
208.668	6969.79
208.742	7076.64
208.816	7190.97
208.89	7323.21
208.965	7436.53
209.039	7559.66
209.113	7689.89
209.187	7820.53
209.261	7933.08
209.336	8063.65
209.41	8201.89
209.484	8319.63
209.558	8460.56
209.632	8588.3
209.707	8716.6
209.781	8863.44
209.855	8996.68
209.929	9132.95
210.003	9248.3
210.077	9363.28
210.151	9522.25
210.226	9667.25
210.3	9808.62
210.374	9947.12
210.448	10053.86
210.522	10178.34
210.596	10293.03
210.67	10419.49
210.744	10578.42
210.818	10715.09
210.892	10842.97
210.966	10946.08
211.041	11074.69
211.115	11169.62
211.189	11296.88
211.263	11418.67
211.337	11524.31
211.411	11647.74
211.485	11744.28
211.559	11864.34
211.633	11959.04
211.707	12032.36
211.781	12148.04
211.855	12217.02
211.929	12307.98
212.003	12395.75
212.077	12501.36
212.151	12623.56
212.225	12730.67
212.299	12817.1
212.373	12912.11
212.447	13012.48
212.52	13143.45
212.594	13243.48
212.668	13355.17
212.742	13440.93
212.816	13524.61
212.89	13608.01
212.964	13691.26
213.038	13778.61
213.112	13883.75
213.186	13997.66
213.26	14064.04
213.333	14097.88
213.407	14189.86
213.481	14277.83
213.555	14370.34
213.629	14445.15
213.703	14504.49
213.777	14589.96
213.85	14651.61
213.924	14767.25
213.998	14850.21
214.072	14922.13
214.146	14982.77
214.219	15061.1
214.293	15135.86
214.367	15220.99
214.441	15315.65
214.515	15380.34
214.588	15437.75
214.662	15470.43
214.736	15523.21
214.81	15609.78
214.883	15700.59
214.957	15762.29
215.031	15823.51
215.105	15871.18
215.178	15925.89
215.252	15993.51
215.326	16034.04
215.4	16083.79
215.473	16098.2
215.547	16133.62
215.621	16182.35
215.694	16252.09
215.768	16285.64
215.842	16329.59
215.915	16372.73
215.989	16403.04
216.063	16442.23
216.136	16504.79
216.21	16562.33
216.284	16635.21
216.357	16687.59
216.431	16744.08
216.504	16809.91
216.578	16889.15
216.652	16967.22
216.725	17028.29
216.799	17086.02
216.873	17146.94
216.946	17211.9
217.02	17261.98
217.093	17315.57
217.167	17340.53
217.24	17372.87
217.314	17422.56
217.387	17465.21
217.461	17509.74
217.535	17575.76
217.608	17629.4
217.682	17667.52
217.755	17733.98
217.829	17760.24
217.902	17811.38
217.976	17849.74
218.049	17889.06
218.123	17917.73
218.196	17961.64
218.27	17991.66
218.343	18025.3
218.417	18067.08
218.49	18113.97
218.563	18171.7
218.637	18220.76
218.71	18295.36
218.784	18347.16
218.857	18413.37
218.931	18476.12
219.004	18521.13
219.077	18570.43
219.151	18616.21
219.224	18663.77
219.298	18701.99
219.371	18760.78
219.444	18794.8
219.518	18846.07
219.591	18885.35
219.665	18956.52
219.738	18996.86
219.811	19038.45
219.885	19086.97
219.958	19135.21
220.031	19168.41
220.105	19221.91
220.178	19273.28
220.251	19304.79
220.325	19350.72
220.398	19387.15
220.471	19432.01
220.544	19482.71
220.618	19511.87
220.691	19561.55
220.764	19602.46
220.838	19648.63
220.911	19692.19
220.984	19758.26
221.057	19800.81
221.131	19852.96
221.204	19858.5
221.277	19924.52
221.35	19993.39
221.424	20027.41
221.497	20066.35
221.57	20107.17
221.643	20149.33
221.716	20189.62
221.79	20224.9
221.863	20263.5
221.936	20295.45
222.009	20322.73
222.082	20372.9
222.155	20398.87
222.229	20444.56
222.302	20479.02
222.375	20506.39
222.448	20546.01
222.521	20562.01
222.594	20587.5
222.667	20603.02
222.74	20647.5
222.814	20669.72
222.887	20693.09
222.96	20729.05
223.033	20769.67
223.106	20805.39
223.179	20835.03
223.252	20860.14
223.325	20886.16
223.398	20899.9
223.471	20925.25
223.544	20957.2
223.617	20963.37
223.69	20995.9
223.763	21006.12
223.837	21032.87
223.91	21057.16
223.983	21058.8
224.056	21074.17
224.129	21096.05
224.202	21122.9
224.275	21144.92
224.348	21150.27
224.42	21152.83
224.493	21152.59
224.566	21154.66
224.639	21176.92
224.712	21184.93
224.785	21195.34
224.858	21202.61
224.931	21212.21
225.004	21222.91
225.077	21233.51
225.15	21218.81
225.223	21229.94
225.296	21264.31
225.369	21254.38
225.442	21256.84
225.514	21269.8
225.587	21279.54
225.66	21294.05
225.733	21304.65
225.806	21313.33
225.879	21315.93
225.952	21311.98
226.025	21337.28
226.097	21361.96
226.17	21365.09
226.243	21345.09
226.316	21358.59
226.389	21367.65
226.461	21390.49
226.534	21406.69
226.607	21406.35
226.68	21443.32
226.753	21446.89
226.825	21421.29
226.898	21446.79
226.971	21452.57
227.044	21453.25
227.117	21466.84
227.189	21477.44
227.262	21489.44
227.335	21499.71
227.407	21492.53
227.48	21512.77
227.553	21514.27
227.626	21505.54
227.698	21502.36
227.771	21515.42
227.844	21497.73
227.916	21499.71
227.989	21478.84
228.062	21470.55
228.134	21486.99
228.207	21486.07
228.28	21481.54
228.352	21476.43
228.425	21474.89
228.498	21486.5
228.57	21478.36
228.643	21493.98
228.716	21479.52
228.788	21467.03
228.861	21450.5
228.934	21469.1
229.006	21450.74
229.079	21446.4
229.151	21435.12
229.224	21418.93
229.296	21425.72
229.369	21452.19
229.442	21470.89
229.514	21462.31
229.587	21468.09
229.659	21456.57
229.732	21450.6
229.804	21456.57
229.877	21485.2
229.949	21498.85
230.022	21515.19
230.094	21510.66
230.167	21495.52
230.239	21482.03
230.312	21472.58
230.384	21494.7
230.457	21496.63
230.529	21505.74
230.602	21507.76
230.674	21508.05
230.747	21514.37
230.819	21519.67
230.892	21476.05
230.964	21472
231.037	21477.69
231.109	21470.6
231.181	21471.04
231.254	21448.09
231.326	21434.74
231.399	21416.14
231.471	21384.95
231.544	21338.34
231.616	21343.26
231.688	21337.38
231.761	21327.35
231.833	21322.1
231.905	21277.08
231.978	21263.25
232.05	21241.85
232.122	21229.41
232.195	21211.1
232.267	21209.36
232.339	21179.63
232.412	21185.07
232.484	21160.01
232.556	21140.01
232.629	21139.96
232.701	21130.8
232.773	21128.01
232.846	21106.99
232.918	21089.3
232.99	21085.79
233.062	21082.56
233.135	21072.29
233.207	21040.58
233.279	21033.88
233.351	21031.81
233.424	21014.46
233.496	20981.54
233.568	20997.97
233.64	20959.75
233.713	20947.22
233.785	20920.23
233.857	20911.08
233.929	20880.43
234.001	20879.56
234.074	20874.3
234.146	20839.07
234.218	20817.05
234.29	20790.25
234.362	20757.19
234.434	20725.96
234.507	20687.41
234.579	20659.74
234.651	20627.79
234.723	20609.53
234.795	20590.15
234.867	20547.11
234.939	20539.26
235.012	20518.97
235.084	20495.88
235.156	20488.94
235.228	20450.73
235.3	20426.58
235.372	20406.97
235.444	20397.81
235.516	20342
235.588	20320.32
235.66	20286.39
235.732	20246.87
235.804	20288.51
235.876	20283.45
235.948	20277.28
236.02	20253.62
236.092	20221.57
236.164	20203.41
236.236	20179.89
236.308	20155.41
236.38	20141.91
236.452	20102.45
236.524	20078.3
236.596	20053.58
236.668	20027.89
236.74	20012.95
236.812	19996.28
236.884	19972.81
236.956	19947.8
237.028	19917.82
237.1	19875.08
237.172	19872
237.244	19857.15
237.316	19775.56
237.388	19733.44
237.46	19688.53
237.532	19671.47
237.604	19627.62
237.675	19610.27
237.747	19586.32
237.819	19544.44
237.891	19510.52
237.963	19476.93
238.035	19445.6
238.107	19370.81
238.178	19352.5
238.25	19317.42
238.322	19300.5
238.394	19239.25
238.466	19200.03
238.538	19179.02
238.609	19152.27
238.681	19100.8
238.753	19070.06
238.825	19047.07
238.897	19024.81
238.968	19016.42
239.04	18988.23
239.112	18987.37
239.184	18937.88
239.255	18904.62
239.327	18869.88
239.399	18842.17
239.471	18819.42
239.542	18789.93
239.614	18785.74
239.686	18724.78
239.758	18700.49
239.829	18659
239.901	18638.91
239.973	18607.49
240.044	18580.5
240.116	18548.21
240.188	18513.08
240.259	18475.11
240.331	18431.11
240.403	18406.1
240.474	18356.27
240.546	18307.07
240.618	18262.11
240.689	18224.18
240.761	18188.33
240.833	18178.01
240.904	18138.88
240.976	18110.79
241.048	18079.8
241.119	18051.85
241.191	18030.36
241.262	18011.61
241.334	17971.32
241.405	17947.52
241.477	17907.61
241.549	17864.58
241.62	17838.56
241.692	17804.68
241.763	17780.58
241.835	17752.15
241.906	17715.43
241.978	17667.52
242.049	17657.11
242.121	17636.49
242.192	17621.26
242.264	17575.38
242.335	17521.69
242.407	17488.92
242.478	17446.13
242.55	17416.3
242.621	17374.37
242.693	17336.97
242.764	17295.86
242.836	17257.6
242.907	17225.55
242.979	17196.44
243.05	17167.96
243.122	17142.61
243.193	17116.87
243.264	17061.79
243.336	17020.72
243.407	16999.42
243.479	16983.81
243.55	16942.17
243.622	16907.56
243.693	16867.37
243.764	16851.51
243.836	16811.32
243.907	16770.59
243.978	16736.42
244.05	16709.29
244.121	16655.79
244.192	16629.67
244.264	16577.04
244.335	16546.67
244.407	16495.2
244.478	16465.17
244.549	16430.23
244.62	16376.44
244.692	16339.81
244.763	16317.06
244.834	16280.34
244.906	16232.81
244.977	16203.41
245.048	16187.12
245.119	16149.05
245.191	16102.54
245.262	16041.71
245.333	16020.4
245.405	15999.82
245.476	15971.39
245.547	15938.9
245.618	15923.72
245.689	15896.05
245.761	15875.28
245.832	15848.48
245.903	15826.5
245.974	15798.93
246.045	15764.23
246.117	15752.95
246.188	15714.24
246.259	15671.15
246.33	15636.69
246.401	15603.48
246.473	15556.82
246.544	15519.32
246.615	15500.52
246.686	15465.57
246.757	15454.87
246.828	15420.65
246.899	15405.76
246.97	15353.79
247.042	15314.12
247.113	15290.41
247.184	15276.86
247.255	15239.17
247.326	15204.37
247.397	15176.36
247.468	15150.38
247.539	15118.13
247.61	15071.33
247.681	15051.95
247.752	15035.22
247.823	14994.83
247.894	14969.33
247.965	14931.78
248.037	14888.88
248.108	14841.74
248.179	14819.9
248.25	14792.76
248.321	14765.28
248.392	14721.61
248.463	14720.6
248.534	14689.02
248.605	14667.19
248.675	14629.01
248.746	14608.57
248.817	14583.84
248.888	14562.63
248.959	14515.15
249.03	14500.26
249.101	14469.16
249.172	14432.67
249.243	14376.85
249.314	14369.33
249.385	14344.41
249.456	14318.33
249.527	14290.08
249.598	14268.58
249.669	14241.3
249.739	14203.36
249.81	14181.14
249.881	14137.94
249.952	14106.61
250.023	14081.11
250.094	14031.07
250.165	13995.88
250.235	13970.57
250.306	13945.07
250.377	13899.71
250.448	13873.87
250.519	13816.36
250.59	13816.65
250.66	13787.2
250.731	13788.74
250.802	13763.09
250.873	13735.28
250.944	13716.67
251.014	13688.52
251.085	13684.32
251.156	13663.06
251.227	13662.87
251.297	13654.15
251.368	13650.63
251.439	13640.5
251.51	13626.47
251.58	13599.48
251.651	13569.88
251.722	13555.32
251.792	13517.19
251.863	13489.66
251.934	13488.07
252.005	13495.59
252.075	13464.36
252.146	13451.92
252.217	13431.91
252.287	13417.84
252.358	13397.54
252.429	13394.79
252.499	13364.86
252.57	13341.57
252.641	13329.91
252.711	13301.95
252.782	13267.43
252.852	13260.83
252.923	13236.39
252.994	13218.31
253.064	13210.5
253.135	13174.92
253.205	13144.84
253.276	13136.46
253.347	13142.38
253.417	13102.9
253.488	13075.04
253.558	13045.3
253.629	13019.27
253.699	13006.11
253.77	12983.69
253.841	12956.74
253.911	12936.69
253.982	12913.31
254.052	12897.26
254.123	12872.05
254.193	12847.12
254.264	12864.77
254.334	12824.71
254.405	12786.05
254.475	12748.45
254.546	12721.36
254.616	12723.77
254.687	12704.43
254.757	12687.71
254.827	12656.47
254.898	12641.48
254.968	12619.35
255.039	12590.91
255.109	12580.02
255.18	12551
255.25	12508.82
255.321	12497.88
255.391	12455.94
255.461	12464.38
255.532	12418.44
255.602	12394.96
255.673	12352.59
255.743	12306.89
255.813	12263.75
255.884	12261.24
255.954	12246.69
256.024	12245.82
256.095	12219.16
256.165	12186.1
256.235	12174.24
256.306	12148.16
256.376	12140.93
256.446	12132.69
256.517	12124.4
256.587	12116.83
256.657	12091.91
256.728	12078.12
256.798	12060.24
256.868	12035.56
256.938	12006.01
257.009	11997.82
257.079	11987.5
257.149	12002.3
257.219	11970.1
257.29	11960.61
257.36	11917.86
257.43	11911.88
257.5	11868.84
257.571	11851.24
257.641	11837.65
257.711	11798.7
257.781	11787.81
257.852	11776.34
257.922	11738.26
257.992	11717.63
258.062	11692.33
258.132	11686.54
258.202	11667.6
258.273	11647.12
258.343	11649.19
258.413	11625.24
258.483	11604.27
258.553	11571.16
258.623	11541.37
258.693	11527.73
258.764	11526.43
258.834	11529.9
258.904	11510.28
258.974	11486.33
259.044	11467.05
259.114	11458.57
259.184	11448.93
259.254	11430.42
259.324	11389.65
259.394	11375.96
259.464	11373.99
259.535	11347
259.605	11322.37
259.675	11296.59
259.745	11288.2
259.815	11259.19
259.885	11230.37
259.955	11245.36
260.025	11221.36
260.095	11200.15
260.165	11191.62
260.235	11195.24
260.305	11166.03
260.375	11139.19
260.445	11146.47
260.515	11138.18
260.585	11128.88
260.655	11109.55
260.725	11101.79
260.795	11100.35
260.865	11108.44
260.934	11074.42
261.004	11072.44
261.074	11055.48
261.144	11062.13
261.214	11049.65
261.284	11034.28
261.354	11031.68
261.424	10993.75
261.494	11003.53
261.564	10991.14
261.634	10980.01
261.703	10936.06
261.773	10922.95
261.843	10911.78
261.913	10900.07
261.983	10873.51
262.053	10861.61
262.123	10846.29
262.192	10813.71
262.262	10800.17
262.332	10769.96
262.402	10769.86
262.472	10752.9
262.541	10720.04
262.611	10713.87
262.681	10691.85
262.751	10685.35
262.821	10662.41
262.89	10637.36
262.96	10618.03
263.03	10624.92
263.1	10610.85
263.169	10600.4
263.239	10588.83
263.309	10591.34
263.379	10577.08
263.448	10563.35
263.518	10553.61
263.588	10544.27
263.657	10549.66
263.727	10543.06
263.797	10520.99
263.867	10497.82
263.936	10468.82
264.006	10464.87
264.076	10440.1
264.145	10421.55
264.215	10397.75
264.285	10397.17
264.354	10371.69
264.424	10354.2
264.494	10322.35
264.563	10297.73
264.633	10306.31
264.702	10300.91
264.772	10264.05
264.842	10247.33
264.911	10238.28
264.981	10207.88
265.05	10195.3
265.12	10176.03
265.19	10169.53
265.259	10170.73
265.329	10166.97
265.398	10158.69
265.468	10173.43
265.537	10158.5
265.607	10148
265.676	10145.88
265.746	10137.35
265.815	10135.28
265.885	10116.59
265.955	10091.01
266.024	10070.54
266.094	10029.93
266.163	10039.56
266.232	10045.39
266.302	10025.35
266.371	10015.48
266.441	10005.12
266.51	9995.82
266.58	9976.03
266.649	9943.46
266.719	9945.44
266.788	9937.06
266.858	9937.2
266.927	9900.83
266.996	9891.78
267.066	9882.67
267.135	9857.24
267.205	9850.88
267.274	9833.4
267.343	9837.59
267.413	9829.11
267.482	9841.2
267.552	9852.23
267.621	9814.28
267.69	9784.8
267.76	9782.05
267.829	9775.79
267.898	9761.97
267.968	9741.64
268.037	9742.03
268.106	9744.78
268.176	9711.25
268.245	9696.66
268.314	9682.45
268.384	9678.4
268.453	9666.17
268.522	9662.27
268.592	9666.02
268.661	9645.6
268.73	9648.06
268.799	9622.92
268.869	9631.25
268.938	9597.15
269.007	9573.94
269.076	9569.65
269.146	9568.21
269.215	9553.38
269.284	9553.09
269.353	9541.53
269.422	9526.75
269.492	9507.29
269.561	9465.93
269.63	9465.16
269.699	9447.72
269.768	9437.76
269.838	9435.64
269.907	9432.65
269.976	9403.47
270.045	9364.95
270.114	9360.33
270.183	9340.97
270.253	9338.03
270.322	9303.07
270.391	9293.78
270.46	9296.38
270.529	9292.34
270.598	9295.08
270.667	9286.42
270.736	9265.52
270.806	9261.57
270.875	9267.2
270.944	9256.42
271.013	9280.1
271.082	9273.51
271.151	9268.45
271.22	9236.48
271.289	9221.99
271.358	9208.85
271.427	9209.18
271.496	9208.36
271.565	9194.83
271.634	9188.58
271.703	9218.05
271.772	9225.37
271.841	9217.42
271.91	9194.36
271.979	9189.4
272.048	9157.91
272.117	9158.01
272.186	9142.02
272.255	9137.35
272.324	9133.36
272.393	9122.91
272.462	9105.34
272.531	9090.27
272.6	9080.01
272.669	9091.23
272.738	9082.37
272.807	9071.63
272.876	9048.38
272.945	9074.72
273.013	9076.11
273.082	9082.37
273.151	9034.65
273.22	9026.76
273.289	9022.38
273.358	9029.55
273.427	9012.02
273.496	9013.76
273.564	9006.34
273.633	9011.59
273.702	8991.9
273.771	8979
273.84	8979.53
273.909	8983.48
273.977	8982.51
274.046	8971.11
274.115	8971.01
274.184	8953.97
274.253	8950.99
274.322	8962.49
274.39	8931.58
274.459	8910.88
274.528	8878.05
274.597	8865.06
274.665	8860.73
274.734	8867.03
274.803	8856.15
274.872	8848.31
274.94	8836.51
275.009	8893.25
275.078	8874.19
275.147	8872.31
275.215	8867.98
275.284	8872.93
275.353	8862.29
275.421	8836.98
275.49	8854.64
275.559	8846.27
275.627	8835.15
275.696	8827.6
275.765	8824.95
275.833	8813.78
275.902	8817.15
275.971	8829.67
276.039	8848.05
276.108	8860.71
276.177	8851.57
276.245	8841.07
276.314	8840.93
276.383	8846.03
276.451	8782.17
276.52	8783.23
276.588	8799.17
276.657	8806.43
276.725	8797
276.794	8790.89
276.863	8806.05
276.931	8778.18
277	8787.42
277.068	8806.72
277.137	8827.66
277.205	8827.18
277.274	8849.36
277.342	8857.5
277.411	8840.41
277.48	8823.47
277.548	8803.93
277.617	8809.99
277.685	8806.48
277.754	8807.39
277.822	8799.98
277.89	8812.69
277.959	8807.54
278.027	8784.58
278.096	8771.87
278.164	8799.89
278.233	8791.95
278.301	8784.2
278.37	8791.95
278.438	8775.82
278.507	8775.97
278.575	8745.5
278.643	8737.03
278.712	8713.49
278.78	8701.41
278.849	8709.4
278.917	8725.28
278.985	8723.41
279.054	8723.6
279.122	8737.22
279.191	8735.3
279.259	8735.78
279.327	8711.23
279.396	8729.04
279.464	8725.57
279.532	8727.78
279.601	8722.87
279.669	8722.01
279.737	8734.28
279.806	8738.13
279.874	8750.74
279.942	8744
280.011	8742.08
280.079	8751.71
280.147	8772.83
280.215	8776.11
280.284	8778.51
280.352	8757.96
280.42	8758.54
280.488	8748.19
280.557	8735.34
280.625	8735.14
280.693	8728.74
280.761	8734.86
280.83	8722.2
280.898	8733.94
280.966	8716.47
281.034	8679.07
281.102	8661.56
281.171	8654
281.239	8661.27
281.307	8651.26
281.375	8644.57
281.443	8670.85
281.512	8664.83
281.58	8673.45
281.648	8656.79
281.716	8653.28
281.784	8658.09
281.852	8654.48
281.92	8659.1
281.989	8670.61
282.057	8657.33
282.125	8705.95
282.193	8704.65
282.261	8703.88
282.329	8703.78
282.397	8708.88
282.465	8717.16
282.533	8735.01
282.601	8721.54
282.67	8701.61
282.738	8691.07
282.806	8701.95
282.874	8685.1
282.942	8687.02
283.01	8676.87
283.078	8686.25
283.146	8687.98
283.214	8696.84
283.282	8701.85
283.35	8706.9
283.418	8703.48
283.486	8709.5
283.554	8667.37
283.622	8666.55
283.69	8661.55
283.758	8650.1
283.826	8655.05
283.894	8671.66
283.962	8688.55
284.03	8703.57
284.098	8704.92
284.165	8703.04
284.233	8698.66
284.301	8691.54
284.369	8685.47
284.437	8673.01
284.505	8665.02
284.573	8676.09
284.641	8663.96
284.709	8669.74
284.777	8653.85
284.845	8657.56
284.912	8656.11
284.98	8657.94
285.048	8650.53
285.116	8655.68
285.184	8677.24
285.252	8675.27
285.319	8649.38
285.387	8638.93
285.455	8626.18
285.523	8631.57
285.591	8627.19
285.659	8630.03
285.726	8641.34
285.794	8624.55
285.862	8625.8
285.93	8629.98
285.997	8623.15
286.065	8617.33
286.133	8600.38
286.201	8596.49
286.269	8576.18
286.336	8570.55
286.404	8557.84
286.472	8565.3
286.539	8545.48
286.607	8517.71
286.675	8521.51
286.743	8531.95
286.81	8528.29
286.878	8541.62
286.946	8532.48
287.013	8535.99
287.081	8531.71
287.149	8515.83
287.216	8537.63
287.284	8533.73
287.352	8528.34
287.419	8522.76
287.487	8533.01
287.555	8547.69
287.622	8547.2
287.69	8562.32
287.758	8572.62
287.825	8569.68
287.893	8561.88
287.96	8567.9
288.028	8580.89
288.096	8579.3
288.163	8580.65
288.231	8564.77
288.298	8561.69
288.366	8581.76
288.433	8576.8
288.501	8572.04
288.569	8583.4
288.636	8576.9
288.704	8589.94
288.771	8599.28
288.839	8588.59
288.906	8584.02
288.974	8587.25
289.041	8586.53
289.109	8567.71
289.176	8583.02
289.244	8587.92
289.311	8596.83
289.379	8610.4
289.446	8615.21
289.514	8619.25
289.581	8621.66
289.649	8621.32
289.716	8621.56
289.783	8603.61
289.851	8625.51
289.918	8624.11
289.986	8630.8
290.053	8636.24
290.121	8636
290.188	8641.2
290.255	8676.14
290.323	8674.12
290.39	8673.3
290.458	8679.56
290.525	8700.49
290.592	8687.88
290.66	8693.89
290.727	8685.33
290.794	8694.81
290.862	8695.77
290.929	8695.92
290.996	8692.98
291.064	8706.84
291.131	8721.86
291.198	8736.97
291.266	8730.19
291.333	8735.57
291.4	8737.74
291.468	8756.71
291.535	8748
291.602	8750.35
291.669	8738.56
291.737	8747.99
291.804	8747.46
291.871	8763.83
291.938	8767.49
292.006	8801.04
292.073	8813.27
292.14	8825.54
292.207	8819.81
292.275	8819.86
292.342	8829.49
292.409	8856.73
292.476	8885.62
292.543	8874.16
292.611	8874.64
292.678	8893.42
292.745	8915.85
292.812	8929.71
292.879	8925.33
292.946	8933.42
293.014	8948.34
293.081	8955.85
293.148	8968.99
293.215	8985.89
293.282	8979.53
293.349	8991.91
293.416	8964.56
293.484	8983.24
293.551	8998.88
293.618	9015.97
293.685	9050.88
293.752	9043.51
293.819	9040.33
293.886	9023.29
293.953	9026.13
294.02	9041.2
294.087	9054.97
294.154	9047.03
294.221	9061.91
294.288	9061.52
294.356	9077.89
294.423	9080.54
294.49	9075.05
294.557	9085.64
294.624	9072.59
294.691	9094.88
294.758	9096.42
294.825	9111.54
294.892	9102.49
294.959	9100.23
295.026	9108.17
295.093	9096.04
295.16	9101.38
295.226	9107.73
295.293	9135.76
295.36	9147.98
295.427	9152.56
295.494	9160.5
295.561	9172.59
295.628	9192.48
295.695	9208.65
295.762	9210.68
295.829	9224.54
295.896	9244.09
295.963	9255.6
296.03	9272.06
296.096	9281.02
296.163	9289.06
296.23	9304.04
296.297	9313.62
296.364	9312.32
296.431	9316.46
296.498	9310.3
296.564	9337.6
296.631	9333.55
296.698	9321.99
296.765	9338.51
296.832	9337.35
296.899	9321.03
296.965	9340.68
297.032	9316.5
297.099	9337.11
297.166	9347.9
297.233	9335.96
297.299	9324.11
297.366	9320.21
297.433	9318.91
297.5	9319.78
297.566	9325.08
297.633	9318.82
297.7	9323.53
297.767	9322.86
297.833	9327.96
297.9	9329.36
297.967	9307.89
298.033	9328.45
298.1	9361.05
298.167	9352.72
298.234	9356.24
298.3	9368.8
298.367	9357.78
298.434	9370.54
298.5	9355.42
298.567	9348.77
298.634	9352.96
298.7	9372.75
298.767	9376.17
298.834	9390.47
298.9	9389.22
298.967	9379.78
299.033	9393.65
299.1	9411.8
299.167	9430.34
299.233	9428.66
299.3	9443.58
299.366	9467.95
299.433	9479.46
299.5	9449.79
299.566	9455.76
299.633	9474.3
299.699	9481.53
299.766	9488.03
299.832	9492.8
299.899	9497.85
299.965	9510.81
300.032	9507.15
300.099	9515.91
300.165	9525.35
300.232	9521.79
300.298	9522.51
300.365	9533.63
300.431	9533.2
300.498	9521.11
300.564	9527.13
300.631	9540.57
300.697	9555.45
300.763	9551.98
300.83	9543.65
300.896	9559.11
300.963	9569.94
301.029	9571.58
301.096	9581.55
301.162	9588.29
301.229	9579.81
301.295	9575.34
301.361	9577.26
301.428	9583.86
301.494	9567.49
301.561	9570.28
301.627	9578.32
301.693	9581.12
301.76	9587.28
301.826	9582.32
301.892	9601.05
301.959	9614.54
302.025	9606.02
302.092	9602.5
302.158	9611.41
302.224	9620.61
302.291	9608.52
302.357	9604.04
302.423	9599.13
302.49	9586.08
302.556	9594.31
302.622	9594.02
302.688	9606.06
302.755	9623.5
302.821	9633.28
302.887	9650.37
302.954	9642.18
303.02	9640.69
303.086	9647.96
303.152	9643.82
303.219	9638.81
303.285	9639.87
303.351	9641.56
303.417	9644.06
303.483	9631.88
303.55	9624.08
303.616	9618.97
303.682	9621.28
303.748	9608.91
303.815	9625.23
303.881	9637.66
303.947	9630.77
304.013	9636.89
304.079	9630.58
304.145	9609.44
304.212	9611.27
304.278	9597.2
304.344	9594.89
304.41	9586.51
304.476	9576.55
304.542	9575.1
304.608	9588.06
304.674	9567.3
304.741	9561.76
304.807	9564.02
304.873	9572.11
304.939	9591.71
305.005	9576.78
305.071	9572.93
305.137	9581.65
305.203	9551.98
305.269	9548.03
305.335	9556.56
305.401	9554.58
305.467	9548.85
305.533	9560.36
305.599	9569.32
305.666	9579.14
305.732	9582.71
305.798	9600.38
305.864	9627.93
305.93	9631.11
305.996	9621.72
306.062	9622.58
306.128	9614.78
306.194	9604.57
306.259	9605.49
306.325	9589.59
306.391	9594.41
306.457	9602.93
306.523	9605.29
306.589	9631.3
306.655	9622.53
306.721	9608.71
306.787	9594.84
306.853	9608.33
306.919	9585.31
306.985	9572.21
307.051	9565.13
307.117	9554.49
307.183	9545.87
307.248	9513.5
307.314	9516.1
307.38	9519.43
307.446	9531.13
307.512	9524.19
307.578	9530.12
307.644	9523.18
307.709	9523.81
307.775	9526.65
307.841	9523.04
307.907	9524.19
307.973	9501.99
308.039	9508.54
308.104	9513.5
308.17	9515.62
308.236	9503.1
308.302	9513.31
308.368	9502.42
308.433	9503.96
308.499	9504.78
308.565	9491.2
308.631	9492.84
308.696	9470.26
308.762	9465.01
308.828	9457.78
308.894	9434.72
308.959	9409.49
309.025	9403.23
309.091	9399.42
309.156	9389.31
309.222	9396.68
309.288	9383.39
309.354	9360.85
309.419	9358.06
309.485	9344.43
309.551	9349.63
309.616	9333.55
309.682	9325.99
309.748	9323.63
309.813	9322.72
309.879	9308.46
309.945	9298.06
310.01	9290.46
310.076	9297.53
310.141	9290.75
310.207	9273.17
310.273	9280.87
310.338	9289.49
310.404	9271.05
310.469	9262
310.535	9249
310.601	9225.35
310.666	9229.88
310.732	9243.51
310.797	9221.02
310.863	9205.13
310.928	9197.52
310.994	9196.85
311.059	9194.05
311.125	9188.23
311.191	9195.79
311.256	9189.68
311.322	9190.54
311.387	9176.87
311.453	9503.59
311.518	9470.66
311.584	9472.97
311.649	9480.96
311.715	9473.16
311.78	9475.67
311.846	9463.39
311.911	9468.35
311.976	9464.26
312.042	9448.51
312.107	9432.19
312.173	9428.29
312.238	9429.64
312.304	9426.6
312.369	9419.86
312.434	9408.98
312.5	9402.82
312.565	9366.13
312.631	9370.18
312.696	9371.04
312.761	9376.1
312.827	9031.18
312.892	9076.25
312.958	9070.42
313.023	9065.56
313.088	9066.28
313.154	9051.31
313.219	9044.62
313.284	9037.49
313.35	9036.67
313.415	9027.87
313.48	9021.17
313.546	9026.47
313.611	9028.78
313.676	9012.85
313.741	9005.43
313.807	9014.92
313.872	9016.55
313.937	9026.95
314.003	9037.59
314.068	9039.42
314.133	9041.73
314.198	9036.77
314.264	9012.31
314.329	9002.78
314.394	8994.26
314.459	8990.74
314.525	9011.3
314.59	9003.69
314.655	8990.21
314.72	8994.98
314.785	9003.41
314.851	9000.71
314.916	8982.8
314.981	8970.14
315.046	8963.79
315.111	8956.04
315.176	8940.3
315.242	8946.17
315.307	8941.93
315.372	8919.6
315.437	8900.63
315.502	8892.68
315.567	8900.34
315.632	8885.32
315.698	8887.25
315.763	8888.88
315.828	8879.83
315.893	8873.33
315.958	8868.28
316.023	8858.99
316.088	8841.37
316.153	8812.4
316.218	8810.18
316.283	8790.4
316.348	8773.42
316.413	8774.91
316.479	8758.55
316.544	8727.65
316.609	8693.19
316.674	8659.5
316.739	8628.42
316.804	8600.31
316.869	8566.38
316.934	8533.18
316.999	8503.15
317.064	8453.11
317.129	8406.62
317.194	8367.41
317.259	8321.26
317.324	8275.46
317.389	8233.27
317.454	8198.43
317.518	8167.5
317.583	8146.33
317.648	8124.83
317.713	8091.16
317.778	8028.42
317.843	8004.28
317.908	7965.47
317.973	7927.18
318.038	7898.85
318.103	7862.11
318.168	7830.66
318.233	7797.86
318.297	7750.64
318.362	7712.89
318.427	7676.79
318.492	7648.56
318.557	7603.42
318.622	7577.84
318.687	7557.69
318.751	7519.39
318.816	7482.37
318.881	7452.66
318.946	7388.48
319.011	7342.57
319.075	7303.59
319.14	7272.21
319.205	7225.68
319.27	7195.07
319.335	7153.08
319.399	7113.91
319.464	7082.25
319.529	7028.92
319.594	6994.56
319.658	6964.1
319.723	6929.22
319.788	6901.84
319.853	6849.95
319.917	6818.93
319.982	6762.58
320.047	6730.4
320.112	6705.95
320.176	6653.75
320.241	6620.08
320.306	6597.42
320.37	6556.13
320.435	6524.77
320.5	6496.97
320.564	6459.42
320.629	6419.82
320.694	6391.98
320.758	6349.31
320.823	6311
320.888	6287.54
320.952	6238.63
321.017	6198.12
321.082	6157.76
321.146	6125.8
321.211	6093.65
321.275	6058.15
321.34	6016.71
321.405	5967.63
321.469	5921.53
321.534	5883.5
321.598	5828.54
321.663	5794.33
321.727	5767.18
321.792	5719.42
321.857	5670.98
321.921	5634.49
321.986	5592.45
322.05	5529.23
322.115	5497.39
322.179	5451.91
322.244	5396.85
322.308	5361.38
322.373	5314.08
322.437	5276.42
322.502	5245.69
322.566	5200.69
322.631	5165.72
322.695	5131.33
322.76	5086.97
322.824	5055.89
322.889	5018.58
322.953	4975.73
323.018	4908.69
323.082	4843.68
323.146	4794.71
323.211	4745.17
323.275	4698.25
323.34	4652.5
323.404	4620.64
323.468	4571.53
323.533	4532.15
323.597	4488.3
323.662	4440.88
323.726	4404.62
323.79	4353.01
323.855	4288.89
323.919	4240.35
323.983	4191.75
324.048	4122.13
324.112	4275.92
324.177	4146.49
324.241	3928.54
324.305	3720.58
324.37	3516.35
324.434	3319.91
324.498	3274.04
324.562	3224.67
324.627	3163.9
324.691	3109.33
324.755	3044.93
324.82	2967.32
324.884	2886.08
324.948	2812.88
325.012	2710.84
325.077	2588.41
