Data from 20250703_urea_0.1M_MAYP1162681_06-11-05-229.txt Node
Date: Fri Jul 04 06:11:05 BST 2025
User: adleo
Spectrometer: MAYP116268
Trigger mode: 0
Integration Time (sec): 1.000000E0
Scans to average: 1
Electric dark correction enabled: true
Nonlinearity correction enabled: true
Boxcar width: 10
XAxis mode: Wavelengths
Number of Pixels in Spectrum: 2068
>>>>>Begin Spectral Data<<<<<
179.565	1255.2
179.642	1312.44
179.718	1358.5
179.795	1399.9
179.871	1433.91
179.948	1449.02
180.024	1469.8
180.101	1493.04
180.177	1507.96
180.254	1531.56
180.33	1555.68
180.407	1612.99
180.483	1710.43
180.56	1804.45
180.636	1891.34
180.712	1878.88
180.789	1889.38
180.865	1900.88
180.942	1909.11
181.018	1918.9
181.095	1932.79
181.171	1941.68
181.248	1943.39
181.324	1958.42
181.4	1965.37
181.477	1976.45
181.553	1995.79
181.63	2016.96
181.706	2032.89
181.782	2040.07
181.859	2037.59
181.935	2042.49
182.011	2039.5
182.088	2057.95
182.164	2078.46
182.24	2091.77
182.317	2100.47
182.393	2098.33
182.469	2115.46
182.546	2128.44
182.622	2130.96
182.698	2125.49
182.775	2133.72
182.851	2151.37
182.927	2143.33
183.003	2140.62
183.08	2136.58
183.156	2142.67
183.232	2139.76
183.308	2128.16
183.385	2139.71
183.461	2160.93
183.537	2160.5
183.613	2175.77
183.69	2166.55
183.766	2154.93
183.842	2162.07
183.918	2170.63
183.995	2184.19
184.071	2187.43
184.147	2183.57
184.223	2171.59
184.299	2186.1
184.375	2178.21
184.452	2184.16
184.528	2233.55
184.604	2243.11
184.68	2250.77
184.756	2260.14
184.832	2263.61
184.908	2270.18
184.985	2268.13
185.061	2250.67
185.137	2260.9
185.213	2245.77
185.289	2246.34
185.365	2239.4
185.441	2237.92
185.517	2248.21
185.593	2244.45
185.669	2240.12
185.745	2253.44
185.822	2270.18
185.898	2257.85
185.974	2263.37
186.05	2253.57
186.126	2222.12
186.202	2216.5
186.278	2215.5
186.354	2203.42
186.43	2213.03
186.506	2211.46
186.582	2210.89
186.658	2218.84
186.734	2196.91
186.81	2200.57
186.886	2203.09
186.962	2216.55
187.038	2214.94
187.114	2211.75
187.19	2219.41
187.266	2209.7
187.341	2207.28
187.417	2202.09
187.493	2204.33
187.569	2208.09
187.645	2200.71
187.721	2188.43
187.797	2194.38
187.873	2196.76
187.949	2190.95
188.025	2185
188.101	2187.91
188.176	2194.71
188.252	2190.05
188.328	2196.94
188.404	2197.85
188.48	2197.32
188.556	2188.8
188.632	2188.9
188.707	2187.47
188.783	2182.95
188.859	2179.53
188.935	2168.92
189.011	2175.67
189.086	2169.3
189.162	2162.59
189.238	2160.54
189.314	2158.26
189.39	2153.79
189.465	2150.08
189.541	2167.73
189.617	2150.32
189.693	2145.13
189.768	2147.42
189.844	2173.07
189.92	2168.27
189.996	2176.12
190.071	2183.83
190.147	2183.16
190.223	2190.11
190.298	2179.93
190.374	2168.27
190.45	2180.4
190.526	2192.34
190.601	2187.44
190.677	2187.44
190.753	2213.91
190.828	2218.91
190.904	2235.09
190.98	2248.46
191.055	2257.6
191.131	2247.98
191.207	2270.34
191.282	2279.72
191.358	2272.1
191.433	2256.44
191.509	2268.66
191.585	2263.28
191.66	2264.19
191.736	2271.99
191.811	2264.76
191.887	2282.13
191.963	2309.31
192.038	2311.97
192.114	2308.93
192.189	2310.73
192.265	2310.45
192.34	2291.02
192.416	2288.55
192.491	2283.36
192.567	2284.17
192.642	2288.12
192.718	2289.17
192.793	2275.08
192.869	2272.13
192.944	2271.04
193.02	2276.6
193.095	2280.89
193.171	2290.07
193.246	2290.5
193.322	2289.26
193.397	2289.45
193.473	2277.08
193.548	2255.75
193.624	2262.42
193.699	2259.85
193.775	2279.03
193.85	2276.46
193.925	2283.32
194.001	2283.55
194.076	2273.89
194.152	2265.8
194.227	2256.71
194.302	2247.2
194.378	2255
194.453	2250.53
194.529	2262.76
194.604	2249.77
194.679	2243.68
194.755	2223.93
194.83	2236.5
194.905	2232.22
194.981	2240.98
195.056	2232.41
195.131	2239.07
195.207	2240.31
195.282	2232.46
195.357	2211.04
195.433	2227.41
195.508	2214.89
195.583	2220.51
195.659	2234.83
195.734	2242.59
195.809	2244.07
195.884	2253.77
195.96	2251.15
196.035	2268.71
196.11	2266.05
196.185	2278.89
196.261	2281.8
196.336	2312.68
196.411	2299.02
196.486	2307.92
196.561	2302.11
196.637	2311.24
196.712	2327.81
196.787	2325.15
196.862	2338.61
196.937	2350.75
197.013	2357.32
197.088	2368.74
197.163	2391.31
197.238	2410.27
197.313	2408.55
197.388	2419.46
197.464	2450.6
197.539	2462.22
197.614	2452.94
197.689	2466.93
197.764	2482.13
197.839	2505.07
197.914	2499.41
197.989	2521.65
198.065	2530.69
198.14	2582.78
198.215	2608.54
198.29	2620.64
198.365	2638.46
198.44	2650.36
198.515	2678.14
198.59	2695.24
198.665	2723.11
198.74	2732.11
198.815	2733.31
198.89	2756.6
198.965	2789.25
199.04	2785.2
199.115	2801.11
199.19	2844.18
199.265	2841.7
199.34	2852.61
199.415	2886.33
199.49	2906.24
199.565	2916.15
199.64	2943.51
199.715	2940.89
199.79	2949.32
199.865	2956.14
199.94	2952.66
200.015	2986.99
200.09	2993.72
200.165	3002.73
200.24	3011.31
200.315	3057.27
200.39	3076.68
200.464	3081.92
200.539	3083.35
200.614	3099.32
200.689	3124.84
200.764	3134.33
200.839	3158.16
200.914	3163.21
200.989	3152.29
201.063	3169.7
201.138	3153.87
201.213	3156.78
201.288	3136.66
201.363	3141.76
201.438	3142
201.512	3162.83
201.587	3142.85
201.662	3145.56
201.737	3154.2
201.812	3159.78
201.886	3122.78
201.961	3132.57
202.036	3125.13
202.111	3120.69
202.186	3093.91
202.26	3074.78
202.335	3052.89
202.41	3044.55
202.485	3029.77
202.559	3011.32
202.634	2986.19
202.709	2996.44
202.784	2974.74
202.858	2977.37
202.933	2963.97
203.008	2960.39
203.082	2940.47
203.157	2946.57
203.232	2907.88
203.306	2893.76
203.381	2868.49
203.456	2849.71
203.53	2827.15
203.605	2814.04
203.68	2799.6
203.754	2800.93
203.829	2795.54
203.904	2785.87
203.978	2787.73
204.053	2803.27
204.127	2803.46
204.202	2814.04
204.277	2809.42
204.351	2820
204.426	2830.3
204.5	2835.3
204.575	2817.39
204.65	2846.66
204.724	2858.78
204.799	2889.7
204.873	2905.91
204.948	2927.94
205.022	2942.48
205.097	2963.75
205.171	3003.85
205.246	3045.41
205.32	3077.82
205.395	3112.69
205.469	3138.1
205.544	3180.67
205.618	3200.86
205.693	3257.6
205.767	3289.33
205.842	3356.49
205.916	3396.15
205.991	3435.25
206.065	3492.39
206.14	3565.35
206.214	3615.71
206.289	3665.88
206.363	3734.85
206.438	3798.31
206.512	3870.89
206.586	3956.23
206.661	4033.17
206.735	4077.7
206.81	4148.41
206.884	4231.4
206.958	4289.73
207.033	4381.24
207.107	4466.39
207.181	4574.92
207.256	4644.56
207.33	4742.91
207.405	4832.96
207.479	4935.04
207.553	5020.73
207.628	5090.01
207.702	5180.44
207.776	5261.41
207.851	5352.12
207.925	5458.79
207.999	5546.94
208.073	5632.96
208.148	5726.81
208.222	5804.9
208.296	5933.35
208.371	6041.15
208.445	6152.38
208.519	6273.86
208.593	6386.8
208.668	6479.28
208.742	6582.46
208.816	6679.43
208.89	6796.59
208.965	6894.56
209.039	6996.36
209.113	7117.24
209.187	7237.7
209.261	7341.92
209.336	7460.97
209.41	7579.51
209.484	7675.87
209.558	7801.18
209.632	7916.72
209.707	8031.09
209.781	8160.24
209.855	8281.29
209.929	8398.28
210.003	8499.81
210.077	8603.12
210.151	8750.81
210.226	8887.75
210.3	9011.73
210.374	9138.41
210.448	9235.04
210.522	9351.94
210.596	9473.18
210.67	9582.15
210.744	9734.14
210.818	9863.68
210.892	9984.77
210.966	10081.14
211.041	10203.97
211.115	10298.39
211.189	10422.43
211.263	10533.14
211.337	10626.66
211.411	10733.77
211.485	10825.27
211.559	10933.44
211.633	11033.85
211.707	11093.52
211.781	11191.02
211.855	11250.34
211.929	11340.5
212.003	11418.09
212.077	11517.28
212.151	11618.88
212.225	11720.33
212.299	11796.35
212.373	11878.38
212.447	11960.42
212.52	12073.3
212.594	12157.8
212.668	12255.12
212.742	12324.29
212.816	12402.81
212.89	12494.01
212.964	12577.5
213.038	12666.82
213.112	12761.02
213.186	12857.09
213.26	12925.49
213.333	12960.87
213.407	13047.54
213.481	13127.28
213.555	13225.04
213.629	13290.84
213.703	13351.87
213.777	13424.03
213.85	13487.42
213.924	13595.31
213.998	13680.25
214.072	13746.77
214.146	13810.55
214.219	13881.46
214.293	13952.95
214.367	14029.36
214.441	14105.71
214.515	14169.06
214.588	14214.9
214.662	14251.2
214.736	14300.51
214.81	14371.86
214.883	14450.82
214.957	14507.56
215.031	14559.19
215.105	14596.83
215.178	14649.47
215.252	14711.56
215.326	14752.34
215.4	14791.05
215.473	14805.22
215.547	14846.44
215.621	14904.81
215.694	14965.35
215.768	15002.08
215.842	15046.57
215.915	15086
215.989	15117.67
216.063	15158.74
216.136	15209.93
216.21	15271.92
216.284	15334.82
216.357	15389.92
216.431	15433.01
216.504	15501.99
216.578	15583.69
216.652	15647.17
216.725	15707.95
216.799	15771.28
216.873	15830.95
216.946	15891.83
217.02	15938.29
217.093	15988.61
217.167	16008.33
217.24	16048.53
217.314	16094.89
217.387	16134.32
217.461	16184.3
217.535	16243.59
217.608	16287.25
217.682	16341.04
217.755	16388.76
217.829	16431.89
217.902	16482.98
217.976	16541.69
218.049	16578.17
218.123	16606.85
218.196	16658.22
218.27	16690.66
218.343	16711.43
218.417	16762.13
218.49	16808.25
218.563	16870.67
218.637	16921.7
218.71	16992.98
218.784	17051.83
218.857	17114.77
218.931	17170.77
219.004	17223.88
219.077	17278.78
219.151	17324.66
219.224	17368.7
219.298	17417.23
219.371	17468.42
219.444	17500.22
219.518	17547.5
219.591	17594.97
219.665	17672.17
219.738	17725.33
219.811	17770.48
219.885	17839.54
219.958	17891.59
220.031	17932.79
220.105	17985.08
220.178	18031.1
220.251	18072.69
220.325	18119.48
220.398	18165.75
220.471	18221.55
220.544	18274.37
220.618	18308.92
220.691	18362.75
220.764	18412.05
220.838	18462.12
220.911	18501.49
220.984	18570.35
221.057	18616.95
221.131	18666.59
221.204	18671.94
221.277	18733.38
221.35	18809.67
221.424	18834.48
221.497	18876.99
221.57	18928.12
221.643	18961.85
221.716	19011.1
221.79	19043.63
221.863	19085.55
221.936	19117.26
222.009	19154.75
222.082	19196.77
222.155	19231.09
222.229	19281.64
222.302	19316.14
222.375	19354.26
222.448	19402.35
222.521	19427.31
222.594	19453.92
222.667	19473.19
222.74	19521.09
222.814	19537.72
222.887	19554.05
222.96	19593.81
223.033	19628.8
223.106	19650.48
223.179	19694.19
223.252	19723.73
223.325	19755.25
223.398	19778.53
223.471	19815.92
223.544	19841.75
223.617	19864.11
223.69	19889.75
223.763	19899.34
223.837	19922.57
223.91	19956.3
223.983	19962.23
224.056	19971.58
224.129	19999.72
224.202	20030.71
224.275	20042.08
224.348	20059.62
224.42	20066.95
224.493	20070.95
224.566	20074.66
224.639	20112.78
224.712	20121.98
224.785	20130.99
224.858	20151.62
224.931	20164.29
225.004	20172.92
225.077	20190.08
225.15	20173.07
225.223	20185.5
225.296	20223.28
225.369	20228.58
225.442	20234.13
225.514	20253.5
225.587	20278.56
225.66	20298.61
225.733	20320.73
225.806	20340.34
225.879	20349.83
225.952	20352.82
226.025	20386.22
226.097	20418.22
226.17	20418.08
226.243	20407.52
226.316	20413.84
226.389	20424
226.461	20432.49
226.534	20442.85
226.607	20447.76
226.68	20489.11
226.753	20503.57
226.825	20494.75
226.898	20524.34
226.971	20520.15
227.044	20539.18
227.117	20549.74
227.189	20559.81
227.262	20580.92
227.335	20597.6
227.407	20600.82
227.48	20612.97
227.553	20619.57
227.626	20625.55
227.698	20632.97
227.771	20649.26
227.844	20645.16
227.916	20649.11
227.989	20645.98
228.062	20658.56
228.134	20688.49
228.207	20686.22
228.28	20680.39
228.352	20679.33
228.425	20680.39
228.498	20702.95
228.57	20688.1
228.643	20706.27
228.716	20701.5
228.788	20688.3
228.861	20685.5
228.934	20706.13
229.006	20706.22
229.079	20703.28
229.151	20698.85
229.224	20696.1
229.296	20710.13
229.369	20748.15
229.442	20765.17
229.514	20765.02
229.587	20773.74
229.659	20759.14
229.732	20763.05
229.804	20781.36
229.877	20815.67
229.949	20829.36
230.022	20844.59
230.094	20848.35
230.167	20851.39
230.239	20842.95
230.312	20846.28
230.384	20866.91
230.457	20857.61
230.529	20864.74
230.602	20871.77
230.674	20869.99
230.747	20876.98
230.819	20877.94
230.892	20836.78
230.964	20835.97
231.037	20835.63
231.109	20827.63
231.181	20822.52
231.254	20811.29
231.326	20812.59
231.399	20799.34
231.471	20782.95
231.544	20744.44
231.616	20747
231.688	20729.21
231.761	20729.65
231.833	20711.09
231.905	20675.81
231.978	20671.81
232.05	20661.98
232.122	20652.87
232.195	20634.9
232.267	20633.11
232.339	20608.15
232.412	20612.05
232.484	20593.02
232.556	20573.21
232.629	20580.05
232.701	20573.21
232.773	20565.59
232.846	20533.26
232.918	20516.49
232.99	20496.1
233.062	20501.64
233.135	20494.56
233.207	20470.08
233.279	20461.16
233.351	20460.87
233.424	20432.24
233.496	20408.73
233.568	20415.62
233.64	20390.41
233.713	20372.34
233.785	20353.88
233.857	20347.96
233.929	20321.55
234.001	20326.37
234.074	20333.59
234.146	20297.93
234.218	20288.44
234.29	20263.81
234.362	20245.6
234.434	20204.78
234.507	20178.22
234.579	20141.36
234.651	20114.51
234.723	20108.44
234.795	20089.26
234.867	20070.47
234.939	20081.5
235.012	20067
235.084	20054.85
235.156	20032.73
235.228	20016.64
235.3	19983.82
235.372	19964.59
235.444	19953.03
235.516	19900.69
235.588	19878.38
235.66	19852.98
235.732	19818.28
235.804	19853.32
235.876	19847.87
235.948	19852.31
236.02	19834.09
236.092	19819.54
236.164	19798.72
236.236	19776.31
236.308	19742.91
236.38	19707.83
236.452	19669.71
236.524	19650.77
236.596	19631.21
236.668	19609.04
236.74	19579.93
236.812	19562.59
236.884	19547.26
236.956	19525.05
237.028	19493.91
237.1	19457.63
237.172	19446.64
237.244	19431.75
237.316	19372.04
237.388	19334.6
237.46	19290.26
237.532	19282.84
237.604	19244.34
237.675	19234.51
237.747	19205.83
237.819	19178.94
237.891	19151.67
237.963	19115.09
238.035	19075.82
238.107	19013.08
238.178	19004.5
238.25	18973.66
238.322	18968.5
238.394	18924.98
238.466	18892.75
238.538	18872.17
238.609	18850.63
238.681	18801.67
238.753	18761.14
238.825	18736.42
238.897	18711.65
238.968	18699.07
239.04	18651.22
239.112	18654.78
239.184	18604.62
239.255	18570.64
239.327	18541.78
239.399	18520.33
239.471	18507.03
239.542	18484.29
239.614	18471.61
239.686	18411.86
239.758	18394.61
239.829	18346.37
239.901	18321.12
239.973	18287
240.044	18259.87
240.116	18231.58
240.188	18198.81
240.259	18178.13
240.331	18136.83
240.403	18115.34
240.474	18072.16
240.546	18045.75
240.618	17993.32
240.689	17959.11
240.761	17935.2
240.833	17926.82
240.904	17885.95
240.976	17843.83
241.048	17813.95
241.119	17790
241.191	17766.34
241.262	17749.23
241.334	17720.32
241.405	17690.73
241.477	17647.26
241.549	17608.66
241.62	17569.04
241.692	17545.67
241.763	17517.96
241.835	17483.84
241.906	17447.12
241.978	17402.49
242.049	17376.51
242.121	17348.42
242.192	17329.14
242.264	17276.03
242.335	17219.88
242.407	17203.26
242.478	17169.96
242.55	17146.29
242.621	17099.01
242.693	17061.13
242.764	17021.66
242.836	16984.12
242.907	16957.95
242.979	16939.49
243.05	16914.86
243.122	16887.59
243.193	16851.15
243.264	16796.45
243.336	16761.17
243.407	16743.43
243.479	16722.28
243.55	16686.9
243.622	16657.65
243.693	16628.92
243.764	16614.51
243.836	16571.37
243.907	16531.32
243.978	16500
244.05	16460.96
244.121	16411.07
244.192	16391.99
244.264	16343.16
244.335	16312.46
244.407	16251.3
244.478	16224.36
244.549	16187.29
244.62	16151
244.692	16118.22
244.763	16097.35
244.834	16060.91
244.906	16009.2
244.977	15992.47
245.048	15982.88
245.119	15938.92
245.191	15886.72
245.262	15836.07
245.333	15811.24
245.405	15776.93
245.476	15741.74
245.547	15713.01
245.618	15692.29
245.689	15660.47
245.761	15634.45
245.832	15601.33
245.903	15590.34
245.974	15559.54
246.045	15527.15
246.117	15501.36
246.188	15456.63
246.259	15412.62
246.33	15382.93
246.401	15359.36
246.473	15300.02
246.544	15254.76
246.615	15239.82
246.686	15214.42
246.757	15199.19
246.828	15169.35
246.899	15151.76
246.97	15106.44
247.042	15060.07
247.113	15043.01
247.184	15027.68
247.255	14988.01
247.326	14957.35
247.397	14919.61
247.468	14885.43
247.539	14856.7
247.61	14813.46
247.681	14800.88
247.752	14785.7
247.823	14738.36
247.894	14702.88
247.965	14670.39
248.037	14632.41
248.108	14587.29
248.179	14550.75
248.25	14515.03
248.321	14500.04
248.392	14456.51
248.463	14453.28
248.534	14428.02
248.605	14406.76
248.675	14376.44
248.746	14358.99
248.817	14339.42
248.888	14315.37
248.959	14273.38
249.03	14259.25
249.101	14232.6
249.172	14200.25
249.243	14148.96
249.314	14145.39
249.385	14118.83
249.456	14102.49
249.527	14075.54
249.598	14050.47
249.669	14026.95
249.739	14006.8
249.81	13981.97
249.881	13942.15
249.952	13919.93
250.023	13891.2
250.094	13839.76
250.165	13800.09
250.235	13770.54
250.306	13741.71
250.377	13705.32
250.448	13690.23
250.519	13637.88
250.59	13631.95
250.66	13590.87
250.731	13583.74
250.802	13553.9
250.873	13529.94
250.944	13500.78
251.014	13469.2
251.085	13469.35
251.156	13448.04
251.227	13432.66
251.297	13414.58
251.368	13409.23
251.439	13391.73
251.51	13385.13
251.58	13354.71
251.651	13326.56
251.722	13312.05
251.792	13268.13
251.863	13241.47
251.934	13228.65
252.005	13230.43
252.075	13204.02
252.146	13201.7
252.217	13194.86
252.287	13181.55
252.358	13161.84
252.429	13158.7
252.499	13133.73
252.57	13117.05
252.641	13114.06
252.711	13096.66
252.782	13062.87
252.852	13057.47
252.923	13040.02
252.994	13018.9
253.064	13013.75
253.135	12980.77
253.205	12960.09
253.276	12955.56
253.347	12958.84
253.417	12927.55
253.488	12906.73
253.558	12878.53
253.629	12849.9
253.699	12824.15
253.77	12811.33
253.841	12783.71
253.911	12762.69
253.982	12743.55
254.052	12724.99
254.123	12692.99
254.193	12666.76
254.264	12680.84
254.334	12643.14
254.405	12601.2
254.475	12567.27
254.546	12537.09
254.616	12541.72
254.687	12518.68
254.757	12496.46
254.827	12464.25
254.898	12444.83
254.968	12417.45
255.039	12390.5
255.109	12385.39
255.18	12356.13
255.25	12309.96
255.321	12299.21
255.391	12262.76
255.461	12275.15
255.532	12222.95
255.602	12199.86
255.673	12156.96
255.743	12124.37
255.813	12078.82
255.884	12067.5
255.954	12058.34
256.024	12067.16
256.095	12039.54
256.165	12010.67
256.235	12004.88
256.306	11990.9
256.376	11985.46
256.446	11975.72
256.517	11965.07
256.587	11953.84
256.657	11937.26
256.728	11920.14
256.798	11893.88
256.868	11875.8
256.938	11832.08
257.009	11827.79
257.079	11820.03
257.149	11829.14
257.219	11789.09
257.29	11785.86
257.36	11751.06
257.43	11740.5
257.5	11692.02
257.571	11667.15
257.641	11654.57
257.711	11615.24
257.781	11591.23
257.852	11577.01
257.922	11538.41
257.992	11517.49
258.062	11492.19
258.132	11488.67
258.202	11474.35
258.273	11464.57
258.343	11469
258.413	11446.64
258.483	11427.46
258.553	11400.81
258.623	11372.9
258.693	11358.63
258.764	11354.97
258.834	11353.62
258.904	11337.48
258.974	11318.25
259.044	11303.4
259.114	11291.79
259.184	11286.73
259.254	11259.84
259.324	11223.45
259.394	11215.93
259.464	11212.95
259.535	11192.95
259.605	11164.46
259.675	11130.83
259.745	11118.25
259.815	11081.72
259.885	11060.03
259.955	11069.09
260.025	11040.9
260.095	11024.13
260.165	11014.83
260.235	11021.24
260.305	10982.89
260.375	10945.06
260.445	10949.15
260.515	10946.7
260.585	10938.17
260.655	10919.76
260.725	10923.03
260.795	10911.71
260.865	10909.98
260.934	10884.19
261.004	10874.36
261.074	10857.06
261.144	10863.47
261.214	10852.24
261.284	10838.8
261.354	10830.85
261.424	10803.28
261.494	10807.81
261.564	10789.41
261.634	10775.53
261.703	10728.69
261.773	10732.78
261.843	10728.35
261.913	10708.02
261.983	10671.44
262.053	10659.45
262.123	10643.4
262.192	10615.41
262.262	10614.92
262.332	10586.4
262.402	10580.28
262.472	10567.66
262.541	10528.34
262.611	10522.9
262.681	10498.71
262.751	10488.83
262.821	10476.64
262.89	10448.79
262.96	10435.45
263.03	10441.95
263.1	10433.18
263.169	10418.1
263.239	10410.83
263.309	10422.06
263.379	10416.13
263.448	10408.95
263.518	10393.77
263.588	10374.12
263.657	10383.22
263.727	10379.03
263.797	10362.65
263.867	10347.23
263.936	10316.26
264.006	10319.97
264.076	10300.02
264.145	10282.82
264.215	10265.62
264.285	10261.14
264.354	10228.77
264.424	10208.1
264.494	10176.69
264.563	10155.93
264.633	10170.86
264.702	10155.11
264.772	10116.81
264.842	10096.09
264.911	10088.1
264.981	10062.03
265.05	10050.28
265.12	10021.47
265.19	10005.77
265.259	9999.79
265.329	9988.76
265.398	9974.79
265.468	9988.76
265.537	9970.65
265.607	9967.91
265.676	9962.08
265.746	9946.81
265.815	9949.02
265.885	9934.09
265.955	9911.98
266.024	9891.08
266.094	9847.49
266.163	9841.61
266.232	9841.08
266.302	9824.95
266.371	9816.03
266.441	9804.81
266.51	9802.4
266.58	9787.52
266.649	9764.4
266.719	9766.09
266.788	9759.78
266.858	9767.58
266.927	9733.62
266.996	9723.56
267.066	9715.27
267.135	9689.84
267.205	9681.75
267.274	9666.53
267.343	9670.87
267.413	9658.54
267.482	9664.56
267.552	9663.11
267.621	9642.02
267.69	9617.36
267.76	9609.9
267.829	9595.21
267.898	9581.87
267.968	9555.81
268.037	9556.39
268.106	9547.87
268.176	9518.63
268.245	9501.68
268.314	9481.93
268.384	9484.39
268.453	9475.48
268.522	9458.48
268.592	9462.09
268.661	9444.03
268.73	9449.04
268.799	9426.55
268.869	9433.49
268.938	9400.94
269.007	9384.42
269.076	9377.34
269.146	9374.98
269.215	9360.1
269.284	9372.05
269.353	9355.77
269.422	9346.62
269.492	9327.41
269.561	9294.72
269.63	9294.05
269.699	9279.65
269.768	9277.58
269.838	9264.67
269.907	9263.32
269.976	9243.92
270.045	9203.72
270.114	9199.44
270.183	9175.46
270.253	9169.49
270.322	9141.99
270.391	9129.67
270.46	9137.28
270.529	9140.7
270.598	9133.14
270.667	9129.72
270.736	9101.02
270.806	9095.19
270.875	9095.1
270.944	9083.26
271.013	9106.75
271.082	9097.84
271.151	9093.8
271.22	9059.38
271.289	9048.02
271.358	9033.24
271.427	9027.17
271.496	9025.77
271.565	9013.5
271.634	9009.6
271.703	9033.24
271.772	9039.4
271.841	9034.45
271.91	9011.77
271.979	8998.87
272.048	8978.55
272.117	8973.93
272.186	8959.83
272.255	8960.4
272.324	8963.58
272.393	8961.22
272.462	8938.98
272.531	8934.12
272.6	8922.13
272.669	8932.48
272.738	8923.09
272.807	8918.47
272.876	8903.21
272.945	8935.37
273.013	8935.08
273.082	8939.94
273.151	8898.58
273.22	8892.61
273.289	8885.68
273.358	8897.19
273.427	8880.29
273.496	8882.17
273.564	8879.28
273.633	8886.65
273.702	8868.6
273.771	8854.06
273.84	8843.71
273.909	8841.79
273.977	8838.7
274.046	8826.77
274.115	8833.22
274.184	8810.5
274.253	8801.07
274.322	8809.4
274.39	8771.27
274.459	8756.83
274.528	8722.9
274.597	8717.85
274.665	8713.32
274.734	8715.68
274.803	8711.25
274.872	8708.56
274.94	8691.71
275.009	8749.11
275.078	8730.58
275.147	8730.58
275.215	8723.03
275.284	8735.83
275.353	8728.56
275.421	8702.23
275.49	8718.26
275.559	8705.99
275.627	8704.26
275.696	8695.88
275.765	8691.16
275.833	8683.66
275.902	8683.61
275.971	8695.4
276.039	8702.28
276.108	8705.65
276.177	8716.05
276.245	8699.54
276.314	8698.77
276.383	8707.82
276.451	8642.09
276.52	8642.38
276.588	8652.72
276.657	8663.84
276.725	8649.45
276.794	8644.01
276.863	8655.03
276.931	8632.56
277	8638.14
277.068	8648.34
277.137	8668.17
277.205	8671.59
277.274	8694.06
277.342	8708.5
277.411	8691.61
277.48	8677.03
277.548	8668.41
277.617	8661.67
277.685	8655.51
277.754	8658.5
277.822	8648.92
277.89	8661.97
277.959	8654.46
278.027	8639.35
278.096	8623.75
278.164	8652.2
278.233	8648.69
278.301	8637.52
278.37	8644.84
278.438	8628.09
278.507	8629.49
278.575	8603.79
278.643	8598.92
278.712	8578.23
278.78	8558.11
278.849	8570.62
278.917	8584.82
278.985	8574.95
279.054	8582.32
279.122	8593.53
279.191	8588.82
279.259	8584.34
279.327	8559.99
279.396	8575.58
279.464	8568.79
279.532	8577.17
279.601	8577.26
279.669	8566.34
279.737	8581.55
279.806	8582.8
279.874	8592.38
279.942	8593.82
280.011	8591.56
280.079	8594.69
280.147	8613.36
280.215	8617.93
280.284	8611.92
280.352	8596.95
280.42	8611
280.488	8597.96
280.557	8584.72
280.625	8588.05
280.693	8590.11
280.761	8594.54
280.83	8581.4
280.898	8596.37
280.966	8575.34
281.034	8537.32
281.102	8531.35
281.171	8523.94
281.239	8528.66
281.307	8517.25
281.375	8500.02
281.443	8524.57
281.512	8519.42
281.58	8520
281.648	8505.61
281.716	8504.74
281.784	8506.14
281.852	8493.67
281.92	8488.76
281.989	8501.81
282.057	8484.63
282.125	8524.63
282.193	8525.06
282.261	8527.75
282.329	8521.4
282.397	8527.9
282.465	8535.31
282.533	8548.78
282.601	8534.3
282.67	8507.06
282.738	8498.5
282.806	8512.59
282.874	8496.85
282.942	8499.45
283.01	8497.43
283.078	8503.21
283.146	8503.78
283.214	8510.86
283.282	8519.57
283.35	8533.28
283.418	8526.84
283.486	8527.61
283.554	8489.58
283.622	8487.22
283.69	8478.75
283.758	8469.08
283.826	8471.58
283.894	8478.32
283.962	8500.22
284.03	8515.09
284.098	8524.81
284.165	8528.46
284.233	8529.04
284.301	8531.45
284.369	8523.22
284.437	8512.29
284.505	8502.72
284.573	8514.03
284.641	8501.32
284.709	8505.8
284.777	8489.15
284.845	8498.63
284.912	8502.57
284.98	8509.55
285.048	8502.09
285.116	8512.97
285.184	8526.97
285.252	8528.99
285.319	8510.13
285.387	8499.54
285.455	8480.53
285.523	8487.51
285.591	8482.89
285.659	8482.89
285.726	8484.96
285.794	8471.44
285.862	8469.56
285.93	8478.22
285.997	8472.59
286.065	8471.78
286.133	8461.24
286.201	8454.12
286.269	8439.1
286.336	8429.19
286.404	8417.01
286.472	8429.04
286.539	8404.22
286.607	8392.04
286.675	8388.96
286.743	8399.36
286.81	8395.22
286.878	8415.09
286.946	8407.34
287.013	8407.25
287.081	8404.36
287.149	8391.46
287.216	8418.22
287.284	8417.59
287.352	8413.79
287.419	8410.08
287.487	8419.52
287.555	8414.27
287.622	8416.05
287.69	8421.49
287.758	8440.54
287.825	8432.65
287.893	8416.97
287.96	8425.87
288.028	8437.7
288.096	8445.31
288.163	8451.76
288.231	8434.43
288.298	8436.5
288.366	8446.32
288.433	8442.71
288.501	8432.32
288.569	8431.45
288.636	8416.73
288.704	8427.41
288.771	8436.7
288.839	8428.23
288.906	8427.07
288.974	8448.54
289.041	8446.9
289.109	8433.33
289.176	8439.83
289.244	8453.83
289.311	8474.24
289.379	8486.12
289.446	8485.59
289.514	8484.87
289.581	8477.79
289.649	8487.27
289.716	8480.97
289.783	8475.68
289.851	8496.41
289.918	8505.22
289.986	8518.55
290.053	8525.57
290.121	8518.11
290.188	8520.76
290.255	8551.56
290.323	8545.02
290.39	8533.32
290.458	8540.54
290.525	8560.46
290.592	8557.62
290.66	8556.27
290.727	8550.02
290.794	8562.53
290.862	8564.41
290.929	8563.2
290.996	8564.6
291.064	8573.98
291.131	8586.83
291.198	8601.08
291.266	8603.29
291.333	8599.92
291.4	8602.62
291.468	8617.01
291.535	8617.97
291.602	8619.08
291.669	8607.96
291.737	8612.05
291.804	8608.2
291.871	8625.67
291.938	8628.41
292.006	8655.56
292.073	8671.21
292.14	8675.49
292.207	8667.6
292.275	8661.82
292.342	8672.55
292.409	8701.82
292.476	8721.46
292.543	8715.73
292.611	8714.62
292.678	8724.92
292.745	8752.16
292.812	8766.36
292.879	8765.79
292.946	8767.86
293.014	8781.86
293.081	8793.08
293.148	8809.63
293.215	8828.74
293.282	8823.64
293.349	8837.98
293.416	8816.22
293.484	8825.75
293.551	8840.34
293.618	8856.32
293.685	8891.94
293.752	8881.59
293.819	8878.56
293.886	8870.14
293.953	8879.18
294.02	8896.9
294.087	8906.33
294.154	8899.31
294.221	8913.22
294.288	8911.63
294.356	8927.56
294.423	8934.54
294.49	8927.95
294.557	8940.76
294.624	8935.7
294.691	8955.63
294.758	8952.98
294.825	8959.87
294.892	8956.64
294.959	8954.91
295.026	8961.12
295.093	8949.75
295.16	8956.2
295.226	8955.87
295.293	8981.58
295.36	8984.22
295.427	8989.42
295.494	9001.03
295.561	9007.72
295.628	9032.95
295.695	9050.52
295.762	9052.69
295.829	9065.93
295.896	9085.19
295.963	9094.62
296.03	9107.28
296.096	9110.75
296.163	9125.97
296.23	9144.36
296.297	9155.91
296.364	9155.29
296.431	9161.78
296.498	9163.08
296.564	9190.38
296.631	9192.69
296.698	9177.14
296.765	9199.38
296.832	9186.43
296.899	9174.25
296.965	9197.22
297.032	9175.59
297.099	9187.77
297.166	9198.46
297.233	9194.8
297.299	9187.34
297.366	9187.2
297.433	9185.9
297.5	9200.44
297.566	9197.84
297.633	9196.97
297.7	9200.68
297.767	9205.01
297.833	9215.41
297.9	9214.45
297.967	9193.65
298.033	9204.77
298.1	9230.68
298.167	9220.71
298.234	9231.88
298.3	9241.61
298.367	9230.2
298.434	9235.73
298.5	9228.85
298.567	9227.84
298.634	9221.91
298.7	9240.6
298.767	9244.35
298.834	9259.13
298.9	9248.54
298.967	9244.3
299.033	9252.1
299.1	9266.6
299.167	9285.28
299.233	9277.86
299.3	9293.37
299.366	9312.38
299.433	9329.53
299.5	9311.71
299.566	9316.57
299.633	9333.14
299.699	9347.2
299.766	9349.61
299.832	9349.56
299.899	9356.88
299.965	9370.6
300.032	9370.89
300.099	9376.96
300.165	9377.87
300.232	9367.37
300.298	9366.75
300.365	9379.56
300.431	9381.15
300.498	9373.73
300.564	9371.85
300.631	9383.02
300.697	9399.2
300.763	9404.55
300.83	9398.34
300.896	9403.39
300.963	9414.28
301.029	9418.42
301.096	9415.24
301.162	9434.36
301.229	9430.26
301.295	9419.72
301.361	9418.51
301.428	9423.57
301.494	9401.66
301.561	9408.21
301.627	9418.51
301.693	9426.12
301.76	9426.46
301.826	9423.28
301.892	9437.54
301.959	9452.51
302.025	9448.56
302.092	9438.16
302.158	9442.21
302.224	9451.07
302.291	9445.39
302.357	9443.32
302.423	9436.62
302.49	9436.04
302.556	9439.8
302.622	9442.21
302.688	9454.92
302.755	9474.33
302.821	9481.94
302.887	9502.83
302.954	9494.74
303.02	9503.17
303.086	9508.47
303.152	9507.41
303.219	9498.89
303.285	9500.52
303.351	9505.92
303.417	9510.11
303.483	9503.94
303.55	9494.51
303.616	9483.43
303.682	9488.29
303.748	9481.89
303.815	9498.07
303.881	9505.2
303.947	9490.22
304.013	9499.27
304.079	9496.19
304.145	9476.11
304.212	9477.02
304.278	9469.75
304.344	9471.29
304.41	9456.61
304.476	9444.66
304.542	9443.75
304.608	9454.44
304.674	9434.6
304.741	9420.15
304.807	9417.5
304.873	9427.52
304.939	9448.47
305.005	9429.78
305.071	9425.98
305.137	9424.05
305.203	9394.34
305.269	9392.22
305.335	9406.67
305.401	9393.09
305.467	9389.81
305.533	9396.36
305.599	9405.47
305.666	9412.11
305.732	9409.46
305.798	9427.28
305.864	9458.1
305.93	9463.69
305.996	9465.37
306.062	9467.64
306.128	9465.23
306.194	9457.96
306.259	9452.71
306.325	9441.97
306.391	9459.69
306.457	9472.5
306.523	9470.76
306.589	9498.94
306.655	9488.49
306.721	9465.18
306.787	9462.15
306.853	9474.86
306.919	9460.22
306.985	9451.7
307.051	9448.76
307.117	9445.92
307.183	9436.82
307.248	9409.36
307.314	9413.51
307.38	9411.29
307.446	9412.64
307.512	9400.65
307.578	9404.31
307.644	9394.82
307.709	9400.99
307.775	9402
307.841	9393.28
307.907	9397.57
307.973	9371.32
308.039	9374.26
308.104	9385.57
308.17	9380.33
308.236	9360.92
308.302	9364.53
308.368	9351.29
308.433	9343.83
308.499	9343.39
308.565	9325.24
308.631	9326.2
308.696	9299.38
308.762	9287.15
308.828	9291.29
308.894	9277.24
308.959	9252.59
309.025	9244.45
309.091	9232.7
309.156	9219.84
309.222	9223.41
309.288	9214.83
309.354	9196.11
309.419	9193.12
309.485	9173.86
309.551	9183.01
309.616	9167.61
309.682	9163.51
309.748	9159.03
309.813	9157.45
309.879	9143.34
309.945	9139.58
310.01	9132.94
310.076	9141.41
310.141	9133.42
310.207	9118.3
310.273	9124.32
310.338	9135.87
310.404	9123.36
310.469	9118.64
310.535	9110.93
310.601	9086.43
310.666	9087.2
310.732	9097.88
310.797	9084.69
310.863	9078.15
310.928	9069.33
310.994	9076.75
311.059	9071.16
311.125	9066.44
311.191	9072.7
311.256	9064.67
311.322	9068.18
311.387	9049.55
311.453	9366.43
311.518	9339.71
311.584	9333.65
311.649	9334.76
311.715	9317.96
311.78	9322.43
311.846	9308.76
311.911	9311.36
311.976	9311.41
312.042	9303.08
312.107	9284.98
312.173	9281.46
312.238	9277.28
312.304	9273.67
312.369	9263.51
312.434	9254.55
312.5	9248.83
312.565	9222.15
312.631	9230.1
312.696	9222.78
312.761	9220.37
312.827	8888.52
312.892	8932.95
312.958	8926.02
313.023	8923.23
313.088	8927.27
313.154	8911.44
313.219	8894.78
313.284	8887.18
313.35	8888.86
313.415	8876.88
313.48	8877.79
313.546	8877.07
313.611	8889.92
313.676	8876.2
313.741	8866.05
313.807	8874.57
313.872	8878.18
313.937	8880.63
314.003	8891.03
314.068	8892.81
314.133	8906.1
314.198	8896.57
314.264	8874.18
314.329	8868.74
314.394	8868.79
314.459	8867.44
314.525	8887.18
314.59	8890.64
314.655	8878.75
314.72	8880
314.785	8884.09
314.851	8881.06
314.916	8864.41
314.981	8846.55
315.046	8840.68
315.111	8840.48
315.176	8830.18
315.242	8830.28
315.307	8829.94
315.372	8804.33
315.437	8790.76
315.502	8774.68
315.567	8790.95
315.632	8775.02
315.698	8783.35
315.763	8777.86
315.828	8765.01
315.893	8761.73
315.958	8755.33
316.023	8742.87
316.088	8724.87
316.153	8701.72
316.218	8691.85
316.283	8669.34
316.348	8653.6
316.413	8650.62
316.479	8631.18
316.544	8594.46
316.609	8564.62
316.674	8529.49
316.739	8493.17
316.804	8464.54
316.869	8432.21
316.934	8387.59
316.999	8360.36
317.064	8308.11
317.129	8259.85
317.194	8224.2
317.259	8178.29
317.324	8131.2
317.389	8090.37
317.454	8051.3
317.518	8018.69
317.583	8002
317.648	7982.61
317.713	7944.81
317.778	7883.29
317.843	7854.15
317.908	7815.2
317.973	7775.52
318.038	7748.21
318.103	7714.17
318.168	7686.23
318.233	7658.96
318.297	7614.68
318.362	7580.97
318.427	7537.52
318.492	7517.62
318.557	7477.05
318.622	7445.56
318.687	7423.73
318.751	7391.82
318.816	7359.57
318.881	7324.87
318.946	7263.58
319.011	7220.61
319.075	7183.13
319.14	7153.19
319.205	7110.57
319.27	7077.08
319.335	7036.68
319.399	6992.71
319.464	6969.8
319.529	6918.4
319.594	6882.02
319.658	6850.22
319.723	6810.4
319.788	6783.89
319.853	6729.51
319.917	6699.64
319.982	6648.01
320.047	6615.21
320.112	6585.15
320.176	6533.68
320.241	6504.19
320.306	6475.67
320.37	6435.2
320.435	6402.13
320.5	6376.83
320.564	6341.31
320.629	6302.34
320.694	6270.66
320.758	6235.19
320.823	6188.5
320.888	6162.06
320.952	6113.78
321.017	6068.78
321.082	6030.97
321.146	5999.88
321.211	5968.93
321.275	5929.41
321.34	5887.49
321.405	5839.96
321.469	5796.65
321.534	5761.69
321.598	5711.05
321.663	5682.27
321.727	5652.73
321.792	5605.94
321.857	5556.98
321.921	5515.32
321.986	5470.09
322.05	5415.6
322.115	5375
322.179	5334.37
322.244	5274.48
322.308	5239.65
322.373	5199.17
322.437	5154.75
322.502	5131.55
322.566	5082.83
322.631	5047.87
322.695	5009.56
322.76	4965.36
322.824	4929.3
322.889	4883.96
322.953	4838.24
323.018	4770.11
323.082	4705.78
323.146	4654.68
323.211	4607.87
323.275	4562.65
323.34	4524.05
323.404	4488.03
323.468	4444.77
323.533	4404.16
323.597	4364.05
323.662	4314.63
323.726	4281.44
323.79	4238.92
323.855	4172.84
323.919	4128.05
323.983	4084.24
324.048	4022.13
324.112	4170.6
324.177	4041.74
324.241	3834.46
324.305	3631.04
324.37	3432.54
324.434	3240.69
324.498	3201.2
324.562	3151.42
324.627	3096.33
324.691	3042.26
324.755	2979.56
324.82	2905.34
324.884	2826.05
324.948	2757.86
325.012	2662.25
325.077	2538.41
