Data from 20250703_urea_0.1M_MAYP1162681_13-11-05-160.txt Node
Date: Thu Jul 03 13:11:05 BST 2025
User: adleo
Spectrometer: MAYP116268
Trigger mode: 0
Integration Time (sec): 1.000000E0
Scans to average: 1
Electric dark correction enabled: true
Nonlinearity correction enabled: true
Boxcar width: 10
XAxis mode: Wavelengths
Number of Pixels in Spectrum: 2068
>>>>>Begin Spectral Data<<<<<
179.565	1208.78
179.642	1263.36
179.718	1305.63
179.795	1341.5
179.871	1374.25
179.948	1389.69
180.024	1409.88
180.101	1431.49
180.177	1446.15
180.254	1468.87
180.33	1488.39
180.407	1541.61
180.483	1636.91
180.56	1725.28
180.636	1809.13
180.712	1798.33
180.789	1807.55
180.865	1818.77
180.942	1825.42
181.018	1834.4
181.095	1848.81
181.171	1852.52
181.248	1855.09
181.324	1870.54
181.4	1880.52
181.477	1891.22
181.553	1906.14
181.63	1927.4
181.706	1944.99
181.782	1951.79
181.859	1951.41
181.935	1960.25
182.011	1957.44
182.088	1973.37
182.164	1993.02
182.24	2005.85
182.317	2014.84
182.393	2014.79
182.469	2031.1
182.546	2047.22
182.622	2052.74
182.698	2045.7
182.775	2057.59
182.851	2070.86
182.927	2061.87
183.003	2054.36
183.08	2047.27
183.156	2055.74
183.232	2048.98
183.308	2036.57
183.385	2044.8
183.461	2062.78
183.537	2063.16
183.613	2077.14
183.69	2069.01
183.766	2060.16
183.842	2067.91
183.918	2075.85
183.995	2088.93
184.071	2092.17
184.147	2082.75
184.223	2070.72
184.299	2087.04
184.375	2077.62
184.452	2084.71
184.528	2136.66
184.604	2149.41
184.68	2162.34
184.756	2171.62
184.832	2178.23
184.908	2183.99
184.985	2184.13
185.061	2167.86
185.137	2176.42
185.213	2163.01
185.289	2164.77
185.365	2158.11
185.441	2156.54
185.517	2164.73
185.593	2159.78
185.669	2156.45
185.745	2166.72
185.822	2185.22
185.898	2173.66
185.974	2179.75
186.05	2172.61
186.126	2139.78
186.202	2131.94
186.278	2127.75
186.354	2116.43
186.43	2122.85
186.506	2120.14
186.582	2121.66
186.658	2127.32
186.734	2108.58
186.81	2113.1
186.886	2116.62
186.962	2129.18
187.038	2128.32
187.114	2121.04
187.19	2130.46
187.266	2120.8
187.341	2123.76
187.417	2116.43
187.493	2117.52
187.569	2121.19
187.645	2114.81
187.721	2103.35
187.797	2111.53
187.873	2116.71
187.949	2109.96
188.025	2104.06
188.101	2105.44
188.176	2111.14
188.252	2107.77
188.328	2114.14
188.404	2111.76
188.48	2108.67
188.556	2101.58
188.632	2099.06
188.707	2102.25
188.783	2096.44
188.859	2089.41
188.935	2078.04
189.011	2084.79
189.086	2078.28
189.162	2071.57
189.238	2068.15
189.314	2063.91
189.39	2057.25
189.465	2048.93
189.541	2065.96
189.617	2051.55
189.693	2047.89
189.768	2050.69
189.844	2073.87
189.92	2065.07
189.996	2073.49
190.071	2079.29
190.147	2078.25
190.223	2088.57
190.298	2078.06
190.374	2065.6
190.45	2077.91
190.526	2086.76
190.601	2081.62
190.677	2083.1
190.753	2108.13
190.828	2111.84
190.904	2126.78
190.98	2144.43
191.055	2157.65
191.131	2151.51
191.207	2172.59
191.282	2182.81
191.358	2171.68
191.433	2158.69
191.509	2174.47
191.585	2171.29
191.66	2173.95
191.736	2180.94
191.811	2171
191.887	2188.65
191.963	2212.97
192.038	2220.2
192.114	2219.86
192.189	2225.19
192.265	2224.33
192.34	2203.73
192.416	2204.39
192.491	2200.44
192.567	2201.06
192.642	2203.39
192.718	2201.49
192.793	2189.21
192.869	2185.84
192.944	2188.88
193.02	2199.49
193.095	2204.2
193.171	2209.72
193.246	2208.15
193.322	2207.34
193.397	2210.44
193.473	2196.35
193.548	2176.74
193.624	2183.31
193.699	2182.08
193.775	2196.31
193.85	2195.36
193.925	2204.44
194.001	2201.21
194.076	2194.74
194.152	2187.7
194.227	2180.18
194.302	2171.38
194.378	2176.18
194.453	2175.71
194.529	2188.22
194.604	2169
194.679	2163.57
194.755	2147.59
194.83	2161.78
194.905	2159.35
194.981	2164.44
195.056	2158.64
195.131	2165.63
195.207	2162.49
195.282	2154.64
195.357	2136.27
195.433	2154.3
195.508	2141.98
195.583	2147.69
195.659	2162.39
195.734	2169.39
195.809	2168.72
195.884	2177.85
195.96	2177.71
196.035	2190.65
196.11	2184.51
196.185	2198.36
196.261	2200.02
196.336	2229.52
196.411	2215.29
196.486	2218.14
196.561	2212.67
196.637	2220.85
196.712	2235.08
196.787	2238.27
196.862	2250.83
196.937	2259.06
197.013	2262.68
197.088	2274.15
197.163	2298.9
197.238	2313.05
197.313	2308.67
197.388	2321.8
197.464	2354.66
197.539	2362.75
197.614	2354.51
197.689	2370.36
197.764	2385.74
197.839	2407.64
197.914	2402.45
197.989	2424.54
198.065	2441.92
198.14	2490.89
198.215	2521.12
198.29	2536.8
198.365	2548.32
198.44	2561.51
198.515	2592.18
198.59	2607.18
198.665	2631.18
198.74	2638.19
198.815	2641.38
198.89	2666.86
198.965	2698.88
199.04	2692.21
199.115	2714.45
199.19	2759.23
199.265	2757.27
199.34	2765.99
199.415	2796.22
199.49	2819.61
199.565	2828.47
199.64	2850.44
199.715	2850.06
199.79	2851.63
199.865	2858.54
199.94	2857.3
200.015	2889.72
200.09	2894.05
200.165	2903.35
200.24	2914.74
200.315	2957.49
200.39	2971.93
200.464	2978.46
200.539	2974.46
200.614	2990.76
200.689	3014.07
200.764	3021.56
200.839	3046.1
200.914	3057.11
200.989	3049.43
201.063	3061.64
201.138	3047.49
201.213	3048.11
201.288	3028.13
201.363	3036.95
201.438	3036.95
201.512	3055.83
201.587	3036.66
201.662	3043.76
201.737	3053.82
201.812	3062.22
201.886	3032.05
201.961	3042.31
202.036	3032.16
202.111	3033.83
202.186	3005.48
202.26	2987.74
202.335	2967.9
202.41	2961.7
202.485	2943.83
202.559	2927.15
202.634	2904.79
202.709	2916.46
202.784	2903.07
202.858	2908.21
202.933	2895.2
203.008	2895.92
203.082	2882.05
203.157	2890.87
203.232	2853.22
203.306	2841.83
203.381	2823.23
203.456	2807.46
203.53	2798.92
203.605	2791.53
203.68	2785.67
203.754	2797.24
203.829	2798.67
203.904	2794.76
203.978	2803.68
204.053	2825.94
204.127	2838.04
204.202	2862.64
204.277	2874.7
204.351	2894.11
204.426	2921.82
204.5	2948.71
204.575	2948.43
204.65	2998.66
204.724	3031.35
204.799	3083.02
204.873	3126.26
204.948	3169.53
205.022	3211.79
205.097	3256.05
205.171	3325.53
205.246	3390.14
205.32	3454.6
205.395	3524.95
205.469	3590.39
205.544	3672
205.618	3737.64
205.693	3827.81
205.767	3902.65
205.842	4013.62
205.916	4103.54
205.991	4187.28
206.065	4294
206.14	4414.25
206.214	4517.52
206.289	4620.29
206.363	4750.55
206.438	4868.51
206.512	4996.86
206.586	5136.96
206.661	5278.22
206.735	5391.19
206.81	5529.96
206.884	5679.09
206.958	5807.56
207.033	5969.56
207.107	6128.01
207.181	6313.1
207.256	6455.27
207.33	6626.71
207.405	6790.78
207.479	6967.25
207.553	7135.9
207.628	7278.83
207.702	7451.21
207.776	7602.05
207.851	7780.62
207.925	7964.25
207.999	8142.79
208.073	8320.35
208.148	8506.65
208.222	8677.31
208.296	8894.62
208.371	9094.85
208.445	9295.36
208.519	9508.39
208.593	9705.72
208.668	9881.42
208.742	10070.79
208.816	10263.73
208.89	10469.39
208.965	10662.35
209.039	10864.19
209.113	11077.64
209.187	11296.14
209.261	11496.16
209.336	11723.09
209.41	11938.95
209.484	12137.19
209.558	12352.64
209.632	12561.82
209.707	12769.81
209.781	12978.91
209.855	13192.16
209.929	13401.02
210.003	13599.53
210.077	13793.64
210.151	14028.92
210.226	14261.7
210.3	14472.87
210.374	14678.08
210.448	14860.24
210.522	15053.48
210.596	15243.98
210.67	15438.18
210.744	15670.89
210.818	15880.32
210.892	16077.84
210.966	16245.43
211.041	16434.56
211.115	16598.43
211.189	16791.27
211.263	16974.51
211.337	17152.83
211.411	17330.62
211.485	17490.04
211.559	17661.81
211.633	17819.59
211.707	17951.01
211.781	18120.07
211.855	18257.8
211.929	18427.82
212.003	18580.78
212.077	18748.15
212.151	18921.92
212.225	19078.59
212.299	19212.71
212.373	19354
212.447	19494.38
212.52	19663.15
212.594	19811.68
212.668	19973.12
212.742	20103.14
212.816	20244.73
212.89	20384.83
212.964	20515.34
213.038	20655.44
213.112	20804.8
213.186	20951.55
213.26	21067.61
213.333	21137.83
213.407	21265.46
213.481	21381.13
213.555	21512.95
213.629	21618.17
213.703	21720.6
213.777	21842.27
213.85	21947.11
213.924	22092.36
213.998	22207.48
214.072	22318.22
214.146	22409.14
214.219	22516.84
214.293	22624.59
214.367	22720.29
214.441	22833.55
214.515	22928.97
214.588	23009.59
214.662	23076.37
214.736	23151.58
214.81	23249.46
214.883	23359.29
214.957	23436.49
215.031	23518.37
215.105	23579.8
215.178	23663.32
215.252	23743.72
215.326	23801.78
215.4	23862.79
215.473	23907.65
215.547	23962.35
215.621	24017.19
215.694	24105.41
215.768	24154.47
215.842	24208.34
215.915	24267.63
215.989	24295.51
216.063	24358.13
216.136	24415.68
216.21	24472.89
216.284	24552.73
216.357	24619.83
216.431	24680.48
216.504	24746.86
216.578	24831.35
216.652	24899.27
216.725	24953.55
216.799	25007.31
216.873	25056.13
216.946	25108.87
217.02	25140.43
217.093	25188.1
217.167	25225.4
217.24	25254.55
217.314	25302.03
217.387	25349.51
217.461	25391.89
217.535	25469.88
217.608	25490.44
217.682	25533.48
217.755	25590.67
217.829	25623.83
217.902	25660.71
217.976	25687.88
218.049	25713.12
218.123	25734.22
218.196	25779.68
218.27	25808.36
218.343	25834.13
218.417	25877.48
218.49	25911.99
218.563	25959.01
218.637	25999.7
218.71	26051.98
218.784	26092.34
218.857	26127.1
218.931	26158.57
219.004	26184.64
219.077	26201.01
219.151	26238.37
219.224	26257.92
219.298	26279.55
219.371	26320.84
219.444	26324.8
219.518	26359.02
219.591	26387.12
219.665	26437.25
219.738	26458.97
219.811	26471
219.885	26501.08
219.958	26525.17
220.031	26547.33
220.105	26572.3
220.178	26584.52
220.251	26601.56
220.325	26629.48
220.398	26641.21
220.471	26658.45
220.544	26677.33
220.618	26688.97
220.691	26704.76
220.764	26722.77
220.838	26743.77
220.911	26736.38
220.984	26774.39
221.057	26794.62
221.131	26814.08
221.204	26787.76
221.277	26822.63
221.35	26860.1
221.424	26864.06
221.497	26874.16
221.57	26875.61
221.643	26887.68
221.716	26906.95
221.79	26894.93
221.863	26888.74
221.936	26897.05
222.009	26900.48
222.082	26908.25
222.155	26903.38
222.229	26922.45
222.302	26921.2
222.375	26916.37
222.448	26926.51
222.521	26927.33
222.594	26917.67
222.667	26898.5
222.74	26907.19
222.814	26896.18
222.887	26879.95
222.96	26878.74
223.033	26876.57
223.106	26874.06
223.179	26863.92
223.252	26856.48
223.325	26847.21
223.398	26830.93
223.471	26823.5
223.544	26809.88
223.617	26801.72
223.69	26783.32
223.763	26756.37
223.837	26763.33
223.91	26756.18
223.983	26720.88
224.056	26689.3
224.129	26677.9
224.202	26669.16
224.275	26639.47
224.348	26594.61
224.42	26561.82
224.493	26524.89
224.566	26499.73
224.639	26483.84
224.712	26457.09
224.785	26435.21
224.858	26416.72
224.931	26399.53
225.004	26369.16
225.077	26345.65
225.15	26297.28
225.223	26284.15
225.296	26282.26
225.369	26230.75
225.442	26195.5
225.514	26180.78
225.587	26159.83
225.66	26130.33
225.733	26114.59
225.806	26110.53
225.879	26084.66
225.952	26052.71
226.025	26047.98
226.097	26028.09
226.17	26002.07
226.243	25959.3
226.316	25927.24
226.389	25913.44
226.461	25896.73
226.534	25876.61
226.607	25846.39
226.68	25837.27
226.753	25805.07
226.825	25753.47
226.898	25746.86
226.971	25711.72
227.044	25685.99
227.117	25659.79
227.189	25635.65
227.262	25617.22
227.335	25578.22
227.407	25547.86
227.48	25525.86
227.553	25490.19
227.626	25449.55
227.698	25416.88
227.771	25390.19
227.844	25344.54
227.916	25308.64
227.989	25267.42
228.062	25223.41
228.134	25217.33
228.207	25181.58
228.28	25150.21
228.352	25118.75
228.425	25080.34
228.498	25056.07
228.57	25015.73
228.643	25000.29
228.716	24971.1
228.788	24920.53
228.861	24879.71
228.934	24865.23
229.006	24839.76
229.079	24799.62
229.151	24765.02
229.224	24714.81
229.296	24689.14
229.369	24683.69
229.442	24659.32
229.514	24609.63
229.587	24597.09
229.659	24550.34
229.732	24526.17
229.804	24501.33
229.877	24487.82
229.949	24466.11
230.022	24459.16
230.094	24417.2
230.167	24381.79
230.239	24330.51
230.312	24302.87
230.384	24299.78
230.457	24265.15
230.529	24231.82
230.602	24220.39
230.674	24193.71
230.747	24181.12
230.819	24160.38
230.892	24102.02
230.964	24079.69
231.037	24058.08
231.109	24024.32
231.181	23987.71
231.254	23945.12
231.326	23900.85
231.399	23860.19
231.471	23811.14
231.544	23750.85
231.616	23737.83
231.688	23694.52
231.761	23659.17
231.833	23609.41
231.905	23546.42
231.978	23509.67
232.05	23475.19
232.122	23426.53
232.195	23392.39
232.267	23368.18
232.339	23327.77
232.412	23306.46
232.484	23256.26
232.556	23196.28
232.629	23179.4
232.701	23154.32
232.773	23119.46
232.846	23084.17
232.918	23042.6
232.99	23012.37
233.062	22987.39
233.135	22955.62
233.207	22911.99
233.279	22887.88
233.351	22867.63
233.424	22830.31
233.496	22783.31
233.568	22762.77
233.64	22718.51
233.713	22673.04
233.785	22630.62
233.857	22595.32
233.929	22544.27
234.001	22518.09
234.074	22518.72
234.146	22456.28
234.218	22412.8
234.29	22376.4
234.362	22333.79
234.434	22283.99
234.507	22227.35
234.579	22172.39
234.651	22134.69
234.723	22103.89
234.795	22069.37
234.867	22019.53
234.939	21986.27
235.012	21948.57
235.084	21910.2
235.156	21879.06
235.228	21836.07
235.3	21792.44
235.372	21747.9
235.444	21722.12
235.516	21661.23
235.588	21613.32
235.66	21571.15
235.732	21520.54
235.804	21542.57
235.876	21517.74
235.948	21500.2
236.02	21479.42
236.092	21434.84
236.164	21384.33
236.236	21342.93
236.308	21293.53
236.38	21262.92
236.452	21217.86
236.524	21179.83
236.596	21159.39
236.668	21127.24
236.74	21089.36
236.812	21049.65
236.884	21019.91
236.956	20977.31
237.028	20931.81
237.1	20885.11
237.172	20872.87
237.244	20849.88
237.316	20765.63
237.388	20703.65
237.46	20655.26
237.532	20629.43
237.604	20590.2
237.675	20559.5
237.747	20528.8
237.819	20480.9
237.891	20438.92
237.963	20397.96
238.035	20358.78
238.107	20276.32
238.178	20235.31
238.25	20195.94
238.322	20175.7
238.394	20119.36
238.466	20077.19
238.538	20046.3
238.609	20017
238.681	19953
238.753	19906.4
238.825	19861.97
238.897	19833.63
238.968	19797.44
239.04	19743.47
239.112	19728
239.184	19672.53
239.255	19629.26
239.327	19591.86
239.399	19553.98
239.471	19522.42
239.542	19489.84
239.614	19458.76
239.686	19395.44
239.758	19365.66
239.829	19323.88
239.901	19293.76
239.973	19254.29
240.044	19217.18
240.116	19174.44
240.188	19130.25
240.259	19091.99
240.331	19043.41
240.403	19012.76
240.474	18962.31
240.546	18910.45
240.618	18848.19
240.689	18814.08
240.761	18766.61
240.833	18748.3
240.904	18707.96
240.976	18662.28
241.048	18625.32
241.119	18598.43
241.191	18577.32
241.262	18553.27
241.334	18504.65
241.405	18466.14
241.477	18428.89
241.549	18382.2
241.62	18342.54
241.692	18303.84
241.763	18273.05
241.835	18239.6
241.906	18195.41
241.978	18142.26
242.049	18117.82
242.121	18092.33
242.192	18060.19
242.264	18010.84
242.335	17952.24
242.407	17922.89
242.478	17880.24
242.55	17841.06
242.621	17792.97
242.693	17744.82
242.764	17693.69
242.836	17651.76
242.907	17617.02
242.979	17576.2
243.05	17543.19
243.122	17501.55
243.193	17468.92
243.264	17408.54
243.336	17365.26
243.407	17335.14
243.479	17323.53
243.55	17291.96
243.622	17265.36
243.693	17234.56
243.764	17215.57
243.836	17173.69
243.907	17136.49
243.978	17101.3
244.05	17068.19
244.121	17024.19
244.192	17002.6
244.264	16956.14
244.335	16918.98
244.407	16868.14
244.478	16842.98
244.549	16813.05
244.62	16775.36
244.692	16738.73
244.763	16709.86
244.834	16671.55
244.906	16637.04
244.977	16605.62
245.048	16587.11
245.119	16542.29
245.191	16497.47
245.262	16446.33
245.333	16429.46
245.405	16388.83
245.476	16360.35
245.547	16325.35
245.618	16296.77
245.689	16258.89
245.761	16225.25
245.832	16188.38
245.903	16164.28
245.974	16123.6
246.045	16079.59
246.117	16063.45
246.188	16019.1
246.259	15982.76
246.33	15951.29
246.401	15907.91
246.473	15854.45
246.544	15805.92
246.615	15776.23
246.686	15738.44
246.757	15718.29
246.828	15670.09
246.899	15653.27
246.97	15605.16
247.042	15564.24
247.113	15537.39
247.184	15524.19
247.255	15486.25
247.326	15455.36
247.397	15421.47
247.468	15387.97
247.539	15360.83
247.61	15306.75
247.681	15283.9
247.752	15259.13
247.823	15221.38
247.894	15196.08
247.965	15159.1
248.037	15123.15
248.108	15082.75
248.179	15044.24
248.25	15009.97
248.321	14990.49
248.392	14941.9
248.463	14930.29
248.534	14888.59
248.605	14868.44
248.675	14838.22
248.746	14823.76
248.817	14798.35
248.888	14777.91
248.959	14740.8
249.03	14720.36
249.101	14693.22
249.172	14655.81
249.243	14603.27
249.314	14587.89
249.385	14550.73
249.456	14528.36
249.527	14504.45
249.598	14477.74
249.669	14462.51
249.739	14437.78
249.81	14408.62
249.881	14363.69
249.952	14338.19
250.023	14317.51
250.094	14265.78
250.165	14222.16
250.235	14189.19
250.306	14166.48
250.377	14127.48
250.448	14104.54
250.519	14053.44
250.59	14044.33
250.66	14018.54
250.731	14020.85
250.802	13991.45
250.873	13978.86
250.944	13954.28
251.014	13911.47
251.085	13911.23
251.156	13881.82
251.227	13871.03
251.297	13866.69
251.368	13862.16
251.439	13850.49
251.51	13841.38
251.58	13809.03
251.651	13779.58
251.722	13762.27
251.792	13715.27
251.863	13682.88
251.934	13676.27
252.005	13684.32
252.075	13655.59
252.146	13640.41
252.217	13620.83
252.287	13606.08
252.358	13570.75
252.429	13564.58
252.499	13540.18
252.57	13513.43
252.641	13499.64
252.711	13472.89
252.782	13426.18
252.852	13419.67
252.923	13388.53
252.994	13362.78
253.064	13355.7
253.135	13323.06
253.205	13301.42
253.276	13301.37
253.347	13292.5
253.417	13251.28
253.488	13220.86
253.558	13199.12
253.629	13175.16
253.699	13157.33
253.77	13145.04
253.841	13131.35
253.911	13107.43
253.982	13089.79
254.052	13071.95
254.123	13055.23
254.193	13030.55
254.264	13050.55
254.334	13018.25
254.405	12991.88
254.475	12961.56
254.546	12933.31
254.616	12921.79
254.687	12902.61
254.757	12886.36
254.827	12862.69
254.898	12848.23
254.968	12821.53
255.039	12795.59
255.109	12778.04
255.18	12747.63
255.25	12699.04
255.321	12677.78
255.391	12645.09
255.461	12646.06
255.532	12600.22
255.602	12565.17
255.673	12526.66
255.743	12482.55
255.813	12437.38
255.884	12422.53
255.954	12409.61
256.024	12413.47
256.095	12393.95
256.165	12355.77
256.235	12336.39
256.306	12316.15
256.376	12303.08
256.446	12292.53
256.517	12274.31
256.587	12268.33
256.657	12246.45
256.728	12236.95
256.798	12220.99
256.868	12201.18
256.938	12167.59
257.009	12157.99
257.079	12159.25
257.149	12168.84
257.219	12135.72
257.29	12120.83
257.36	12076
257.43	12066.84
257.5	12023.7
257.571	12003.99
257.641	11990.64
257.711	11957.76
257.781	11941.96
257.852	11923.98
257.922	11884.98
257.992	11859.24
258.062	11839.72
258.132	11827.91
258.202	11802.56
258.273	11785.21
258.343	11780.44
258.413	11758.17
258.483	11739.9
258.553	11701.68
258.623	11667.55
258.693	11660.8
258.764	11665.14
258.834	11669.91
258.904	11652.8
258.974	11631.4
259.044	11613.62
259.114	11597.09
259.184	11581.66
259.254	11557.04
259.324	11525.95
259.394	11519.3
259.464	11527.49
259.535	11504.02
259.605	11487.49
259.675	11461.85
259.745	11445.89
259.815	11412.88
259.885	11386.86
259.955	11395.97
260.025	11373.6
260.095	11358.81
260.165	11338.86
260.235	11335.38
260.305	11302.9
260.375	11272.06
260.445	11273.5
260.515	11265.12
260.585	11255.72
260.655	11236.01
260.725	11235.09
260.795	11233.74
260.865	11235.86
260.934	11206.08
261.004	11193.45
261.074	11176.87
261.144	11174.8
261.214	11168.97
261.284	11162.9
261.354	11160.97
261.424	11131.57
261.494	11140.1
261.564	11124.92
261.634	11116.92
261.703	11075.14
261.773	11067.62
261.843	11063.52
261.913	11048.68
261.983	11020.44
262.053	11019.48
262.123	11003.87
262.192	10972.54
262.262	10969.27
262.332	10935.34
262.402	10928.88
262.472	10913.94
262.541	10876.84
262.611	10870.29
262.681	10843.74
262.751	10830.39
262.821	10812.61
262.89	10783.02
262.96	10765.53
263.03	10766.2
263.1	10749.48
263.169	10742.64
263.239	10736.18
263.309	10730.06
263.379	10724.52
263.448	10705.92
263.518	10689.78
263.588	10679.23
263.657	10678.5
263.727	10664.29
263.797	10650.51
263.867	10629.31
263.936	10600.54
264.006	10594.33
264.076	10578.28
264.145	10556.17
264.215	10528.42
264.285	10523.74
264.354	10496.52
264.424	10476.33
264.494	10450.75
264.563	10434.8
264.633	10432.25
264.702	10417.31
264.772	10385.8
264.842	10364.21
264.911	10359.97
264.981	10326.54
265.05	10310.06
265.12	10288.43
265.19	10270.99
265.259	10271.71
265.329	10266.07
265.398	10255.33
265.468	10270.31
265.537	10252.68
265.607	10248.87
265.676	10250.37
265.746	10237.41
265.815	10233.99
265.885	10214.33
265.955	10191.45
266.024	10172.04
266.094	10140.87
266.163	10144.34
266.232	10146.41
266.302	10128.97
266.371	10123.57
266.441	10117.94
266.51	10113.07
266.58	10105.41
266.649	10092.84
266.719	10084.84
266.788	10067.02
266.858	10072.03
266.927	10033.34
266.996	10023.32
267.066	10010.94
267.135	9984.5
267.205	9978.62
267.274	9966.87
267.343	9971.49
267.413	9954.3
267.482	9960.08
267.552	9957.77
267.621	9928.53
267.69	9895.73
267.76	9882.87
267.829	9871.59
267.898	9861.62
267.968	9838.22
268.037	9833.4
268.106	9822.46
268.176	9793.85
268.245	9788.17
268.314	9768.71
268.384	9770.68
268.453	9755.46
268.522	9749.49
268.592	9748.91
268.661	9728.3
268.73	9720.83
268.799	9702.48
268.869	9710.38
268.938	9678.3
269.007	9660.48
269.076	9648.2
269.146	9649.94
269.215	9641.56
269.284	9645.84
269.353	9628.84
269.422	9617.58
269.492	9594.84
269.561	9554.97
269.63	9553.43
269.699	9530.02
269.768	9523.76
269.838	9511
269.907	9515
269.976	9492.12
270.045	9467.9
270.114	9461.69
270.183	9449.7
270.253	9444.83
270.322	9416.42
270.391	9408.53
270.46	9418.64
270.529	9414.26
270.598	9411.17
270.667	9402.22
270.736	9376.5
270.806	9363.79
270.875	9362.59
270.944	9352.71
271.013	9372.94
271.082	9361.38
271.151	9362.49
271.22	9328.83
271.289	9319.78
271.358	9298.54
271.427	9293.68
271.496	9277.07
271.565	9260.41
271.634	9248.28
271.703	9268.36
271.772	9272.55
271.841	9259.02
271.91	9229.12
271.979	9223.92
272.048	9202.64
272.117	9199.85
272.186	9185.83
272.255	9194.93
272.324	9194.65
272.393	9188.58
272.462	9176.73
272.531	9165.71
272.6	9150.49
272.669	9154.39
272.738	9136.63
272.807	9133.26
272.876	9112.32
272.945	9145.01
273.013	9147.94
273.082	9155.12
273.151	9104.65
273.22	9094.93
273.289	9087.42
273.358	9099.12
273.427	9088.53
273.496	9086.84
273.564	9075.77
273.633	9078.27
273.702	9052.56
273.771	9043.8
273.84	9042.89
273.909	9036.63
273.977	9035.9
274.046	9027.96
274.115	9037.97
274.184	9033.11
274.253	9025.22
274.322	9035.18
274.39	9002.92
274.459	8988.58
274.528	8960.27
274.597	8953.29
274.665	8956.9
274.734	8966.05
274.803	8952.71
274.872	8945.4
274.94	8925.9
275.009	8955.66
275.078	8942.13
275.147	8941.51
275.215	8931.97
275.284	8938.09
275.353	8926.44
275.421	8906.8
275.49	8920.86
275.559	8909.59
275.627	8894.19
275.696	8883.22
275.765	8880.18
275.833	8868.54
275.902	8867.91
275.971	8873.11
276.039	8891.3
276.108	8889.04
276.177	8884.52
276.245	8877.58
276.314	8874.36
276.383	8886.15
276.451	8853.31
276.52	8852.59
276.588	8866.17
276.657	8874.35
276.725	8857.98
276.794	8858.32
276.863	8862.8
276.931	8837.19
277	8839.3
277.068	8856
277.137	8879.83
277.205	8878.58
277.274	8902.22
277.342	8908.18
277.411	8891.87
277.48	8871.56
277.548	8862.65
277.617	8852.78
277.685	8845.37
277.754	8847.97
277.822	8837.43
277.89	8850.43
277.959	8838.73
278.027	8819.62
278.096	8800.32
278.164	8826.7
278.233	8819.82
278.301	8815.01
278.37	8817.41
278.438	8807.5
278.507	8803.36
278.575	8773.66
278.643	8775.15
278.712	8750.36
278.78	8735.97
278.849	8749.35
278.917	8764.6
278.985	8754.21
279.054	8760.8
279.122	8771.25
279.191	8777.94
279.259	8779.58
279.327	8760.13
279.396	8780.15
279.464	8775.87
279.532	8789.58
279.601	8783.57
279.669	8778.8
279.737	8790.45
279.806	8790.59
279.874	8796.75
279.942	8796.61
280.011	8790.11
280.079	8786.02
280.147	8803.35
280.215	8808.64
280.284	8804.99
280.352	8791.94
280.42	8809.17
280.488	8808.26
280.557	8797.91
280.625	8785.54
280.693	8781.54
280.761	8783.85
280.83	8763.4
280.898	8776.34
280.966	8756.03
281.034	8722.39
281.102	8704.01
281.171	8693.61
281.239	8707.28
281.307	8703.86
281.375	8693.66
281.443	8722.11
281.512	8721.58
281.58	8729.62
281.648	8718.11
281.716	8717.1
281.784	8712.39
281.852	8698.23
281.92	8691.98
281.989	8704.06
282.057	8688.61
282.125	8740.13
282.193	8734.54
282.261	8738.49
282.329	8729.97
282.397	8734.2
282.465	8743.64
282.533	8767.89
282.601	8757.25
282.67	8734.01
282.738	8721.3
282.806	8735.4
282.874	8719.71
282.942	8730.92
283.01	8720.24
283.078	8720.82
283.146	8716.34
283.214	8725.34
283.282	8732.7
283.35	8749.02
283.418	8738.43
283.486	8746.66
283.554	8697.31
283.622	8690.77
283.69	8686
283.758	8691.58
283.826	8693.56
283.894	8702.94
283.962	8720.66
284.03	8739.28
284.098	8742.85
284.165	8735.34
284.233	8733.9
284.301	8729.37
284.369	8713.01
284.437	8707.95
284.505	8708.34
284.573	8728.89
284.641	8721.09
284.709	8724.65
284.777	8702.7
284.845	8709.35
284.912	8715.31
284.98	8719.36
285.048	8718.64
285.116	8729.56
285.184	8733.75
285.252	8738.13
285.319	8727.2
285.387	8715.46
285.455	8698.03
285.523	8699.43
285.591	8705.83
285.659	8705.15
285.726	8713.39
285.794	8698.56
285.862	8694.81
285.93	8692.55
285.997	8679.21
286.065	8674.84
286.133	8662.95
286.201	8661.65
286.269	8657.41
286.336	8649.52
286.404	8641.14
286.472	8648.65
286.539	8625.84
286.607	8612.12
286.675	8610.78
286.743	8611.11
286.81	8604.81
286.878	8621.08
286.946	8620.35
287.013	8616.17
287.081	8618.14
287.149	8602.74
287.216	8617.27
287.284	8612.41
287.352	8611.93
287.419	8611.69
287.487	8627.91
287.555	8634.31
287.622	8634.98
287.69	8638.02
287.758	8648.61
287.825	8647.45
287.893	8637.1
287.96	8643.55
288.028	8652.79
288.096	8659.29
288.163	8665.26
288.231	8654.48
288.298	8647.64
288.366	8655.54
288.433	8652.5
288.501	8638.16
288.569	8643.26
288.636	8644.51
288.704	8661.55
288.771	8675.37
288.839	8666.9
288.906	8661.7
288.974	8668.24
289.041	8659.53
289.109	8648.61
289.176	8657.75
289.244	8655.73
289.311	8675.71
289.379	8692.26
289.446	8696.02
289.514	8691.2
289.581	8691.3
289.649	8691.3
289.716	8694.86
289.783	8690.24
289.851	8712.86
289.918	8717
289.986	8730.43
290.053	8736.83
290.121	8732.93
290.188	8730.81
290.255	8760.08
290.323	8753.53
290.39	8750.45
290.458	8767.78
290.525	8777.98
290.592	8766.76
290.66	8772.3
290.727	8762.53
290.794	8769.89
290.862	8764.21
290.929	8767.29
290.996	8768.74
291.064	8779.08
291.131	8792.22
291.198	8803.73
291.266	8796.7
291.333	8804.21
291.4	8808.64
291.468	8823.9
291.535	8822.98
291.602	8832.23
291.669	8823.66
291.737	8827.07
291.804	8828.86
291.871	8841.71
291.938	8850.42
292.006	8883.25
292.073	8897.07
292.14	8912.04
292.207	8907.56
292.275	8909.68
292.342	8920.94
292.409	8945.11
292.476	8973.23
292.543	8963.99
292.611	8966.15
292.678	8983.29
292.745	9000.62
292.812	9008.37
292.879	9003.79
292.946	9008.08
293.014	9011.88
293.081	9022.67
293.148	9036.58
293.215	9050.97
293.282	9045.58
293.349	9060.22
293.416	9038.69
293.484	9044.95
293.551	9049
293.618	9062.67
293.685	9093.1
293.752	9089.44
293.819	9083.56
293.886	9067.39
293.953	9070.37
294.02	9081.25
294.087	9087.89
294.154	9078.75
294.221	9092.86
294.288	9097.09
294.356	9110.67
294.423	9124.97
294.49	9118.66
294.557	9131.56
294.624	9122.61
294.691	9142.59
294.758	9137.29
294.825	9148.27
294.892	9151.5
294.959	9151.35
295.026	9159.3
295.093	9151.25
295.16	9150.68
295.226	9151.88
295.293	9176.87
295.36	9190.01
295.427	9202.92
295.494	9218.52
295.561	9234.6
295.628	9255.26
295.695	9267.88
295.762	9268.98
295.829	9273.27
295.896	9285.93
295.963	9293.06
296.03	9301.24
296.096	9300.71
296.163	9313.81
296.23	9330.9
296.297	9341.88
296.364	9342.07
296.431	9348.82
296.498	9340.39
296.564	9362.01
296.631	9368.94
296.698	9357.87
296.765	9375.78
296.832	9360.23
296.899	9348.09
296.965	9363.55
297.032	9340.09
297.099	9356.37
297.166	9361.28
297.233	9362.63
297.299	9358.06
297.366	9359.74
297.433	9363.69
297.5	9376.26
297.566	9371.73
297.633	9370.43
297.7	9374.77
297.767	9376.4
297.833	9377.46
297.9	9384.88
297.967	9373.37
298.033	9381.8
298.1	9413.73
298.167	9405.45
298.234	9418.64
298.3	9429.23
298.367	9431.88
298.434	9446.95
298.5	9436.7
298.567	9436.74
298.634	9436.84
298.7	9450.61
298.767	9455.86
298.834	9471.03
298.9	9466.31
298.967	9462.46
299.033	9469.68
299.1	9484.85
299.167	9498.82
299.233	9495.25
299.3	9505.37
299.366	9522.46
299.433	9533.68
299.5	9504.59
299.566	9513.31
299.633	9529.39
299.699	9539.89
299.766	9532.76
299.832	9533.54
299.899	9543.65
299.965	9558.63
300.032	9552.27
300.099	9562
300.165	9563.35
300.232	9558.53
300.298	9561.9
300.365	9577.02
300.431	9580.35
300.498	9569.8
300.564	9579.57
300.631	9591.47
300.697	9606.78
300.763	9608.33
300.83	9609.87
300.896	9625.47
300.963	9628.99
301.029	9626.87
301.096	9629.71
301.162	9637.51
301.229	9637.03
301.295	9623.16
301.361	9628.89
301.428	9630.96
301.494	9620.12
301.561	9627.97
301.627	9643.48
301.693	9645.7
301.76	9649.07
301.826	9644.3
301.892	9661.11
301.959	9669.83
302.025	9671.42
302.092	9670.21
302.158	9682.25
302.224	9683.41
302.291	9668
302.357	9663.62
302.423	9662.46
302.49	9653.89
302.556	9667.37
302.622	9662.61
302.688	9678.74
302.755	9693.86
302.821	9702.58
302.887	9711.25
302.954	9707.11
303.02	9703.69
303.086	9711.92
303.152	9714.91
303.219	9705.71
303.285	9705.28
303.351	9710.29
303.417	9711.35
303.483	9703.11
303.55	9691.65
303.616	9690.93
303.682	9693.53
303.748	9692.9
303.815	9702.1
303.881	9717.27
303.947	9708.26
304.013	9720.45
304.079	9712.07
304.145	9690.68
304.212	9691.02
304.278	9684.95
304.344	9682.69
304.41	9671.66
304.476	9658.22
304.542	9650.9
304.608	9658.32
304.674	9644.69
304.741	9631.39
304.807	9632.65
304.873	9632.84
304.939	9645.75
305.005	9628.65
305.071	9629.04
305.137	9628.79
305.203	9606.01
305.269	9597.68
305.335	9600.76
305.401	9590.22
305.467	9586.22
305.533	9587.37
305.599	9598.98
305.666	9604.71
305.732	9604.95
305.798	9617.19
305.864	9642.52
305.93	9650.61
305.996	9656.78
306.062	9657.16
306.128	9656.63
306.194	9643.05
306.259	9640.45
306.325	9629.71
306.391	9643.05
306.457	9648.25
306.523	9650.76
306.589	9675.8
306.655	9667.71
306.721	9650.08
306.787	9639.3
306.853	9656.97
306.919	9644.84
306.985	9633.47
307.051	9627.11
307.117	9624.37
307.183	9612.57
307.248	9585.93
307.314	9580.49
307.38	9580.25
307.446	9583.38
307.512	9572.59
307.578	9577.79
307.644	9575.05
307.709	9578.47
307.775	9574.47
307.841	9575.77
307.907	9575.34
307.973	9555.98
308.039	9555.4
308.104	9562.86
308.17	9563.82
308.236	9546.44
308.302	9550.53
308.368	9536.85
308.433	9538.59
308.499	9527.08
308.565	9524.72
308.631	9527.32
308.696	9508.97
308.762	9492.41
308.828	9484.07
308.894	9471.8
308.959	9455.66
309.025	9440.11
309.091	9438.43
309.156	9421.81
309.222	9421.38
309.288	9408.91
309.354	9385.99
309.419	9382.13
309.485	9369.47
309.551	9371.01
309.616	9359.84
309.682	9356.18
309.748	9351.8
309.813	9349.39
309.879	9342.79
309.945	9325.84
310.01	9320.5
310.076	9323.1
310.141	9319.54
310.207	9312.94
310.273	9313.56
310.338	9316.07
310.404	9310.58
310.469	9294.59
310.535	9290.16
310.601	9264.5
310.666	9268.78
310.732	9279.62
310.797	9263.68
310.863	9249.96
310.928	9242.83
310.994	9241.05
311.059	9239.17
311.125	9231.8
311.191	9237.25
311.256	9224.73
311.322	9233.2
311.387	9214.67
311.453	9533.28
311.518	9507.67
311.584	9502.95
311.649	9506.76
311.715	9493.42
311.78	9490.1
311.846	9476.09
311.911	9483.02
311.976	9490.29
312.042	9476.09
312.107	9463.14
312.173	9462.22
312.238	9459.48
312.304	9454.13
312.369	9443.06
312.434	9424.81
312.5	9427.51
312.565	9393.76
312.631	9403.29
312.696	9397.61
312.761	9396.98
312.827	9064.35
312.892	9106.58
312.958	9099.89
313.023	9094.45
313.088	9097.72
313.154	9087.56
313.219	9081.79
313.284	9068.11
313.35	9061.71
313.415	9051.55
313.48	9045.34
313.546	9045.77
313.611	9052.37
313.676	9047.51
313.741	9039.28
313.807	9054.44
313.872	9051.6
313.937	9053.77
314.003	9056.17
314.068	9046.88
314.133	9050.25
314.198	9042.21
314.264	9017.8
314.329	9009.18
314.394	9004.75
314.459	8996.28
314.525	9019.19
314.59	9014.33
314.655	9008.65
314.72	9015.1
314.785	9013.32
314.851	9008.32
314.916	8985.64
314.981	8974.67
315.046	8961.81
315.111	8954.98
315.176	8936.93
315.242	8941.02
315.307	8942.08
315.372	8926.29
315.437	8919.5
315.502	8911.8
315.567	8923.45
315.632	8904.96
315.698	8912.09
315.763	8908.38
315.828	8903.42
315.893	8896.87
315.958	8893.36
316.023	8879.98
316.088	8861.54
316.153	8842.58
316.218	8835.84
316.283	8825.01
316.348	8806.15
316.413	8808.74
316.479	8789.88
316.544	8759.13
316.609	8723.94
316.674	8688.62
316.739	8657.39
316.804	8622.89
316.869	8591.32
316.934	8547.96
316.999	8516.53
317.064	8460.52
317.129	8417.02
317.194	8378.19
317.259	8321.22
317.324	8267.77
317.389	8226.44
317.454	8185.98
317.518	8155.86
317.583	8126.95
317.648	8101.79
317.713	8067.63
317.778	7999.13
317.843	7974.69
317.908	7936.03
317.973	7901.83
318.038	7873.89
318.103	7835.13
318.168	7806.75
318.233	7771.31
318.297	7721.21
318.362	7686.2
318.427	7647.84
318.492	7622.83
318.557	7575.63
318.622	7553.03
318.687	7535.53
318.751	7493.09
318.816	7456.02
318.881	7415.89
318.946	7362.62
319.011	7318.3
319.075	7271.15
319.14	7238.72
319.205	7194.89
319.27	7156.5
319.335	7107.63
319.399	7066.44
319.464	7037.47
319.529	6983.61
319.594	6942.44
319.658	6917.94
319.723	6872.4
319.788	6843.34
319.853	6786.12
319.917	6755.82
319.982	6703.22
320.047	6661.1
320.112	6633.97
320.176	6584.79
320.241	6552.04
320.306	6524.1
320.37	6481.12
320.435	6455.1
320.5	6430.14
320.564	6390.34
320.629	6355.35
320.694	6327.7
320.758	6288.29
320.823	6242.02
320.888	6215.05
320.952	6170.33
321.017	6129.68
321.082	6093.08
321.146	6056.03
321.211	6023.6
321.275	5983.21
321.34	5937.84
321.405	5895.1
321.469	5850.54
321.534	5808.87
321.598	5757.27
321.663	5720
321.727	5685.71
321.792	5633.88
321.857	5586.17
321.921	5543.74
321.986	5498.16
322.05	5437.57
322.115	5396.49
322.179	5354.66
322.244	5299.41
322.308	5264.86
322.373	5213.84
322.437	5171.15
322.502	5147.86
322.566	5104.11
322.631	5070.82
322.695	5032.32
322.76	4988.5
322.824	4949.61
322.889	4905.24
322.953	4863.06
323.018	4801.54
323.082	4741.94
323.146	4688.21
323.211	4638.91
323.275	4596.02
323.34	4550.81
323.404	4517.37
323.468	4471.05
323.533	4425.8
323.597	4382.05
323.662	4329
323.726	4296
323.79	4251.62
323.855	4186.6
323.919	4133.2
323.983	4083.37
324.048	4017.01
324.112	4156.36
324.177	4028.47
324.241	3822.37
324.305	3616.66
324.37	3414.15
324.434	3219.05
324.498	3179.75
324.562	3127.13
324.627	3065.03
324.691	3010.57
324.755	2942.46
324.82	2866.61
324.884	2789.24
324.948	2715.95
325.012	2621.99
325.077	2497.82
