Data from 20250703_urea_0.1M_MAYP1162681_05-31-05-434.txt Node
Date: Fri Jul 04 05:31:05 BST 2025
User: adleo
Spectrometer: MAYP116268
Trigger mode: 0
Integration Time (sec): 1.000000E0
Scans to average: 1
Electric dark correction enabled: true
Nonlinearity correction enabled: true
Boxcar width: 10
XAxis mode: Wavelengths
Number of Pixels in Spectrum: 2068
>>>>>Begin Spectral Data<<<<<
179.565	1253.01
179.642	1310.28
179.718	1357.82
179.795	1400.06
179.871	1433.35
179.948	1452.05
180.024	1475.01
180.101	1496.87
180.177	1512.95
180.254	1536.02
180.33	1560.55
180.407	1617.43
180.483	1718.43
180.56	1817.26
180.636	1904.77
180.712	1893.49
180.789	1904.81
180.865	1915.55
180.942	1922.73
181.018	1932.76
181.095	1947.5
181.171	1952.88
181.248	1955.21
181.324	1970.38
181.4	1977.42
181.477	1989.78
181.553	2004
181.63	2023.64
181.706	2041.04
181.782	2049.6
181.859	2048.6
181.935	2054.45
182.011	2052.08
182.088	2067.53
182.164	2082.95
182.24	2094.89
182.317	2105.63
182.393	2102.5
182.469	2120.9
182.546	2134.46
182.622	2143.69
182.698	2136.79
182.775	2149.06
182.851	2163.67
182.927	2154.48
183.003	2148.73
183.08	2142.83
183.156	2150.49
183.232	2143.88
183.308	2131.56
183.385	2140.36
183.461	2159.77
183.537	2158.43
183.613	2171.56
183.69	2164.71
183.766	2153.96
183.842	2165.09
183.918	2170.32
183.995	2186.26
184.071	2189.35
184.147	2185.21
184.223	2171.71
184.299	2184.7
184.375	2173.09
184.452	2176.61
184.528	2231.68
184.604	2242.9
184.68	2254.08
184.756	2263.08
184.832	2273.31
184.908	2282.06
184.985	2279.68
185.061	2262.46
185.137	2271.64
185.213	2260.03
185.289	2260.98
185.365	2254.28
185.441	2251.37
185.517	2265.32
185.593	2260.28
185.669	2253.95
185.745	2263.65
185.822	2277.02
185.898	2267.41
185.974	2279.68
186.05	2273.68
186.126	2234.08
186.202	2226.42
186.278	2223.43
186.354	2214.43
186.43	2221.52
186.506	2218
186.582	2217.86
186.658	2226.28
186.734	2205.02
186.81	2208.35
186.886	2208.01
186.962	2220.05
187.038	2220.34
187.114	2212.81
187.19	2221
187.266	2211.77
187.341	2210.77
187.417	2206.92
187.493	2209.39
187.569	2212.87
187.645	2205.83
187.721	2196.31
187.797	2204.97
187.873	2209.87
187.949	2203.73
188.025	2194.64
188.101	2196.87
188.176	2204.34
188.252	2198.4
188.328	2207.53
188.404	2207.72
188.48	2201.77
188.556	2194.49
188.632	2193.16
188.707	2192.45
188.783	2189.83
188.859	2185.22
188.935	2174.6
189.011	2184.31
189.086	2177.22
189.162	2166.14
189.238	2167.14
189.314	2165.04
189.39	2159.29
189.465	2152.86
189.541	2167.85
189.617	2153.29
189.693	2149.44
189.768	2152.77
189.844	2179.09
189.92	2173.43
189.996	2180.71
190.071	2195.03
190.147	2192.84
190.223	2199.94
190.298	2190.85
190.374	2175.81
190.45	2187.85
190.526	2197.93
190.601	2188.42
190.677	2191.79
190.753	2218.78
190.828	2223.16
190.904	2238.01
190.98	2253.43
191.055	2263.18
191.131	2257.66
191.207	2279.17
191.282	2288.11
191.358	2277.5
191.433	2261.31
191.509	2274.73
191.585	2272.44
191.66	2272.54
191.736	2282.29
191.811	2273.25
191.887	2290.96
191.963	2316.42
192.038	2323.94
192.114	2325.13
192.189	2330.74
192.265	2326.65
192.34	2307.75
192.416	2304.32
192.491	2299.32
192.567	2302.42
192.642	2305.61
192.718	2304.18
192.793	2294.76
192.869	2291.81
192.944	2293.66
193.02	2298.04
193.095	2301.13
193.171	2307.84
193.246	2308.84
193.322	2305.99
193.397	2307.56
193.473	2293.52
193.548	2276.43
193.624	2279.9
193.699	2280.24
193.775	2296.18
193.85	2296.47
193.925	2303.56
194.001	2304.42
194.076	2297.9
194.152	2288
194.227	2279.24
194.302	2268.72
194.378	2268.2
194.453	2265.2
194.529	2276.63
194.604	2265.06
194.679	2256.74
194.755	2237.61
194.83	2250.56
194.905	2247.14
194.981	2255.99
195.056	2247.85
195.131	2251.09
195.207	2249.42
195.282	2239
195.357	2219.96
195.433	2234.24
195.508	2223.57
195.583	2230.24
195.659	2244.52
195.734	2253.51
195.809	2252.04
195.884	2264.5
195.96	2266.12
196.035	2283.25
196.11	2282.01
196.185	2295.77
196.261	2302.19
196.336	2334.79
196.411	2317.89
196.486	2325.55
196.561	2321.55
196.637	2330.88
196.712	2350.11
196.787	2355.21
196.862	2367.96
196.937	2377.86
197.013	2384.33
197.088	2392.66
197.163	2416
197.238	2433.43
197.313	2427.86
197.388	2443.76
197.464	2473.53
197.539	2484.53
197.614	2477.62
197.689	2490.53
197.764	2507.96
197.839	2526.2
197.914	2517.19
197.989	2541.67
198.065	2556.19
198.14	2603.23
198.215	2629.9
198.29	2640.67
198.365	2654.67
198.44	2668.63
198.515	2697.88
198.59	2714.36
198.665	2744.09
198.74	2753.05
198.815	2754.91
198.89	2780.82
198.965	2811.9
199.04	2806.99
199.115	2824.43
199.19	2867.27
199.265	2867.84
199.34	2876.61
199.415	2912.37
199.49	2932.57
199.565	2943.29
199.64	2965.17
199.715	2963.65
199.79	2972.08
199.865	2978.47
199.94	2976.23
200.015	3009.52
200.09	3015
200.165	3021.29
200.24	3024.58
200.315	3065.53
200.39	3080.65
200.464	3089.66
200.539	3088.94
200.614	3104.77
200.689	3130.29
200.764	3136.63
200.839	3153.7
200.914	3159.94
200.989	3148.92
201.063	3168.76
201.138	3150.51
201.213	3154.56
201.288	3136.25
201.363	3141.16
201.438	3144.45
201.512	3161.18
201.587	3138.77
201.662	3145.3
201.737	3159.32
201.812	3170.63
201.886	3134.92
201.961	3146.71
202.036	3134.17
202.111	3131.5
202.186	3104.29
202.26	3085.11
202.335	3061.74
202.41	3059.31
202.485	3043.34
202.559	3027.99
202.634	3000.33
202.709	3009.43
202.784	2988.07
202.858	2989.36
202.933	2974.63
203.008	2966.62
203.082	2950.55
203.157	2958.61
203.232	2916.58
203.306	2901.94
203.381	2871.38
203.456	2852.74
203.53	2834.9
203.605	2820.75
203.68	2806.73
203.754	2808.35
203.829	2800.72
203.904	2790.48
203.978	2792.86
204.053	2809.31
204.127	2806.68
204.202	2816.36
204.277	2815.41
204.351	2826.23
204.426	2834.38
204.5	2843.44
204.575	2830
204.65	2855.27
204.724	2868.58
204.799	2900.69
204.873	2917.1
204.948	2944.41
205.022	2960.67
205.097	2980.52
205.171	3025.96
205.246	3068.33
205.32	3100.36
205.395	3135.33
205.469	3164.89
205.544	3205.46
205.618	3229.84
205.693	3286.35
205.767	3320.37
205.842	3388.92
205.916	3429.49
205.991	3470.4
206.065	3527.41
206.14	3597.03
206.214	3650.3
206.289	3699.71
206.363	3772.85
206.438	3838.51
206.512	3908.43
206.586	3993.58
206.661	4065.31
206.735	4111.04
206.81	4180.89
206.884	4269.2
206.958	4331.6
207.033	4423.74
207.107	4505.63
207.181	4613.42
207.256	4688.05
207.33	4791.05
207.405	4882.22
207.479	4981.66
207.553	5074.84
207.628	5142.88
207.702	5238.63
207.776	5323.64
207.851	5410.85
207.925	5521.33
207.999	5607.87
208.073	5702.23
208.148	5800.65
208.222	5889.45
208.296	6018.5
208.371	6128.8
208.445	6234.57
208.519	6364.29
208.593	6474.21
208.668	6573.75
208.742	6678.62
208.816	6778.5
208.89	6892.55
208.965	6999.43
209.039	7113.35
209.113	7235.55
209.187	7361.26
209.261	7463.28
209.336	7591.34
209.41	7717.92
209.484	7814.01
209.558	7940.68
209.632	8056.72
209.707	8171.2
209.781	8295.12
209.855	8419.65
209.929	8542.82
210.003	8660.62
210.077	8755.61
210.151	8908.8
210.226	9041.57
210.3	9177.07
210.374	9301.84
210.448	9406.51
210.522	9513.37
210.596	9626.34
210.67	9735.76
210.744	9883.28
210.818	10013.45
210.892	10135.13
210.966	10236.86
211.041	10359.41
211.115	10460.14
211.189	10582.99
211.263	10702.19
211.337	10810.51
211.411	10924.9
211.485	11020.27
211.559	11125.22
211.633	11232.1
211.707	11298.65
211.781	11411.82
211.855	11469.27
211.929	11555.92
212.003	11633.12
212.077	11735.73
212.151	11836.76
212.225	11942.89
212.299	12023.49
212.373	12114.15
212.447	12196.77
212.52	12315.15
212.594	12401.68
212.668	12506.95
212.742	12582.2
212.816	12663.95
212.89	12740.07
212.964	12818.69
213.038	12910.33
213.112	13006.07
213.186	13108.65
213.26	13171.75
213.333	13204.24
213.407	13284.94
213.481	13368.14
213.555	13467.54
213.629	13538.11
213.703	13604.88
213.777	13679.26
213.85	13741.21
213.924	13856.85
213.998	13935.62
214.072	14001.32
214.146	14069.2
214.219	14134.32
214.293	14202.53
214.367	14277.54
214.441	14362.29
214.515	14425.53
214.588	14460.67
214.662	14489.64
214.736	14539.49
214.81	14615.89
214.883	14699.77
214.957	14762.05
215.031	14823.03
215.105	14861.02
215.178	14913.32
215.252	14979.07
215.326	15017.63
215.4	15059.33
215.473	15068.2
215.547	15105.36
215.621	15156.79
215.694	15222.1
215.768	15261.15
215.842	15308
215.915	15347.28
215.989	15372.88
216.063	15412.36
216.136	15473.67
216.21	15545.78
216.284	15612.58
216.357	15674.76
216.431	15713.56
216.504	15768.7
216.578	15850.64
216.652	15916.1
216.725	15972.97
216.799	16030.18
216.873	16080.6
216.946	16151.65
217.02	16196.33
217.093	16255.71
217.167	16281.64
217.24	16324.29
217.314	16370.13
217.387	16412.83
217.461	16456.83
217.535	16522.96
217.608	16573.95
217.682	16623.84
217.755	16671.89
217.829	16704.66
217.902	16748.04
217.976	16800.42
218.049	16844.28
218.123	16874.31
218.196	16925.97
218.27	16969.64
218.343	17001.2
218.417	17056.14
218.49	17092.68
218.563	17166.89
218.637	17216.68
218.71	17288.29
218.784	17337.74
218.857	17389.79
218.931	17447.96
219.004	17499.57
219.077	17557.79
219.151	17600.05
219.224	17645.26
219.298	17701.35
219.371	17769.06
219.444	17799.81
219.518	17847.13
219.591	17898.07
219.665	17975.42
219.738	18022.4
219.811	18054.5
219.885	18113.58
219.958	18172.86
220.031	18218.93
220.105	18253.58
220.178	18298.2
220.251	18331.26
220.325	18375.55
220.398	18437.52
220.471	18486.62
220.544	18545.42
220.618	18577.27
220.691	18623.87
220.764	18671.14
220.838	18707.29
220.911	18745.31
220.984	18808.97
221.057	18857.88
221.131	18898.46
221.204	18905.06
221.277	18965.34
221.35	19044.76
221.424	19083.89
221.497	19121.19
221.57	19166.54
221.643	19211.45
221.716	19250.63
221.79	19290.34
221.863	19327.78
221.936	19358.86
222.009	19390.91
222.082	19433.41
222.155	19461.99
222.229	19517.89
222.302	19558.22
222.375	19596.15
222.448	19627.76
222.521	19660.05
222.594	19695.08
222.667	19721.44
222.74	19761.78
222.814	19792.24
222.887	19809.68
222.96	19846.16
223.033	19880.86
223.106	19909.68
223.179	19948.37
223.252	19981.19
223.325	20009.34
223.398	20030.06
223.471	20061.58
223.544	20096.51
223.617	20116.9
223.69	20156.32
223.763	20173.48
223.837	20200.99
223.91	20223.74
223.983	20231.45
224.056	20242.34
224.129	20265.43
224.202	20296.7
224.275	20308.85
224.348	20318.15
224.42	20324.27
224.493	20326.39
224.566	20345.42
224.639	20377.52
224.712	20378.82
224.785	20388.36
224.858	20398.48
224.931	20407.83
225.004	20406.19
225.077	20417.66
225.15	20399.88
225.223	20409.57
225.296	20443.16
225.369	20436.7
225.442	20447.4
225.514	20463.35
225.587	20489.43
225.66	20504.61
225.733	20526.34
225.806	20543.5
225.879	20550.92
225.952	20561.04
226.025	20575.21
226.097	20601.14
226.17	20602.73
226.243	20600.42
226.316	20618.34
226.389	20636.51
226.461	20660.8
226.534	20685.57
226.607	20698.44
226.68	20734.78
226.753	20744.56
226.825	20719.26
226.898	20749.33
226.971	20753.04
227.044	20778.2
227.117	20782.49
227.189	20789.29
227.262	20810.88
227.335	20824.52
227.407	20824.76
227.48	20835.46
227.553	20855.75
227.626	20839.07
227.698	20836.85
227.771	20846.01
227.844	20836.76
227.916	20844.42
227.989	20832.04
228.062	20817.91
228.134	20832.47
228.207	20834.25
228.28	20830.64
228.352	20839.46
228.425	20838.83
228.498	20853.82
228.57	20831.55
228.643	20845.92
228.716	20850.01
228.788	20829.38
228.861	20821.24
228.934	20838.64
229.006	20842.64
229.079	20835.17
229.151	20840.32
229.224	20830.35
229.296	20839.31
229.369	20870.59
229.442	20882.45
229.514	20875.65
229.587	20898.93
229.659	20877.87
229.732	20886.83
229.804	20897.1
229.877	20924.19
229.949	20936.57
230.022	20958.21
230.094	20958.02
230.167	20961.88
230.239	20951.56
230.312	20950.79
230.384	20972.96
230.457	20967.18
230.529	20965.15
230.602	20970.6
230.674	20968.14
230.747	20980.43
230.819	20984.72
230.892	20943.47
230.964	20943.56
231.037	20948.38
231.109	20942.02
231.181	20951.47
231.254	20933.34
231.326	20923.99
231.399	20905.63
231.471	20886.11
231.544	20853.58
231.616	20866.83
231.688	20852.08
231.761	20840.71
231.833	20828.18
231.905	20791.41
231.978	20784.08
232.05	20771.45
232.122	20764.42
232.195	20747.94
232.267	20751.94
232.339	20733.81
232.412	20753.09
232.484	20729.62
232.556	20714.06
232.629	20714.2
232.701	20707.98
232.773	20692.8
232.846	20672.9
232.918	20664.46
232.99	20661.43
233.062	20657.91
233.135	20633.52
233.207	20607.21
233.279	20600.75
233.351	20593.96
233.424	20585.09
233.496	20563.74
233.568	20570.1
233.64	20538.49
233.713	20518.1
233.785	20498.68
233.857	20487.35
233.929	20441.47
234.001	20441.81
234.074	20438.73
234.146	20404.08
234.218	20380.27
234.29	20366.29
234.362	20343.64
234.434	20306.39
234.507	20260.7
234.579	20221.23
234.651	20206.97
234.723	20188.99
234.795	20172.22
234.867	20149.62
234.939	20144.99
235.012	20116.75
235.084	20094.49
235.156	20089.43
235.228	20070.88
235.3	20040.47
235.372	20024.32
235.444	20024.23
235.516	19975.6
235.588	19959.6
235.66	19929.92
235.732	19896.47
235.804	19933
235.876	19926.79
235.948	19919.17
236.02	19898.74
236.092	19870.35
236.164	19841.39
236.236	19817.54
236.308	19779.52
236.38	19759.9
236.452	19722.84
236.524	19708.58
236.596	19695.23
236.668	19667.42
236.74	19639.86
236.812	19623.52
236.884	19597.69
236.956	19565.41
237.028	19537.7
237.1	19502.33
237.172	19497.75
237.244	19496.59
237.316	19428.59
237.388	19385.85
237.46	19346.72
237.532	19334.19
237.604	19304.07
237.675	19295.64
237.747	19277.52
237.819	19247.25
237.891	19213.42
237.963	19179.26
238.035	19155.98
238.107	19095.65
238.178	19089.43
238.25	19056.28
238.322	19044.52
238.394	19005.15
238.466	18975.7
238.538	18949.97
238.609	18924.09
238.681	18873.73
238.753	18822.75
238.825	18789.11
238.897	18767.91
238.968	18747.53
239.04	18717.26
239.112	18716.15
239.184	18667.58
239.255	18629.32
239.327	18608.16
239.399	18579.78
239.471	18559.54
239.542	18524.21
239.614	18502.05
239.686	18437.81
239.758	18412.32
239.829	18365.67
239.901	18346.49
239.973	18309.67
240.044	18279.41
240.116	18246.4
240.188	18217.48
240.259	18197.96
240.331	18155.8
240.403	18132.86
240.474	18089.78
240.546	18044.86
240.618	17993.54
240.689	17965.73
240.761	17939.04
240.833	17918.65
240.904	17880.53
240.976	17847.04
241.048	17818.46
241.119	17797.11
241.191	17766.41
241.262	17753.98
241.334	17720.05
241.405	17682.66
241.477	17651.91
241.549	17623.14
241.62	17590.42
241.692	17565.26
241.763	17537.84
241.835	17512.44
241.906	17472.01
241.978	17428.73
242.049	17415.24
242.121	17396.83
242.192	17376.3
242.264	17331.09
242.335	17282.61
242.407	17259.91
242.478	17220.78
242.55	17190.08
242.621	17145.5
242.693	17107.47
242.764	17067.33
242.836	17033.54
242.907	17000.24
242.979	16972.19
243.05	16939.03
243.122	16922.26
243.193	16880.62
243.264	16827.7
243.336	16782.59
243.407	16763.89
243.479	16753
243.55	16719.8
243.622	16687.17
243.693	16647.16
243.764	16631.6
243.836	16584.94
243.907	16550.82
243.978	16513.51
244.05	16483.15
244.121	16443.44
244.192	16430.09
244.264	16380.11
244.335	16343.28
244.407	16300.44
244.478	16263.52
244.549	16228.77
244.62	16169.19
244.692	16143.07
244.763	16121.67
244.834	16083.5
244.906	16038
244.977	16012.16
245.048	15998.38
245.119	15961.89
245.191	15919.52
245.262	15859.76
245.333	15863.32
245.405	15827.75
245.476	15802.16
245.547	15776.03
245.618	15755.84
245.689	15721.86
245.761	15705.71
245.832	15678.82
245.903	15649.08
245.974	15630.13
246.045	15604.39
246.117	15593.07
246.188	15540.81
246.259	15497.87
246.33	15474.54
246.401	15448.8
246.473	15392.98
246.544	15343
246.615	15320.73
246.686	15282.21
246.757	15276.04
246.828	15217.24
246.899	15203.89
246.97	15158.62
247.042	15110.56
247.113	15084.05
247.184	15070.56
247.255	15029.01
247.326	14997.63
247.397	14973.43
247.468	14946.68
247.539	14914.72
247.61	14876.49
247.681	14865.26
247.752	14850.17
247.823	14809.39
247.894	14780.32
247.965	14745.57
248.037	14709.37
248.108	14660.92
248.179	14638.55
248.25	14603.8
248.321	14581.33
248.392	14536.89
248.463	14531.49
248.534	14501.51
248.605	14471.72
248.675	14436.58
248.746	14409.29
248.817	14386.4
248.888	14360.17
248.959	14308.64
249.03	14279.09
249.101	14245.15
249.172	14206.88
249.243	14155.15
249.314	14142.86
249.385	14109.79
249.456	14087.42
249.527	14059.8
249.598	14038.3
249.669	14005.47
249.739	13980.36
249.81	13962.86
249.881	13930.8
249.952	13901.06
250.023	13876.47
250.094	13834.58
250.165	13801.18
250.235	13772.97
250.306	13747.23
250.377	13715.95
250.448	13701.1
250.519	13656.99
250.59	13651.3
250.66	13627.82
250.731	13628.69
250.802	13601.26
250.873	13577.16
250.944	13559.8
251.014	13535.41
251.085	13539.65
251.156	13523.51
251.227	13512.18
251.297	13502.92
251.368	13486.19
251.439	13468.36
251.51	13463.78
251.58	13440.16
251.651	13407.09
251.722	13398.02
251.792	13350.49
251.863	13310.19
251.934	13295.15
252.005	13308.7
252.075	13277.17
252.146	13260.92
252.217	13242.9
252.287	13230.07
252.358	13206.6
252.429	13207.03
252.499	13171.74
252.57	13144.22
252.641	13130.04
252.711	13103.29
252.782	13061.3
252.852	13056.05
252.923	13037.34
252.994	13008.47
253.064	12994.25
253.135	12955.35
253.205	12929.7
253.276	12929.36
253.347	12931.72
253.417	12893.93
253.488	12861.2
253.558	12833.24
253.629	12815.07
253.699	12794.14
253.77	12776.98
253.841	12758.42
253.911	12736.49
253.982	12720.73
254.052	12707.18
254.123	12690.17
254.193	12670.02
254.264	12685.92
254.334	12649.14
254.405	12618.15
254.475	12592.45
254.546	12574.14
254.616	12569.56
254.687	12549.6
254.757	12527.67
254.827	12501.2
254.898	12493.06
254.968	12474.31
255.039	12451.41
255.109	12434.78
255.18	12403.88
255.25	12358.91
255.321	12340.2
255.391	12305.21
255.461	12308.39
255.532	12257
255.602	12227.41
255.673	12184.41
255.743	12151
255.813	12112.78
255.884	12098.42
255.954	12083.91
256.024	12074.99
256.095	12065.25
256.165	12031.08
256.235	12026.6
256.306	12005.58
256.376	11992.37
256.446	11974.83
256.517	11964.56
256.587	11953.47
256.657	11936.12
256.728	11926.29
256.798	11907.01
256.868	11878.91
256.938	11854.33
257.009	11853.75
257.079	11844.01
257.149	11854.18
257.219	11816.83
257.29	11806.03
257.36	11768.05
257.43	11757.93
257.5	11721.01
257.571	11694.5
257.641	11690.01
257.711	11650.78
257.781	11641.04
257.852	11619.31
257.922	11581.04
257.992	11555.83
258.062	11536.89
258.132	11528.21
258.202	11507.39
258.273	11495.49
258.343	11500.31
258.413	11466.76
258.483	11441.8
258.553	11408.45
258.623	11379.91
258.693	11361.55
258.764	11357.21
258.834	11360.54
258.904	11344.3
258.974	11316.39
259.044	11290.13
259.114	11274.08
259.184	11265.02
259.254	11241.84
259.324	11210.27
259.394	11203.38
259.464	11207.43
259.535	11186.8
259.605	11161.02
259.675	11135.04
259.745	11116.68
259.815	11088.78
259.885	11067.09
259.955	11079.09
260.025	11055.82
260.095	11044.93
260.165	11036.74
260.235	11040.21
260.305	11007.92
260.375	10974.91
260.445	10984.55
260.515	10986.14
260.585	10976.4
260.655	10957.8
260.725	10954.76
260.795	10953.94
260.865	10955.15
260.934	10922.24
261.004	10910.62
261.074	10890.96
261.144	10897.71
261.214	10888.79
261.284	10869.18
261.354	10866.82
261.424	10836.51
261.494	10844.17
261.564	10820.65
261.634	10812.46
261.703	10770.01
261.773	10764.37
261.843	10760.42
261.913	10739.99
261.983	10709.39
262.053	10707.46
262.123	10697.3
262.192	10666.84
262.262	10656.58
262.332	10625.26
262.402	10621.16
262.472	10607.14
262.541	10577.9
262.611	10564.21
262.681	10543.4
262.751	10532.7
262.821	10511.31
262.89	10476.43
262.96	10465.15
263.03	10476.04
263.1	10462.55
263.169	10453.68
263.239	10440.82
263.309	10439.76
263.379	10429.79
263.448	10418.66
263.518	10402.18
263.588	10379.78
263.657	10384.45
263.727	10384.55
263.797	10367.97
263.867	10349.86
263.936	10325.19
264.006	10327.26
264.076	10309.63
264.145	10291.32
264.215	10270.95
264.285	10270.17
264.354	10245.51
264.424	10221.38
264.494	10187.51
264.563	10169.2
264.633	10177.73
264.702	10167.08
264.772	10129.26
264.842	10106.72
264.911	10100.02
264.981	10070.25
265.05	10061.19
265.12	10037.83
265.19	10017.49
265.259	10020
265.329	10013.01
265.398	9998.95
265.468	10008.49
265.537	9992.64
265.607	9984.45
265.676	9980.5
265.746	9965.67
265.815	9969.28
265.885	9955.55
265.955	9932.38
266.024	9912.92
266.094	9872.32
266.163	9876.55
266.232	9886.09
266.302	9879.25
266.371	9863.89
266.441	9857.48
266.51	9854.3
266.58	9838.84
266.649	9815.91
266.719	9811.67
266.788	9801.99
266.858	9808.3
266.927	9770.88
266.996	9759.56
267.066	9752.14
267.135	9727.82
267.205	9727.72
267.274	9714.91
267.343	9720.69
267.413	9710.82
267.482	9715.88
267.552	9714.87
267.621	9685.2
267.69	9649.6
267.76	9641.47
267.829	9636.7
267.898	9618.11
267.968	9589.6
268.037	9589.84
268.106	9587.82
268.176	9563.35
268.245	9541.92
268.314	9527.61
268.384	9533.49
268.453	9522.99
268.522	9516.68
268.592	9517.69
268.661	9495.92
268.73	9485.96
268.799	9458.89
268.869	9463.13
268.938	9429.13
269.007	9419.02
269.076	9411.7
269.146	9417.67
269.215	9401.01
269.284	9402.84
269.353	9390.18
269.422	9382.67
269.492	9357.72
269.561	9317.47
269.63	9312.9
269.699	9303.84
269.768	9288.72
269.838	9277.55
269.907	9275.82
269.976	9249.91
270.045	9219.15
270.114	9217.03
270.183	9205.67
270.253	9201.29
270.322	9169.03
270.391	9161.52
270.46	9162.29
270.529	9155.5
270.598	9153.19
270.667	9146.64
270.736	9123.19
270.806	9120.3
270.875	9118.23
270.944	9110.91
271.013	9137.73
271.082	9126.75
271.151	9121.6
271.22	9095.27
271.289	9079.86
271.358	9071.48
271.427	9066.24
271.496	9062.58
271.565	9042.45
271.634	9028.25
271.703	9030.61
271.772	9042.36
271.841	9034.8
271.91	9010.2
271.979	9006.83
272.048	8978.28
272.117	8978.09
272.186	8970.96
272.255	8969.08
272.324	8973.32
272.393	8969.71
272.462	8948.67
272.531	8940.15
272.6	8929.56
272.669	8931.63
272.738	8923.3
272.807	8914.35
272.876	8894.42
272.945	8921.57
273.013	8922.87
273.082	8934.76
273.151	8915.07
273.22	8912.28
273.289	8903.86
273.358	8918.68
273.427	8904.19
273.496	8908.24
273.564	8905.98
273.633	8903.66
273.702	8882.53
273.771	8868.57
273.84	8863.23
273.909	8867.75
273.977	8866.5
274.046	8856.73
274.115	8869.73
274.184	8848.65
274.253	8840.71
274.322	8851.73
274.39	8821.21
274.459	8809.17
274.528	8782.89
274.597	8776.64
274.665	8766.19
274.734	8772.02
274.803	8752.81
274.872	8746.46
274.94	8727.73
275.009	8752.53
275.078	8737.75
275.147	8731.93
275.215	8726.88
275.284	8736.17
275.353	8717.25
275.421	8689.14
275.49	8705.7
275.559	8691.65
275.627	8685.2
275.696	8678.12
275.765	8675.24
275.833	8667.49
275.902	8665.23
275.971	8676.34
276.039	8693.91
276.108	8697.04
276.177	8696.03
276.245	8689.82
276.314	8680.82
276.383	8689.15
276.451	8653.95
276.52	8658.86
276.588	8672.24
276.657	8676.57
276.725	8660.83
276.794	8664.25
276.863	8678.11
276.931	8653.42
277	8658.33
277.068	8680.8
277.137	8697.21
277.205	8695.82
277.274	8714.2
277.342	8728.21
277.411	8705.88
277.48	8690.29
277.548	8682.2
277.617	8686.39
277.685	8685.33
277.754	8690
277.822	8674.98
277.89	8687.79
277.959	8678.16
278.027	8661.94
278.096	8648.47
278.164	8676.58
278.233	8666.67
278.301	8659.06
278.37	8667.05
278.438	8654.49
278.507	8648.62
278.575	8623.83
278.643	8620.17
278.712	8599.96
278.78	8585.42
278.849	8599.43
278.917	8605.15
278.985	8597.07
279.054	8595.43
279.122	8604.67
279.191	8607.17
279.259	8613.14
279.327	8591.14
279.396	8609.39
279.464	8610.73
279.532	8617.57
279.601	8614.39
279.669	8605.92
279.737	8614.44
279.806	8619.54
279.874	8630.18
279.942	8628.73
280.011	8619.11
280.079	8626.18
280.147	8643.89
280.215	8644.66
280.284	8640.38
280.352	8624.12
280.42	8632.97
280.488	8619.3
280.557	8608.28
280.625	8614.49
280.693	8609.73
280.761	8613.05
280.83	8589.42
280.898	8597.55
280.966	8581.77
281.034	8548.94
281.102	8541.63
281.171	8538.02
281.239	8543.31
281.307	8533.69
281.375	8518.53
281.443	8543.74
281.512	8539.51
281.58	8540.38
281.648	8520.36
281.716	8514.73
281.784	8521.66
281.852	8513.72
281.92	8513
281.989	8521.75
282.057	8495.91
282.125	8538.42
282.193	8535.96
282.261	8542.46
282.329	8538.75
282.397	8536.25
282.465	8532.35
282.533	8547.32
282.601	8533.7
282.67	8509.92
282.738	8504.15
282.806	8519.11
282.874	8509.05
282.942	8512.62
283.01	8509.73
283.078	8522.91
283.146	8524.36
283.214	8530.13
283.282	8538.94
283.35	8557.42
283.418	8548.95
283.486	8558.67
283.554	8517.56
283.622	8513.13
283.69	8509.91
283.758	8497.59
283.826	8506.93
283.894	8515.92
283.962	8541
284.03	8558.18
284.098	8557.79
284.165	8547.55
284.233	8545.14
284.301	8540.91
284.369	8530.85
284.437	8519.25
284.505	8509.62
284.573	8524.11
284.641	8510.35
284.709	8518
284.777	8494.71
284.845	8503.42
284.912	8506.55
284.98	8518.53
285.048	8512.32
285.116	8514.82
285.184	8529.16
285.252	8527.57
285.319	8511.22
285.387	8498.89
285.455	8480.61
285.523	8491.34
285.591	8487.34
285.659	8489.37
285.726	8498.56
285.794	8489.27
285.862	8495.43
285.93	8497.69
285.997	8490.91
286.065	8487.39
286.133	8470.65
286.201	8471.22
286.269	8457.27
286.336	8449.33
286.404	8437.73
286.472	8443.65
286.539	8428.64
286.607	8412.71
286.675	8418.29
286.743	8434.65
286.81	8421.42
286.878	8446.15
286.946	8435.37
287.013	8442.4
287.081	8440.23
287.149	8425.79
287.216	8442.59
287.284	8430.85
287.352	8438.16
287.419	8434.98
287.487	8452.11
287.555	8455.87
287.622	8457.94
287.69	8465.93
287.758	8479.3
287.825	8473.53
287.893	8468
287.96	8471.46
288.028	8490.47
288.096	8491.43
288.163	8491.09
288.231	8485.94
288.298	8470.74
288.366	8488.45
288.433	8484.65
288.501	8475.6
288.569	8479.45
288.636	8472.66
288.704	8481.18
288.771	8482.72
288.839	8473.96
288.906	8457.99
288.974	8466.79
289.041	8458.04
289.109	8441
289.176	8448.56
289.244	8455.39
289.311	8471.85
289.379	8486.19
289.446	8479.64
289.514	8475.07
289.581	8482.34
289.649	8486.38
289.716	8494.23
289.783	8480.46
289.851	8496.87
289.918	8494.13
289.986	8501.01
290.053	8507.99
290.121	8510.06
290.188	8517.42
290.255	8546.25
290.323	8547.98
290.39	8543.74
290.458	8551.87
290.525	8567.08
290.592	8559.72
290.66	8566.31
290.727	8554.9
290.794	8571.17
290.862	8572.42
290.929	8580.03
290.996	8575.12
291.064	8581.9
291.131	8592.54
291.198	8604.04
291.266	8603.85
291.333	8612.6
291.4	8618.48
291.468	8630.22
291.535	8626.03
291.602	8628.54
291.669	8622.47
291.737	8629.45
291.804	8626.56
291.871	8649.95
291.938	8661.89
292.006	8691.88
292.073	8704.49
292.14	8716.04
292.207	8704.25
292.275	8706.6
292.342	8720.85
292.409	8749.25
292.476	8778.86
292.543	8766.25
292.611	8770.34
292.678	8787.33
292.745	8813.27
292.812	8827.95
292.879	8822.75
292.946	8837.43
293.014	8841.52
293.081	8854.42
293.148	8869.73
293.215	8888.31
293.282	8876.23
293.349	8883.3
293.416	8863.61
293.484	8870.69
293.551	8885.66
293.618	8900.05
293.685	8928.36
293.752	8909.3
293.819	8903.09
293.886	8884.21
293.953	8892.69
294.02	8906.98
294.087	8913.58
294.154	8898.94
294.221	8913.29
294.288	8917.38
294.356	8922.97
294.423	8932.5
294.49	8920.32
294.557	8936.45
294.624	8928.31
294.691	8954.93
294.758	8959.31
294.825	8966.73
294.892	8961.58
294.959	8959.65
295.026	8969.57
295.093	8960.85
295.16	8973.03
295.226	8978.28
295.293	9005.82
295.36	9008.03
295.427	9014
295.494	9025.03
295.561	9040.81
295.628	9062.53
295.695	9075.34
295.762	9081.69
295.829	9098.5
295.896	9116.5
295.963	9116.79
296.03	9128.63
296.096	9130.85
296.163	9143.51
296.23	9158.15
296.297	9172.78
296.364	9173.65
296.431	9182.17
296.498	9179.38
296.564	9206
296.631	9205.71
296.698	9186.36
296.765	9215.34
296.832	9205.28
296.899	9194.45
296.965	9214.52
297.032	9194.15
297.099	9213.75
297.166	9224.78
297.233	9218.57
297.299	9202.39
297.366	9204.46
297.433	9205.09
297.5	9210.05
297.566	9207.35
297.633	9199.84
297.7	9201.76
297.767	9198.39
297.833	9199.6
297.9	9203.21
297.967	9181.35
298.033	9196.47
298.1	9233.07
298.167	9222.04
298.234	9236.29
298.3	9248.18
298.367	9238.65
298.434	9246.45
298.5	9233.11
298.567	9222.81
298.634	9217.56
298.7	9238.12
298.767	9245.19
298.834	9264.5
298.9	9266
298.967	9264.21
299.033	9283.14
299.1	9303.17
299.167	9324.64
299.233	9322.04
299.3	9335.77
299.366	9350.69
299.433	9366.2
299.5	9337.02
299.566	9340.24
299.633	9356.09
299.699	9366.92
299.766	9368.12
299.832	9371.59
299.899	9390.18
299.965	9402.99
300.032	9404.24
300.099	9411.03
300.165	9412.91
300.232	9400.72
300.298	9400.43
300.365	9409.01
300.431	9409.01
300.498	9396.53
300.564	9398.46
300.631	9409.25
300.697	9424.22
300.763	9426.63
300.83	9420.32
300.896	9438.52
300.963	9453.84
301.029	9451.19
301.096	9456.1
301.162	9468.33
301.229	9461.11
301.295	9447.14
301.361	9457.74
301.428	9463.46
301.494	9457.78
301.561	9461.73
301.627	9472.66
301.693	9474.64
301.76	9481.04
301.826	9473.53
301.892	9486.44
301.959	9495.59
302.025	9494.19
302.092	9492.12
302.158	9498.96
302.224	9501.36
302.291	9486.29
302.357	9481.19
302.423	9472.81
302.49	9457.25
302.556	9462.41
302.622	9462.65
302.688	9473.39
302.755	9481.09
302.821	9483.4
302.887	9490.05
302.954	9492.12
303.02	9499.54
303.086	9510.42
303.152	9506.09
303.219	9508.2
303.285	9511
303.351	9518.9
303.417	9522.41
303.483	9507.44
303.55	9498.24
303.616	9498.72
303.682	9502.38
303.748	9495.16
303.815	9513.75
303.881	9528.24
303.947	9519.19
304.013	9524.92
304.079	9516.92
304.145	9495.49
304.212	9498.33
304.278	9493.52
304.344	9488.27
304.41	9471.08
304.476	9458.36
304.542	9458.17
304.608	9462.6
304.674	9441.46
304.741	9432.02
304.807	9428.99
304.873	9437.85
304.939	9461.16
305.005	9437.9
305.071	9437.32
305.137	9437.42
305.203	9407.37
305.269	9401.59
305.335	9412.18
305.401	9403.85
305.467	9400.96
305.533	9413
305.599	9416.66
305.666	9425.76
305.732	9423.93
305.798	9448.49
305.864	9471.99
305.93	9475.56
305.996	9474.02
306.062	9479.7
306.128	9478.11
306.194	9466.22
306.259	9466.46
306.325	9451.86
306.391	9469.39
306.457	9482.01
306.523	9485.57
306.589	9516.34
306.655	9511.77
306.721	9491.16
306.787	9481.67
306.853	9495.83
306.919	9472.33
306.985	9474.26
307.051	9465.3
307.117	9461.21
307.183	9441.18
307.248	9412.33
307.314	9418.83
307.38	9421.19
307.446	9432.17
307.512	9421.67
307.578	9424.95
307.644	9421.04
307.709	9420.08
307.775	9413.68
307.841	9406.16
307.907	9408.52
307.973	9388.1
308.039	9389.84
308.104	9405.3
308.17	9408.62
308.236	9397.4
308.302	9410.69
308.368	9395.52
308.433	9399.03
308.499	9396.1
308.565	9389.79
308.631	9396.24
308.696	9368.79
308.762	9352.23
308.828	9348.04
308.894	9332.34
308.959	9314.48
309.025	9301.05
309.091	9302.78
309.156	9292.48
309.222	9289.92
309.288	9275.82
309.354	9249.67
309.419	9248.95
309.485	9225.36
309.551	9230.27
309.616	9212.5
309.682	9201.23
309.748	9192.76
309.813	9185.1
309.879	9172.2
309.945	9161.22
310.01	9154.53
310.076	9155.01
310.141	9155.49
310.207	9139.07
310.273	9141.63
310.338	9150.97
310.404	9139.85
310.469	9124.53
310.535	9115.96
310.601	9096.56
310.666	9098.44
310.732	9112.5
310.797	9099.54
310.863	9093.86
310.928	9090.93
310.994	9091.55
311.059	9096.85
311.125	9090.11
311.191	9097.96
311.256	9087.94
311.322	9092.42
311.387	9069.7
311.453	9431.15
311.518	9399.86
311.584	9397.07
311.649	9396.88
311.715	9377.38
311.78	9379.74
311.846	9371.8
311.911	9379.93
311.976	9387.73
312.042	9371.08
312.107	9356.15
312.173	9346.96
312.238	9340.94
312.304	9327.32
312.369	9323.03
312.434	9308.54
312.5	9305.56
312.565	9275.51
312.631	9284.18
312.696	9280.71
312.761	9288.46
312.827	8919.11
312.892	8962.83
312.958	8958.25
313.023	8958.06
313.088	8961.52
313.154	8946.36
313.219	8932.84
313.284	8920.75
313.35	8908
313.415	8901.06
313.48	8902.08
313.546	8901.11
313.611	8912.38
313.676	8907.61
313.741	8897.12
313.807	8898.66
313.872	8905.73
313.937	8910.88
314.003	8921.91
314.068	8923.07
314.133	8933.37
314.198	8927.3
314.264	8902.27
314.329	8894.95
314.394	8887.53
314.459	8889.36
314.525	8910.78
314.59	8907.99
314.655	8898.37
314.72	8912.81
314.785	8917.33
314.851	8905.54
314.916	8899.23
314.981	8882.29
315.046	8872.95
315.111	8865.83
315.176	8859.91
315.242	8859.72
315.307	8855.53
315.372	8833.62
315.437	8818.85
315.502	8801.28
315.567	8811.38
315.632	8796.7
315.698	8794.97
315.763	8792.23
315.828	8776.73
315.893	8771.77
315.958	8772.78
316.023	8758.25
316.088	8733.46
316.153	8715.36
316.218	8710.84
316.283	8687.84
316.348	8667.29
316.413	8667.62
316.479	8655.93
316.544	8621.72
316.609	8595.25
316.674	8563.01
316.739	8526.3
316.804	8500.6
316.869	8466
316.934	8431.35
316.999	8408.69
317.064	8359.95
317.129	8316.07
317.194	8284.27
317.259	8234.9
317.324	8184.39
317.389	8145.52
317.454	8105.93
317.518	8068.12
317.583	8048.3
317.648	8018.86
317.713	7989.28
317.778	7924.54
317.843	7894.04
317.908	7855.19
317.973	7812.72
318.038	7787.33
318.103	7753.72
318.168	7718.23
318.233	7687.36
318.297	7640.04
318.362	7599.17
318.427	7561.1
318.492	7537.2
318.557	7496.68
318.622	7467.73
318.687	7446.87
318.751	7405.88
318.816	7379.1
318.881	7351.56
318.946	7294.12
319.011	7252.59
319.075	7211.31
319.14	7184.31
319.205	7137.31
319.27	7106.18
319.335	7064.86
319.399	7025.07
319.464	6996.63
319.529	6944.6
319.594	6901.03
319.658	6866.34
319.723	6825.22
319.788	6797.37
319.853	6742.9
319.917	6708.75
319.982	6658.85
320.047	6625.71
320.112	6599.59
320.176	6542.73
320.241	6504.6
320.306	6473.54
320.37	6437.82
320.435	6410.79
320.5	6381.31
320.564	6346.75
320.629	6308.84
320.694	6276.77
320.758	6232.71
320.823	6190.91
320.888	6165.34
320.952	6124.31
321.017	6085.68
321.082	6048.17
321.146	6016.11
321.211	5988.53
321.275	5947.52
321.34	5903.63
321.405	5854.22
321.469	5812.07
321.534	5773.28
321.598	5724.99
321.663	5694.53
321.727	5664.66
321.792	5612.92
321.857	5570.62
321.921	5530.07
321.986	5490.72
322.05	5433.69
322.115	5395.39
322.179	5353.84
322.244	5301.71
322.308	5268.65
322.373	5223.27
322.437	5181.54
322.502	5153.55
322.566	5104.16
322.631	5069.58
322.695	5035.33
322.76	4993.81
322.824	4962.49
322.889	4925.87
322.953	4881.49
323.018	4817.43
323.082	4750.51
323.146	4702.46
323.211	4650.87
323.275	4605.83
323.34	4559.42
323.404	4526.27
323.468	4484.97
323.533	4438.14
323.597	4388.8
323.662	4337.23
323.726	4300.98
323.79	4259.41
323.855	4193.78
323.919	4147.54
323.983	4105.46
324.048	4036.7
324.112	4162.36
324.177	4033.29
324.241	3821.41
324.305	3617.65
324.37	3416.77
324.434	3224.11
324.498	3179.66
324.562	3127.05
324.627	3067.53
324.691	3010.87
324.755	2944.62
324.82	2865.59
324.884	2789.9
324.948	2720.92
325.012	2625.99
325.077	2499.38
