Data from 20250703_urea_0.1M_MAYP1162681_17-21-04-931.txt Node
Date: Thu Jul 03 17:21:04 BST 2025
User: adleo
Spectrometer: MAYP116268
Trigger mode: 0
Integration Time (sec): 1.000000E0
Scans to average: 1
Electric dark correction enabled: true
Nonlinearity correction enabled: true
Boxcar width: 10
XAxis mode: Wavelengths
Number of Pixels in Spectrum: 2068
>>>>>Begin Spectral Data<<<<<
179.565	1325.27
179.642	1389.57
179.718	1438.68
179.795	1481.77
179.871	1515.52
179.948	1536.44
180.024	1557.78
180.101	1581.07
180.177	1597.7
180.254	1621.46
180.33	1646.96
180.407	1710.12
180.483	1815.07
180.56	1915.71
180.636	2007.92
180.712	1993.65
180.789	2006.35
180.865	2017.8
180.942	2027.08
181.018	2039.63
181.095	2057.47
181.171	2062.18
181.248	2062.09
181.324	2078.88
181.4	2086.02
181.477	2099.38
181.553	2112.7
181.63	2138.06
181.706	2157.99
181.782	2165.65
181.859	2166.64
181.935	2172.35
182.011	2168.5
182.088	2184.58
182.164	2205.86
182.24	2220.79
182.317	2231.78
182.393	2228.6
182.469	2242.3
182.546	2256.29
182.622	2261.42
182.698	2253.09
182.775	2264.42
182.851	2278.31
182.927	2268.56
183.003	2265.04
183.08	2258.14
183.156	2267.75
183.232	2263.47
183.308	2248.43
183.385	2258.28
183.461	2277.46
183.537	2276.89
183.613	2290.69
183.69	2282.79
183.766	2269.55
183.842	2277.36
183.918	2282.12
183.995	2294.06
184.071	2298.44
184.147	2292.68
184.223	2282.36
184.299	2298.45
184.375	2288.03
184.452	2293.88
184.528	2347.34
184.604	2359.66
184.68	2372.8
184.756	2382.99
184.832	2389.65
184.908	2397.83
184.985	2398.26
185.061	2381.89
185.137	2395.22
185.213	2382.94
185.289	2382.89
185.365	2376.57
185.441	2378.28
185.517	2389.9
185.593	2386.33
185.669	2386.33
185.745	2395.27
185.822	2411.79
185.898	2399.65
185.974	2410.45
186.05	2404.16
186.126	2370.32
186.202	2362.27
186.278	2358.8
186.354	2346.42
186.43	2351.04
186.506	2349.23
186.582	2347.66
186.658	2353.37
186.734	2328.67
186.81	2330.19
186.886	2336.57
186.962	2349.28
187.038	2342.57
187.114	2336.42
187.19	2347.71
187.266	2333.29
187.341	2336.38
187.417	2329.15
187.493	2328.82
187.569	2329.58
187.645	2324.1
187.721	2309.06
187.797	2317.1
187.873	2322.01
187.949	2317.39
188.025	2310.53
188.101	2311.58
188.176	2316.86
188.252	2312.82
188.328	2322.57
188.404	2325
188.48	2317.76
188.556	2311.48
188.632	2312.19
188.707	2315.34
188.783	2312.1
188.859	2308.96
188.935	2297.54
189.011	2306.39
189.086	2301.82
189.162	2293.16
189.238	2291.54
189.314	2291.59
189.39	2286.4
189.465	2277.79
189.541	2293.25
189.617	2276.22
189.693	2270.22
189.768	2271.65
189.844	2299.17
189.92	2289.61
189.996	2299.04
190.071	2311.27
190.147	2310.84
190.223	2318.6
190.298	2308.51
190.374	2295.42
190.45	2309.17
190.526	2318.88
190.601	2310.88
190.677	2311.83
190.753	2342.22
190.828	2346.45
190.904	2358.78
190.98	2372.82
191.055	2383.49
191.131	2374.25
191.207	2395.95
191.282	2408.56
191.358	2402.61
191.433	2384.66
191.509	2399.12
191.585	2394.98
191.66	2395.69
191.736	2402.12
191.811	2392.98
191.887	2412.5
191.963	2435.88
192.038	2442.59
192.114	2441.78
192.189	2447.78
192.265	2443.54
192.34	2421.01
192.416	2416.97
192.491	2415.02
192.567	2416.21
192.642	2418.35
192.718	2419.21
192.793	2403.79
192.869	2397.26
192.944	2398.84
193.02	2408.5
193.095	2411.88
193.171	2418.17
193.246	2422.31
193.322	2417.79
193.397	2419.45
193.473	2402.36
193.548	2380.93
193.624	2385.83
193.699	2386.74
193.775	2405.41
193.85	2407.69
193.925	2416.12
194.001	2415.26
194.076	2409.46
194.152	2402.93
194.227	2396.31
194.302	2388.65
194.378	2395.27
194.453	2392.7
194.529	2403.74
194.604	2388.17
194.679	2380.65
194.755	2362.38
194.83	2369.95
194.905	2367.81
194.981	2376.43
195.056	2369.1
195.131	2376.76
195.207	2374.52
195.282	2362.24
195.357	2337.77
195.433	2353.95
195.508	2342.91
195.583	2351.14
195.659	2364.52
195.734	2371.81
195.809	2372.42
195.884	2380.94
195.96	2382.99
196.035	2404.13
196.11	2400.27
196.185	2414.65
196.261	2419.74
196.336	2453.11
196.411	2439.21
196.486	2447.16
196.561	2440.73
196.637	2450.72
196.712	2473.3
196.787	2479.07
196.862	2494.68
196.937	2507.06
197.013	2514.68
197.088	2523.2
197.163	2547.21
197.238	2564.55
197.313	2561.17
197.388	2575.98
197.464	2607.71
197.539	2618
197.614	2608.38
197.689	2625.67
197.764	2640.39
197.839	2662.3
197.914	2653.2
197.989	2676.88
198.065	2692.83
198.14	2746.51
198.215	2776.29
198.29	2782.91
198.365	2795.49
198.44	2806.69
198.515	2838.05
198.59	2854.21
198.665	2884.76
198.74	2896.2
198.815	2900.78
198.89	2927.89
198.965	2964.9
199.04	2961.23
199.115	2980.96
199.19	3026.91
199.265	3026.29
199.34	3039.88
199.415	3075.99
199.49	3099.54
199.565	3109.36
199.64	3135.11
199.715	3130.62
199.79	3138.16
199.865	3147.89
199.94	3148.32
200.015	3183.99
200.09	3185.42
200.165	3192.15
200.24	3197.21
200.315	3240.37
200.39	3254.78
200.464	3257.97
200.539	3253.06
200.614	3269.51
200.689	3297.81
200.764	3305.64
200.839	3327.71
200.914	3332.72
200.989	3320.74
201.063	3337.3
201.138	3320.56
201.213	3317.41
201.288	3301.15
201.363	3306.3
201.438	3306.78
201.512	3325.42
201.587	3307.53
201.662	3317.36
201.737	3327.28
201.812	3339.74
201.886	3300.06
201.961	3311.32
202.036	3303.79
202.111	3303.17
202.186	3275.66
202.26	3252.85
202.335	3229.42
202.41	3223.31
202.485	3205.19
202.559	3189.97
202.634	3165.07
202.709	3180.85
202.784	3164.54
202.858	3167.64
202.933	3151.28
203.008	3147.9
203.082	3127.91
203.157	3135.36
203.232	3093.83
203.306	3083.14
203.381	3055.47
203.456	3045.51
203.53	3028.27
203.605	3016.36
203.68	3001.38
203.754	3005.52
203.829	3005.09
203.904	3000.56
203.978	3006.29
204.053	3030.04
204.127	3032.19
204.202	3055.42
204.277	3055.04
204.351	3077.02
204.426	3096.02
204.5	3118.15
204.575	3112.19
204.65	3155.76
204.724	3181.06
204.799	3223.45
204.873	3256.77
204.948	3297.33
205.022	3327.01
205.097	3366.98
205.171	3429.51
205.246	3492.03
205.32	3548.53
205.395	3606.47
205.469	3656.07
205.544	3725.07
205.618	3773.67
205.693	3860.3
205.767	3916.32
205.842	4018.15
205.916	4088.18
205.991	4159.86
206.065	4244.94
206.14	4349.39
206.214	4435.98
206.289	4521.46
206.363	4641.26
206.438	4746.12
206.512	4855.1
206.586	4983.72
206.661	5102.33
206.735	5190.2
206.81	5306.7
206.884	5438.38
206.958	5544.93
207.033	5685.74
207.107	5813.07
207.181	5975.76
207.256	6094.42
207.33	6246.38
207.405	6392.09
207.479	6546.62
207.553	6689.64
207.628	6814.8
207.702	6968.44
207.776	7104.35
207.851	7253.79
207.925	7413.74
207.999	7562.43
208.073	7714.4
208.148	7869.64
208.222	8015.25
208.296	8209.38
208.371	8383.48
208.445	8558.25
208.519	8748.55
208.593	8930.09
208.668	9093.96
208.742	9267.41
208.816	9440.57
208.89	9630.51
208.965	9790.32
209.039	9971.38
209.113	10162.49
209.187	10358.31
209.261	10527.54
209.336	10723.76
209.41	10922.12
209.484	11097.72
209.558	11293.22
209.632	11474.55
209.707	11656.28
209.781	11844.67
209.855	12029.26
209.929	12216.57
210.003	12391.15
210.077	12559.08
210.151	12768.52
210.226	12972.51
210.3	13153.95
210.374	13339.53
210.448	13496.92
210.522	13674.8
210.596	13839.61
210.67	14012.95
210.744	14220.81
210.818	14417.24
210.892	14600.99
210.966	14744.98
211.041	14911.38
211.115	15057.1
211.189	15244.75
211.263	15406.75
211.337	15565.05
211.411	15727
211.485	15873.87
211.559	16031.86
211.633	16182.78
211.707	16297.39
211.781	16450.51
211.855	16563.2
211.929	16701.28
212.003	16825.1
212.077	16985.54
212.151	17142.37
212.225	17292.39
212.299	17420.34
212.373	17531.86
212.447	17659.77
212.52	17826.85
212.594	17970.65
212.668	18116.05
212.742	18226.12
212.816	18355.99
212.89	18473.48
212.964	18598.35
213.038	18717.52
213.112	18855.97
213.186	18995.92
213.26	19100.64
213.333	19166.32
213.407	19288.38
213.481	19398.11
213.555	19523.36
213.629	19619.6
213.703	19718.1
213.777	19822.97
213.85	19907.88
213.924	20065.71
213.998	20166.43
214.072	20261.33
214.146	20348.7
214.219	20445.33
214.293	20542.53
214.367	20635.98
214.441	20741.57
214.515	20834.93
214.588	20898.59
214.662	20950.98
214.736	21020.58
214.81	21108.97
214.883	21216.3
214.957	21291.82
215.031	21375.2
215.105	21437.04
215.178	21504.32
215.252	21574.12
215.326	21627.57
215.4	21693.75
215.473	21718.38
215.547	21773.91
215.621	21842.99
215.694	21913.18
215.768	21959.31
215.842	22010.93
215.915	22070.9
215.989	22111.06
216.063	22159.36
216.136	22232.39
216.21	22303.93
216.284	22372.2
216.357	22429.37
216.431	22478.01
216.504	22547.97
216.578	22630.22
216.652	22701.42
216.725	22761.83
216.799	22826.44
216.873	22880.92
216.946	22934.49
217.02	22974.12
217.093	23023.93
217.167	23037.28
217.24	23075.23
217.314	23121.85
217.387	23166.84
217.461	23202.86
217.535	23273.36
217.608	23311.64
217.682	23361.12
217.755	23410.16
217.829	23448.26
217.902	23497.06
217.976	23545.81
218.049	23580.78
218.123	23607.54
218.196	23656.73
218.27	23683.65
218.343	23708.77
218.417	23756.42
218.49	23800.07
218.563	23856.5
218.637	23899.71
218.71	23965.11
218.784	24007.32
218.857	24053.52
218.931	24100.98
219.004	24143.57
219.077	24181.77
219.151	24216.16
219.224	24246.94
219.298	24283.16
219.371	24322.91
219.444	24344.28
219.518	24383.69
219.591	24413.79
219.665	24474.2
219.738	24505.26
219.811	24531.6
219.885	24585.59
219.958	24617.62
220.031	24649.75
220.105	24692.69
220.178	24725.54
220.251	24746
220.325	24783.3
220.398	24823.63
220.471	24854.07
220.544	24902.95
220.618	24918.68
220.691	24954
220.764	24980
220.838	25000.36
220.911	25022.32
220.984	25077.08
221.057	25099.18
221.131	25133.49
221.204	25121.9
221.277	25163.02
221.35	25222.42
221.424	25225.61
221.497	25245.83
221.57	25247.9
221.643	25255.86
221.716	25277.53
221.79	25285.25
221.863	25303.59
221.936	25306.48
222.009	25320.24
222.082	25320.58
222.155	25332.59
222.229	25357.83
222.302	25374.14
222.375	25378.97
222.448	25398.9
222.521	25398.9
222.594	25400.54
222.667	25392.19
222.74	25414.87
222.814	25406.43
222.887	25394.22
222.96	25416.9
223.033	25437.31
223.106	25455.36
223.179	25463.28
223.252	25462.46
223.325	25467.57
223.398	25458.16
223.471	25461.34
223.544	25458.98
223.617	25460.62
223.69	25462.45
223.763	25448.02
223.837	25454.88
223.91	25476.4
223.983	25460.48
224.056	25442.96
224.129	25443.1
224.202	25452.95
224.275	25429.64
224.348	25414
224.42	25401.31
224.493	25366.47
224.566	25338.23
224.639	25340.21
224.712	25339.54
224.785	25329.35
224.858	25318.88
224.931	25305.47
225.004	25285.06
225.077	25282.4
225.15	25252.53
225.223	25248
225.296	25265.76
225.369	25229.42
225.442	25206.59
225.514	25191.34
225.587	25190.86
225.66	25181.4
225.733	25172.38
225.806	25172.77
225.879	25166.3
225.952	25143.57
226.025	25143.43
226.097	25147.63
226.17	25131.61
226.243	25089.43
226.316	25076.65
226.389	25063.47
226.461	25050.98
226.534	25050.88
226.607	25025.5
226.68	25027.14
226.753	25004.9
226.825	24954.13
226.898	24962.04
226.971	24937.68
227.044	24919.15
227.117	24897.58
227.189	24882.43
227.262	24869.94
227.335	24845.71
227.407	24813.63
227.48	24803.16
227.553	24791.63
227.626	24762.82
227.698	24739.62
227.771	24722.11
227.844	24694.32
227.916	24681.77
227.989	24650.95
228.062	24617.85
228.134	24618.33
228.207	24593.3
228.28	24568.26
228.352	24551.95
228.425	24520.69
228.498	24506.22
228.57	24492.76
228.643	24490.25
228.716	24470.76
228.788	24428.02
228.861	24408.14
228.934	24401.82
229.006	24371
229.079	24339.16
229.151	24313.74
229.224	24279.01
229.296	24259.77
229.369	24266.08
229.442	24252.67
229.514	24228.36
229.587	24220.7
229.659	24171.74
229.732	24159.48
229.804	24142.46
229.877	24143.42
229.949	24134.45
230.022	24131.65
230.094	24104.98
230.167	24083.08
230.239	24042.61
230.312	24023.23
230.384	24019.46
230.457	23995.69
230.529	23974.32
230.602	23960.43
230.674	23951.27
230.747	23937.23
230.819	23933.32
230.892	23870.09
230.964	23845.3
231.037	23826.4
231.109	23801.8
231.181	23790.57
231.254	23751.6
231.326	23727.49
231.399	23689.87
231.471	23656.25
231.544	23607.92
231.616	23590.27
231.688	23551.55
231.761	23531.78
231.833	23506.94
231.905	23458.72
231.978	23430.65
232.05	23406.97
232.122	23379.63
232.195	23337.24
232.267	23321.43
232.339	23289.65
232.412	23287.81
232.484	23256.95
232.556	23216.21
232.629	23203.77
232.701	23179.47
232.773	23150.73
232.846	23112.78
232.918	23093.06
232.99	23062.01
233.062	23038.62
233.135	23011.19
233.207	22978.78
233.279	22950.72
233.351	22927.92
233.424	22893.74
233.496	22859.12
233.568	22852.42
233.64	22799.43
233.713	22770.65
233.785	22740.95
233.857	22704.06
233.929	22648.81
234.001	22635.89
234.074	22622.59
234.146	22569.94
234.218	22543.52
234.29	22515.51
234.362	22479.11
234.434	22429.07
234.507	22381.87
234.579	22331.5
234.651	22285.12
234.723	22251.04
234.795	22225.63
234.867	22188.75
234.939	22173.33
235.012	22142.14
235.084	22114.52
235.156	22086.99
235.228	22039.56
235.3	21997.57
235.372	21962.57
235.444	21944.16
235.516	21884.34
235.588	21860.62
235.66	21828.13
235.732	21778.97
235.804	21801.67
235.876	21777.23
235.948	21750.1
236.02	21713.32
236.092	21683.44
236.164	21646.37
236.236	21609.4
236.308	21563.76
236.38	21536.33
236.452	21487.12
236.524	21446.82
236.596	21414.82
236.668	21390.91
236.74	21357.61
236.812	21329.02
236.884	21305.02
236.956	21267.91
237.028	21219.76
237.1	21166.26
237.172	21150.5
237.244	21131.13
237.316	21044.94
237.388	20996.6
237.46	20953.61
237.532	20939.25
237.604	20891.73
237.675	20880.31
237.747	20853.03
237.819	20813.46
237.891	20763.34
237.963	20716.5
238.035	20679.19
238.107	20593.65
238.178	20569.02
238.25	20526.42
238.322	20503.29
238.394	20448.87
238.466	20403
238.538	20375.57
238.609	20343
238.681	20279.72
238.753	20229.94
238.825	20201.26
238.897	20166.08
238.968	20157.31
239.04	20105.74
239.112	20099.48
239.184	20048.4
239.255	20002.42
239.327	19964.64
239.399	19937.65
239.471	19906.47
239.542	19872.31
239.614	19860.16
239.686	19791.44
239.758	19767.73
239.829	19707.01
239.901	19677.18
239.973	19648.94
240.044	19628.9
240.116	19594.97
240.188	19552.37
240.259	19513.05
240.331	19461.68
240.403	19429.73
240.474	19362.64
240.546	19320.67
240.618	19256.63
240.689	19210.94
240.761	19178.7
240.833	19157.55
240.904	19110.8
240.976	19074.66
241.048	19038.42
241.119	19015.34
241.191	18999.15
241.262	18985.32
241.334	18946.09
241.405	18907.44
241.477	18862.29
241.549	18814.05
241.62	18768.85
241.692	18739.84
241.763	18721.09
241.835	18688.28
241.906	18656.28
241.978	18598.69
242.049	18571.27
242.121	18546.5
242.192	18517.15
242.264	18463.23
242.335	18405.35
242.407	18384.44
242.478	18343.86
242.55	18316.15
242.621	18261.65
242.693	18209.51
242.764	18159.24
242.836	18118.71
242.907	18083.25
242.979	18049.22
243.05	18010.24
243.122	17983.2
243.193	17942.53
243.264	17876.65
243.336	17833.28
243.407	17806.92
243.479	17790.68
243.55	17761.57
243.622	17723.5
243.693	17688.7
243.764	17670.97
243.836	17624.41
243.907	17575.31
243.978	17535.79
244.05	17503.89
244.121	17452.13
244.192	17422.78
244.264	17371.11
244.335	17348.27
244.407	17289.91
244.478	17261.57
244.549	17223.4
244.62	17171.98
244.692	17142.58
244.763	17114.58
244.834	17071.45
244.906	17025.13
244.977	17000.36
245.048	16977.71
245.119	16934.33
245.191	16896.94
245.262	16843.1
245.333	16833.51
245.405	16798.23
245.476	16773.94
245.547	16738.95
245.618	16711.05
245.689	16682.32
245.761	16651.38
245.832	16610.32
245.903	16595.43
245.974	16555.95
246.045	16520.91
246.117	16506.02
246.188	16454.02
246.259	16410.59
246.33	16385.29
246.401	16349.96
246.473	16294.24
246.544	16252.65
246.615	16235.1
246.686	16193.8
246.757	16173.31
246.828	16126.27
246.899	16113.89
246.97	16062.7
247.042	16017.44
247.113	15993.1
247.184	15984.91
247.255	15946.54
247.326	15921.09
247.397	15887.59
247.468	15853.85
247.539	15823
247.61	15779.43
247.681	15772.25
247.752	15757.07
247.823	15720.72
247.894	15690.6
247.965	15655.7
248.037	15614.01
248.108	15566
248.179	15523.63
248.25	15482.37
248.321	15461.55
248.392	15408.09
248.463	15405.92
248.534	15372.18
248.605	15358.98
248.675	15322.15
248.746	15304.27
248.817	15281.85
248.888	15258.28
248.959	15215.48
249.03	15194.75
249.101	15164.05
249.172	15116.04
249.243	15070.2
249.314	15056.02
249.385	15024.74
249.456	14999.67
249.527	14965.59
249.598	14948.67
249.669	14926.45
249.739	14910.79
249.81	14884.56
249.881	14844.36
249.952	14809.51
250.023	14791.87
250.094	14739.37
250.165	14697.24
250.235	14664.22
250.306	14628.07
250.377	14582.86
250.448	14558.75
250.519	14511.7
250.59	14500.81
250.66	14470.06
250.731	14459.45
250.802	14426.24
250.873	14404.26
250.944	14384.44
251.014	14358.22
251.085	14349.45
251.156	14331.71
251.227	14314.06
251.297	14300.61
251.368	14290.35
251.439	14274.73
251.51	14258.29
251.58	14226.67
251.651	14188.54
251.722	14166.6
251.792	14124.9
251.863	14103.69
251.934	14097.43
252.005	14100.9
252.075	14073.47
252.146	14064.69
252.217	14053.56
252.287	14036.01
252.358	14005.88
252.429	13999.23
252.499	13973.73
252.57	13952.18
252.641	13937.86
252.711	13912.36
252.782	13869.56
252.852	13867.96
252.923	13839.86
252.994	13804.57
253.064	13789.53
253.135	13762.59
253.205	13739.16
253.276	13738.48
253.347	13733.47
253.417	13705.12
253.488	13667.33
253.558	13636
253.629	13606.11
253.699	13577.57
253.77	13565.57
253.841	13542.62
253.911	13520.88
253.982	13497.59
254.052	13478.46
254.123	13458.6
254.193	13439.65
254.264	13456.43
254.334	13416.99
254.405	13375.97
254.475	13348.59
254.546	13322.75
254.616	13316.29
254.687	13294.93
254.757	13269.58
254.827	13244.03
254.898	13226.05
254.968	13206.43
255.039	13178.61
255.109	13169.55
255.18	13146.17
255.25	13091.12
255.321	13080.17
255.391	13042.96
255.461	13046.38
255.532	12992.29
255.602	12964.58
255.673	12919.89
255.743	12890.19
255.813	12847.05
255.884	12846.71
255.954	12834.47
256.024	12834.61
256.095	12813.4
256.165	12781.44
256.235	12768.09
256.306	12735.26
256.376	12723.74
256.446	12713.81
256.517	12703.54
256.587	12691.64
256.657	12664.21
256.728	12648.44
256.798	12626.66
256.868	12611.76
256.938	12573.58
257.009	12570.69
257.079	12556.95
257.149	12561.48
257.219	12515.93
257.29	12501.08
257.36	12458.62
257.43	12450.52
257.5	12408.77
257.571	12383.61
257.641	12372.81
257.711	12337.19
257.781	12323.6
257.852	12305.42
257.922	12268.07
257.992	12242.57
258.062	12217.07
258.132	12208.68
258.202	12193.83
258.273	12175.71
258.343	12175.37
258.413	12152.43
258.483	12132.95
258.553	12103.69
258.623	12079.45
258.693	12065.08
258.764	12069.04
258.834	12065.57
258.904	12044.4
258.974	12022.09
259.044	12009.56
259.114	11995.43
259.184	11981.94
259.254	11965.07
259.324	11928.43
259.394	11907.61
259.464	11911.37
259.535	11890.98
259.605	11865.97
259.675	11841.24
259.745	11831.84
259.815	11793.09
259.885	11764.17
259.955	11777.71
260.025	11754.24
260.095	11736.5
260.165	11725.61
260.235	11716.93
260.305	11694.57
260.375	11659.34
260.445	11663.77
260.515	11659
260.585	11653.31
260.655	11633.26
260.725	11628.78
260.795	11618.51
260.865	11622.8
260.934	11593.64
261.004	11592.78
261.074	11579.52
261.144	11582.32
261.214	11577.35
261.284	11557.11
261.354	11554.46
261.424	11520.53
261.494	11517.63
261.564	11498.93
261.634	11487.99
261.703	11451.89
261.773	11442.74
261.843	11442.64
261.913	11423.51
261.983	11385.92
262.053	11373
262.123	11359.5
262.192	11319.99
262.262	11314.78
262.332	11285.82
262.402	11275.41
262.472	11259.84
262.541	11227.7
262.611	11220.9
262.681	11187.84
262.751	11185.14
262.821	11171.84
262.89	11142.92
262.96	11128.85
263.03	11134.05
263.1	11118.1
263.169	11105.72
263.239	11094.3
263.309	11095.5
263.379	11086.1
263.448	11072.95
263.518	11058.63
263.588	11043.99
263.657	11055.79
263.727	11051.89
263.797	11039.89
263.867	11026.06
263.936	10989.67
264.006	10985.53
264.076	10966.74
264.145	10943.12
264.215	10915.27
264.285	10907.95
264.354	10872.15
264.424	10852.82
264.494	10821.11
264.563	10803
264.633	10815.24
264.702	10806.95
264.772	10765.12
264.842	10742.47
264.911	10734.76
264.981	10707.05
265.05	10689.95
265.12	10670.92
265.19	10653.86
265.259	10651.35
265.329	10639.16
265.398	10629.19
265.468	10640.32
265.537	10619.69
265.607	10617.38
265.676	10616.56
265.746	10613.24
265.815	10617.48
265.885	10600.85
265.955	10577.25
266.024	10561.3
266.094	10516.63
266.163	10513.45
266.232	10522.61
266.302	10505.89
266.371	10494.33
266.441	10487.19
266.51	10486.47
266.58	10464.74
266.649	10437.38
266.719	10433.52
266.788	10426.29
266.858	10430.34
266.927	10389.34
266.996	10374.98
267.066	10368.43
267.135	10345.79
267.205	10332.58
267.274	10323.62
267.343	10325.74
267.413	10313.07
267.482	10313.22
267.552	10326.47
267.621	10290.67
267.69	10254.73
267.76	10252.08
267.829	10248.81
267.898	10229.82
267.968	10208.87
268.037	10209.64
268.106	10209.83
268.176	10182.47
268.245	10167.96
268.314	10150.52
268.384	10155.05
268.453	10148.55
268.522	10137.71
268.592	10135.2
268.661	10109.58
268.73	10101.39
268.799	10082.6
268.869	10091.7
268.938	10066.17
269.007	10038.95
269.076	10036.21
269.146	10036.45
269.215	10029.61
269.284	10035.29
269.353	10021.71
269.422	10007.65
269.492	9984.33
269.561	9944.93
269.63	9933.32
269.699	9921.28
269.768	9907.36
269.838	9895.08
269.907	9888.09
269.976	9856.98
270.045	9826.78
270.114	9833.14
270.183	9813.77
270.253	9804.62
270.322	9776.25
270.391	9761.61
270.46	9759.54
270.529	9755.93
270.598	9752.56
270.667	9739.55
270.736	9714.4
270.806	9709.59
270.875	9712.14
270.944	9698.95
271.013	9722.83
271.082	9719.61
271.151	9711.61
271.22	9677.52
271.289	9665.91
271.358	9652.57
271.427	9652.91
271.496	9643.95
271.565	9622.32
271.634	9615.15
271.703	9639.91
271.772	9637.69
271.841	9627
271.91	9612.07
271.979	9602.39
272.048	9579.23
272.117	9575.18
272.186	9553.75
272.255	9553.32
272.324	9548.35
272.393	9548.93
272.462	9536.51
272.531	9530.15
272.6	9513.15
272.669	9527.74
272.738	9514.74
272.807	9509.68
272.876	9484.5
272.945	9517.2
273.013	9519.31
273.082	9518.54
273.151	9474.09
273.22	9473.22
273.289	9469.61
273.358	9470.14
273.427	9456.95
273.496	9459.69
273.564	9458.63
273.633	9460.22
273.702	9441.82
273.771	9431.95
273.84	9420.49
273.909	9414.95
273.977	9411.73
274.046	9406.04
274.115	9410.33
274.184	9398.53
274.253	9391.31
274.322	9410.67
274.39	9374.12
274.459	9363.47
274.528	9343.2
274.597	9340.7
274.665	9334.82
274.734	9339.16
274.803	9334.92
274.872	9324.13
274.94	9308.82
275.009	9363.74
275.078	9349.73
275.147	9345.35
275.215	9341.5
275.284	9353.68
275.353	9338.7
275.421	9313.62
275.49	9327.58
275.559	9313.33
275.627	9303.41
275.696	9292.15
275.765	9282.9
275.833	9281.07
275.902	9275.53
275.971	9285.69
276.039	9292.87
276.108	9300.72
276.177	9300.96
276.245	9281.31
276.314	9281.75
276.383	9289.02
276.451	9218.78
276.52	9217.82
276.588	9231.01
276.657	9236.84
276.725	9226.25
276.794	9227.16
276.863	9241.27
276.931	9221.67
277	9232.07
277.068	9241.8
277.137	9264.52
277.205	9260.09
277.274	9283.49
277.342	9292.35
277.411	9270.45
277.48	9259.42
277.548	9242.86
277.617	9243.39
277.685	9242.48
277.754	9243.1
277.822	9230.58
277.89	9247.29
277.959	9240.55
278.027	9219.8
278.096	9200.16
278.164	9229
278.233	9214.08
278.301	9200.45
278.37	9202.47
278.438	9183.17
278.507	9190.92
278.575	9163.62
278.643	9161.02
278.712	9129.87
278.78	9116.63
278.849	9135.74
278.917	9147.24
278.985	9145.51
279.054	9146.76
279.122	9160.87
279.191	9158.32
279.259	9156.97
279.327	9136.5
279.396	9157.5
279.464	9153.5
279.532	9164.04
279.601	9150.42
279.669	9155.33
279.737	9167.51
279.806	9166.64
279.874	9184.12
279.942	9178.97
280.011	9171.94
280.079	9186.67
280.147	9204.63
280.215	9208.05
280.284	9199.77
280.352	9178.05
280.42	9180.6
280.488	9165.92
280.557	9157.16
280.625	9161.06
280.693	9159.61
280.761	9156.72
280.83	9140.21
280.898	9154.46
280.966	9133.28
281.034	9104.05
281.102	9081.81
281.171	9071.56
281.239	9086.82
281.307	9071.41
281.375	9058.51
281.443	9081.57
281.512	9074.88
281.58	9080.9
281.648	9061.88
281.716	9058.9
281.784	9065.54
281.852	9052.3
281.92	9054.23
281.989	9064.1
282.057	9051.48
282.125	9099.25
282.193	9101.08
282.261	9097.71
282.329	9091.94
282.397	9095.45
282.465	9095.59
282.533	9118.22
282.601	9107.34
282.67	9076.04
282.738	9065.5
282.806	9079.08
282.874	9068
282.942	9069.49
283.01	9061.12
283.078	9075.65
283.146	9070.12
283.214	9076.57
283.282	9085.04
283.35	9095.11
283.418	9088.75
283.486	9093.52
283.554	9047.67
283.622	9043.63
283.69	9037.75
283.758	9032.03
283.826	9045.7
283.894	9056.19
283.962	9075.07
284.03	9092.74
284.098	9092.59
284.165	9094.04
284.233	9090.95
284.301	9087.54
284.369	9075.11
284.437	9067.22
284.505	9053.4
284.573	9073.33
284.641	9053.74
284.709	9064
284.777	9047.05
284.845	9053.07
284.912	9056.63
284.98	9063.42
285.048	9056.53
285.116	9068.76
285.184	9079.74
285.252	9066.59
285.319	9057.01
285.387	9045.7
285.455	9030.63
285.523	9039.58
285.591	9032.99
285.659	9033.23
285.726	9045.51
285.794	9028.76
285.862	9030.83
285.93	9033.91
285.997	9024.76
286.065	9032.56
286.133	9025.34
286.201	9024.18
286.269	9005.31
286.336	8990.67
286.404	8978.49
286.472	8990.48
286.539	8965.31
286.607	8948.94
286.675	8955.44
286.743	8961.6
286.81	8952.98
286.878	8966.32
286.946	8963.38
287.013	8966.6
287.081	8965.64
287.149	8946.91
287.216	8971.95
287.284	8963.81
287.352	8965.25
287.419	8963.28
287.487	8975.85
287.555	8973.25
287.622	8969.78
287.69	8982.39
287.758	8997.03
287.825	8994.38
287.893	8979.22
287.96	8986.77
288.028	8996.59
288.096	9004.49
288.163	9010.36
288.231	9006.41
288.298	9003.48
288.366	9011.57
288.433	9013.78
288.501	9004.15
288.569	9014.69
288.636	9008.34
288.704	9017.39
288.771	9023.36
288.839	9017.92
288.906	9012.82
288.974	9027.16
289.041	9023.84
289.109	9016.38
289.176	9027.74
289.244	9035.59
289.311	9053.35
289.379	9066.01
289.446	9068.04
289.514	9066.06
289.581	9065.82
289.649	9063.94
289.716	9070.69
289.783	9068.13
289.851	9089.85
289.918	9089.94
289.986	9102.41
290.053	9105.25
290.121	9110.74
290.188	9114.98
290.255	9140.06
290.323	9134.04
290.39	9128.31
290.458	9133.56
290.525	9138.76
290.592	9131.63
290.66	9132.07
290.727	9126
290.794	9141.02
290.862	9146.32
290.929	9147.14
290.996	9145.4
291.064	9159.08
291.131	9165.39
291.198	9170.25
291.266	9160.23
291.333	9166.35
291.4	9161.58
291.468	9184.6
291.535	9176.03
291.602	9182.62
291.669	9169.96
291.737	9176.89
291.804	9174.05
291.871	9193.55
291.938	9209.3
292.006	9242.77
292.073	9260.19
292.14	9269.54
292.207	9266.65
292.275	9267.22
292.342	9279.26
292.409	9304.64
292.476	9333.53
292.543	9327.95
292.611	9337.1
292.678	9356.6
292.745	9381.68
292.812	9391.6
292.879	9382.89
292.946	9391.51
293.014	9406.19
293.081	9421.31
293.148	9428.63
293.215	9443.65
293.282	9437.2
293.349	9442.45
293.416	9422.37
293.484	9438.31
293.551	9456.9
293.618	9472.55
293.685	9496.24
293.752	9485.98
293.819	9483.53
293.886	9463.54
293.953	9466.53
294.02	9479.82
294.087	9485.93
294.154	9483.77
294.221	9503.42
294.288	9504.86
294.356	9527.06
294.423	9530.24
294.49	9524.75
294.557	9548.78
294.624	9542.91
294.691	9567.13
294.758	9563.61
294.825	9564.96
294.892	9553.84
294.959	9546.76
295.026	9551.09
295.093	9543.43
295.16	9549.12
295.226	9547.57
295.293	9576.66
295.36	9585.38
295.427	9593.14
295.494	9611.73
295.561	9614.38
295.628	9642.17
295.695	9663.7
295.762	9662.64
295.829	9667.84
295.896	9685.9
295.963	9694.33
296.03	9707.43
296.096	9715.43
296.163	9732.67
296.23	9748.22
296.297	9760.94
296.364	9762.09
296.431	9768.69
296.498	9767.2
296.564	9793.59
296.631	9801.15
296.698	9780.49
296.765	9802.21
296.832	9793.2
296.899	9769.03
296.965	9788.87
297.032	9758.86
297.099	9770.66
297.166	9782.84
297.233	9782.22
297.299	9776.39
297.366	9773.16
297.433	9778.51
297.5	9788
297.566	9785.25
297.633	9784.53
297.7	9792.19
297.767	9795.56
297.833	9801.2
297.9	9806.01
297.967	9789.3
298.033	9802.06
298.1	9836.36
298.167	9826.68
298.234	9835.64
298.3	9856.4
298.367	9853.7
298.434	9864.3
298.5	9852.06
298.567	9844.74
298.634	9844.21
298.7	9859.91
298.767	9857.94
298.834	9878.31
298.9	9873.16
298.967	9867.62
299.033	9884.62
299.1	9898.06
299.167	9909.43
299.233	9905.48
299.3	9918.58
299.366	9941.12
299.433	9956.49
299.5	9932.26
299.566	9937.65
299.633	9950.85
299.699	9955.67
299.766	9952.2
299.832	9958.13
299.899	9967.52
299.965	9981.34
300.032	9977.83
300.099	9986.69
300.165	10003.31
300.232	9992.52
300.298	9992.62
300.365	10013.28
300.431	10012.8
300.498	10003.94
300.564	10005.38
300.631	10017.66
300.697	10036.84
300.763	10035.34
300.83	10026.82
300.896	10036.16
300.963	10044.3
301.029	10050.13
301.096	10062.27
301.162	10077.16
301.229	10074.6
301.295	10071.47
301.361	10076.05
301.428	10086.84
301.494	10072.24
301.561	10070.8
301.627	10070.51
301.693	10073.11
301.76	10073.11
301.826	10065.74
301.892	10081.83
301.959	10095.89
302.025	10091.9
302.092	10084.86
302.158	10093.53
302.224	10103.31
302.291	10098.69
302.357	10094.02
302.423	10085.06
302.49	10073.35
302.556	10081.88
302.622	10076.91
302.688	10089.34
302.755	10104.95
302.821	10114.83
302.887	10130.24
302.954	10126.1
303.02	10134.24
303.086	10141.56
303.152	10139.93
303.219	10138.09
303.285	10135.97
303.351	10141.71
303.417	10147.39
303.483	10133.37
303.55	10123.45
303.616	10115.69
303.682	10116.56
303.748	10113.57
303.815	10127.35
303.881	10137.04
303.947	10123.26
304.013	10130.77
304.079	10117.14
304.145	10093.73
304.212	10089.49
304.278	10082.12
304.344	10079.03
304.41	10068.48
304.476	10058.71
304.542	10056.3
304.608	10068.68
304.674	10049.31
304.741	10043.15
304.807	10044.3
304.873	10056.15
304.939	10074.31
305.005	10058.85
305.071	10056.1
305.137	10066.22
305.203	10042.37
305.269	10039.1
305.335	10056.63
305.401	10052.06
305.467	10054.56
305.533	10062.37
305.599	10069.54
305.666	10073.49
305.732	10078.46
305.798	10095.51
305.864	10119.79
305.93	10121.86
305.996	10116.71
306.062	10121.19
306.128	10118.39
306.194	10104.62
306.259	10103.27
306.325	10085.78
306.391	10103.36
306.457	10115.26
306.523	10113.48
306.589	10140.17
306.655	10138.19
306.721	10116.18
306.787	10101.68
306.853	10114.59
306.919	10093.63
306.985	10089.35
307.051	10079.09
307.117	10069.89
307.183	10056.45
307.248	10027.35
307.314	10035.39
307.38	10039.25
307.446	10048.54
307.512	10035.15
307.578	10040.98
307.644	10034.62
307.709	10038.81
307.775	10028.99
307.841	10020.84
307.907	10021.71
307.973	9996.04
308.039	9985.63
308.104	9997.34
308.17	9998.93
308.236	9981.97
308.302	9985.92
308.368	9975.03
308.433	9983.12
308.499	9979.75
308.565	9967.95
308.631	9973.73
308.696	9948.54
308.762	9935.05
308.828	9934.91
308.894	9916.46
308.959	9896.86
309.025	9886.5
309.091	9885.06
309.156	9871.13
309.222	9870.8
309.288	9854.32
309.354	9839.87
309.419	9841.71
309.485	9820.13
309.551	9827.5
309.616	9815.84
309.682	9822.34
309.748	9816.95
309.813	9808.95
309.879	9793.49
309.945	9786.22
310.01	9778.66
310.076	9784
310.141	9777.74
310.207	9758.62
310.273	9767.09
310.338	9771.04
310.404	9755.05
310.469	9738.63
310.535	9735.79
310.601	9714.69
310.666	9725.29
310.732	9731.79
310.797	9719.6
310.863	9716.14
310.928	9705.68
310.994	9710.98
311.059	9702.12
311.125	9695.18
311.191	9705.54
311.256	9705.3
311.322	9707.85
311.387	9689.41
311.453	10113.44
311.518	10085.27
311.584	10080.12
311.649	10076.26
311.715	10064.51
311.78	10069.95
311.846	10062.97
311.911	10070.53
311.976	10078.38
312.042	10060.56
312.107	10042.55
312.173	10037.69
312.238	10026.85
312.304	10022.95
312.369	10013.41
312.434	10001.95
312.5	9995.5
312.565	9962.31
312.631	9960.77
312.696	9957.26
312.761	9958.65
312.827	9524.6
312.892	9568.72
312.958	9567.03
313.023	9566.84
313.088	9563.28
313.154	9547.58
313.219	9537.32
313.284	9526.72
313.35	9515.17
313.415	9505.39
313.48	9503.9
313.546	9503.46
313.611	9508.28
313.676	9497.3
313.741	9484.97
313.807	9490.56
313.872	9491.76
313.937	9493.35
314.003	9503.51
314.068	9500.38
314.133	9502.16
314.198	9489.55
314.264	9464.89
314.329	9452.9
314.394	9451.11
314.459	9453.91
314.525	9477.89
314.59	9475.91
314.655	9457.37
314.72	9463.59
314.785	9460.22
314.851	9451.93
314.916	9433.92
314.981	9421.12
315.046	9413.7
315.111	9405.66
315.176	9391.65
315.242	9392.9
315.307	9394.78
315.372	9371.95
315.437	9365.16
315.502	9358.66
315.567	9370.65
315.632	9353.99
315.698	9355.67
315.763	9350.81
315.828	9338.92
315.893	9332.85
315.958	9324.18
316.023	9318.6
316.088	9305.11
316.153	9284.84
316.218	9277.24
316.283	9258.37
316.348	9240.41
316.413	9242.43
316.479	9222.41
316.544	9192.8
316.609	9165.59
316.674	9126.98
316.739	9092.42
316.804	9056.27
316.869	9025.36
316.934	8984.05
316.999	8953.73
317.064	8900.73
317.129	8853.65
317.194	8818.13
317.259	8763.34
317.324	8712.14
317.389	8666.32
317.454	8618.91
317.518	8586.34
317.583	8560.63
317.648	8534.26
317.713	8497.45
317.778	8430.32
317.843	8401.25
317.908	8364.97
317.973	8323.44
318.038	8291.88
318.103	8255.13
318.168	8222.56
318.233	8184.98
318.297	8131.25
318.362	8092.76
318.427	8050.78
318.492	8028.26
318.557	7974.25
318.622	7946.88
318.687	7922.93
318.751	7882.97
318.816	7856.09
318.881	7820.02
318.946	7762.79
319.011	7721.53
319.075	7676.91
319.14	7642.68
319.205	7599.21
319.27	7559.41
319.335	7509.26
319.399	7466.09
319.464	7436.1
319.529	7382.31
319.594	7338.23
319.658	7309.01
319.723	7263.78
319.788	7239.61
319.853	7182.51
319.917	7154.74
319.982	7097.07
320.047	7062.85
320.112	7031
320.176	6971.18
320.241	6930.49
320.306	6903.68
320.37	6852.81
320.435	6825.28
320.5	6798.14
320.564	6756.31
320.629	6709.01
320.694	6678.17
320.758	6639.28
320.823	6590.44
320.888	6561.49
320.952	6511.71
321.017	6471.52
321.082	6427.16
321.146	6388.32
321.211	6354.76
321.275	6310.18
321.34	6267.18
321.405	6219.47
321.469	6170.38
321.534	6131.8
321.598	6082.96
321.663	6051.33
321.727	6023.93
321.792	5972.84
321.857	5927.49
321.921	5887.15
321.986	5846.77
322.05	5784.15
322.115	5743.52
322.179	5699.84
322.244	5638.63
322.308	5607.03
322.373	5556.16
322.437	5519.15
322.502	5491.53
322.566	5442.87
322.631	5407.64
322.695	5365.24
322.76	5314.54
322.824	5282.87
322.889	5235.73
322.953	5190.52
323.018	5118.89
323.082	5048.58
323.146	4994.85
323.211	4938.81
323.275	4891.45
323.34	4845.82
323.404	4813.56
323.468	4765.4
323.533	4723.32
323.597	4682.66
323.662	4627.61
323.726	4593.82
323.79	4545.58
323.855	4477.37
323.919	4426.94
323.983	4378.28
324.048	4309.49
324.112	4446.58
324.177	4310.29
324.241	4088.51
324.305	3869.97
324.37	3656.17
324.434	3452.22
324.498	3406.04
324.562	3349.44
324.627	3285.1
324.691	3224.47
324.755	3153.51
324.82	3072.02
324.884	2985.76
324.948	2904.62
325.012	2802.35
325.077	2661.12
