Data from 20250703_urea_0.1M_MAYP1162681_15-01-05-618.txt Node
Date: Thu Jul 03 15:01:05 BST 2025
User: adleo
Spectrometer: MAYP116268
Trigger mode: 0
Integration Time (sec): 1.000000E0
Scans to average: 1
Electric dark correction enabled: true
Nonlinearity correction enabled: true
Boxcar width: 10
XAxis mode: Wavelengths
Number of Pixels in Spectrum: 2068
>>>>>Begin Spectral Data<<<<<
179.565	1271.01
179.642	1329.08
179.718	1374.07
179.795	1413.35
179.871	1449.79
179.948	1467.32
180.024	1485.96
180.101	1509.57
180.177	1524.34
180.254	1547.72
180.33	1571.67
180.407	1630.93
180.483	1729.94
180.56	1824.82
180.636	1913.99
180.712	1898.25
180.789	1908.57
180.865	1918.78
180.942	1924.58
181.018	1936.47
181.095	1949.64
181.171	1956.25
181.248	1957.97
181.324	1976.99
181.4	1985.84
181.477	1996.82
181.553	2012.37
181.63	2037.62
181.706	2054.56
181.782	2063.68
181.859	2064.87
181.935	2070.53
182.011	2067.16
182.088	2087.09
182.164	2107.69
182.24	2120.62
182.317	2131.47
182.393	2128.61
182.469	2144.79
182.546	2161.2
182.622	2166
182.698	2159.91
182.775	2172.61
182.851	2187.27
182.927	2177.32
183.003	2174.09
183.08	2168.09
183.156	2178.08
183.232	2172.94
183.308	2158.67
183.385	2168.76
183.461	2186.17
183.537	2185.51
183.613	2200.49
183.69	2191.26
183.766	2179.55
183.842	2188.26
183.918	2195.73
183.995	2210
184.071	2216.05
184.147	2209.62
184.223	2201.87
184.299	2215.34
184.375	2202.25
184.452	2209.78
184.528	2262.22
184.604	2272.31
184.68	2283.77
184.756	2289.3
184.832	2294.67
184.908	2300.19
184.985	2300
185.061	2281.63
185.137	2295.34
185.213	2281.59
185.289	2281.21
185.365	2272.84
185.441	2269.03
185.517	2282.12
185.593	2278.74
185.669	2273.55
185.745	2283.98
185.822	2298.39
185.898	2291.2
185.974	2300.1
186.05	2292.62
186.126	2253.79
186.202	2246.65
186.278	2242.37
186.354	2233.8
186.43	2239.61
186.506	2238.32
186.582	2237.09
186.658	2247.6
186.734	2222.24
186.81	2224.38
186.886	2227.71
186.962	2241.84
187.038	2241.89
187.114	2232.03
187.19	2241.65
187.266	2233.23
187.341	2234.94
187.417	2230.13
187.493	2226.8
187.569	2229.52
187.645	2221.38
187.721	2211.29
187.797	2217.24
187.873	2224.95
187.949	2219.14
188.025	2212.34
188.101	2216.09
188.176	2220.85
188.252	2213.95
188.328	2223.61
188.404	2223.75
188.48	2218.61
188.556	2213.52
188.632	2213.76
188.707	2214.81
188.783	2209.62
188.859	2203.72
188.935	2190.16
189.011	2194.58
189.086	2191.92
189.162	2184.35
189.238	2181.5
189.314	2180.26
189.39	2178.45
189.465	2168.37
189.541	2185.74
189.617	2170.89
189.693	2166.66
189.768	2169.42
189.844	2195.03
189.92	2186.28
189.996	2198.32
190.071	2210.4
190.147	2206.02
190.223	2212.93
190.298	2205.64
190.374	2192.28
190.45	2202.74
190.526	2213.54
190.601	2209.26
190.677	2209.36
190.753	2238.16
190.828	2243.44
190.904	2254.48
190.98	2268
191.055	2278.89
191.131	2267.61
191.207	2288.6
191.282	2297.44
191.358	2286.26
191.433	2269.6
191.509	2282.54
191.585	2276.4
191.66	2277.44
191.736	2290.67
191.811	2282.39
191.887	2300.72
191.963	2326.56
192.038	2335.27
192.114	2335.89
192.189	2337.46
192.265	2331.8
192.34	2309.9
192.416	2306.85
192.491	2304.66
192.567	2307.38
192.642	2310.33
192.718	2313.28
192.793	2301.95
192.869	2299.57
192.944	2303.19
193.02	2311.8
193.095	2318.08
193.171	2324.46
193.246	2324.37
193.322	2317.75
193.397	2318.99
193.473	2301.09
193.548	2283.1
193.624	2287
193.699	2284.19
193.775	2302.28
193.85	2307.61
193.925	2316.6
194.001	2315.61
194.076	2306.99
194.152	2294.52
194.227	2286.09
194.302	2273.25
194.378	2276.91
194.453	2277.01
194.529	2291
194.604	2275.63
194.679	2268.97
194.755	2248.99
194.83	2259.08
194.905	2256.89
194.981	2265.46
195.056	2259.51
195.131	2266.46
195.207	2262.98
195.282	2254.28
195.357	2233.76
195.433	2249.42
195.508	2236.62
195.583	2243.28
195.659	2262.51
195.734	2271.93
195.809	2269.98
195.884	2282.59
195.96	2286.82
196.035	2300.1
196.11	2294.1
196.185	2306.19
196.261	2311.85
196.336	2345.02
196.411	2332.69
196.486	2337.45
196.561	2330.74
196.637	2340.78
196.712	2357.35
196.787	2361.87
196.862	2377.72
196.937	2391.9
197.013	2395.62
197.088	2405.42
197.163	2429.99
197.238	2447.05
197.313	2444.1
197.388	2458.43
197.464	2489.24
197.539	2498.53
197.614	2489.34
197.689	2504.1
197.764	2523.39
197.839	2544.2
197.914	2537.39
197.989	2560.34
198.065	2577.96
198.14	2630.82
198.215	2659.2
198.29	2668.07
198.365	2681.31
198.44	2693.12
198.515	2720.85
198.59	2736.72
198.665	2763.97
198.74	2777.46
198.815	2780.03
198.89	2806.57
198.965	2838.98
199.04	2835.26
199.115	2852.32
199.19	2900.92
199.265	2904.11
199.34	2914.12
199.415	2944.69
199.49	2966.75
199.565	2979.15
199.64	3001.27
199.715	2999.83
199.79	3006.7
199.865	3016.66
199.94	3016.71
200.015	3051.62
200.09	3055.19
200.165	3063.16
200.24	3074.84
200.315	3115.84
200.39	3128.91
200.464	3135.68
200.539	3138.21
200.614	3152.04
200.689	3174.41
200.764	3179.66
200.839	3199.11
200.914	3204.21
200.989	3196.57
201.063	3213.51
201.138	3192.68
201.213	3192.49
201.288	3169.36
201.363	3178.37
201.438	3176.94
201.512	3192.77
201.587	3172.64
201.662	3179.79
201.737	3193.39
201.812	3197.68
201.886	3158.96
201.961	3170.42
202.036	3159.21
202.111	3155.97
202.186	3128.85
202.26	3113.2
202.335	3090.45
202.41	3084.25
202.485	3069.81
202.559	3051.55
202.634	3025.65
202.709	3038.52
202.784	3022.83
202.858	3030.03
202.933	3014.29
203.008	3015.63
203.082	3003.76
203.157	3006.33
203.232	2969.72
203.306	2956.13
203.381	2930.33
203.456	2920.7
203.53	2911.25
203.605	2903.34
203.68	2895.66
203.754	2904.14
203.829	2906.77
203.904	2906.43
203.978	2913.63
204.053	2937.19
204.127	2946.01
204.202	2969.28
204.277	2977.14
204.351	2998.7
204.426	3018.16
204.5	3040.2
204.575	3036.86
204.65	3084.29
204.724	3119.66
204.799	3166.67
204.873	3207.53
204.948	3253.95
205.022	3288.02
205.097	3325.89
205.171	3391.37
205.246	3454.7
205.32	3514.06
205.395	3574.1
205.469	3633.78
205.544	3709.18
205.618	3767.85
205.693	3856.69
205.767	3922.83
205.842	4029.54
205.916	4107.84
205.991	4190.19
206.065	4285.37
206.14	4396.9
206.214	4487.24
206.289	4584.32
206.363	4702.16
206.438	4812.6
206.512	4930.31
206.586	5069.24
206.661	5192.98
206.735	5293.86
206.81	5419.68
206.884	5565.82
206.958	5683.46
207.033	5835.71
207.107	5977.7
207.181	6143.6
207.256	6282.4
207.33	6449.49
207.405	6611.72
207.479	6788.25
207.553	6945.06
207.628	7085.59
207.702	7254.32
207.776	7405.18
207.851	7564.48
207.925	7751.64
207.999	7913.6
208.073	8079.9
208.148	8247.5
208.222	8413.54
208.296	8616.49
208.371	8805.46
208.445	8987.11
208.519	9198.47
208.593	9381.03
208.668	9558.95
208.742	9744.86
208.816	9926.95
208.89	10118.66
208.965	10293.35
209.039	10474.2
209.113	10674.09
209.187	10870.73
209.261	11055.31
209.336	11266.89
209.41	11470.78
209.484	11649.15
209.558	11865.59
209.632	12065.46
209.707	12258.83
209.781	12457.65
209.855	12661.68
209.929	12866.79
210.003	13056.51
210.077	13238.34
210.151	13468.17
210.226	13688.75
210.3	13895.98
210.374	14092.65
210.448	14271.2
210.522	14452.69
210.596	14649.69
210.67	14833.88
210.744	15057.92
210.818	15267.94
210.892	15457.52
210.966	15622.94
211.041	15800.42
211.115	15948.3
211.189	16148.85
211.263	16337.02
211.337	16508.99
211.411	16682.74
211.485	16829.98
211.559	17006.04
211.633	17158.1
211.707	17276.89
211.781	17424.75
211.855	17543.69
211.929	17690.63
212.003	17829.52
212.077	17991.93
212.151	18142.58
212.225	18303.35
212.299	18444.16
212.373	18566.47
212.447	18705.16
212.52	18867.85
212.594	19013.2
212.668	19162.01
212.742	19261.86
212.816	19373.76
212.89	19502.38
212.964	19636.21
213.038	19768.4
213.112	19910.85
213.186	20057.07
213.26	20165.64
213.333	20254.6
213.407	20372.29
213.481	20498.89
213.555	20627.95
213.629	20734.51
213.703	20837.17
213.777	20940.65
213.85	21025.62
213.924	21172.14
213.998	21281.99
214.072	21385.71
214.146	21483.17
214.219	21582.27
214.293	21690.1
214.367	21798.45
214.441	21916.12
214.515	21994.64
214.588	22074.95
214.662	22131.93
214.736	22205.64
214.81	22306.19
214.883	22402.99
214.957	22483.39
215.031	22560.62
215.105	22616.64
215.178	22685.63
215.252	22764.22
215.326	22824.39
215.4	22888.12
215.473	22917.2
215.547	22968.55
215.621	23037.17
215.694	23107.28
215.768	23152.36
215.842	23210.51
215.915	23275.08
215.989	23301.22
216.063	23357.4
216.136	23412.52
216.21	23476.6
216.284	23549.91
216.357	23616.46
216.431	23669.99
216.504	23745.32
216.578	23818.97
216.652	23893.09
216.725	23955.79
216.799	24012.37
216.873	24069.19
216.946	24126
217.02	24171.92
217.093	24219.53
217.167	24248.42
217.24	24285.56
217.314	24337.8
217.387	24374.99
217.461	24397.61
217.535	24469.73
217.608	24505.67
217.682	24544.07
217.755	24590.04
217.829	24610.16
217.902	24644.61
217.976	24690.34
218.049	24714.13
218.123	24739.7
218.196	24782.98
218.27	24821.58
218.343	24838.9
218.417	24876.92
218.49	24912.53
218.563	24955.08
218.637	25004.4
218.71	25048.45
218.784	25090.82
218.857	25142.06
218.931	25177.53
219.004	25226.98
219.077	25249.18
219.151	25281.85
219.224	25318.53
219.298	25349.36
219.371	25395.31
219.444	25410.6
219.518	25433.72
219.591	25466.58
219.665	25521.37
219.738	25546.85
219.811	25555.2
219.885	25594.73
219.958	25625.86
220.031	25653.32
220.105	25686.62
220.178	25707.86
220.251	25735.04
220.325	25764.38
220.398	25780.75
220.471	25813.66
220.544	25843.83
220.618	25862.03
220.691	25890.02
220.764	25910.3
220.838	25933.27
220.911	25943.99
220.984	25987.05
221.057	26006.21
221.131	26025.08
221.204	25998.24
221.277	26028.66
221.35	26069.69
221.424	26076.78
221.497	26090.59
221.57	26104.83
221.643	26122.84
221.716	26127.96
221.79	26120.52
221.863	26118.2
221.936	26124.58
222.009	26127.38
222.082	26135.78
222.155	26142.92
222.229	26156.05
222.302	26165.32
222.375	26162.47
222.448	26178.31
222.521	26175.9
222.594	26179.81
222.667	26159.19
222.74	26175.41
222.814	26164.21
222.887	26155.91
222.96	26169.28
223.033	26176.19
223.106	26172.9
223.179	26168.75
223.252	26169.14
223.325	26172.42
223.398	26173.14
223.471	26161.66
223.544	26162.72
223.617	26146.3
223.69	26133.41
223.763	26123.32
223.837	26120.43
223.91	26108.46
223.983	26082.39
224.056	26056.46
224.129	26054.77
224.202	26064.57
224.275	26046.04
224.348	26021.32
224.42	26000.81
224.493	25958.13
224.566	25931.87
224.639	25925.69
224.712	25903.49
224.785	25879.49
224.858	25861.39
224.931	25840.64
225.004	25816.89
225.077	25793.43
225.15	25757.19
225.223	25739.09
225.296	25743.19
225.369	25698.21
225.442	25682.76
225.514	25659.11
225.587	25638.26
225.66	25607.81
225.733	25587.2
225.806	25570.93
225.879	25555.44
225.952	25526.72
226.025	25532.47
226.097	25532.66
226.17	25502.06
226.243	25458.39
226.316	25439.23
226.389	25425.47
226.461	25408.77
226.534	25397.87
226.607	25372.39
226.68	25381.51
226.753	25354
226.825	25302.6
226.898	25307.43
226.971	25282.86
227.044	25259.8
227.117	25240.01
227.189	25230.56
227.262	25211.98
227.335	25197.4
227.407	25165.9
227.48	25139.26
227.553	25104.13
227.626	25063.98
227.698	25034.16
227.771	25015.92
227.844	24980.46
227.916	24953.54
227.989	24916.86
228.062	24882.8
228.134	24877.64
228.207	24838.94
228.28	24815.3
228.352	24786.83
228.425	24747.95
228.498	24726.77
228.57	24688.85
228.643	24682.77
228.716	24643.74
228.788	24610.88
228.861	24572.91
228.934	24564.08
229.006	24537.84
229.079	24507.21
229.151	24475.85
229.224	24437.65
229.296	24414.93
229.369	24407.16
229.442	24386.71
229.514	24345.08
229.587	24332.78
229.659	24279.09
229.732	24249.76
229.804	24227.81
229.877	24225.64
229.949	24216.86
230.022	24211.85
230.094	24194.39
230.167	24169.21
230.239	24125.51
230.312	24102.79
230.384	24103.42
230.457	24067
230.529	24039.89
230.602	24013.8
230.674	23981.63
230.747	23971.41
230.819	23955.88
230.892	23903.6
230.964	23879.62
231.037	23855.46
231.109	23824.79
231.181	23811.33
231.254	23770.73
231.326	23731.18
231.399	23688.79
231.471	23645.96
231.544	23588.32
231.616	23557.37
231.688	23513.91
231.761	23489.13
231.833	23446.31
231.905	23383.27
231.978	23352.51
232.05	23321.55
232.122	23291.32
232.195	23257.8
232.267	23238.8
232.339	23198.78
232.412	23180.84
232.484	23138.12
232.556	23101.67
232.629	23080.84
232.701	23060.92
232.773	23039.61
232.846	23008.17
232.918	22971.33
232.99	22934.69
233.062	22902.87
233.135	22884.16
233.207	22840.58
233.279	22809.24
233.351	22773.85
233.424	22728.92
233.496	22689.05
233.568	22671.26
233.64	22624.93
233.713	22589.97
233.785	22542.34
233.857	22516.88
233.929	22467.81
234.001	22446.59
234.074	22432.9
234.146	22385.8
234.218	22343.47
234.29	22296.61
234.362	22255.45
234.434	22207.82
234.507	22158.89
234.579	22114.4
234.651	22066.82
234.723	22041.03
234.795	22011.28
234.867	21984.87
234.939	21964.91
235.012	21932.23
235.084	21889.81
235.156	21859.59
235.228	21816.3
235.3	21782.17
235.372	21740.38
235.444	21710.69
235.516	21652.22
235.588	21608.55
235.66	21572.59
235.732	21526.8
235.804	21545.79
235.876	21519.48
235.948	21497.16
236.02	21467.95
236.092	21427.95
236.164	21388.57
236.236	21347.41
236.308	21302.01
236.38	21266
236.452	21219.01
236.524	21182.33
236.596	21163.77
236.668	21134.23
236.74	21091.82
236.812	21055.57
236.884	21024.29
236.956	20989.35
237.028	20939.33
237.1	20895.86
237.172	20869.25
237.244	20842.94
237.316	20759.89
237.388	20707.31
237.46	20646.2
237.532	20621.81
237.604	20575.84
237.675	20560.51
237.747	20527.4
237.819	20487.84
237.891	20446.68
237.963	20409.86
238.035	20368.85
238.107	20289.24
238.178	20265.62
238.25	20223.79
238.322	20206.63
238.394	20145.33
238.466	20100.61
238.538	20067.51
238.609	20045.24
238.681	19981.63
238.753	19930.79
238.825	19904.28
238.897	19874.45
238.968	19870.93
239.04	19808.33
239.112	19792.04
239.184	19725.16
239.255	19680.77
239.327	19646.03
239.399	19605.98
239.471	19570.71
239.542	19530.9
239.614	19512.64
239.686	19437.17
239.758	19419
239.829	19369.7
239.901	19349.85
239.973	19315.54
240.044	19294.29
240.116	19245.95
240.188	19219.4
240.259	19181.62
240.331	19133.86
240.403	19097.29
240.474	19030.59
240.546	18988.62
240.618	18932.48
240.689	18889.64
240.761	18859.61
240.833	18834.36
240.904	18790.08
240.976	18751.52
241.048	18721.17
241.119	18687.82
241.191	18671.14
241.262	18647.92
241.334	18603.53
241.405	18559.44
241.477	18506.38
241.549	18451.98
241.62	18411.64
241.692	18371.64
241.763	18351.98
241.835	18313.04
241.906	18282.3
241.978	18232.9
242.049	18215.31
242.121	18184.42
242.192	18165.87
242.264	18100.14
242.335	18035.95
242.407	18007.32
242.478	17955.8
242.55	17913.68
242.621	17861.97
242.693	17804.53
242.764	17752.73
242.836	17707.91
242.907	17672.1
242.979	17648.97
243.05	17621.6
243.122	17582.03
243.193	17542.32
243.264	17478.71
243.336	17444.92
243.407	17403.33
243.479	17386.8
243.55	17360.2
243.622	17332.78
243.693	17294.51
243.764	17283.53
243.836	17244.25
243.907	17199.96
243.978	17172.97
244.05	17137.26
244.121	17087.81
244.192	17068.15
244.264	17022.79
244.335	16983.03
244.407	16936.38
244.478	16901.92
244.549	16861.39
244.62	16816.23
244.692	16780.04
244.763	16752.52
244.834	16700.71
244.906	16658.78
244.977	16631.06
245.048	16594.24
245.119	16543.73
245.191	16502.91
245.262	16443.44
245.333	16429.51
245.405	16405.27
245.476	16368.59
245.547	16337.45
245.618	16323.38
245.689	16289.45
245.761	16254.75
245.832	16219.71
245.903	16198.11
245.974	16162.11
246.045	16132.18
246.117	16112.66
246.188	16064.7
246.259	16021.9
246.33	15990.95
246.401	15958.85
246.473	15907.76
246.544	15873.3
246.615	15859.08
246.686	15820.62
246.757	15807.08
246.828	15758.68
246.899	15743.02
246.97	15706.48
247.042	15668.5
247.113	15634.71
247.184	15623.29
247.255	15591.62
247.326	15562.51
247.397	15522.79
247.468	15495.46
247.539	15465.19
247.61	15422.14
247.681	15408.17
247.752	15392.74
247.823	15347.14
247.894	15317.88
247.965	15275.66
248.037	15241.19
248.108	15191.21
248.179	15160.41
248.25	15121.17
248.321	15101.31
248.392	15045.83
248.463	15031.99
248.534	14995.75
248.605	14975.74
248.675	14933.47
248.746	14903.39
248.817	14883.1
248.888	14857.98
248.959	14812.33
249.03	14787.22
249.101	14758.83
249.172	14725.03
249.243	14671.91
249.314	14671.05
249.385	14649.64
249.456	14624.72
249.527	14588.28
249.598	14571.6
249.669	14553.43
249.739	14536.51
249.81	14515.92
249.881	14482.28
249.952	14453.55
250.023	14431.52
250.094	14393.87
250.165	14364.61
250.235	14333.66
250.306	14307.92
250.377	14269.4
250.448	14249.01
250.519	14200.23
250.59	14194.87
250.66	14164.94
250.731	14149.99
250.802	14122.66
250.873	14092.2
250.944	14079.42
251.014	14040.23
251.085	14035.99
251.156	14002.82
251.227	13984.55
251.297	13965.32
251.368	13947.77
251.439	13934.18
251.51	13923.28
251.58	13892.33
251.651	13860.42
251.722	13846.1
251.792	13802.24
251.863	13772.73
251.934	13763.81
252.005	13767.19
252.075	13734.46
252.146	13719.51
252.217	13709.44
252.287	13684.32
252.358	13668.99
252.429	13657.76
252.499	13637.22
252.57	13605.22
252.641	13594.66
252.711	13568.82
252.782	13529.53
252.852	13523.41
252.923	13497.18
252.994	13465.32
253.064	13450.47
253.135	13420.97
253.205	13390.26
253.276	13378.93
253.347	13378.02
253.417	13340.13
253.488	13310.09
253.558	13285.94
253.629	13261.84
253.699	13237.5
253.77	13224.87
253.841	13186.93
253.911	13167.69
253.982	13143.2
254.052	13137.47
254.123	13113.85
254.193	13089.7
254.264	13106.52
254.334	13076.05
254.405	13034.55
254.475	13005.86
254.546	12978.58
254.616	12975.01
254.687	12962.14
254.757	12951.78
254.827	12921.36
254.898	12909.89
254.968	12883.57
255.039	12847.75
255.109	12830.73
255.18	12803.5
255.25	12758.71
255.321	12751.34
255.391	12715.38
255.461	12725.36
255.532	12672.47
255.602	12645
255.673	12604.41
255.743	12569.75
255.813	12525.35
255.884	12526.66
255.954	12516.24
256.024	12516.44
256.095	12492.19
256.165	12462.3
256.235	12446.06
256.306	12420.41
256.376	12411.06
256.446	12397.13
256.517	12389.47
256.587	12377.85
256.657	12359.15
256.728	12342.13
256.798	12321.45
256.868	12296.63
256.938	12265.25
257.009	12258.98
257.079	12249.48
257.149	12265.78
257.219	12222.54
257.29	12209.04
257.36	12158.38
257.43	12150.86
257.5	12107.05
257.571	12081.06
257.641	12066.51
257.711	12033.54
257.781	12023.8
257.852	12010.11
257.922	11976.56
257.992	11958.63
258.062	11939.21
258.132	11932.75
258.202	11914.63
258.273	11895.68
258.343	11898.67
258.413	11873.32
258.483	11852.78
258.553	11820.97
258.623	11782.03
258.693	11769.69
258.764	11771.13
258.834	11777.69
258.904	11753.92
258.974	11724.81
259.044	11703.94
259.114	11688.91
259.184	11677.15
259.254	11663.31
259.324	11617.67
259.394	11608.42
259.464	11600.32
259.535	11571.69
259.605	11542.91
259.675	11515.78
259.745	11504.6
259.815	11465.8
259.885	11435.34
259.955	11445.99
260.025	11414.43
260.095	11401.9
260.165	11399.87
260.235	11396.11
260.305	11370.62
260.375	11342.23
260.445	11348.74
260.515	11342.18
260.585	11335.87
260.655	11311.05
260.725	11297.89
260.795	11297.89
260.865	11295.14
260.934	11274.23
261.004	11270.8
261.074	11255.58
261.144	11260.11
261.214	11248.97
261.284	11237.65
261.354	11237.7
261.424	11206.51
261.494	11215.09
261.564	11195.96
261.634	11180
261.703	11144
261.773	11132.63
261.843	11128.44
261.913	11109.93
261.983	11079.67
262.053	11069.16
262.123	11054.22
262.192	11025.7
262.262	11016.01
262.332	10982.76
262.402	10971.15
262.472	10958.13
262.541	10916.5
262.611	10908.89
262.681	10885.23
262.751	10876.89
262.821	10857.52
262.89	10832.36
262.96	10821.96
263.03	10832.41
263.1	10815.98
263.169	10802.34
263.239	10787.6
263.309	10784.18
263.379	10779.17
263.448	10767.84
263.518	10755.89
263.588	10738.16
263.657	10740.91
263.727	10727.94
263.797	10717.54
263.867	10702.41
263.936	10662.85
264.006	10665.5
264.076	10649.02
264.145	10631.91
264.215	10609.17
264.285	10602.14
264.354	10564.17
264.424	10542.54
264.494	10508.23
264.563	10485.73
264.633	10485.92
264.702	10475.32
264.772	10440.1
264.842	10412.83
264.911	10409.07
264.981	10380.83
265.05	10369.03
265.12	10352.31
265.19	10344.41
265.259	10343.4
265.329	10336.7
265.398	10335.74
265.468	10354.57
265.537	10332.75
265.607	10330.2
265.676	10325.19
265.746	10314.2
265.815	10314.25
265.885	10297.77
265.955	10275.61
266.024	10260.97
266.094	10227.15
266.163	10228.74
266.232	10230.33
266.302	10218.14
266.371	10206.34
266.441	10199.5
266.51	10192.56
266.58	10170.35
266.649	10143.86
266.719	10142.84
266.788	10135.28
266.858	10136.53
266.927	10094.86
266.996	10087.25
267.066	10067.07
267.135	10041.1
267.205	10034.36
267.274	10023.66
267.343	10023.71
267.413	10004.83
267.482	10010.9
267.552	10014.9
267.621	9983.3
267.69	9956.85
267.76	9949
267.829	9938.6
267.898	9918.99
267.968	9895.97
268.037	9894.62
268.106	9892.36
268.176	9858.59
268.245	9842.55
268.314	9822.75
268.384	9823.28
268.453	9808.25
268.522	9804.21
268.592	9803.68
268.661	9787.54
268.73	9781.47
268.799	9763.6
268.869	9774.73
268.938	9735.67
269.007	9713.27
269.076	9706.82
269.146	9702.96
269.215	9695.98
269.284	9708.02
269.353	9695.07
269.422	9684.23
269.492	9664.34
269.561	9624.08
269.63	9620.95
269.699	9608.72
269.768	9601.01
269.838	9593.64
269.907	9594.27
269.976	9567.93
270.045	9545.25
270.114	9539.32
270.183	9523.43
270.253	9513.32
270.322	9484.47
270.391	9477.68
270.46	9485.1
270.529	9487.89
270.598	9485.19
270.667	9471.09
270.736	9436.6
270.806	9429.47
270.875	9434.53
270.944	9422.39
271.013	9446.66
271.082	9440.69
271.151	9432.6
271.22	9402.07
271.289	9389.65
271.358	9375.44
271.427	9372.6
271.496	9364.95
271.565	9346.99
271.634	9338.7
271.703	9363.46
271.772	9365.87
271.841	9358.69
271.91	9333.89
271.979	9314.68
272.048	9296.53
272.117	9296.91
272.186	9285.07
272.255	9289.83
272.324	9285.93
272.393	9275.97
272.462	9254.68
272.531	9247.32
272.6	9231.14
272.669	9239.18
272.738	9225.69
272.807	9216.35
272.876	9196.52
272.945	9220.69
273.013	9225.84
273.082	9236.15
273.151	9186.45
273.22	9182.99
273.289	9175.43
273.358	9186.89
273.427	9177.07
273.496	9173.02
273.564	9170.42
273.633	9166.81
273.702	9144.57
273.771	9133.4
273.84	9132.96
273.909	9136.48
273.977	9133.2
274.046	9123.96
274.115	9127.52
274.184	9115.01
274.253	9111.69
274.322	9120.49
274.39	9087.32
274.459	9072.54
274.528	9041.1
274.597	9040.14
274.665	9040
274.734	9047.94
274.803	9038.26
274.872	9034.99
274.94	9017.99
275.009	9073.48
275.078	9059.38
275.147	9052.16
275.215	9046.43
275.284	9057.02
275.353	9043.83
275.421	9014.56
275.49	9023.08
275.559	9008.11
275.627	9003.01
275.696	8990.73
275.765	8990.39
275.833	8981.78
275.902	8979.32
275.971	8987.51
276.039	8998.38
276.108	8996.75
276.177	8993.28
276.245	8976.05
276.314	8968.83
276.383	8975.71
276.451	8907.99
276.52	8915.41
276.588	8927.73
276.657	8934.18
276.725	8925.85
276.794	8922.29
276.863	8935
276.931	8919.26
277	8932.83
277.068	8942.17
277.137	8960.03
277.205	8956.61
277.274	8976.01
277.342	8986.6
277.411	8965.81
277.48	8954.26
277.548	8946.89
277.617	8949.49
277.685	8944.58
277.754	8954.74
277.822	8944.58
277.89	8956.14
277.959	8950.99
278.027	8931.97
278.096	8921.57
278.164	8942.71
278.233	8939.29
278.301	8928.61
278.37	8932.8
278.438	8917.34
278.507	8911.42
278.575	8889.13
278.643	8886.63
278.712	8868.92
278.78	8849.71
278.849	8861.98
278.917	8879.21
278.985	8868.38
279.054	8871.03
279.122	8882.68
279.191	8878.4
279.259	8876.04
279.327	8855.58
279.396	8869.49
279.464	8867.42
279.532	8870.89
279.601	8863.81
279.669	8859.28
279.737	8871.03
279.806	8872.23
279.874	8878.34
279.942	8882
280.011	8879.98
280.079	8887.68
280.147	8905.69
280.215	8912.96
280.284	8911.03
280.352	8889.13
280.42	8895.72
280.488	8874.06
280.557	8861.54
280.625	8862.89
280.693	8864.96
280.761	8871.56
280.83	8858.08
280.898	8868.67
280.966	8854.85
281.034	8825.2
281.102	8808.98
281.171	8802.63
281.239	8807.44
281.307	8797.48
281.375	8786.98
281.443	8808.6
281.512	8800.32
281.58	8803.54
281.648	8786.74
281.716	8786.46
281.784	8788.81
281.852	8779.04
281.92	8783.52
281.989	8800.22
282.057	8780.59
282.125	8825.12
282.193	8820.07
282.261	8816.17
282.329	8817.27
282.397	8817.61
282.465	8819.39
282.533	8841.77
282.601	8833.59
282.67	8816.4
282.738	8813.61
282.806	8824.83
282.874	8805.57
282.942	8807.21
283.01	8798.74
283.078	8808.6
283.146	8800.47
283.214	8810.14
283.282	8822.51
283.35	8837.24
283.418	8829.73
283.486	8834.16
283.554	8788.47
283.622	8788.38
283.69	8782.89
283.758	8773.21
283.826	8778.75
283.894	8788.66
283.962	8804.02
284.03	8817.07
284.098	8817.93
284.165	8813.79
284.233	8810.47
284.301	8810.04
284.369	8801.57
284.437	8794.11
284.505	8785.78
284.573	8806.38
284.641	8792.23
284.709	8797.76
284.777	8776.82
284.845	8783.13
284.912	8790.64
284.98	8794.97
285.048	8787.41
285.116	8798.58
285.184	8812.83
285.252	8811.19
285.319	8795.79
285.387	8787.17
285.455	8772.35
285.523	8776.54
285.591	8768.64
285.659	8770.18
285.726	8784.91
285.794	8773.12
285.862	8771.25
285.93	8769.42
285.997	8764.94
286.065	8759.84
286.133	8742.89
286.201	8740.44
286.269	8727.59
286.336	8720.08
286.404	8712.14
286.472	8718.06
286.539	8687.31
286.607	8671.38
286.675	8673.16
286.743	8678.26
286.81	8671.86
286.878	8686.34
286.946	8678.4
287.013	8681.05
287.081	8678.93
287.149	8656.45
287.216	8675.94
287.284	8667.04
287.352	8671.03
287.419	8664.15
287.487	8684.94
287.555	8685.96
287.622	8684.08
287.69	8690.96
287.758	8703.09
287.825	8698.66
287.893	8689.61
287.96	8705.49
288.028	8712.71
288.096	8716.76
288.163	8722.2
288.231	8708.43
288.298	8706.46
288.366	8719.79
288.433	8717.43
288.501	8710.31
288.569	8710.6
288.636	8705.35
288.704	8723.06
288.771	8731.25
288.839	8721.52
288.906	8710.98
288.974	8726.05
289.041	8729.42
289.109	8717.62
289.176	8724.85
289.244	8735.58
289.311	8755.31
289.379	8760.41
289.446	8763.83
289.514	8757.24
289.581	8757.19
289.649	8763.98
289.716	8764.26
289.783	8757.09
289.851	8775.86
289.918	8780.34
289.986	8794.2
290.053	8802.86
290.121	8802.38
290.188	8808.4
290.255	8839.74
290.323	8834.3
290.39	8826.93
290.458	8829.77
290.525	8843.87
290.592	8839.3
290.66	8834.87
290.727	8823.61
290.794	8839.44
290.862	8831.98
290.929	8836.94
290.996	8840.22
291.064	8848.21
291.131	8855.38
291.198	8865.82
291.266	8867.17
291.333	8864.72
291.4	8871.07
291.468	8882.38
291.535	8873
291.602	8869.53
291.669	8863.71
291.737	8865.78
291.804	8869.1
291.871	8886.86
291.938	8895.57
292.006	8924.94
292.073	8942.85
292.14	8953.78
292.207	8946.51
292.275	8960.66
292.342	8975.25
292.409	8992.48
292.476	9016.27
292.543	9009.91
292.611	9017.13
292.678	9030.28
292.745	9058.29
292.812	9069.61
292.879	9062.43
292.946	9068.6
293.014	9082.46
293.081	9089.54
293.148	9108.99
293.215	9121.45
293.282	9115.1
293.349	9123.81
293.416	9103.74
293.484	9112.83
293.551	9127.81
293.618	9150.34
293.685	9170.08
293.752	9162.19
293.819	9161.51
293.886	9148.94
293.953	9158.86
294.02	9167.38
294.087	9174.89
294.154	9167.62
294.221	9182.6
294.288	9188.18
294.356	9203.69
294.423	9209.56
294.49	9196.08
294.557	9205.33
294.624	9204.36
294.691	9220.78
294.758	9221.6
294.825	9226.65
294.892	9219.96
294.959	9216.83
295.026	9220.83
295.093	9216.06
295.16	9217.12
295.226	9220.59
295.293	9250.59
295.36	9252.71
295.427	9264.02
295.494	9277.89
295.561	9284.87
295.628	9300.77
295.695	9314.59
295.762	9318.53
295.829	9330.38
295.896	9355.08
295.963	9360.86
296.03	9364.85
296.096	9377.9
296.163	9386.57
296.23	9400.87
296.297	9414.07
296.364	9409.06
296.431	9411.61
296.498	9407.61
296.564	9430.87
296.631	9434.24
296.698	9411.7
296.765	9437.22
296.832	9427.5
296.899	9409.73
296.965	9425.28
297.032	9402.45
297.099	9421.48
297.166	9434.29
297.233	9430.14
297.299	9418.35
297.366	9424.75
297.433	9431.64
297.5	9438.09
297.566	9443.29
297.633	9439.49
297.7	9449.74
297.767	9453.16
297.833	9457.26
297.9	9455.86
297.967	9440.5
298.033	9450.08
298.1	9483.65
298.167	9476.86
298.234	9478.79
298.3	9493.43
298.367	9486.78
298.434	9502.67
298.5	9482.83
298.567	9480.23
298.634	9476.95
298.7	9500.21
298.767	9503.97
298.834	9518.71
298.9	9519.14
298.967	9512.01
299.033	9526.51
299.1	9537.35
299.167	9553
299.233	9548.32
299.3	9565.8
299.366	9584.54
299.433	9608.19
299.5	9581.36
299.566	9579.72
299.633	9596
299.699	9608.95
299.766	9612.33
299.832	9614.83
299.899	9631.54
299.965	9645.6
300.032	9644.69
300.099	9655.09
300.165	9654.61
300.232	9646.42
300.298	9643.39
300.365	9655.96
300.431	9656.15
300.498	9654.71
300.564	9662.65
300.631	9679.22
300.697	9695.5
300.763	9696.32
300.83	9686.4
300.896	9702.87
300.963	9714.28
301.029	9725.22
301.096	9728.44
301.162	9745.3
301.229	9738.27
301.295	9732.73
301.361	9732.68
301.428	9742.99
301.494	9722.18
301.561	9728.44
301.627	9731.23
301.693	9737.64
301.76	9738.75
301.826	9735.28
301.892	9742.12
301.959	9747.03
302.025	9740
302.092	9729.79
302.158	9737.11
302.224	9741.69
302.291	9733.69
302.357	9733.21
302.423	9720.11
302.49	9711.29
302.556	9722.61
302.622	9724.88
302.688	9733.35
302.755	9744.63
302.821	9747.47
302.887	9755.17
302.954	9757.2
303.02	9766.83
303.086	9773.67
303.152	9776.89
303.219	9768.95
303.285	9765.72
303.351	9775.11
303.417	9783.11
303.483	9775.64
303.55	9766.4
303.616	9766.49
303.682	9765.92
303.748	9762.5
303.815	9781.47
303.881	9787.88
303.947	9767.26
304.013	9772.85
304.079	9769.58
304.145	9751.8
304.212	9749.78
304.278	9748.67
304.344	9740
304.41	9731.14
304.476	9717.99
304.542	9711.35
304.608	9718.95
304.674	9709.47
304.741	9706.48
304.807	9710
304.873	9722.33
304.939	9741.64
305.005	9718.95
305.071	9719.34
305.137	9718.28
305.203	9690.68
305.269	9687.36
305.335	9699.93
305.401	9692.95
305.467	9687.21
305.533	9694.34
305.599	9702.24
305.666	9707.3
305.732	9713.9
305.798	9727.58
305.864	9752.33
305.93	9757.82
305.996	9755.51
306.062	9756.48
306.128	9744.92
306.194	9727.77
306.259	9724.35
306.325	9709.47
306.391	9720.5
306.457	9726.52
306.523	9730.13
306.589	9753.15
306.655	9743.18
306.721	9726.42
306.787	9714.33
306.853	9725.99
306.919	9711.25
306.985	9704.6
307.051	9703.83
307.117	9690.88
307.183	9682.35
307.248	9652.92
307.314	9652.06
307.38	9658.32
307.446	9662.7
307.512	9657.11
307.578	9660.82
307.644	9652.3
307.709	9658.03
307.775	9656.49
307.841	9653.12
307.907	9656.2
307.973	9641.8
308.039	9650.13
308.104	9660.43
308.17	9662.7
308.236	9649.31
308.302	9647.91
308.368	9637.7
308.433	9633.27
308.499	9627.69
308.565	9615.12
308.631	9612.27
308.696	9592.63
308.762	9578.61
308.828	9578.27
308.894	9558.05
308.959	9537.78
309.025	9529.54
309.091	9522.03
309.156	9512.2
309.222	9512.06
309.288	9490.24
309.354	9460.05
309.419	9455.77
309.485	9429.71
309.551	9434.72
309.616	9415.36
309.682	9413.15
309.748	9403.95
309.813	9393.6
309.879	9386.13
309.945	9371.01
310.01	9367.26
310.076	9365.62
310.141	9363.94
310.207	9346.74
310.273	9355.02
310.338	9358.06
310.404	9339.42
310.469	9329.36
310.535	9323.58
310.601	9303.4
310.666	9310.87
310.732	9325.17
310.797	9312.5
310.863	9311.06
310.928	9299.31
310.994	9309.08
311.059	9307.25
311.125	9304.56
311.191	9319.2
311.256	9309.71
311.322	9319.44
311.387	9298.59
311.453	9673.12
311.518	9646.11
311.584	9648.56
311.649	9649.86
311.715	9640.62
311.78	9646.3
311.846	9636.19
311.911	9643.46
311.976	9638.07
312.042	9623.43
312.107	9606.29
312.173	9596.13
312.238	9584.48
312.304	9589.01
312.369	9573.41
312.434	9558.67
312.5	9554.44
312.565	9516.69
312.631	9526.56
312.696	9517.17
312.761	9528.05
312.827	9142.98
312.892	9187.13
312.958	9180.53
313.023	9180
313.088	9182.65
313.154	9169.12
313.219	9161.04
313.284	9145.53
313.35	9141.97
313.415	9133.98
313.48	9128.78
313.546	9126.9
313.611	9138.02
313.676	9123.05
313.741	9116.74
313.807	9126.03
313.872	9132.1
313.937	9139.99
314.003	9144.95
314.068	9142.84
314.133	9144.62
314.198	9141.1
314.264	9115.24
314.329	9098.78
314.394	9090.73
314.459	9087.94
314.525	9106.72
314.59	9104.12
314.655	9095.31
314.72	9097.57
314.785	9104.89
314.851	9107.34
314.916	9091.89
314.981	9076.92
315.046	9067.05
315.111	9058.91
315.176	9047.12
315.242	9044.66
315.307	9039.75
315.372	9018.95
315.437	9007.98
315.502	8997.43
315.567	9006.58
315.632	8985.64
315.698	8988.19
315.763	8983.38
315.828	8967.4
315.893	8961.38
315.958	8955.55
316.023	8945.01
316.088	8933.46
316.153	8907.32
316.218	8895.58
316.283	8878.54
316.348	8860.44
316.413	8853.9
316.479	8836.47
316.544	8802.16
316.609	8771.74
316.674	8742.14
316.739	8708.12
316.804	8678.18
316.869	8639.59
316.934	8594.87
316.999	8568.16
317.064	8522.45
317.129	8471.73
317.194	8439.25
317.259	8387.61
317.324	8332.86
317.389	8288.84
317.454	8249.48
317.518	8211.28
317.583	8186.98
317.648	8166.1
317.713	8131.37
317.778	8077.1
317.843	8048.38
317.908	8015.25
317.973	7974.74
318.038	7945.79
318.103	7911.5
318.168	7880.81
318.233	7849.65
318.297	7802.23
318.362	7767.22
318.427	7726.16
318.492	7702.5
318.557	7657.55
318.622	7632.06
318.687	7613.65
318.751	7570.39
318.816	7537.16
318.881	7507.75
318.946	7452.55
319.011	7406.4
319.075	7366.94
319.14	7332.58
319.205	7290.37
319.27	7255.53
319.335	7210.6
319.399	7167.11
319.464	7137.41
319.529	7084.22
319.594	7049.04
319.658	7021.8
319.723	6978.13
319.788	6948.2
319.853	6893.67
319.917	6867.93
319.982	6817.43
320.047	6779.15
320.112	6754.22
320.176	6701.54
320.241	6665.18
320.306	6635.64
320.37	6593.1
320.435	6559.24
320.5	6530.29
320.564	6488.95
320.629	6445.22
320.694	6417.38
320.758	6380.41
320.823	6335.1
320.888	6311.82
320.952	6261.91
321.017	6223.99
321.082	6185.4
321.146	6152.43
321.211	6123.98
321.275	6074.61
321.34	6027.69
321.405	5981.45
321.469	5935.15
321.534	5893.43
321.598	5842.73
321.663	5810.54
321.727	5779.56
321.792	5734.19
321.857	5690.98
321.921	5654.77
321.986	5615.22
322.05	5554.06
322.115	5508.81
322.179	5466.96
322.244	5406.2
322.308	5371.93
322.373	5323.19
322.437	5276.56
322.502	5246.31
322.566	5196.48
322.631	5164.24
322.695	5129.51
322.76	5087.26
322.824	5056.32
322.889	5015.62
322.953	4974.3
323.018	4905.62
323.082	4841.86
323.146	4789.11
323.211	4732.76
323.275	4687.05
323.34	4640.58
323.404	4606.18
323.468	4565.93
323.533	4518.9
323.597	4476.43
323.662	4424.24
323.726	4388.3
323.79	4345.97
323.855	4281.67
323.919	4234.13
323.983	4188.94
324.048	4119.83
324.112	4281.47
324.177	4150.42
324.241	3936.35
324.305	3724.27
324.37	3521.37
324.434	3323.74
324.498	3281.28
324.562	3233.66
324.627	3173.34
324.691	3116.6
324.755	3053.78
324.82	2975.76
324.884	2901.43
324.948	2829.49
325.012	2738.62
325.077	2610.78
