Data from 20250703_urea_0.1M_MAYP1162681_03-41-04-963.txt Node
Date: Fri Jul 04 03:41:04 BST 2025
User: adleo
Spectrometer: MAYP116268
Trigger mode: 0
Integration Time (sec): 1.000000E0
Scans to average: 1
Electric dark correction enabled: true
Nonlinearity correction enabled: true
Boxcar width: 10
XAxis mode: Wavelengths
Number of Pixels in Spectrum: 2068
>>>>>Begin Spectral Data<<<<<
179.565	1293.04
179.642	1353.04
179.718	1405.57
179.795	1444.82
179.871	1477.64
179.948	1493.88
180.024	1516.95
180.101	1545.4
180.177	1562.28
180.254	1586.77
180.33	1611.91
180.407	1670.94
180.483	1771.18
180.56	1868.02
180.636	1956.71
180.712	1943.77
180.789	1957.99
180.865	1970.73
180.942	1981.57
181.018	1989.56
181.095	2006.16
181.171	2011.91
181.248	2013.86
181.324	2027.52
181.4	2036.41
181.477	2046.54
181.553	2066.75
181.63	2090.82
181.706	2103.85
181.782	2109.22
181.859	2107.18
181.935	2113.17
182.011	2111.27
182.088	2129.35
182.164	2150.81
182.24	2165.46
182.317	2174.68
182.393	2172.92
182.469	2187.1
182.546	2200.18
182.622	2206.27
182.698	2198.09
182.775	2210.37
182.851	2225.35
182.927	2217.6
183.003	2212.79
183.08	2209.23
183.156	2213.7
183.232	2204.94
183.308	2193.33
183.385	2203.27
183.461	2223.3
183.537	2222.35
183.613	2237.06
183.69	2229.87
183.766	2219.92
183.842	2229.92
183.918	2236.96
183.995	2251.52
184.071	2258.9
184.147	2251.28
184.223	2239.96
184.299	2254.91
184.375	2242.2
184.452	2247.58
184.528	2298.94
184.604	2308.31
184.68	2322.68
184.756	2332.44
184.832	2340.01
184.908	2346.19
184.985	2345.33
185.061	2328.92
185.137	2342.1
185.213	2328.3
185.289	2329.63
185.365	2319.55
185.441	2316.31
185.517	2331.12
185.593	2323.79
185.669	2317.46
185.745	2329.88
185.822	2345.39
185.898	2335.15
185.974	2346.19
186.05	2338.19
186.126	2303.97
186.202	2299.93
186.278	2296.83
186.354	2285.93
186.43	2293.22
186.506	2289.08
186.582	2291.08
186.658	2299.12
186.734	2274.75
186.81	2279.89
186.886	2280.7
186.962	2292.83
187.038	2290.26
187.114	2279.65
187.19	2290.4
187.266	2280.32
187.341	2281.46
187.417	2276.75
187.493	2278.46
187.569	2280.32
187.645	2273.75
187.721	2259.76
187.797	2268.99
187.873	2270.03
187.949	2265.18
188.025	2257.94
188.101	2261.51
188.176	2265.89
188.252	2261.99
188.328	2270.93
188.404	2269.6
188.48	2265.84
188.556	2260.37
188.632	2259.7
188.707	2262.51
188.783	2254.56
188.859	2250.14
188.935	2239.43
189.011	2246.99
189.086	2240.05
189.162	2232.62
189.238	2228.87
189.314	2228.77
189.39	2221.16
189.465	2215.83
189.541	2232.01
189.617	2215.07
189.693	2210.46
189.768	2213.5
189.844	2238.45
189.92	2228.56
189.996	2239.22
190.071	2251.92
190.147	2249.97
190.223	2256.54
190.298	2245.83
190.374	2232.84
190.45	2245.26
190.526	2252.68
190.601	2246.54
190.677	2250.49
190.753	2276.96
190.828	2282.82
190.904	2296.33
190.98	2311.76
191.055	2324.51
191.131	2315.85
191.207	2339.74
191.282	2352.11
191.358	2343.35
191.433	2325.73
191.509	2339.34
191.585	2334.62
191.66	2334.96
191.736	2343
191.811	2335.67
191.887	2353.14
191.963	2380.41
192.038	2385.6
192.114	2385.79
192.189	2389.03
192.265	2383.23
192.34	2361.8
192.416	2359.13
192.491	2353.94
192.567	2357.99
192.642	2355.99
192.718	2357.13
192.793	2342.52
192.869	2335.29
192.944	2337.1
193.02	2347.52
193.095	2351.38
193.171	2357.04
193.246	2356.33
193.322	2354.09
193.397	2360.52
193.473	2348.47
193.548	2329.47
193.624	2335.04
193.699	2334.14
193.775	2352.38
193.85	2354.95
193.925	2363.75
194.001	2364.94
194.076	2356.9
194.152	2344.57
194.227	2341.23
194.302	2330.2
194.378	2333.24
194.453	2333.53
194.529	2351.47
194.604	2334.1
194.679	2325.01
194.755	2305.5
194.83	2318.74
194.905	2319.88
194.981	2326.22
195.056	2317.03
195.131	2323.74
195.207	2323.03
195.282	2314.22
195.357	2292.56
195.433	2308.41
195.508	2298.75
195.583	2307.5
195.659	2322.07
195.734	2330.59
195.809	2329.92
195.884	2338.87
195.96	2341.96
196.035	2356.57
196.11	2349.62
196.185	2363.66
196.261	2370.85
196.336	2405.55
196.411	2390.83
196.486	2392.02
196.561	2383.22
196.637	2393.59
196.712	2410.5
196.787	2413.54
196.862	2428.58
196.937	2441.25
197.013	2447.91
197.088	2457.67
197.163	2479.15
197.238	2499.83
197.313	2498.5
197.388	2510.88
197.464	2543.17
197.539	2552.36
197.614	2544.98
197.689	2555.08
197.764	2574.85
197.839	2596.33
197.914	2588.04
197.989	2612
198.065	2627.71
198.14	2681.52
198.215	2706.77
198.29	2720.73
198.365	2735.6
198.44	2749.32
198.515	2776.15
198.59	2791.35
198.665	2820.13
198.74	2832.95
198.815	2834.14
198.89	2859.44
198.965	2891.91
199.04	2887.43
199.115	2905.15
199.19	2949.24
199.265	2949.62
199.34	2957.44
199.415	2992.35
199.49	3016.94
199.565	3027.43
199.64	3053.79
199.715	3049.69
199.79	3061.13
199.865	3067.85
199.94	3066.47
200.015	3098.05
200.09	3102.91
200.165	3108.73
200.24	3117.22
200.315	3156.89
200.39	3171.91
200.464	3179.83
200.539	3181.98
200.614	3201.1
200.689	3228.1
200.764	3235.88
200.839	3259.66
200.914	3263.81
200.989	3253.27
201.063	3263.71
201.138	3244.98
201.213	3244.03
201.288	3226.62
201.363	3229
201.438	3231.96
201.512	3250.94
201.587	3230.18
201.662	3237.91
201.737	3252.27
201.812	3260.05
201.886	3224.91
201.961	3237.65
202.036	3221.82
202.111	3218.58
202.186	3187.93
202.26	3168.56
202.335	3147.71
202.41	3140.32
202.485	3126.73
202.559	3109.18
202.634	3085.67
202.709	3098.49
202.784	3082.32
202.858	3084.85
202.933	3068.54
203.008	3061.82
203.082	3042.32
203.157	3046.94
203.232	3004.81
203.306	2987.35
203.381	2958.88
203.456	2940.23
203.53	2920.91
203.605	2908.61
203.68	2890.87
203.754	2892.11
203.829	2888.11
203.904	2878.29
203.978	2878.95
204.053	2895.88
204.127	2894.36
204.202	2906.8
204.277	2904.89
204.351	2912.47
204.426	2921.72
204.5	2930.93
204.575	2914.62
204.65	2947.49
204.724	2961.13
204.799	2995.68
204.873	3019.01
204.948	3044.05
205.022	3062.12
205.097	3085.12
205.171	3132.67
205.246	3178.06
205.32	3214.77
205.395	3250.85
205.469	3280.56
205.544	3329.07
205.618	3350.78
205.693	3408.78
205.767	3444.2
205.842	3514.78
205.916	3558.6
205.991	3600.87
206.065	3661.42
206.14	3734.41
206.214	3787.9
206.289	3845.54
206.363	3918.93
206.438	3987.21
206.512	4062.74
206.586	4150.6
206.661	4227.72
206.735	4275.81
206.81	4345.29
206.884	4436.55
206.958	4505.05
207.033	4599.04
207.107	4688.79
207.181	4809.55
207.256	4888.07
207.33	4994.85
207.405	5093.82
207.479	5201.79
207.553	5306.23
207.628	5378.79
207.702	5485.95
207.776	5572.95
207.851	5667.54
207.925	5782.86
207.999	5876.44
208.073	5971.89
208.148	6078.13
208.222	6167.25
208.296	6303.44
208.371	6427.47
208.445	6543.76
208.519	6676.9
208.593	6796.56
208.668	6896.44
208.742	7000.39
208.816	7111.97
208.89	7235.54
208.965	7337.37
209.039	7461.39
209.113	7581.15
209.187	7721.14
209.261	7823.16
209.336	7956.12
209.41	8087.61
209.484	8198.12
209.558	8332.68
209.632	8462.43
209.707	8586.63
209.781	8723.34
209.855	8852.53
209.929	8986.28
210.003	9108.03
210.077	9224.92
210.151	9392.94
210.226	9542.85
210.3	9689.13
210.374	9830.03
210.448	9943.12
210.522	10070.18
210.596	10188.39
210.67	10314.4
210.744	10470.88
210.818	10618.67
210.892	10754.06
210.966	10856.34
211.041	10983.65
211.115	11087.58
211.189	11219.43
211.263	11336.57
211.337	11450.5
211.411	11574.41
211.485	11671.96
211.559	11784.01
211.633	11877.65
211.707	11941.47
211.781	12046.36
211.855	12106.28
211.929	12193.23
212.003	12267.12
212.077	12376.2
212.151	12488.66
212.225	12590.08
212.299	12671.45
212.373	12750.7
212.447	12835.35
212.52	12970.8
212.594	13059.5
212.668	13166.85
212.742	13234.44
212.816	13326.99
212.89	13406.77
212.964	13489.35
213.038	13577.47
213.112	13677.11
213.186	13793.44
213.26	13863.05
213.333	13906.53
213.407	13998.89
213.481	14086.77
213.555	14192.29
213.629	14263.25
213.703	14331.61
213.777	14417.75
213.85	14486.05
213.924	14610.9
213.998	14691.93
214.072	14762.12
214.146	14835.24
214.219	14911.35
214.293	15002.12
214.367	15079.34
214.441	15176.57
214.515	15245.3
214.588	15301.85
214.662	15346.63
214.736	15391.12
214.81	15469.3
214.883	15558.33
214.957	15614.53
215.031	15670.74
215.105	15713.16
215.178	15767.91
215.252	15831.01
215.326	15869.71
215.4	15913.28
215.473	15922.34
215.547	15973.34
215.621	16012.96
215.694	16080.77
215.768	16116.44
215.842	16161.65
215.915	16210.23
215.989	16229.41
216.063	16275.59
216.136	16329.61
216.21	16382.82
216.284	16457.05
216.357	16518.3
216.431	16568.48
216.504	16635.76
216.578	16721.5
216.652	16794.18
216.725	16857.7
216.799	16912.59
216.873	16969.03
216.946	17031.4
217.02	17088.17
217.093	17126.97
217.167	17160.12
217.24	17193.71
217.314	17242.53
217.387	17282.73
217.461	17325.43
217.535	17395.74
217.608	17438.1
217.682	17483.79
217.755	17543.16
217.829	17571.79
217.902	17623.11
217.976	17666.44
218.049	17705.28
218.123	17730.82
218.196	17776.12
218.27	17811.78
218.343	17850.24
218.417	17897.03
218.49	17943.97
218.563	17995.63
218.637	18057.8
218.71	18128.4
218.784	18177.8
218.857	18241.7
218.931	18294.42
219.004	18335.91
219.077	18392
219.151	18443.33
219.224	18488.77
219.298	18528.48
219.371	18590.55
219.444	18616.38
219.518	18665.58
219.591	18713.29
219.665	18787.5
219.738	18841.37
219.811	18872.51
219.885	18924.17
219.958	18977.56
220.031	19019.2
220.105	19068.4
220.178	19113.02
220.251	19147.96
220.325	19201.5
220.398	19244.19
220.471	19287.95
220.544	19353.44
220.618	19378.11
220.691	19417.63
220.764	19477.39
220.838	19530.83
220.911	19563.84
220.984	19634.15
221.057	19678.1
221.131	19726.77
221.204	19736.7
221.277	19779.73
221.35	19851.54
221.424	19892.11
221.497	19930.76
221.57	19972.98
221.643	20022.23
221.716	20063.14
221.79	20101.07
221.863	20132.63
221.936	20160.63
222.009	20197.16
222.082	20220.49
222.155	20247.19
222.229	20305.93
222.302	20324.82
222.375	20340.78
222.448	20383.96
222.521	20395.09
222.594	20416
222.667	20431.33
222.74	20464.73
222.814	20492.44
222.887	20514.51
222.96	20537.55
223.033	20583.77
223.106	20614.75
223.179	20634.9
223.252	20663.96
223.325	20684.49
223.398	20706.56
223.471	20735.14
223.544	20757.07
223.617	20782.52
223.69	20821.7
223.763	20826.23
223.837	20850.76
223.91	20886.95
223.983	20884.11
224.056	20897.8
224.129	20925.08
224.202	20955.1
224.275	20977.61
224.348	20987.44
224.42	20993.95
224.493	21001.27
224.566	20993.27
224.639	21005.56
224.712	21015.06
224.785	21022.24
224.858	21039.3
224.931	21050.91
225.004	21054.63
225.077	21069.9
225.15	21058.87
225.223	21052.89
225.296	21087.4
225.369	21086.44
225.442	21091.45
225.514	21108.94
225.587	21130.97
225.66	21144.18
225.733	21158.2
225.806	21159.99
225.879	21170.11
225.952	21166.49
226.025	21199.75
226.097	21225.49
226.17	21239.46
226.243	21236.67
226.316	21237.1
226.389	21241.3
226.461	21259.23
226.534	21272.53
226.607	21281.93
226.68	21314.56
226.753	21326.89
226.825	21298.12
226.898	21323.81
226.971	21328.05
227.044	21329.01
227.117	21330.89
227.189	21339.47
227.262	21344.05
227.335	21357.74
227.407	21353.93
227.48	21370.18
227.553	21359.96
227.626	21363.72
227.698	21366.99
227.771	21375.77
227.844	21367.09
227.916	21376.2
227.989	21353.98
228.062	21352.44
228.134	21369.4
228.207	21369.45
228.28	21364.63
228.352	21378.18
228.425	21370.71
228.498	21384.59
228.57	21387.14
228.643	21409.41
228.716	21410.66
228.788	21404.98
228.861	21404.69
228.934	21427.87
229.006	21416.78
229.079	21417.22
229.151	21406.33
229.224	21379.91
229.296	21379.38
229.369	21403.29
229.442	21396.35
229.514	21388.16
229.587	21394.42
229.659	21367.53
229.732	21363.09
229.804	21376.92
229.877	21385.26
229.949	21395.05
230.022	21406.47
230.094	21413.41
230.167	21404.5
230.239	21387.72
230.312	21378.03
230.384	21381.65
230.457	21364.54
230.529	21369.79
230.602	21367.43
230.674	21364.2
230.747	21381.7
230.819	21386.28
230.892	21352.73
230.964	21359.86
231.037	21363.43
231.109	21352.05
231.181	21362.75
231.254	21331.14
231.326	21318.36
231.399	21314.61
231.471	21291.81
231.544	21258.74
231.616	21252.33
231.688	21244.57
231.761	21223.08
231.833	21221.15
231.905	21193.24
231.978	21186.88
232.05	21170.06
232.122	21157.29
232.195	21137.57
232.267	21135.07
232.339	21107.69
232.412	21107.16
232.484	21092.56
232.556	21064.12
232.629	21071.93
232.701	21053.76
232.773	21048.03
232.846	21020.84
232.918	20994.14
232.99	20982.77
233.062	20974.62
233.135	20958.43
233.207	20912.55
233.279	20911.87
233.351	20893.32
233.424	20874.23
233.496	20843.34
233.568	20837.07
233.64	20796.45
233.713	20778.13
233.785	20754.9
233.857	20742.42
233.929	20716.2
234.001	20709.89
234.074	20714.85
234.146	20670.8
234.218	20650.56
234.29	20633.93
234.362	20620.34
234.434	20593.98
234.507	20563.96
234.579	20521.88
234.651	20489.35
234.723	20482.99
234.795	20467.18
234.867	20444.2
234.939	20440.92
235.012	20423.67
235.084	20412.63
235.156	20405.59
235.228	20375.67
235.3	20340.44
235.372	20323.81
235.444	20312.34
235.516	20265.16
235.588	20249.5
235.66	20228.39
235.732	20193.64
235.804	20230.9
235.876	20205.6
235.948	20194.08
236.02	20171.81
236.092	20145.74
236.164	20121.02
236.236	20092.93
236.308	20052.45
236.38	20028.25
236.452	19983.92
236.524	19963.63
236.596	19963.05
236.668	19942.91
236.74	19918.91
236.812	19906.67
236.884	19885.61
236.956	19853.85
237.028	19813.61
237.1	19774.1
237.172	19771.25
237.244	19768.7
237.316	19696.94
237.388	19670.63
237.46	19627.79
237.532	19617.18
237.604	19582.01
237.675	19563.21
237.747	19544.95
237.819	19507.02
237.891	19480.95
237.963	19449.72
238.035	19410.64
238.107	19327.22
238.178	19310.79
238.25	19272.82
238.322	19259.33
238.394	19211.86
238.466	19180.05
238.538	19167.04
238.609	19137.65
238.681	19071.58
238.753	19015.92
238.825	18990.47
238.897	18961.9
238.968	18947.59
239.04	18899.15
239.112	18901.03
239.184	18863.64
239.255	18828.94
239.327	18814.15
239.399	18780.9
239.471	18754.06
239.542	18723.21
239.614	18712.18
239.686	18652.86
239.758	18633.19
239.829	18581.92
239.901	18562.69
239.973	18528.91
240.044	18505.3
240.116	18468.38
240.188	18442.41
240.259	18419.04
240.331	18378.8
240.403	18353.07
240.474	18301.55
240.546	18266.37
240.618	18211.68
240.689	18167.53
240.761	18131.97
240.833	18109.61
240.904	18069.7
240.976	18022.53
241.048	17995.06
241.119	17972.94
241.191	17950.38
241.262	17936.26
241.334	17904.75
241.405	17873.37
241.477	17835.25
241.549	17782.68
241.62	17762
241.692	17735.4
241.763	17711.55
241.835	17673.19
241.906	17635.84
241.978	17595.21
242.049	17570.3
242.121	17549.62
242.192	17540.03
242.264	17494.73
242.335	17437.91
242.407	17416.75
242.478	17394.63
242.55	17369.14
242.621	17325.38
242.693	17288.7
242.764	17249.77
242.836	17211.93
242.907	17176.7
242.979	17154.25
243.05	17133.19
243.122	17103.5
243.193	17073.91
243.264	17015.45
243.336	16983.93
243.407	16963.88
243.479	16943.54
243.55	16909.42
243.622	16880.6
243.693	16843.97
243.764	16833.18
243.836	16793.08
243.907	16756.21
243.978	16720.97
244.05	16690.32
244.121	16634.9
244.192	16605.64
244.264	16550.26
244.335	16517.35
244.407	16466.88
244.478	16437.82
244.549	16401.67
244.62	16348.7
244.692	16308.7
244.763	16293.13
244.834	16258.14
244.906	16205.46
244.977	16177.31
245.048	16161.94
245.119	16114.95
245.191	16066.94
245.262	16005.15
245.333	15992.86
245.405	15959.26
245.476	15933.38
245.547	15898.49
245.618	15878.87
245.689	15846.43
245.761	15824.21
245.832	15790.76
245.903	15764.49
245.974	15731.14
246.045	15693.01
246.117	15678.26
246.188	15635.46
246.259	15589.81
246.33	15554.58
246.401	15530.86
246.473	15485.99
246.544	15453.74
246.615	15431.71
246.686	15402.89
246.757	15393.3
246.828	15346.01
246.899	15325.04
246.97	15280.79
247.042	15238.52
247.113	15225.55
247.184	15221.02
247.255	15183.95
247.326	15155.76
247.397	15124.09
247.468	15095.89
247.539	15075.4
247.61	15032.89
247.681	15013.17
247.752	14998.52
247.823	14960.87
247.894	14931.13
247.965	14893.14
248.037	14852.03
248.108	14804.26
248.179	14771.53
248.25	14730.65
248.321	14709.78
248.392	14675.55
248.463	14670.3
248.534	14648.12
248.605	14620.55
248.675	14583.24
248.746	14568.92
248.817	14555.09
248.888	14538.7
248.959	14492.71
249.03	14464.37
249.101	14435.54
249.172	14403.29
249.243	14354.22
249.314	14347.47
249.385	14320.52
249.456	14303.94
249.527	14273.43
249.598	14262.77
249.669	14240.74
249.739	14222.66
249.81	14199.43
249.881	14154.4
249.952	14126.54
250.023	14097.71
250.094	14049.7
250.165	14010.03
250.235	13969.97
250.306	13939.31
250.377	13898.87
250.448	13879.63
250.519	13826.36
250.59	13819.42
250.66	13793.2
250.731	13790.74
250.802	13754.34
250.873	13724.7
250.944	13704.59
251.014	13672.54
251.085	13676.63
251.156	13651.9
251.227	13635.75
251.297	13626.21
251.368	13617.44
251.439	13600.03
251.51	13586.92
251.58	13553.95
251.651	13522.61
251.722	13509.69
251.792	13460.23
251.863	13430.73
251.934	13425.48
252.005	13443.07
252.075	13418.68
252.146	13408.12
252.217	13386.57
252.287	13370.47
252.358	13352.06
252.429	13350.61
252.499	13319.33
252.57	13286.45
252.641	13272.61
252.711	13246.97
252.782	13209.22
252.852	13205.51
252.923	13178.18
252.994	13155.14
253.064	13145.49
253.135	13119.41
253.205	13097.14
253.276	13103.46
253.347	13109.29
253.417	13071.3
253.488	13037.42
253.558	13014.47
253.629	12989.35
253.699	12974.51
253.77	12965.68
253.841	12939.27
253.911	12916.66
253.982	12900.56
254.052	12888.27
254.123	12873.52
254.193	12856.79
254.264	12878.63
254.334	12843.05
254.405	12816.92
254.475	12784.62
254.546	12756.71
254.616	12750.16
254.687	12726.63
254.757	12701.04
254.827	12669.17
254.898	12653.07
254.968	12632.34
255.039	12597.64
255.109	12580.86
255.18	12548.52
255.25	12500.02
255.321	12485.56
255.391	12446.66
255.461	12455.72
255.532	12401.4
255.602	12379.27
255.673	12337.72
255.743	12294.09
255.813	12252.3
255.884	12238.18
255.954	12227.43
256.024	12234.71
256.095	12213.98
256.165	12187.42
256.235	12171.95
256.306	12143.8
256.376	12138.59
256.446	12129.34
256.517	12120.71
256.587	12117.87
256.657	12105.04
256.728	12091.69
256.798	12079.16
256.868	12056.6
256.938	12020.98
257.009	12012.98
257.079	11992.93
257.149	12001.55
257.219	11969.6
257.29	11958.27
257.36	11920.48
257.43	11909.59
257.5	11863.99
257.571	11836.28
257.641	11826.01
257.711	11787.64
257.781	11777.67
257.852	11764.31
257.922	11724.93
257.992	11699.92
258.062	11673.02
258.132	11660.01
258.202	11639.04
258.273	11614.46
258.343	11614.99
258.413	11592.48
258.483	11579.9
258.553	11544.19
258.623	11516.62
258.693	11503.27
258.764	11501.63
258.834	11497.68
258.904	11487.27
258.974	11461.78
259.044	11444.57
259.114	11430.3
259.184	11425.2
259.254	11407.07
259.324	11366.64
259.394	11353.58
259.464	11354.93
259.535	11335.36
259.605	11309.33
259.675	11282.44
259.745	11270.3
259.815	11237.24
259.885	11203.74
259.955	11215.21
260.025	11195.94
260.095	11176.47
260.165	11167.55
260.235	11171.26
260.305	11143.7
260.375	11103.94
260.445	11112.52
260.515	11111.07
260.585	11108.32
260.655	11087.51
260.725	11079.84
260.795	11070.64
260.865	11073.15
260.934	11043.94
261.004	11038.5
261.074	11024.23
261.144	11025.87
261.214	11019.7
261.284	11014.11
261.354	11020.86
261.424	10987.12
261.494	10995.79
261.564	10983.99
261.634	10971.6
261.703	10924.66
261.773	10924.91
261.843	10923.56
261.913	10899.8
261.983	10870.65
262.053	10854.84
262.123	10844.34
262.192	10812.87
262.262	10811.09
262.332	10782.95
262.402	10779.19
262.472	10755.72
262.541	10718.43
262.611	10719.06
262.681	10695.2
262.751	10676.7
262.821	10651.69
262.89	10621.77
262.96	10601.39
263.03	10610.21
263.1	10595.07
263.169	10584.91
263.239	10571.47
263.309	10570.02
263.379	10568.33
263.448	10555.33
263.518	10545.54
263.588	10524.25
263.657	10531.04
263.727	10524.2
263.797	10511.53
263.867	10493.51
263.936	10470.19
264.006	10469.13
264.076	10440.89
264.145	10427.84
264.215	10405.19
264.285	10401.15
264.354	10372.63
264.424	10355.09
264.494	10313.32
264.563	10296.79
264.633	10307.63
264.702	10293.47
264.772	10256.85
264.842	10237.92
264.911	10226.79
264.981	10196
265.05	10183.91
265.12	10159.39
265.19	10139.64
265.259	10134.67
265.329	10124.32
265.398	10111.36
265.468	10124.22
265.537	10113.62
265.607	10098.88
265.676	10102.64
265.746	10093.58
265.815	10095.85
265.885	10083.66
265.955	10062.76
266.024	10043.49
266.094	9997.24
266.163	9999.51
266.232	10002.4
266.302	9981.4
266.371	9973.74
266.441	9960.1
266.51	9957.6
266.58	9944.6
266.649	9927.54
266.719	9923.78
266.788	9914.82
266.858	9923.35
266.927	9884.19
266.996	9871.76
267.066	9868.63
267.135	9835.83
267.205	9826.34
267.274	9812.28
267.343	9811.56
267.413	9800.82
267.482	9803.9
267.552	9810.45
267.621	9781.21
267.69	9756.21
267.76	9746.29
267.829	9733.19
267.898	9722.64
267.968	9701.69
268.037	9700.06
268.106	9695.53
268.176	9671.25
268.245	9655.26
268.314	9630.5
268.384	9632.43
268.453	9618.37
268.522	9612.25
268.592	9621.69
268.661	9605.56
268.73	9599.63
268.799	9584.46
268.869	9593.47
268.938	9561.06
269.007	9548.39
269.076	9536.01
269.146	9529.71
269.215	9531.73
269.284	9541.94
269.353	9531.92
269.422	9519.55
269.492	9495.28
269.561	9454.88
269.63	9447.32
269.699	9432.05
269.768	9423.43
269.838	9417.65
269.907	9416.93
269.976	9386.35
270.045	9350.53
270.114	9352.02
270.183	9335.17
270.253	9320.72
270.322	9296.36
270.391	9288.89
270.46	9289.52
270.529	9296.31
270.598	9294.86
270.667	9278.54
270.736	9256.53
270.806	9246.32
270.875	9247.19
270.944	9239.3
271.013	9263.37
271.082	9258.65
271.151	9258.46
271.22	9230.92
271.289	9221.43
271.358	9211.47
271.427	9206.65
271.496	9194.43
271.565	9176.32
271.634	9172.86
271.703	9173.87
271.772	9172.13
271.841	9164.72
271.91	9140.69
271.979	9123.74
272.048	9104.58
272.117	9099.91
272.186	9081.67
272.255	9083.16
272.324	9081.23
272.393	9075.02
272.462	9056.97
272.531	9045.41
272.6	9033.61
272.669	9041.8
272.738	9028.08
272.807	9022.01
272.876	8995.2
272.945	9029.96
273.013	9030.59
273.082	9030.49
273.151	9013.74
273.22	9011.04
273.289	9001.51
273.358	9013.4
273.427	8998.43
273.496	8996.55
273.564	8997.32
273.633	9001.37
273.702	8978.84
273.771	8970.17
273.84	8967.81
273.909	8962.13
273.977	8961.55
274.046	8951.93
274.115	8960.45
274.184	8940.71
274.253	8932.34
274.322	8952.65
274.39	8916.44
274.459	8894.78
274.528	8869.66
274.597	8861.91
274.665	8854.74
274.734	8859.31
274.803	8849.68
274.872	8850.06
274.94	8838.61
275.009	8896.84
275.078	8879.22
275.147	8876.91
275.215	8866.32
275.284	8877.2
275.353	8867.14
275.421	8840.18
275.49	8853.71
275.559	8832.14
275.627	8827
275.696	8816.17
275.765	8813.37
275.833	8807.41
275.902	8813.76
275.971	8823.24
276.039	8836.91
276.108	8839.9
276.177	8841.24
276.245	8823.96
276.314	8821.89
276.383	8828.54
276.451	8757.31
276.52	8762.8
276.588	8777.72
276.657	8785.37
276.725	8768.28
276.794	8772.52
276.863	8784.65
276.931	8760.72
277	8772.37
277.068	8784.36
277.137	8802.31
277.205	8802.07
277.274	8820.21
277.342	8827.48
277.411	8811.41
277.48	8792.25
277.548	8782.05
277.617	8777.91
277.685	8773.43
277.754	8775.79
277.822	8761.26
277.89	8776.04
277.959	8766.36
278.027	8738.93
278.096	8723.96
278.164	8755.59
278.233	8741.58
278.301	8727.38
278.37	8730.46
278.438	8721.22
278.507	8723.53
278.575	8693.11
278.643	8681.9
278.712	8656.92
278.78	8644.6
278.849	8649.27
278.917	8667.27
278.985	8662.55
279.054	8662.17
279.122	8676.41
279.191	8668.66
279.259	8668.04
279.327	8642.48
279.396	8654.66
279.464	8655.52
279.532	8662.26
279.601	8653.26
279.669	8651.14
279.737	8668.42
279.806	8669.86
279.874	8676.6
279.942	8678.62
280.011	8680.69
280.079	8692.43
280.147	8713.17
280.215	8718.47
280.284	8719.62
280.352	8707.83
280.42	8716.54
280.488	8712.45
280.557	8707.59
280.625	8714.28
280.693	8710.29
280.761	8717.12
280.83	8696.19
280.898	8708.84
280.966	8694.69
281.034	8663.98
281.102	8648.54
281.171	8638.77
281.239	8646.57
281.307	8632.41
281.375	8610.66
281.443	8634.54
281.512	8629.1
281.58	8637.23
281.648	8622.12
281.716	8618.51
281.784	8612.69
281.852	8601.71
281.92	8602
281.989	8609.37
282.057	8589.01
282.125	8635.65
282.193	8629.45
282.261	8637.05
282.329	8632.86
282.397	8633.01
282.465	8638.01
282.533	8657.88
282.601	8646.91
282.67	8629.63
282.738	8622.37
282.806	8636.61
282.874	8627.95
282.942	8629.68
283.01	8623.71
283.078	8632.47
283.146	8630.64
283.214	8634.11
283.282	8638.82
283.35	8653.55
283.418	8649.56
283.486	8657.5
283.554	8619.99
283.622	8623.31
283.69	8624.13
283.758	8621.82
283.826	8633.81
283.894	8642.28
283.962	8668.03
284.03	8690.17
284.098	8694.6
284.165	8692.67
284.233	8694.79
284.301	8682.37
284.369	8676.64
284.437	8668.65
284.505	8662.4
284.573	8678.9
284.641	8674.09
284.709	8677.8
284.777	8655.95
284.845	8659.56
284.912	8660.95
284.98	8662.78
285.048	8655.66
285.116	8656.19
285.184	8666.97
285.252	8660.52
285.319	8640.31
285.387	8624.81
285.455	8604.3
285.523	8602.38
285.591	8601.27
285.659	8601.99
285.726	8617.3
285.794	8601.27
285.862	8599.3
285.93	8598.58
285.997	8594.49
286.065	8587.65
286.133	8585.68
286.201	8584.86
286.269	8571.53
286.336	8561.76
286.404	8552.57
286.472	8563.45
286.539	8549.49
286.607	8532.94
286.675	8533.76
286.743	8540.64
286.81	8533.66
286.878	8547.13
286.946	8542.32
287.013	8538.86
287.081	8539.58
287.149	8521.19
287.216	8537.55
287.284	8529.23
287.352	8526.92
287.419	8521.53
287.487	8543.09
287.555	8542.61
287.622	8539.58
287.69	8548.24
287.758	8563.45
287.825	8560.17
287.893	8551.03
287.96	8555.84
288.028	8570.57
288.096	8572.11
288.163	8579.09
288.231	8569.56
288.298	8564.94
288.366	8578.94
288.433	8577.02
288.501	8571.05
288.569	8576.49
288.636	8581.49
288.704	8594.73
288.771	8601.56
288.839	8592.13
288.906	8582.21
288.974	8595.11
289.041	8591.51
289.109	8581.5
289.176	8589.49
289.244	8593.53
289.311	8604.4
289.379	8612.06
289.446	8615.86
289.514	8617.45
289.581	8614.46
289.649	8611.91
289.716	8617.25
289.783	8611.96
289.851	8635.97
289.918	8634.19
289.986	8642.57
290.053	8642.28
290.121	8643.1
290.188	8646.56
290.255	8674.48
290.323	8665.57
290.39	8658.64
290.458	8669.61
290.525	8675.05
290.592	8672.84
290.66	8671.68
290.727	8668.02
290.794	8686.84
290.862	8687.95
290.929	8689.92
290.996	8691.61
291.064	8703.88
291.131	8717.41
291.198	8727.9
291.266	8719.09
291.333	8715.43
291.4	8726.22
291.468	8741.91
291.535	8737.24
291.602	8742.87
291.669	8740.27
291.737	8746.77
291.804	8744.8
291.871	8751.34
291.938	8763.23
292.006	8788.55
292.073	8804.24
292.14	8812.52
292.207	8797.41
292.275	8794.57
292.342	8806.55
292.409	8835.77
292.476	8859.94
292.543	8846.85
292.611	8846.03
292.678	8874.48
292.745	8903.4
292.812	8910.38
292.879	8906.58
292.946	8915.34
293.014	8926.08
293.081	8933.63
293.148	8947.64
293.215	8965.98
293.282	8963.48
293.349	8974.41
293.416	8957.99
293.484	8974.36
293.551	8985.57
293.618	9007.67
293.685	9034.39
293.752	9024.9
293.819	9017.15
293.886	9006.9
293.953	9014.36
294.02	9024.03
294.087	9023.22
294.154	9019.7
294.221	9033.23
294.288	9034.34
294.356	9050.61
294.423	9057.88
294.49	9045.32
294.557	9059.76
294.624	9053.55
294.691	9081.08
294.758	9082.14
294.825	9081.33
294.892	9068.57
294.959	9067.65
295.026	9071.79
295.093	9062.93
295.16	9065.2
295.226	9065.2
295.293	9091.97
295.36	9104.1
295.427	9114.31
295.494	9131.5
295.561	9138.81
295.628	9162.99
295.695	9182.78
295.762	9182.25
295.829	9188.41
295.896	9210.46
295.963	9220.38
296.03	9230.35
296.096	9230.93
296.163	9240.36
296.23	9260.06
296.297	9274.83
296.364	9277.68
296.431	9286.39
296.498	9286.2
296.564	9311.62
296.631	9313.16
296.698	9296.21
296.765	9309.79
296.832	9305.41
296.899	9290.24
296.965	9303.43
297.032	9275.83
297.099	9287.78
297.166	9296.06
297.233	9299.19
297.299	9290.33
297.366	9292.06
297.433	9294.57
297.5	9302.32
297.566	9299.72
297.633	9300.39
297.7	9306.61
297.767	9305.06
297.833	9310.07
297.9	9311.13
297.967	9292.6
298.033	9311.04
298.1	9340.94
298.167	9329.34
298.234	9335.6
298.3	9341.76
298.367	9341.47
298.434	9355.53
298.5	9347.11
298.567	9347.49
298.634	9347.25
298.7	9367.47
298.767	9368.82
298.834	9378.16
298.9	9369.54
298.967	9366.61
299.033	9369.98
299.1	9383.08
299.167	9396.75
299.233	9388.76
299.3	9398.68
299.366	9419.67
299.433	9433.25
299.5	9406.57
299.566	9419.38
299.633	9432.53
299.699	9445.05
299.766	9443.36
299.832	9449.86
299.899	9459.45
299.965	9468.11
300.032	9459.45
300.099	9464.5
300.165	9464.7
300.232	9463.97
300.298	9475.82
300.365	9494.46
300.431	9503.85
300.498	9497.59
300.564	9506.45
300.631	9517.57
300.697	9536.35
300.763	9536.79
300.83	9531.25
300.896	9549.69
300.963	9554.12
301.029	9559.76
301.096	9566.84
301.162	9576.42
301.229	9569.77
301.295	9554.51
301.361	9558.46
301.428	9564.19
301.494	9551.57
301.561	9560.14
301.627	9567.75
301.693	9565.49
301.76	9560.43
301.826	9551.18
301.892	9566.69
301.959	9572.52
302.025	9574.64
302.092	9566.16
302.158	9574.73
302.224	9581.57
302.291	9571.84
302.357	9575.07
302.423	9571.12
302.49	9556.34
302.556	9572.66
302.622	9566.64
302.688	9580.47
302.755	9595.16
302.821	9601.32
302.887	9610.28
302.954	9604.5
303.02	9608.11
303.086	9616.78
303.152	9623.95
303.219	9626.7
303.285	9629.4
303.351	9636.52
303.417	9633.25
303.483	9624
303.55	9617.12
303.616	9615.19
303.682	9609.51
303.748	9597.13
303.815	9611.68
303.881	9622.95
303.947	9609.22
304.013	9616.4
304.079	9606.52
304.145	9582.73
304.212	9583.41
304.278	9582.83
304.344	9587.35
304.41	9573.1
304.476	9557.79
304.542	9546.76
304.608	9551.81
304.674	9532.5
304.741	9527.88
304.807	9530.33
304.873	9539.92
304.939	9552.49
305.005	9533.56
305.071	9533.18
305.137	9540.98
305.203	9511.21
305.269	9512.03
305.335	9527.11
305.401	9526.91
305.467	9527.16
305.533	9535.97
305.599	9542.18
305.666	9544.4
305.732	9542.76
305.798	9557.01
305.864	9585.57
305.93	9588.51
305.996	9585.77
306.062	9587.93
306.128	9580.47
306.194	9573.92
306.259	9570.59
306.325	9568.19
306.391	9579.41
306.457	9593.23
306.523	9593.32
306.589	9622.8
306.655	9611.29
306.721	9587.5
306.787	9573.53
306.853	9588.03
306.919	9573.15
306.985	9568.72
307.051	9559.18
307.117	9552.2
307.183	9544.16
307.248	9518.53
307.314	9525.13
307.38	9529.23
307.446	9536.64
307.512	9528.99
307.578	9532.69
307.644	9527.97
307.709	9523.98
307.775	9517.67
307.841	9508.23
307.907	9506.74
307.973	9483.14
308.039	9485.16
308.104	9488.96
308.17	9494.93
308.236	9481.93
308.302	9489.92
308.368	9473.89
308.433	9476.44
308.499	9459.88
308.565	9447.07
308.631	9448.47
308.696	9423.91
308.762	9403.68
308.828	9398.62
308.894	9383.89
308.959	9361.55
309.025	9353.51
309.091	9350.47
309.156	9342.48
309.222	9347.78
309.288	9336.22
309.354	9318.5
309.419	9315.85
309.485	9300.2
309.551	9302.27
309.616	9286.72
309.682	9282.15
309.748	9276.95
309.813	9271.31
309.879	9268.04
309.945	9258.7
310.01	9252.49
310.076	9259.18
310.141	9261.83
310.207	9247.33
310.273	9248.39
310.338	9254.07
310.404	9237.7
310.469	9224.7
310.535	9219.21
310.601	9194.51
310.666	9203.13
310.732	9212.33
310.797	9200.97
310.863	9193.84
310.928	9180.89
310.994	9182.33
311.059	9177.52
311.125	9180.55
311.191	9192.54
311.256	9187.44
311.322	9196.25
311.387	9178.39
311.453	9472.08
311.518	9442.53
311.584	9437.13
311.649	9440.6
311.715	9428.28
311.78	9429.14
311.846	9419.9
311.911	9423.41
311.976	9431.12
312.042	9413.97
312.107	9393.23
312.173	9386.24
312.238	9378.64
312.304	9375.22
312.369	9364.39
312.434	9353.99
312.5	9341.9
312.565	9306.42
312.631	9307.09
312.696	9293.81
312.761	9299.54
312.827	8991.92
312.892	9033.86
312.958	9037.9
313.023	9037.18
313.088	9040.98
313.154	9030.25
313.219	9026.49
313.284	9014.6
313.35	9006.08
313.415	8997.66
313.48	8994.48
313.546	8996.69
313.611	9010.61
313.676	9001.84
313.741	8995.15
313.807	9003.72
313.872	9009.98
313.937	9016.86
314.003	9028.18
314.068	9035.16
314.133	9040.21
314.198	9032.8
314.264	9008.34
314.329	9000.49
314.394	8993.22
314.459	8992.45
314.525	9014.98
314.59	9006.22
314.655	8999.48
314.72	9008.92
314.785	9011.61
314.851	9011.95
314.916	8993.85
314.981	8977.77
315.046	8968.96
315.111	8955.05
315.176	8936.33
315.242	8933.87
315.307	8935.56
315.372	8913.7
315.437	8893.58
315.502	8883.28
315.567	8891.22
315.632	8874.71
315.698	8873.07
315.763	8867.63
315.828	8853.62
315.893	8844.67
315.958	8845.68
316.023	8832.88
316.088	8810.4
316.153	8785.23
316.218	8774.93
316.283	8761.98
316.348	8744.32
316.413	8747.78
316.479	8736.76
316.544	8704.09
316.609	8677.57
316.674	8641.72
316.739	8610.63
316.804	8586.29
316.869	8549.95
316.934	8509.72
316.999	8490.62
317.064	8438.98
317.129	8394.57
317.194	8362.38
317.259	8313.2
317.324	8255.09
317.389	8212.75
317.454	8175.56
317.518	8137.8
317.583	8116.15
317.648	8091.38
317.713	8059.67
317.778	7995.4
317.843	7971.74
317.908	7940.09
317.973	7905.13
318.038	7875.26
318.103	7837.99
318.168	7809.47
318.233	7774.85
318.297	7726.62
318.362	7680.22
318.427	7637.29
318.492	7612.96
318.557	7565.13
318.622	7538.39
318.687	7518.2
318.751	7481.82
318.816	7446.29
318.881	7416.44
318.946	7359.04
319.011	7313.28
319.075	7269.45
319.14	7239.89
319.205	7193.46
319.27	7158.58
319.335	7111.53
319.399	7070.3
319.464	7045.32
319.529	6992.03
319.594	6954.17
319.658	6929
319.723	6891.19
319.788	6872.41
319.853	6821.06
319.917	6797.04
319.982	6748.95
320.047	6714.61
320.112	6689.49
320.176	6637.2
320.241	6606.51
320.306	6579.14
320.37	6533.72
320.435	6501.03
320.5	6471.4
320.564	6436.11
320.629	6396.32
320.694	6367.95
320.758	6331.28
320.823	6289.71
320.888	6265.29
320.952	6219.02
321.017	6173.29
321.082	6133.18
321.146	6095.51
321.211	6063.84
321.275	6018.69
321.34	5971.35
321.405	5924.72
321.469	5879.43
321.534	5844.52
321.598	5795.22
321.663	5767.25
321.727	5739.24
321.792	5694.12
321.857	5651.48
321.921	5609.67
321.986	5567.78
322.05	5508.35
322.115	5471.24
322.179	5424.99
322.244	5366.05
322.308	5337.15
322.373	5298.96
322.437	5260.58
322.502	5233.45
322.566	5188.4
322.631	5157.93
322.695	5122.2
322.76	5079.72
322.824	5043.6
322.889	5000.65
322.953	4956.61
323.018	4884.3
323.082	4822.31
323.146	4774.2
323.211	4717.81
323.275	4673.1
323.34	4628.7
323.404	4598.08
323.468	4553.8
323.533	4511.99
323.597	4468.67
323.662	4415.22
323.726	4376.19
323.79	4327.54
323.855	4261.66
323.919	4212.73
323.983	4162.32
324.048	4092.98
324.112	4256.05
324.177	4129.21
324.241	3916.62
324.305	3707.98
324.37	3507.58
324.434	3311.66
324.498	3266.79
324.562	3218.77
324.627	3160.39
324.691	3105.31
324.755	3037.7
324.82	2957.72
324.884	2881.23
324.948	2809.96
325.012	2715.27
325.077	2595.24
