Data from 20250703_urea_0.1M_MAYP1162681_22-31-05-459.txt Node
Date: Thu Jul 03 22:31:05 BST 2025
User: adleo
Spectrometer: MAYP116268
Trigger mode: 0
Integration Time (sec): 1.000000E0
Scans to average: 1
Electric dark correction enabled: true
Nonlinearity correction enabled: true
Boxcar width: 10
XAxis mode: Wavelengths
Number of Pixels in Spectrum: 2068
>>>>>Begin Spectral Data<<<<<
179.565	1374.69
179.642	1440.25
179.718	1494.43
179.795	1536.51
179.871	1576.24
179.948	1595.84
180.024	1621.36
180.101	1646.93
180.177	1665.39
180.254	1693.49
180.33	1717.44
180.407	1785.03
180.483	1892.36
180.56	1996.85
180.636	2092.81
180.712	2078.49
180.789	2088.62
180.865	2101.75
180.942	2112.54
181.018	2123.86
181.095	2140.52
181.171	2148.89
181.248	2149.99
181.324	2167.31
181.4	2178.45
181.477	2190.87
181.553	2207.37
181.63	2230.26
181.706	2247.63
181.782	2252.19
181.859	2252.48
181.935	2260.05
182.011	2255.05
182.088	2272.94
182.164	2294.37
182.24	2310.26
182.317	2319.92
182.393	2321.68
182.469	2335.24
182.546	2348.75
182.622	2354.32
182.698	2347.99
182.775	2359.61
182.851	2375.79
182.927	2366.13
183.003	2361.94
183.08	2355.04
183.156	2365.79
183.232	2360.51
183.308	2349.75
183.385	2362.7
183.461	2380.69
183.537	2382.83
183.613	2401.92
183.69	2393.78
183.766	2380.69
183.842	2388.59
183.918	2397.11
183.995	2409.77
184.071	2416.68
184.147	2410.11
184.223	2396.07
184.299	2410.98
184.375	2396.89
184.452	2403.84
184.528	2456.94
184.604	2467.93
184.68	2478.83
184.756	2486.31
184.832	2492.83
184.908	2499.45
184.985	2499.16
185.061	2479.02
185.137	2489.69
185.213	2475.07
185.289	2478.02
185.365	2470.74
185.441	2468.69
185.517	2482.36
185.593	2478.32
185.669	2476.84
185.745	2490.84
185.822	2509.11
185.898	2500.68
185.974	2512.34
186.05	2504.58
186.126	2467.44
186.202	2459.58
186.278	2456.34
186.354	2445.63
186.43	2454.01
186.506	2447.54
186.582	2443.88
186.658	2452.39
186.734	2429.17
186.81	2430.21
186.886	2429.55
186.962	2445.16
187.038	2443.3
187.114	2433.54
187.19	2444.49
187.266	2429.12
187.341	2428.45
187.417	2422.4
187.493	2420.5
187.569	2422.93
187.645	2415.55
187.721	2401.83
187.797	2410.74
187.873	2416.64
187.949	2409.88
188.025	2401.97
188.101	2410.35
188.176	2419.82
188.252	2416.21
188.328	2423.96
188.404	2423.15
188.48	2421.63
188.556	2414.11
188.632	2412.92
188.707	2414.2
188.783	2408.44
188.859	2405.44
188.935	2392.49
189.011	2401.2
189.086	2396.59
189.162	2387.11
189.238	2384.73
189.314	2382.78
189.39	2376.97
189.465	2368.59
189.541	2386.35
189.617	2368.27
189.693	2359.7
189.768	2362.22
189.844	2388.32
189.92	2379.71
189.996	2391.99
190.071	2404.8
190.147	2404.85
190.223	2414.7
190.298	2405.32
190.374	2391.9
190.45	2404.8
190.526	2415.08
190.601	2409.46
190.677	2411.65
190.753	2443.38
190.828	2447.75
190.904	2464.8
190.98	2478.9
191.055	2487.8
191.131	2478.89
191.207	2502.27
191.282	2511.98
191.358	2501.03
191.433	2483.78
191.509	2500.2
191.585	2495.11
191.66	2493.44
191.736	2499.82
191.811	2490.11
191.887	2510.49
191.963	2533.11
192.038	2538.87
192.114	2539.87
192.189	2542.87
192.265	2535.45
192.34	2510
192.416	2508.53
192.491	2504.39
192.567	2509.01
192.642	2517.25
192.718	2514.82
192.793	2501.25
192.869	2498.39
192.944	2501.2
193.02	2507.96
193.095	2514.01
193.171	2518.44
193.246	2518.2
193.322	2512.82
193.397	2514.58
193.473	2497.19
193.548	2479.81
193.624	2486.2
193.699	2487.05
193.775	2505.11
193.85	2507.87
193.925	2520.11
194.001	2520.58
194.076	2512.68
194.152	2499.72
194.227	2485.86
194.302	2478.06
194.378	2481.2
194.453	2478.44
194.529	2491.01
194.604	2476.92
194.679	2468.92
194.755	2451.64
194.83	2466.45
194.905	2465.36
194.981	2474.79
195.056	2466.98
195.131	2472.08
195.207	2470.26
195.282	2458.36
195.357	2438.55
195.433	2454.5
195.508	2438.4
195.583	2444.92
195.659	2461.97
195.734	2470.55
195.809	2472.69
195.884	2485.3
195.96	2488.35
196.035	2506.3
196.11	2502.02
196.185	2516.73
196.261	2518.82
196.336	2551.2
196.411	2536.2
196.486	2541.91
196.561	2533.62
196.637	2544.86
196.712	2565.58
196.787	2568.25
196.862	2586.2
196.937	2596.3
197.013	2604.92
197.088	2619.25
197.163	2643.6
197.238	2660.29
197.313	2660.19
197.388	2676.01
197.464	2706.79
197.539	2720.32
197.614	2710.94
197.689	2726.81
197.764	2743.58
197.839	2766.83
197.914	2761.11
197.989	2785.13
198.065	2799.37
198.14	2855.12
198.215	2883.28
198.29	2894.15
198.365	2907.93
198.44	2915.88
198.515	2948.06
198.59	2966.28
198.665	2996.6
198.74	3004.61
198.815	3005.23
198.89	3030.5
198.965	3061.88
199.04	3059.21
199.115	3071.94
199.19	3119.71
199.265	3122.38
199.34	3134.59
199.415	3170.9
199.49	3196.17
199.565	3208.81
199.64	3237.86
199.715	3233.08
199.79	3241.38
199.865	3249.45
199.94	3250.69
200.015	3289.28
200.09	3291.96
200.165	3299.88
200.24	3306.56
200.315	3349.25
200.39	3368.77
200.464	3373.87
200.539	3379.36
200.614	3396.06
200.689	3425.74
200.764	3436.77
200.839	3456.04
200.914	3460.76
200.989	3450.02
201.063	3462.57
201.138	3440.87
201.213	3440.83
201.288	3423.98
201.363	3431.81
201.438	3432.24
201.512	3452.27
201.587	3433.94
201.662	3441.1
201.737	3449.6
201.812	3460.25
201.886	3427.67
201.961	3438.89
202.036	3430.16
202.111	3425.44
202.186	3395.44
202.26	3375.53
202.335	3348.42
202.41	3344.03
202.485	3328.72
202.559	3309.4
202.634	3283.3
202.709	3293.93
202.784	3277.76
202.858	3280.67
202.933	3266.45
203.008	3263.68
203.082	3245.65
203.157	3249.03
203.232	3206.93
203.306	3191.66
203.381	3163.17
203.456	3145.37
203.53	3128.33
203.605	3115.55
203.68	3099.8
203.754	3101.37
203.829	3097.94
203.904	3087.59
203.978	3091.07
204.053	3111.16
204.127	3109.63
204.202	3127.52
204.277	3129.19
204.351	3137.25
204.426	3146.56
204.5	3157.2
204.575	3143.94
204.65	3177.44
204.724	3193.67
204.799	3231.96
204.873	3259.51
204.948	3284.99
205.022	3305.03
205.097	3331.25
205.171	3384.94
205.246	3435.27
205.32	3477.31
205.395	3520.38
205.469	3558.75
205.544	3610.39
205.618	3639.72
205.693	3712.77
205.767	3752.84
205.842	3838.15
205.916	3893.14
205.991	3952.98
206.065	4029.86
206.14	4119.89
206.214	4190.17
206.289	4255.75
206.363	4348.54
206.438	4426.59
206.512	4524.93
206.586	4632.25
206.661	4725.82
206.735	4789.33
206.81	4876.55
206.884	4993.05
206.958	5077.29
207.033	5193.98
207.107	5303.23
207.181	5444.4
207.256	5538.74
207.33	5669.76
207.405	5787.89
207.479	5923.47
207.553	6035.32
207.628	6126.9
207.702	6249.49
207.776	6350.33
207.851	6479.56
207.925	6611.63
207.999	6735.19
208.073	6846.81
208.148	6971.05
208.222	7082.33
208.296	7247.92
208.371	7397
208.445	7530.89
208.519	7692.16
208.593	7839.1
208.668	7966.6
208.742	8098.29
208.816	8232.04
208.89	8382.41
208.965	8516.64
209.039	8658.62
209.113	8819.55
209.187	8978.35
209.261	9102.18
209.336	9266.57
209.41	9422.29
209.484	9561.99
209.558	9723.27
209.632	9880.89
209.707	10035.02
209.781	10198.15
209.855	10350.24
209.929	10511.03
210.003	10652.38
210.077	10784.59
210.151	10972.29
210.226	11137.72
210.3	11303.65
210.374	11461.12
210.448	11588.35
210.522	11726.82
210.596	11864.71
210.67	12004
210.744	12186.14
210.818	12360.47
210.892	12518.67
210.966	12645.63
211.041	12785.18
211.115	12912.15
211.189	13059.22
211.263	13201.67
211.337	13331.72
211.411	13473.16
211.485	13588.95
211.559	13727.2
211.633	13855.14
211.707	13948.41
211.781	14090.14
211.855	14174.5
211.929	14289.71
212.003	14394.41
212.077	14532.56
212.151	14671.87
212.225	14800.43
212.299	14902.38
212.373	15002.93
212.447	15102.86
212.52	15245.15
212.594	15359.97
212.668	15480.52
212.742	15570.56
212.816	15668.89
212.89	15763.51
212.964	15859.33
213.038	15965.9
213.112	16090.44
213.186	16209.3
213.26	16284.54
213.333	16325.99
213.407	16432.31
213.481	16538.54
213.555	16653.83
213.629	16736.29
213.703	16809.16
213.777	16902.03
213.85	16981.12
213.924	17114.96
213.998	17208.5
214.072	17289.03
214.146	17384.79
214.219	17469.17
214.293	17570.14
214.367	17661.32
214.441	17768.5
214.515	17854.23
214.588	17916.98
214.662	17958.28
214.736	18016.16
214.81	18101.31
214.883	18202.71
214.957	18264.68
215.031	18325.55
215.105	18376.58
215.178	18432.43
215.252	18504.24
215.326	18549.97
215.4	18595.22
215.473	18610.59
215.547	18655.27
215.621	18710.97
215.694	18772.9
215.768	18814.63
215.842	18864.17
215.915	18914.19
215.989	18946.72
216.063	18989.08
216.136	19046.81
216.21	19097.41
216.284	19172.92
216.357	19238.31
216.431	19281.88
216.504	19350.84
216.578	19425.24
216.652	19484.81
216.725	19549.96
216.799	19618.15
216.873	19671.5
216.946	19735.78
217.02	19787.06
217.093	19842.24
217.167	19869.94
217.24	19891.78
217.314	19931.24
217.387	19970.13
217.461	20015.14
217.535	20080.59
217.608	20123.58
217.682	20171.38
217.755	20241.21
217.829	20272.68
217.902	20319.28
217.976	20369.36
218.049	20406.9
218.123	20451.04
218.196	20515.38
218.27	20544.83
218.343	20564.54
218.417	20611.24
218.49	20646.03
218.563	20711.96
218.637	20763.44
218.71	20829.99
218.784	20894.05
218.857	20960.65
218.931	21014.48
219.004	21052.12
219.077	21106.97
219.151	21153.48
219.224	21199.42
219.298	21244.63
219.371	21301.93
219.444	21334.32
219.518	21379.58
219.591	21418.81
219.665	21481.52
219.738	21514.69
219.811	21551.27
219.885	21602.65
219.958	21653.07
220.031	21693.84
220.105	21734.57
220.178	21775.93
220.251	21810.49
220.325	21852.77
220.398	21891.67
220.471	21932.64
220.544	21986.29
220.618	22005.48
220.691	22043.03
220.764	22072.67
220.838	22105.36
220.911	22126.81
220.984	22183.74
221.057	22228.52
221.131	22273.21
221.204	22269.69
221.277	22329.23
221.35	22395.71
221.424	22425.65
221.497	22460.21
221.57	22491.88
221.643	22520.23
221.716	22553.3
221.79	22577.07
221.863	22604.79
221.936	22634.69
222.009	22652.19
222.082	22675.09
222.155	22695.91
222.229	22733.57
222.302	22764.62
222.375	22788.67
222.448	22823.05
222.521	22842.62
222.594	22858.15
222.667	22858.01
222.74	22898.94
222.814	22900.38
222.887	22906.75
222.96	22941.85
223.033	22963.02
223.106	22998.36
223.179	23019.62
223.252	23044.75
223.325	23063.74
223.398	23080.57
223.471	23093.06
223.544	23106.22
223.617	23124.3
223.69	23139.11
223.763	23136.74
223.837	23149.18
223.91	23164.23
223.983	23158.39
224.056	23152.27
224.129	23166.49
224.202	23200.1
224.275	23198.27
224.348	23205.4
224.42	23207.33
224.493	23187.08
224.566	23183.95
224.639	23183.51
224.712	23179.51
224.785	23168.32
224.858	23171.12
224.931	23165.86
225.004	23164.08
225.077	23175.12
225.15	23148.31
225.223	23151.98
225.296	23187.18
225.369	23171.61
225.442	23168.91
225.514	23176.52
225.587	23171.56
225.66	23166.64
225.733	23157.14
225.806	23150.2
225.879	23140.22
225.952	23123.53
226.025	23137.95
226.097	23150.25
226.17	23144.65
226.243	23120.88
226.316	23121.27
226.389	23116.25
226.461	23122.96
226.534	23127.25
226.607	23112.54
226.68	23140.94
226.753	23141.81
226.825	23112.15
226.898	23129.8
226.971	23115.09
227.044	23124.83
227.117	23129.9
227.189	23125.8
227.262	23130.43
227.335	23137.32
227.407	23129.85
227.48	23137.56
227.553	23135.92
227.626	23129.08
227.698	23128.64
227.771	23136.5
227.844	23119.43
227.916	23109.31
227.989	23082.3
228.062	23067.6
228.134	23087.61
228.207	23077.96
228.28	23061.38
228.352	23048.07
228.425	23021.02
228.498	23022.27
228.57	22989.97
228.643	22983.75
228.716	22963.88
228.788	22943.06
228.861	22928.69
228.934	22933.12
229.006	22918.46
229.079	22896.77
229.151	22867.36
229.224	22840.45
229.296	22831.24
229.369	22839.68
229.442	22838.43
229.514	22817.31
229.587	22818.61
229.659	22781.44
229.732	22766.11
229.804	22767.79
229.877	22786.31
229.949	22787.23
230.022	22793.45
230.094	22780.96
230.167	22776.81
230.239	22759.55
230.312	22747.4
230.384	22752.66
230.457	22741.72
230.529	22720.12
230.602	22709.32
230.674	22717.95
230.747	22717.03
230.819	22714.62
230.892	22674.51
230.964	22664.67
231.037	22649.34
231.109	22618.78
231.181	22607.35
231.254	22571.05
231.326	22534.89
231.399	22503.31
231.471	22493.77
231.544	22456.5
231.616	22454.67
231.688	22433.79
231.761	22423.14
231.833	22398.17
231.905	22347.74
231.978	22324.12
232.05	22308.06
232.122	22286.32
232.195	22251.66
232.267	22244.77
232.339	22214.01
232.412	22208.9
232.484	22172.41
232.556	22152.26
232.629	22150.62
232.701	22146.38
232.773	22137.65
232.846	22117.02
232.918	22090.17
232.99	22061.97
233.062	22039.99
233.135	22016.8
233.207	21977.18
233.279	21959.24
233.351	21945.12
233.424	21926.27
233.496	21890.84
233.568	21889.69
233.64	21855.71
233.713	21827.94
233.785	21791.06
233.857	21772.51
233.929	21734.04
234.001	21742.19
234.074	21735.34
234.146	21697.94
234.218	21667.57
234.29	21636
234.362	21612.43
234.434	21572.66
234.507	21529.19
234.579	21487.35
234.651	21463.2
234.723	21456.99
234.795	21431.63
234.867	21401.27
234.939	21382.33
235.012	21363.43
235.084	21341.31
235.156	21315.47
235.228	21279.76
235.3	21246.07
235.372	21214.31
235.444	21198.55
235.516	21136.47
235.588	21113.19
235.66	21079.79
235.732	21040.17
235.804	21074.15
235.876	21053.52
235.948	21041.62
236.02	21008.46
236.092	20982.15
236.164	20947.69
236.236	20899.44
236.308	20855.2
236.38	20833.71
236.452	20806.52
236.524	20777.99
236.596	20754.47
236.668	20730.62
236.74	20703.29
236.812	20678.33
236.884	20661.65
236.956	20629.75
237.028	20585.22
237.1	20535.43
237.172	20518.13
237.244	20504.73
237.316	20432
237.388	20392.39
237.46	20349.93
237.532	20342.46
237.604	20299.96
237.675	20280.01
237.747	20265.98
237.819	20229.41
237.891	20192.39
237.963	20152.92
238.035	20111.67
238.107	20036.78
238.178	20022.76
238.25	19984.83
238.322	19974.57
238.394	19909.51
238.466	19867.92
238.538	19844.45
238.609	19823.3
238.681	19775.06
238.753	19734
238.825	19699.59
238.897	19665.47
238.968	19650.82
239.04	19599.55
239.112	19604.32
239.184	19555.02
239.255	19513.91
239.327	19486.25
239.399	19448.66
239.471	19419.85
239.542	19391.08
239.614	19381.87
239.686	19320.91
239.758	19301.59
239.829	19252.29
239.901	19235.33
239.973	19197.5
240.044	19174.56
240.116	19136.59
240.188	19098.08
240.259	19055.48
240.331	19007.63
240.403	18990.52
240.474	18934.67
240.546	18897.66
240.618	18830.05
240.689	18794
240.761	18764.9
240.833	18745.19
240.904	18714.83
240.976	18675.94
241.048	18642.98
241.119	18615.36
241.191	18591.8
241.262	18569.3
241.334	18525.83
241.405	18495.52
241.477	18460.14
241.549	18418.07
241.62	18381.21
241.692	18354.7
241.763	18338.37
241.835	18305.74
241.906	18258.52
241.978	18209.41
242.049	18189.84
242.121	18165.89
242.192	18135.48
242.264	18071.82
242.335	18015.3
242.407	17986.19
242.478	17944.45
242.55	17910
242.621	17859.25
242.693	17815.54
242.764	17768.27
242.836	17737.04
242.907	17698.87
242.979	17676.17
243.05	17642.58
243.122	17615.11
243.193	17572.42
243.264	17514.49
243.336	17480.66
243.407	17453
243.479	17446.54
243.55	17420.95
243.622	17391.21
243.693	17358.88
243.764	17349.04
243.836	17307.69
243.907	17270.25
243.978	17230.29
244.05	17201.38
244.121	17150.63
244.192	17125.71
244.264	17081.28
244.335	17047.35
244.407	16997.03
244.478	16964.36
244.549	16928.26
244.62	16883.01
244.692	16855.97
244.763	16830.86
244.834	16781.94
244.906	16743.96
244.977	16702.56
245.048	16675.38
245.119	16633.64
245.191	16588.2
245.262	16525.97
245.333	16516.96
245.405	16485.92
245.476	16469.1
245.547	16438.02
245.618	16416.13
245.689	16381.72
245.761	16350.87
245.832	16312.12
245.903	16295.93
245.974	16266.58
246.045	16232.45
246.117	16217.08
246.188	16156.83
246.259	16108.39
246.33	16082.46
246.401	16039.47
246.473	16003.12
246.544	15960.13
246.615	15941.96
246.686	15905.04
246.757	15890.63
246.828	15846.28
246.899	15822.76
246.97	15773.36
247.042	15731.95
247.113	15709.11
247.184	15700.24
247.255	15663.41
247.326	15638.45
247.397	15601.77
247.468	15571.4
247.539	15535.68
247.61	15485.51
247.681	15480.2
247.752	15460.78
247.823	15416.38
247.894	15398.79
247.965	15345.62
248.037	15308.56
248.108	15259.73
248.179	15234.32
248.25	15206.37
248.321	15180.19
248.392	15137.24
248.463	15128.86
248.534	15103.07
248.605	15085.14
248.675	15044.17
248.746	15026.57
248.817	15006.38
248.888	14983.58
248.959	14928.48
249.03	14914.26
249.101	14886.88
249.172	14852.41
249.243	14802.52
249.314	14798.33
249.385	14766.85
249.456	14756
249.527	14725.4
249.598	14710.45
249.669	14682.44
249.739	14658.39
249.81	14638.63
249.881	14598.13
249.952	14561.93
250.023	14534.02
250.094	14491.36
250.165	14454.29
250.235	14417.56
250.306	14390.04
250.377	14345.35
250.448	14333.83
250.519	14279.6
250.59	14273.67
250.66	14241.08
250.731	14237.27
250.802	14214.61
250.873	14188.54
250.944	14161.49
251.014	14136.96
251.085	14131.94
251.156	14109.72
251.227	14096.56
251.297	14085.18
251.368	14075.3
251.439	14068.99
251.51	14056.93
251.58	14018.51
251.651	13987.52
251.722	13976.72
251.792	13924.61
251.863	13897.47
251.934	13884.98
252.005	13893.32
252.075	13861.89
252.146	13847.62
252.217	13834.27
252.287	13807.61
252.358	13791.65
252.429	13792.96
252.499	13759.45
252.57	13730.72
252.641	13715.73
252.711	13689.26
252.782	13645.35
252.852	13639.76
252.923	13615.7
252.994	13590.39
253.064	13580.41
253.135	13549.18
253.205	13513.79
253.276	13508.06
253.347	13517.55
253.417	13483.61
253.488	13454.74
253.558	13426.83
253.629	13404.94
253.699	13383.01
253.77	13375.63
253.841	13347.72
253.911	13317.83
253.982	13296.52
254.052	13286.16
254.123	13266.88
254.193	13246.68
254.264	13264.8
254.334	13223.49
254.405	13187.53
254.475	13146.22
254.546	13116.96
254.616	13112.09
254.687	13106.59
254.757	13097.38
254.827	13064.41
254.898	13057.9
254.968	13035.34
255.039	13008.06
255.109	12992.01
255.18	12962.65
255.25	12911.07
255.321	12887.5
255.391	12849.61
255.461	12849.65
255.532	12798.07
255.602	12773.97
255.673	12732.23
255.743	12702.77
255.813	12661.8
255.884	12651
255.954	12645.55
256.024	12646.9
256.095	12628.25
256.165	12584.48
256.235	12561.24
256.306	12541.04
256.376	12525.96
256.446	12512.51
256.517	12496.6
256.587	12486.48
256.657	12469.65
256.728	12457.89
256.798	12450.08
256.868	12430.42
256.938	12406.55
257.009	12398.41
257.079	12388.09
257.149	12395.85
257.219	12351.07
257.29	12341.29
257.36	12292.99
257.43	12281.8
257.5	12239.77
257.571	12212.87
257.641	12205.69
257.711	12178.55
257.781	12165.44
257.852	12147.99
257.922	12110.73
257.992	12094.54
258.062	12073.91
258.132	12058.05
258.202	12036.26
258.273	12011.2
258.343	12013.41
258.413	11984.97
258.483	11964.01
258.553	11931.52
258.623	11899.56
258.693	11889.39
258.764	11895.32
258.834	11901.3
258.904	11880.23
258.974	11854.64
259.044	11836.13
259.114	11825.33
259.184	11804.99
259.254	11784.8
259.324	11742.29
259.394	11733.51
259.464	11734.91
259.535	11707.97
259.605	11687.72
259.675	11659.1
259.745	11645.31
259.815	11614.85
259.885	11580.44
259.955	11595.38
260.025	11566.8
260.095	11551.71
260.165	11541.64
260.235	11538.03
260.305	11509.54
260.375	11480.38
260.445	11489.49
260.515	11485.3
260.585	11487.52
260.655	11478.17
260.725	11470.98
260.795	11461.92
260.865	11465.1
260.934	11438.21
261.004	11433.29
261.074	11422.11
261.144	11422.26
261.214	11415.75
261.284	11400.33
261.354	11406.79
261.424	11379.94
261.494	11391.36
261.564	11378.16
261.634	11364.37
261.703	11321.28
261.773	11315.84
261.843	11305.62
261.913	11288.22
261.983	11259.4
262.053	11240.32
262.123	11224.42
262.192	11184.03
262.262	11182.68
262.332	11156.27
262.402	11145.86
262.472	11134.83
262.541	11090.54
262.611	11089.19
262.681	11069.14
262.751	11057.34
262.821	11030.74
262.89	10998.06
262.96	10982.21
263.03	10982.88
263.1	10967.07
263.169	10949.73
263.239	10935.08
263.309	10946.74
263.379	10940.38
263.448	10930.21
263.518	10920.24
263.588	10902.7
263.657	10914.69
263.727	10906.07
263.797	10888.72
263.867	10872.72
263.936	10844.77
264.006	10851.04
264.076	10831.38
264.145	10813.64
264.215	10791.82
264.285	10793.69
264.354	10762.76
264.424	10738.76
264.494	10705.61
264.563	10686.72
264.633	10695.44
264.702	10692.94
264.772	10655.79
264.842	10630.15
264.911	10620.71
264.981	10583.99
265.05	10575.17
265.12	10550.89
265.19	10537.83
265.259	10534.7
265.329	10524.72
265.398	10507.96
265.468	10520.92
265.537	10501.64
265.607	10494.71
265.676	10495.96
265.746	10480.16
265.815	10475.43
265.885	10460.84
265.955	10436.12
266.024	10415.7
266.094	10379.95
266.163	10378.11
266.232	10375.75
266.302	10363.61
266.371	10349.3
266.441	10335.82
266.51	10319.87
266.58	10301.32
266.649	10277.47
266.719	10274
266.788	10261.67
266.858	10269.62
266.927	10228.43
266.996	10216.38
267.066	10204.15
267.135	10169.85
267.205	10168.5
267.274	10160.21
267.343	10163.05
267.413	10156.89
267.482	10160.26
267.552	10164.5
267.621	10129.86
267.69	10098.93
267.76	10089.06
267.829	10082.17
267.898	10070.75
267.968	10054.76
268.037	10050.18
268.106	10050.18
268.176	10020.27
268.245	10009.09
268.314	9986.74
268.384	9989.15
268.453	9979.71
268.522	9966.12
268.592	9972.19
268.661	9948.83
268.73	9942.9
268.799	9919.2
268.869	9922.58
268.938	9889.29
269.007	9870.79
269.076	9864.92
269.146	9870.31
269.215	9861.64
269.284	9867.71
269.353	9856.3
269.422	9840.26
269.492	9824.27
269.561	9779.91
269.63	9774.76
269.699	9757.71
269.768	9749.18
269.838	9740.17
269.907	9739.45
269.976	9717.87
270.045	9689.94
270.114	9691.96
270.183	9677.08
270.253	9672.36
270.322	9641.78
270.391	9636
270.46	9637.69
270.529	9627.96
270.598	9619.24
270.667	9602.43
270.736	9574.5
270.806	9566.07
270.875	9571.37
270.944	9557.16
271.013	9586.92
271.082	9575.36
271.151	9570.16
271.22	9539.92
271.289	9529.52
271.358	9515.99
271.427	9511.46
271.496	9500.58
271.565	9483.82
271.634	9477.7
271.703	9509.25
271.772	9517.34
271.841	9507.95
271.91	9488.88
271.979	9487.29
272.048	9454.64
272.117	9463.41
272.186	9450.41
272.255	9458.45
272.324	9449.97
272.393	9446.89
272.462	9425.65
272.531	9415.78
272.6	9405.09
272.669	9417.99
272.738	9407.06
272.807	9401
272.876	9378.17
272.945	9407.26
273.013	9406.87
273.082	9405.38
273.151	9349.9
273.22	9342.58
273.289	9334.97
273.358	9341.09
273.427	9321.3
273.496	9331.84
273.564	9321.2
273.633	9320.43
273.702	9295.63
273.771	9283.79
273.84	9283.16
273.909	9270.11
273.977	9274.83
274.046	9261.73
274.115	9257.98
274.184	9235.88
274.253	9231.06
274.322	9248.83
274.39	9217.05
274.459	9202.17
274.528	9174.44
274.597	9167.94
274.665	9171.7
274.734	9181.08
274.803	9165.92
274.872	9163.94
274.94	9147.09
275.009	9178.64
275.078	9165.25
275.147	9160.34
275.215	9164.63
275.284	9172.67
275.353	9168.63
275.421	9143.35
275.49	9159.67
275.559	9145.76
275.627	9141.91
275.696	9128.43
275.765	9124.62
275.833	9116.05
275.902	9115.62
275.971	9131.6
276.039	9153.03
276.108	9144.55
276.177	9142.29
276.245	9132.61
276.314	9124.05
276.383	9126.02
276.451	9082.77
276.52	9087.59
276.588	9103.72
276.657	9102.51
276.725	9085.27
276.794	9082.43
276.863	9091.39
276.931	9065.39
277	9076.8
277.068	9082.48
277.137	9100.2
277.205	9089.89
277.274	9113.1
277.342	9120.9
277.411	9093.8
277.48	9071.07
277.548	9061.11
277.617	9060.67
277.685	9057.93
277.754	9066.16
277.822	9062.07
277.89	9078.49
277.959	9071.56
278.027	9053.99
278.096	9047.29
278.164	9078.06
278.233	9076.38
278.301	9060.49
278.37	9068.1
278.438	9051.73
278.507	9055.24
278.575	9026.07
278.643	9023.33
278.712	9001.28
278.78	8984.42
278.849	9001.9
278.917	9018.55
278.985	9016.29
279.054	9019.57
279.122	9030.25
279.191	9030.11
279.259	9025.15
279.327	8995.2
279.396	9013.11
279.464	9005.17
279.532	9007.43
279.601	8999.49
279.669	8988.42
279.737	9012.44
279.806	9012.15
279.874	9024.62
279.942	9027.75
280.011	9023.61
280.079	9034.63
280.147	9049.65
280.215	9058.56
280.284	9046.33
280.352	9026.74
280.42	9036.27
280.488	9020.05
280.557	9011.19
280.625	9011.09
280.693	9012.97
280.761	9022.69
280.83	9005.51
280.898	9016.05
280.966	8994.29
281.034	8960.49
281.102	8951.59
281.171	8936.23
281.239	8949.23
281.307	8940.85
281.375	8923.09
281.443	8952.17
281.512	8951.69
281.58	8952.89
281.648	8939.31
281.716	8943.07
281.784	8940.95
281.852	8929.59
281.92	8930.41
281.989	8940.66
282.057	8924.49
282.125	8967.1
282.193	8966.23
282.261	8958.77
282.329	8956.65
282.397	8964.74
282.465	8972.06
282.533	8985.68
282.601	8975.91
282.67	8952.56
282.738	8946.49
282.806	8959.63
282.874	8942.01
282.942	8938.69
283.01	8930.12
283.078	8934.12
283.146	8926.94
283.214	8944.52
283.282	8950.63
283.35	8970.99
283.418	8968.11
283.486	8970.42
283.554	8927.8
283.622	8925.73
283.69	8926.6
283.758	8914.52
283.826	8912.83
283.894	8920.92
283.962	8943.79
284.03	8960.49
284.098	8960.01
284.165	8950.15
284.233	8953.37
284.301	8948.41
284.369	8935.61
284.437	8929.88
284.505	8924.87
284.573	8946.39
284.641	8929.83
284.709	8935.03
284.777	8908.12
284.845	8908.74
284.912	8917.07
284.98	8921.45
285.048	8915.48
285.116	8926.31
285.184	8944.89
285.252	8954.67
285.319	8939.36
285.387	8926.93
285.455	8909.56
285.523	8917.64
285.591	8915.33
285.659	8912.3
285.726	8930.16
285.794	8918.9
285.862	8920.1
285.93	8915.19
285.997	8905.81
286.065	8902.44
286.133	8891.27
286.201	8889.15
286.269	8873.12
286.336	8864.5
286.404	8851.75
286.472	8857.24
286.539	8826.58
286.607	8809.97
286.675	8809.25
286.743	8818.83
286.81	8813.82
286.878	8833.51
286.946	8819.69
287.013	8822.97
287.081	8822.87
287.149	8800.68
287.216	8822.58
287.284	8815.36
287.352	8816.18
287.419	8810.69
287.487	8824.84
287.555	8828.69
287.622	8824.36
287.69	8833.46
287.758	8844.24
287.825	8847.66
287.893	8833.22
287.96	8843.23
288.028	8857.33
288.096	8854.15
288.163	8851.51
288.231	8842.55
288.298	8836.58
288.366	8858.39
288.433	8853
288.501	8843.18
288.569	8854.4
288.636	8846.45
288.704	8857.33
288.771	8873.27
288.839	8867.25
288.906	8860.36
288.974	8877.12
289.041	8878.56
289.109	8870.09
289.176	8876.21
289.244	8885.69
289.311	8909.95
289.379	8922.37
289.446	8919.19
289.514	8920.97
289.581	8925.06
289.649	8921.41
289.716	8922.8
289.783	8909.32
289.851	8927.9
289.918	8928.14
289.986	8930.93
290.053	8934.74
290.121	8933.92
290.188	8929.92
290.255	8963.14
290.323	8951.44
290.39	8938.78
290.458	8943.69
290.525	8955.58
290.592	8950.52
290.66	8944.27
290.727	8929.01
290.794	8943.11
290.862	8945.66
290.929	8947.83
290.996	8944.41
291.064	8957.17
291.131	8967.08
291.198	8979.41
291.266	8978.64
291.333	8986.05
291.4	8993.61
291.468	9015.85
291.535	9005.6
291.602	9012.44
291.669	8999.53
291.737	9014.98
291.804	9017.92
291.871	9036.7
291.938	9046.76
292.006	9074.49
292.073	9084.75
292.14	9099.09
292.207	9091.25
292.275	9094.04
292.342	9107.23
292.409	9138
292.476	9166.02
292.543	9158.56
292.611	9158.08
292.678	9184.32
292.745	9212.48
292.812	9223.65
292.879	9216
292.946	9232.22
293.014	9247.1
293.081	9260.87
293.148	9269.44
293.215	9284.56
293.282	9279.84
293.349	9288.07
293.416	9271.94
293.484	9291.11
293.551	9298.86
293.618	9321.39
293.685	9343.54
293.752	9340.7
293.819	9335.02
293.886	9319.61
293.953	9326.83
294.02	9336.12
294.087	9332.99
294.154	9317.63
294.221	9334.73
294.288	9336.46
294.356	9357.5
294.423	9368.15
294.49	9358.71
294.557	9376
294.624	9364.83
294.691	9384.37
294.758	9387.89
294.825	9390.15
294.892	9376.48
294.959	9379.95
295.026	9384.18
295.093	9376.14
295.16	9376.09
295.226	9378.5
295.293	9404.55
295.36	9407.78
295.427	9424.2
295.494	9440.33
295.561	9456.47
295.628	9480.26
295.695	9497.41
295.762	9490.13
295.829	9491.82
295.896	9506.94
295.963	9512.28
296.03	9524.23
296.096	9527.65
296.163	9538.87
296.23	9557.99
296.297	9578.31
296.364	9578.64
296.431	9590.64
296.498	9590.2
296.564	9612.35
296.631	9610.91
296.698	9594.63
296.765	9623.43
296.832	9614.33
296.899	9602.62
296.965	9614.76
297.032	9587.64
297.099	9601.71
297.166	9613.99
297.233	9610.81
297.299	9604.79
297.366	9608.69
297.433	9614.81
297.5	9626.89
297.566	9622.22
297.633	9617.12
297.7	9617.12
297.767	9613.89
297.833	9614.18
297.9	9619.67
297.967	9607.63
298.033	9623.81
298.1	9660.42
298.167	9642.79
298.234	9646.07
298.3	9652.62
298.367	9645.49
298.434	9649.68
298.5	9636.19
298.567	9635.85
298.634	9634.17
298.7	9655.21
298.767	9658.39
298.834	9673.56
298.9	9670.29
298.967	9666
299.033	9681.56
299.1	9699.48
299.167	9721.15
299.233	9716.81
299.3	9728.76
299.366	9745.33
299.433	9759.1
299.5	9729.53
299.566	9742.58
299.633	9767.38
299.699	9784.96
299.766	9792.48
299.832	9800.95
299.899	9819.11
299.965	9829.9
300.032	9828.07
300.099	9837.56
300.165	9842.09
300.232	9834.38
300.298	9835.15
300.365	9853.99
300.431	9855.86
300.498	9851.53
300.564	9855.53
300.631	9862.8
300.697	9878.31
300.763	9876.14
300.83	9872.91
300.896	9888.23
300.963	9896.66
301.029	9896.28
301.096	9894.97
301.162	9903.36
301.229	9894.54
301.295	9877.39
301.361	9879.03
301.428	9883.13
301.494	9861.31
301.561	9866.03
301.627	9867.76
301.693	9869.49
301.76	9871.04
301.826	9858.8
301.892	9865.93
301.959	9883.47
302.025	9889.53
302.092	9881.01
302.158	9890.21
302.224	9889.87
302.291	9879.8
302.357	9877.35
302.423	9870.89
302.49	9866.89
302.556	9878.94
302.622	9885.39
302.688	9901.53
302.755	9917.52
302.821	9924.46
302.887	9943.72
302.954	9939.29
303.02	9944.59
303.086	9947.43
303.152	9946.56
303.219	9946.76
303.285	9948.78
303.351	9945.65
303.417	9950.51
303.483	9945.99
303.55	9939.53
303.616	9941.41
303.682	9940.45
303.748	9926.19
303.815	9940.3
303.881	9947.14
303.947	9927.44
304.013	9925.95
304.079	9918.24
304.145	9891.32
304.212	9892.09
304.278	9881.2
304.344	9876.67
304.41	9875.18
304.476	9871.76
304.542	9864.54
304.608	9871.66
304.674	9860.68
304.741	9852.83
304.807	9846.66
304.873	9849.22
304.939	9870.03
305.005	9852.11
305.071	9847.15
305.137	9852.59
305.203	9826.1
305.269	9823.54
305.335	9837.95
305.401	9840.11
305.467	9842.43
305.533	9853.41
305.599	9861.45
305.666	9870.36
305.732	9877.68
305.798	9885.1
305.864	9912.27
305.93	9920.07
305.996	9918
306.062	9915.16
306.128	9909.81
306.194	9895.51
306.259	9896.86
306.325	9882.55
306.391	9898.3
306.457	9911.88
306.523	9919.25
306.589	9945.02
306.655	9939.92
306.721	9923.88
306.787	9906.78
306.853	9920.89
306.919	9905.34
306.985	9900.04
307.051	9893.82
307.117	9883.95
307.183	9875.62
307.248	9837.13
307.314	9839.92
307.38	9842.62
307.446	9851.96
307.512	9842.19
307.578	9855.1
307.644	9847.49
307.709	9847.58
307.775	9835.59
307.841	9830
307.907	9826
307.973	9810.15
308.039	9805.77
308.104	9812.37
308.17	9818.58
308.236	9799.31
308.302	9805.48
308.368	9792.47
308.433	9788.28
308.499	9782.51
308.565	9770.66
308.631	9779.04
308.696	9749.37
308.762	9739.78
308.828	9737.76
308.894	9723.12
308.959	9697.21
309.025	9689.79
309.091	9687.34
309.156	9683.39
309.222	9686.81
309.288	9674.38
309.354	9656.32
309.419	9657.57
309.485	9640.62
309.551	9645.82
309.616	9629.78
309.682	9626.22
309.748	9617.98
309.813	9616.35
309.879	9607
309.945	9596.7
310.01	9594.48
310.076	9599.88
310.141	9595.2
310.207	9578.49
310.273	9584.46
310.338	9586.82
310.404	9568.43
310.469	9553.16
310.535	9544.64
310.601	9515.74
310.666	9522.29
310.732	9526.82
310.797	9507.31
310.863	9500.96
310.928	9492
310.994	9489.16
311.059	9484.63
311.125	9484.58
311.191	9491.61
311.256	9479.24
311.322	9487.47
311.387	9459.21
311.453	9758.36
311.518	9730.44
311.584	9730.44
311.649	9734.05
311.715	9725.43
311.78	9726.34
311.846	9711.9
311.911	9716.62
311.976	9726.1
312.042	9716.23
312.107	9694.37
312.173	9688.06
312.238	9678.14
312.304	9667.02
312.369	9662.59
312.434	9652.33
312.5	9645.4
312.565	9613.71
312.631	9624.01
312.696	9609.37
312.761	9615.87
312.827	9307.28
312.892	9354.67
312.958	9350.81
313.023	9346.05
313.088	9344.7
313.154	9334.68
313.219	9330.74
313.284	9318.79
313.35	9313.79
313.415	9296.69
313.48	9293.61
313.546	9304.4
313.611	9319.81
313.676	9312.73
313.741	9308.01
313.807	9313.74
313.872	9313.4
313.937	9322.55
314.003	9332.66
314.068	9339.31
314.133	9346.29
314.198	9337.82
314.264	9310.27
314.329	9300.59
314.394	9290.57
314.459	9288.02
314.525	9309.11
314.59	9305.55
314.655	9295.72
314.72	9300.2
314.785	9306.41
314.851	9308
314.916	9287.59
314.981	9268.9
315.046	9261.25
315.111	9251.96
315.176	9237.8
315.242	9245.46
315.307	9240.3
315.372	9220.61
315.437	9211.17
315.502	9201.69
315.567	9214.59
315.632	9194.85
315.698	9189.17
315.763	9187.97
315.828	9177.95
315.893	9167.74
315.958	9163.94
316.023	9151.86
316.088	9136.21
316.153	9110.02
316.218	9103.04
316.283	9084.51
316.348	9065.49
316.413	9066.12
316.479	9049.17
316.544	9013.51
316.609	8976.78
316.674	8937.79
316.739	8897.89
316.804	8865.11
316.869	8835.79
316.934	8797.52
316.999	8772.88
317.064	8724.17
317.129	8681.19
317.194	8647.55
317.259	8607.84
317.324	8555.2
317.389	8512.47
317.454	8468.43
317.518	8436.87
317.583	8412.8
317.648	8391.1
317.713	8358.43
317.778	8295.49
317.843	8265.9
317.908	8231.17
317.973	8190.86
318.038	8166.9
318.103	8132.89
318.168	8100.71
318.233	8067.47
318.297	8011.43
318.362	7970.01
318.427	7936.4
318.492	7909.27
318.557	7862.24
318.622	7829.05
318.687	7807.46
318.751	7769.38
318.816	7736.49
318.881	7703.79
318.946	7641.18
319.011	7596.99
319.075	7549.92
319.14	7513.59
319.205	7469.6
319.27	7436
319.335	7394.57
319.399	7351.69
319.464	7322.66
319.529	7264.94
319.594	7219.8
319.658	7198.75
319.723	7160.55
319.788	7133.21
319.853	7079.91
319.917	7050.8
319.982	6999.28
320.047	6964.4
320.112	6934.9
320.176	6883.02
320.241	6844.68
320.306	6819.99
320.37	6772.83
320.435	6748.09
320.5	6731.66
320.564	6692.76
320.629	6654.21
320.694	6624.82
320.758	6589.14
320.823	6543.81
320.888	6523.79
320.952	6478.62
321.017	6431.04
321.082	6387.07
321.146	6353.46
321.211	6314.44
321.275	6272.02
321.34	6228.73
321.405	6180.41
321.469	6135.21
321.534	6095
321.598	6043.53
321.663	6012.67
321.727	5984.79
321.792	5934.08
321.857	5882.36
321.921	5845.9
321.986	5801.21
322.05	5742.85
322.115	5700.89
322.179	5656.06
322.244	5598.91
322.308	5564.68
322.373	5515.93
322.437	5475
322.502	5447.23
322.566	5409.07
322.631	5372.55
322.695	5334.46
322.76	5289.66
322.824	5257.32
322.889	5214.97
322.953	5174.65
323.018	5104.55
323.082	5038.08
323.146	4985.7
323.211	4927.66
323.275	4881.92
323.34	4836.97
323.404	4799.21
323.468	4753.67
323.533	4710.16
323.597	4658.83
323.662	4606.76
323.726	4574.12
323.79	4527.37
323.855	4459.77
323.919	4407.43
323.983	4360.54
324.048	4290.55
324.112	4467.04
324.177	4336.18
324.241	4114.77
324.305	3895.57
324.37	3682.15
324.434	3476.25
324.498	3432.73
324.562	3385.33
324.627	3320.16
324.691	3263.68
324.755	3198.96
324.82	3118.17
324.884	3040.04
324.948	2973.14
325.012	2874.51
325.077	2746.35
