Data from 20250703_urea_0.1M_MAYP1162681_07-41-04-812.txt Node
Date: Fri Jul 04 07:41:04 BST 2025
User: adleo
Spectrometer: MAYP116268
Trigger mode: 0
Integration Time (sec): 1.000000E0
Scans to average: 1
Electric dark correction enabled: true
Nonlinearity correction enabled: true
Boxcar width: 10
XAxis mode: Wavelengths
Number of Pixels in Spectrum: 2068
>>>>>Begin Spectral Data<<<<<
179.565	1233.55
179.642	1290.48
179.718	1334.59
179.795	1378.03
179.871	1412.29
179.948	1431.65
180.024	1453.15
180.101	1476.02
180.177	1490.34
180.254	1514.81
180.33	1535.76
180.407	1592.36
180.483	1692.13
180.56	1786.25
180.636	1873.46
180.712	1860.58
180.789	1870.99
180.865	1884.82
180.942	1893.85
181.018	1907.3
181.095	1919.71
181.171	1924.23
181.248	1926.89
181.324	1943.58
181.4	1947.82
181.477	1960.28
181.553	1973.06
181.63	1994.22
181.706	2011.01
181.782	2019.76
181.859	2019.14
181.935	2027.03
182.011	2024.18
182.088	2039.92
182.164	2058.19
182.24	2073.17
182.317	2082.35
182.393	2081.78
182.469	2095.9
182.546	2110.74
182.622	2112.22
182.698	2104.61
182.775	2118.78
182.851	2133.01
182.927	2124.54
183.003	2123.21
183.08	2115.6
183.156	2126.2
183.232	2122.45
183.308	2109.98
183.385	2119.73
183.461	2135.53
183.537	2137.38
183.613	2150.65
183.69	2139.67
183.766	2130.34
183.842	2137.14
183.918	2144.13
183.995	2156.65
184.071	2159.64
184.147	2153.46
184.223	2145.66
184.299	2165.93
184.375	2152.75
184.452	2160.32
184.528	2210.28
184.604	2218.51
184.68	2230.35
184.756	2238.11
184.832	2241.39
184.908	2246.91
184.985	2245.24
185.061	2230.07
185.137	2236.92
185.213	2224.88
185.289	2228.4
185.365	2219.27
185.441	2216.51
185.517	2227.65
185.593	2224.65
185.669	2220.27
185.745	2231.84
185.822	2248.29
185.898	2236.49
185.974	2246.57
186.05	2236.53
186.126	2202.23
186.202	2197.85
186.278	2196.28
186.354	2185.38
186.43	2193.85
186.506	2192.62
186.582	2193.24
186.658	2201.23
186.734	2184.34
186.81	2185.2
186.886	2187.34
186.962	2199.32
187.038	2197.04
187.114	2185.62
187.19	2191.99
187.266	2184.24
187.341	2185.14
187.417	2179.1
187.493	2180.81
187.569	2183.38
187.645	2179.24
187.721	2167.87
187.797	2174.06
187.873	2176.77
187.949	2170.54
188.025	2162.21
188.101	2164.06
188.176	2169.73
188.252	2164.87
188.328	2170.96
188.404	2170.2
188.48	2167.06
188.556	2161.59
188.632	2159.78
188.707	2162.97
188.783	2160.26
188.859	2155.31
188.935	2142.56
189.011	2149.84
189.086	2142.99
189.162	2135.95
189.238	2132.14
189.314	2130.86
189.39	2125.15
189.465	2117.92
189.541	2134.76
189.617	2118.78
189.693	2116.97
189.768	2117.64
189.844	2144.05
189.92	2135.4
189.996	2147.39
190.071	2156.33
190.147	2156.71
190.223	2167.8
190.298	2161.33
190.374	2150.48
190.45	2161.99
190.526	2173.17
190.601	2164.51
190.677	2163.47
190.753	2190.84
190.828	2194.5
190.904	2208.54
190.98	2220.29
191.055	2233.23
191.131	2224.81
191.207	2248.55
191.282	2255.54
191.358	2246.65
191.433	2229.65
191.509	2243.2
191.585	2240.68
191.66	2242.82
191.736	2251.06
191.811	2241.82
191.887	2258.58
191.963	2279.42
192.038	2285.8
192.114	2282.51
192.189	2287.6
192.265	2285.46
192.34	2264.32
192.416	2262.71
192.491	2258.18
192.567	2262.61
192.642	2263.13
192.718	2263.75
192.793	2253.14
192.869	2248.91
192.944	2252.81
193.02	2260.14
193.095	2261.56
193.171	2264.28
193.246	2261.33
193.322	2256.38
193.397	2255.85
193.473	2240.95
193.548	2224.77
193.624	2229.15
193.699	2230.44
193.775	2246.72
193.85	2249.24
193.925	2255.47
194.001	2257.18
194.076	2250.43
194.152	2239.48
194.227	2230.91
194.302	2222.16
194.378	2225.54
194.453	2223.68
194.529	2233.44
194.604	2218.83
194.679	2215.31
194.755	2198.33
194.83	2213.66
194.905	2213.33
194.981	2221.75
195.056	2213.66
195.131	2217.18
195.207	2218.13
195.282	2210
195.357	2192.1
195.433	2205.57
195.508	2193.86
195.583	2198.33
195.659	2211.75
195.734	2221.03
195.809	2222.84
195.884	2229.36
195.96	2228.22
196.035	2242.63
196.11	2241.16
196.185	2254.43
196.261	2259.76
196.336	2292.88
196.411	2278.98
196.486	2283.41
196.561	2278.32
196.637	2289.3
196.712	2308.3
196.787	2309.49
196.862	2320.53
196.937	2331.71
197.013	2339.19
197.088	2352.18
197.163	2374.51
197.238	2394.56
197.313	2393.47
197.388	2404.61
197.464	2435.94
197.539	2446.74
197.614	2441.51
197.689	2451.07
197.764	2465.98
197.839	2486.98
197.914	2479.07
197.989	2503.17
198.065	2516.93
198.14	2567.91
198.215	2593.58
198.29	2606.11
198.365	2619.64
198.44	2633.73
198.515	2660.41
198.59	2674.03
198.665	2700.05
198.74	2712.39
198.815	2712.39
198.89	2737.21
198.965	2769.8
199.04	2765.99
199.115	2784.05
199.19	2827.54
199.265	2832.59
199.34	2842.98
199.415	2875.45
199.49	2897.27
199.565	2907.28
199.64	2930.64
199.715	2928.01
199.79	2935.92
199.865	2941.07
199.94	2938.98
200.015	2968.01
200.09	2974.49
200.165	2980.4
200.24	2988.03
200.315	3028.46
200.39	3043.95
200.464	3048.53
200.539	3049.34
200.614	3066.5
200.689	3090.34
200.764	3095.83
200.839	3117.28
200.914	3125.05
200.989	3115.27
201.063	3127.95
201.138	3109.08
201.213	3112.28
201.288	3092.73
201.363	3100.36
201.438	3099.45
201.512	3116.66
201.587	3100.73
201.662	3107.5
201.737	3123.43
201.812	3130.01
201.886	3094.98
201.961	3105.24
202.036	3095.94
202.111	3092.84
202.186	3066.49
202.26	3047.5
202.335	3027.05
202.41	3018.37
202.485	2999.83
202.559	2982.09
202.634	2960.73
202.709	2974.6
202.784	2957.53
202.858	2960.3
202.933	2942.08
203.008	2940.04
203.082	2921.83
203.157	2924.98
203.232	2884.09
203.306	2867.21
203.381	2841.32
203.456	2823.25
203.53	2803.46
203.605	2787.83
203.68	2769.15
203.754	2769.91
203.829	2762.38
203.904	2750.61
203.978	2750.56
204.053	2766.58
204.127	2762.29
204.202	2771.91
204.277	2763.91
204.351	2769.01
204.426	2772.63
204.5	2778.83
204.575	2760.63
204.65	2791.9
204.724	2802.39
204.799	2829.59
204.873	2847.29
204.948	2867.83
205.022	2881.7
205.097	2900.64
205.171	2943.83
205.246	2984.32
205.32	3013.97
205.395	3046.78
205.469	3070.95
205.544	3112.41
205.618	3132.16
205.693	3185.6
205.767	3213.41
205.842	3275.93
205.916	3315.44
205.991	3353.81
206.065	3409.27
206.14	3475.97
206.214	3518.09
206.289	3564.71
206.363	3632.85
206.438	3690.57
206.512	3755.16
206.586	3833.78
206.661	3902.19
206.735	3941.31
206.81	4004.91
206.884	4084.68
206.958	4143.86
207.033	4234.15
207.107	4309.36
207.181	4412.03
207.256	4479.26
207.33	4572.36
207.405	4662.72
207.479	4757.16
207.553	4839.47
207.628	4900.11
207.702	4988.49
207.776	5067.76
207.851	5157.86
207.925	5258.6
207.999	5341.41
208.073	5426.04
208.148	5513.1
208.222	5590.53
208.296	5713.42
208.371	5814.07
208.445	5909.76
208.519	6026.03
208.593	6126.78
208.668	6216.82
208.742	6312.18
208.816	6405.04
208.89	6508.46
208.965	6605.17
209.039	6705.88
209.113	6823.21
209.187	6942.42
209.261	7039.4
209.336	7156.54
209.41	7273.61
209.484	7369.46
209.558	7492.48
209.632	7605.29
209.707	7718.33
209.781	7840.21
209.855	7954.2
209.929	8074.28
210.003	8185.68
210.077	8285.26
210.151	8433.53
210.226	8566.74
210.3	8691.16
210.374	8805.77
210.448	8906.6
210.522	9006.34
210.596	9116
210.67	9214.25
210.744	9357.4
210.818	9484.06
210.892	9597.56
210.966	9689.01
211.041	9801.8
211.115	9883.14
211.189	9998.78
211.263	10099.79
211.337	10190.25
211.411	10290.4
211.485	10379.58
211.559	10477.52
211.633	10566.4
211.707	10616.18
211.781	10711.16
211.855	10764.36
211.929	10856
212.003	10930.77
212.077	11021.51
212.151	11121.13
212.225	11223.58
212.299	11298.77
212.373	11374.43
212.447	11455.5
212.52	11562.73
212.594	11648.82
212.668	11743.33
212.742	11807.38
212.816	11892.21
212.89	11973.19
212.964	12060.38
213.038	12141.07
213.112	12234.39
213.186	12328.1
213.26	12391.87
213.333	12425.13
213.407	12510.88
213.481	12581.06
213.555	12671.54
213.629	12735.99
213.703	12796.44
213.777	12873.71
213.85	12921
213.924	13026.86
213.998	13099.31
214.072	13165.16
214.146	13222.82
214.219	13300.38
214.293	13375.87
214.367	13448.62
214.441	13525.94
214.515	13576.36
214.588	13616.09
214.662	13651.86
214.736	13705.51
214.81	13780.81
214.883	13862.56
214.957	13914.05
215.031	13975.32
215.105	14012.54
215.178	14078.53
215.252	14132.09
215.326	14172.1
215.4	14221.94
215.473	14235.97
215.547	14280.17
215.621	14333.34
215.694	14395.72
215.768	14424.31
215.842	14468.32
215.915	14508.13
215.989	14541.01
216.063	14591.34
216.136	14650.39
216.21	14701.19
216.284	14761.45
216.357	14821.75
216.431	14867.83
216.504	14939.18
216.578	15013.75
216.652	15082.92
216.725	15129.19
216.799	15190.41
216.873	15240.93
216.946	15292.79
217.02	15338.59
217.093	15385
217.167	15401.15
217.24	15438.55
217.314	15493.31
217.387	15536.36
217.461	15586
217.535	15653.53
217.608	15689.54
217.682	15743.09
217.755	15796.93
217.829	15838.28
217.902	15881.81
217.976	15926.05
218.049	15951.21
218.123	15975.41
218.196	16031.18
218.27	16079.04
218.343	16112.87
218.417	16153.89
218.49	16202.76
218.563	16273.76
218.637	16332.41
218.71	16415.12
218.784	16472.76
218.857	16529.78
218.931	16582.6
219.004	16635.95
219.077	16684.39
219.151	16746.23
219.224	16791.48
219.298	16841.22
219.371	16897.7
219.444	16930.81
219.518	16984.12
219.591	17038.43
219.665	17119.25
219.738	17165.23
219.811	17191.98
219.885	17250.25
219.958	17310.15
220.031	17353.38
220.105	17397.14
220.178	17435.69
220.251	17467.31
220.325	17512.32
220.398	17552.46
220.471	17606.39
220.544	17650.49
220.618	17679.93
220.691	17719.88
220.764	17758.24
220.838	17811.25
220.911	17852.26
220.984	17915.3
221.057	17957.18
221.131	18011.78
221.204	18024.69
221.277	18087.73
221.35	18171.72
221.424	18200.3
221.497	18241.46
221.57	18285.74
221.643	18332.44
221.716	18394.36
221.79	18428.72
221.863	18469.3
221.936	18513.35
222.009	18551.85
222.082	18585.2
222.155	18627.36
222.229	18677
222.302	18722.44
222.375	18762.2
222.448	18801.86
222.521	18838
222.594	18875.01
222.667	18893.47
222.74	18940.26
222.814	18970.23
222.887	18993.17
222.96	19041.94
223.033	19088.59
223.106	19128.78
223.179	19165.16
223.252	19189.31
223.325	19222.07
223.398	19252.82
223.471	19285.35
223.544	19312.14
223.617	19352.48
223.69	19383.9
223.763	19400.28
223.837	19440.13
223.91	19468.61
223.983	19469.43
224.056	19485.24
224.129	19515.21
224.202	19553.33
224.275	19567.16
224.348	19568.94
224.42	19586.78
224.493	19595.93
224.566	19604.8
224.639	19631.01
224.712	19643.74
224.785	19656.8
224.858	19673.33
224.931	19687.01
225.004	19692.79
225.077	19716.89
225.15	19706.72
225.223	19726.82
225.296	19776.6
225.369	19771.83
225.442	19770.24
225.514	19799.05
225.587	19818.81
225.66	19837.85
225.733	19853.32
225.806	19878.67
225.879	19905.22
225.952	19906.66
226.025	19931.53
226.097	19966.42
226.17	19983.39
226.243	19977.46
226.316	19987.87
226.389	20006.85
226.461	20030.08
226.534	20050.66
226.607	20052.2
226.68	20086.32
226.753	20103.24
226.825	20083.29
226.898	20108.73
226.971	20131.72
227.044	20153.16
227.117	20172.63
227.189	20194.17
227.262	20222.27
227.335	20240.1
227.407	20238.27
227.48	20256.49
227.553	20272.44
227.626	20265.06
227.698	20266.56
227.771	20285.64
227.844	20284.49
227.916	20294.32
227.989	20282.41
228.062	20289.26
228.134	20317.64
228.207	20325.54
228.28	20316
228.352	20316.1
228.425	20324.15
228.498	20336.15
228.57	20329.11
228.643	20343.28
228.716	20340.68
228.788	20329.79
228.861	20322.03
228.934	20335.81
229.006	20325.69
229.079	20321.59
229.151	20321.98
229.224	20316.49
229.296	20323.71
229.369	20354.36
229.442	20374.17
229.514	20370.17
229.587	20384.77
229.659	20368.58
229.732	20373.11
229.804	20394.51
229.877	20425.06
229.949	20431.76
230.022	20448.68
230.094	20445.88
230.167	20441.98
230.239	20425.88
230.312	20428.49
230.384	20458.56
230.457	20469.11
230.529	20490.65
230.602	20500.92
230.674	20504
230.747	20519.57
230.819	20524.82
230.892	20494.75
230.964	20490.94
231.037	20496.34
231.109	20489.16
231.181	20493.69
231.254	20485.98
231.326	20471.67
231.399	20465.59
231.471	20455.38
231.544	20438.17
231.616	20460.97
231.688	20463.38
231.761	20457.79
231.833	20442.27
231.905	20399.76
231.978	20381.98
232.05	20363.38
232.122	20347.81
232.195	20337.26
232.267	20348.2
232.339	20337.16
232.412	20348.1
232.484	20331.14
232.556	20321.11
232.629	20337.11
232.701	20343.76
232.773	20336.1
232.846	20324.39
232.918	20313.02
232.99	20305.3
233.062	20295.43
233.135	20278.85
233.207	20246.65
233.279	20248.15
233.351	20245.98
233.424	20240.78
233.496	20220.97
233.568	20233.35
233.64	20204.44
233.713	20193.5
233.785	20168.97
233.857	20159.72
233.929	20127.77
234.001	20137.02
234.074	20138.37
234.146	20104.06
234.218	20079.67
234.29	20054.18
234.362	20034.23
234.434	20002.32
234.507	19974.28
234.579	19947.15
234.651	19915.48
234.723	19917.22
234.795	19903.2
234.867	19884.06
234.939	19879.73
235.012	19871.49
235.084	19840.06
235.156	19832.5
235.228	19797.66
235.3	19772.16
235.372	19748.7
235.444	19749.71
235.516	19701.42
235.588	19683.25
235.66	19651.83
235.732	19620.03
235.804	19663.59
235.876	19661.37
235.948	19661.66
236.02	19644.36
236.092	19620.99
236.164	19605.38
236.236	19569.77
236.308	19534.64
236.38	19519.89
236.452	19488.23
236.524	19461.72
236.596	19457.77
236.668	19445
236.74	19435.7
236.812	19422.21
236.884	19401.78
236.956	19370.64
237.028	19337.92
237.1	19296.82
237.172	19288.19
237.244	19284.63
237.316	19219.71
237.388	19180.34
237.46	19140.39
237.532	19128.01
237.604	19090.76
237.675	19071.82
237.747	19065.22
237.819	19038.57
237.891	19011.63
237.963	18967.97
238.035	18940.5
238.107	18880.12
238.178	18863.88
238.25	18829.95
238.322	18820.75
238.394	18780.17
238.466	18751.98
238.538	18729.53
238.609	18711.5
238.681	18663.07
238.753	18623.65
238.825	18594.06
238.897	18562.36
238.968	18556.86
239.04	18513.97
239.112	18520.53
239.184	18481.49
239.255	18445.35
239.327	18415.91
239.399	18379.23
239.471	18376
239.542	18340.29
239.614	18324.1
239.686	18264.2
239.758	18242.95
239.829	18191.92
239.901	18172.74
239.973	18140.55
240.044	18121.41
240.116	18086.28
240.188	18060.84
240.259	18027.92
240.331	17991.54
240.403	17976.84
240.474	17918.96
240.546	17881.52
240.618	17824.65
240.689	17788.46
240.761	17751.06
240.833	17734.78
240.904	17700.13
240.976	17654.87
241.048	17635.84
241.119	17616.08
241.191	17592.27
241.262	17579.31
241.334	17548.32
241.405	17511.12
241.477	17472.27
241.549	17429.57
241.62	17405
241.692	17387.65
241.763	17375.6
241.835	17341.04
241.906	17306.59
241.978	17272.42
242.049	17254.3
242.121	17232.75
242.192	17217.91
242.264	17175.64
242.335	17130.05
242.407	17110.97
242.478	17068.75
242.55	17036.07
242.621	16996.36
242.693	16965.37
242.764	16916.26
242.836	16878.53
242.907	16860.31
242.979	16832.45
243.05	16808.35
243.122	16771.72
243.193	16732.35
243.264	16673.6
243.336	16639.24
243.407	16605.93
243.479	16591.57
243.55	16562.32
243.622	16533.54
243.693	16503.66
243.764	16490.31
243.836	16448.28
243.907	16407.7
243.978	16384.42
244.05	16363.36
244.121	16314.34
244.192	16287.93
244.264	16248.02
244.335	16213.46
244.407	16161.65
244.478	16139.91
244.549	16115.24
244.62	16072.63
244.692	16035.66
244.763	16012.86
244.834	15982.59
244.906	15953.72
244.977	15919.11
245.048	15899.06
245.119	15860.5
245.191	15823.34
245.262	15763.14
245.333	15751.96
245.405	15722.07
245.476	15695.03
245.547	15657.44
245.618	15643.12
245.689	15618.97
245.761	15597.38
245.832	15568.56
245.903	15540.12
245.974	15504.3
246.045	15466.18
246.117	15453.45
246.188	15413.44
246.259	15365.53
246.33	15333.96
246.401	15287.93
246.473	15246.57
246.544	15212.06
246.615	15199.62
246.686	15157.78
246.757	15145.34
246.828	15100.18
246.899	15082.54
246.97	15036.74
247.042	14999.14
247.113	14968.73
247.184	14952.05
247.255	14912.47
247.326	14882.93
247.397	14852.7
247.468	14831.06
247.539	14798.42
247.61	14759.38
247.681	14746.89
247.752	14736.96
247.823	14698.16
247.894	14681.24
247.965	14642.96
248.037	14590.95
248.108	14540.43
248.179	14515.7
248.25	14481.48
248.321	14459.64
248.392	14415.82
248.463	14414.47
248.534	14382.18
248.605	14360.39
248.675	14328.86
248.746	14310.4
248.817	14285.77
248.888	14259.49
248.959	14205.6
249.03	14184.49
249.101	14149.97
249.172	14107.94
249.243	14056.64
249.314	14039.24
249.385	14011.91
249.456	13988.14
249.527	13972.96
249.598	13947.31
249.669	13916.89
249.739	13899.64
249.81	13877.03
249.881	13847.57
249.952	13817.2
250.023	13790.5
250.094	13747.98
250.165	13711.63
250.235	13677.84
250.306	13655.9
250.377	13628.23
250.448	13612.57
250.519	13562.48
250.59	13556.94
250.66	13529.84
250.731	13526.28
250.802	13500.29
250.873	13471.13
250.944	13452.14
251.014	13422.63
251.085	13420.85
251.156	13403.74
251.227	13392.55
251.297	13386.43
251.368	13366.09
251.439	13347.82
251.51	13334.66
251.58	13296.43
251.651	13270.11
251.722	13261.19
251.792	13216.84
251.863	13185.51
251.934	13179.05
252.005	13186.18
252.075	13161.45
252.146	13151.62
252.217	13133.64
252.287	13122.26
252.358	13096.47
252.429	13086.92
252.499	13059.01
252.57	13040.98
252.641	13030.04
252.711	13000.25
252.782	12949.73
252.852	12950.6
252.923	12919.74
252.994	12902.15
253.064	12896.41
253.135	12859.58
253.205	12825.02
253.276	12822.47
253.347	12830.81
253.417	12798.89
253.488	12771.46
253.558	12743.6
253.629	12713.38
253.699	12696.75
253.77	12677.85
253.841	12660.35
253.911	12643.09
253.982	12624.87
254.052	12604.29
254.123	12583.75
254.193	12564.04
254.264	12590.45
254.334	12555.84
254.405	12528.03
254.475	12495.06
254.546	12473.56
254.616	12472.88
254.687	12458.95
254.757	12444.15
254.827	12411.52
254.898	12392.82
254.968	12371.08
255.039	12345.91
255.109	12341.87
255.18	12310.53
255.25	12267.05
255.321	12252.88
255.391	12216.06
255.461	12218.85
255.532	12176.19
255.602	12150.26
255.673	12106.25
255.743	12072.99
255.813	12025.75
255.884	12018.47
255.954	12006.67
256.024	12003.68
256.095	11975.82
256.165	11943.62
256.235	11925.78
256.306	11898.21
256.376	11895.13
256.446	11887.51
256.517	11881.92
256.587	11871.32
256.657	11852.95
256.728	11835.41
256.798	11818.88
256.868	11788.66
256.938	11755.45
257.009	11746.82
257.079	11729.27
257.149	11746.77
257.219	11707.87
257.29	11696.98
257.36	11662.71
257.43	11658.08
257.5	11624.78
257.571	11608.2
257.641	11598.13
257.711	11569.35
257.781	11550.03
257.852	11532.58
257.922	11492.19
257.992	11461.25
258.062	11435.75
258.132	11431.94
258.202	11414.98
258.273	11392.33
258.343	11401.58
258.413	11379.17
258.483	11360.23
258.553	11332.28
258.623	11295.02
258.693	11277.67
258.764	11275.26
258.834	11275.93
258.904	11254.63
258.974	11227.64
259.044	11206.73
259.114	11187.93
259.184	11169.81
259.254	11157.77
259.324	11116.13
259.394	11106.25
259.464	11109.86
259.535	11094.01
259.605	11068.27
259.675	11045.14
259.745	11032.95
259.815	11000.47
259.885	10980.85
259.955	10991.7
260.025	10968.04
260.095	10957.1
260.165	10947.66
260.235	10950.21
260.305	10918.21
260.375	10891.13
260.445	10895.95
260.515	10898.84
260.585	10896.57
260.655	10885.97
260.725	10878.22
260.795	10870.7
260.865	10874.79
260.934	10846.12
261.004	10832.2
261.074	10812.34
261.144	10808.44
261.214	10805.5
261.284	10794.23
261.354	10789.36
261.424	10754.18
261.494	10755.24
261.564	10741.12
261.634	10736.4
261.703	10698.14
261.773	10694.33
261.843	10682.77
261.913	10656.51
261.983	10620.03
262.053	10611.74
262.123	10590.35
262.192	10559.08
262.262	10557.01
262.332	10526.46
262.402	10519.14
262.472	10507.19
262.541	10470.77
262.611	10470.67
262.681	10441.43
262.751	10431.5
262.821	10412.32
262.89	10388.38
262.96	10379.71
263.03	10374.45
263.1	10361.3
263.169	10350.85
263.239	10339.76
263.309	10344.92
263.379	10342.66
263.448	10332.3
263.518	10316.01
263.588	10303.87
263.657	10311.19
263.727	10309.7
263.797	10292.94
263.867	10278.68
263.936	10254.25
264.006	10266
264.076	10244.37
264.145	10230.55
264.215	10206.89
264.285	10199.72
264.354	10168.5
264.424	10143.07
264.494	10115.41
264.563	10086.7
264.633	10095.23
264.702	10082.8
264.772	10045.7
264.842	10020.66
264.911	10001.63
264.981	9976.39
265.05	9960.78
265.12	9937.37
265.19	9919.45
265.259	9917.04
265.329	9903.94
265.398	9885.59
265.468	9890.21
265.537	9872.05
265.607	9867.19
265.676	9868.73
265.746	9861.5
265.815	9862.61
265.885	9854.66
265.955	9836.07
266.024	9827.06
266.094	9786.65
266.163	9786.51
266.232	9787.23
266.302	9781.26
266.371	9781.79
266.441	9780.68
266.51	9777.5
266.58	9767.63
266.649	9744.41
266.719	9744.84
266.788	9742.34
266.858	9751.15
266.927	9715.22
266.996	9712.09
267.066	9703.47
267.135	9675.25
267.205	9665.95
267.274	9656.23
267.343	9658.83
267.413	9649.87
267.482	9647.75
267.552	9651.22
267.621	9622.95
267.69	9600.21
267.76	9585.19
267.829	9575.65
267.898	9553.36
267.968	9528.56
268.037	9524.22
268.106	9517.96
268.176	9485.16
268.245	9471.34
268.314	9454.15
268.384	9453.62
268.453	9433.15
268.522	9423.91
268.592	9430.12
268.661	9410.52
268.73	9403.97
268.799	9379.8
268.869	9386.2
268.938	9360.05
269.007	9344.4
269.076	9334.05
269.146	9333.47
269.215	9328.47
269.284	9332.85
269.353	9318.98
269.422	9311.86
269.492	9298.9
269.561	9262.79
269.63	9263.71
269.699	9245.31
269.768	9236.65
269.838	9225.57
269.907	9225.38
269.976	9203.04
270.045	9168.38
270.114	9166.45
270.183	9148.92
270.253	9142.28
270.322	9111.28
270.391	9100.11
270.46	9104.05
270.529	9104.01
270.598	9096.78
270.667	9084.31
270.736	9057.01
270.806	9052.58
270.875	9053.02
270.944	9040.74
271.013	9064.72
271.082	9051.57
271.151	9042.81
271.22	9010.22
271.289	9000.16
271.358	8992.55
271.427	8990.19
271.496	8988.51
271.565	8971.47
271.634	8969.45
271.703	8995.93
271.772	8997.28
271.841	8991.26
271.91	8965.17
271.979	8955.39
272.048	8932.58
272.117	8937.73
272.186	8923.86
272.255	8926.22
272.324	8926.61
272.393	8920.49
272.462	8898.69
272.531	8895.03
272.6	8890.98
272.669	8899.02
272.738	8884.82
272.807	8878.9
272.876	8856.62
272.945	8878.23
273.013	8881.36
273.082	8880.93
273.151	8832.11
273.22	8835
273.289	8823.54
273.358	8836.78
273.427	8825.37
273.496	8829.22
273.564	8821.09
273.633	8829.56
273.702	8805.01
273.771	8788.93
273.84	8778.01
273.909	8779.26
273.977	8776.85
274.046	8766.26
274.115	8769.83
274.184	8757.36
274.253	8744.51
274.322	8751.1
274.39	8721.21
274.459	8706.24
274.528	8680.4
274.597	8680.25
274.665	8676.84
274.734	8684.44
274.803	8673.37
274.872	8670.24
274.94	8654.17
275.009	8680.94
275.078	8661.92
275.147	8662.69
275.215	8661.59
275.284	8673.43
275.353	8667.17
275.421	8637.67
275.49	8649.03
275.559	8639.88
275.627	8637.72
275.696	8634.21
275.765	8634.59
275.833	8626.65
275.902	8628.19
275.971	8639.31
276.039	8646.09
276.108	8641.47
276.177	8637.96
276.245	8619.53
276.314	8612.89
276.383	8617.6
276.451	8579.04
276.52	8579.57
276.588	8588.33
276.657	8593.38
276.725	8582.99
276.794	8578.13
276.863	8590.06
276.931	8566.24
277	8573.21
277.068	8581.01
277.137	8601.27
277.205	8598.48
277.274	8621.24
277.342	8630.97
277.411	8608.06
277.48	8602.43
277.548	8595.6
277.617	8591.8
277.685	8587.42
277.754	8591.22
277.822	8584.24
277.89	8596.56
277.959	8593.97
278.027	8578.42
278.096	8564.42
278.164	8583.86
278.233	8570.39
278.301	8560.62
278.37	8567.6
278.438	8550.56
278.507	8557.73
278.575	8530.73
278.643	8526.06
278.712	8504.12
278.78	8486.31
278.849	8500.12
278.917	8509.31
278.985	8505.03
279.054	8516.53
279.122	8532.36
279.191	8527.45
279.259	8522.31
279.327	8503.01
279.396	8517.11
279.464	8514.75
279.532	8521.82
279.601	8522.5
279.669	8525.29
279.737	8538.33
279.806	8541.22
279.874	8552.28
279.942	8543.43
280.011	8533.04
280.079	8540.88
280.147	8556.38
280.215	8561.48
280.284	8561.14
280.352	8544.35
280.42	8551.03
280.488	8537.94
280.557	8529.76
280.625	8537.03
280.693	8540.11
280.761	8544.2
280.83	8528.41
280.898	8538.42
280.966	8517.54
281.034	8485.2
281.102	8466.63
281.171	8463.64
281.239	8474.47
281.307	8464.7
281.375	8457.25
281.443	8486.74
281.512	8476.45
281.58	8483.86
281.648	8465.81
281.716	8458.02
281.784	8456.19
281.852	8445.7
281.92	8441.47
281.989	8457.06
282.057	8431.51
282.125	8472.13
282.193	8468.04
282.261	8471.75
282.329	8465.69
282.397	8473.58
282.465	8475.89
282.533	8493.49
282.601	8479.16
282.67	8457.11
282.738	8450.47
282.806	8454.8
282.874	8443.11
282.942	8450.13
283.01	8444.74
283.078	8456.77
283.146	8454.17
283.214	8465.43
283.282	8470.39
283.35	8484.59
283.418	8471.64
283.486	8483.33
283.554	8441.02
283.622	8439.19
283.69	8437.65
283.758	8434.72
283.826	8439.44
283.894	8455.85
283.962	8476.01
284.03	8496.12
284.098	8494.3
284.165	8493
284.233	8494.1
284.301	8487.08
284.369	8478.9
284.437	8467.2
284.505	8459.02
284.573	8474.71
284.641	8459.89
284.709	8467.88
284.777	8446.61
284.845	8455.32
284.912	8459.36
284.98	8463.59
285.048	8459.7
285.116	8459.7
285.184	8468.6
285.252	8468.12
285.319	8445.4
285.387	8438.62
285.455	8420.33
285.523	8427.16
285.591	8420.67
285.659	8427.6
285.726	8438.04
285.794	8424.19
285.862	8425.73
285.93	8430.49
285.997	8430.1
286.065	8428.47
286.133	8415.67
286.201	8420.09
286.269	8403.68
286.336	8397.48
286.404	8390.4
286.472	8400.46
286.539	8380.83
286.607	8371.93
286.675	8374.62
286.743	8384.34
286.81	8378.09
286.878	8388.62
286.946	8380.4
287.013	8388.53
287.081	8385.78
287.149	8373.95
287.216	8395.6
287.284	8383.62
287.352	8382.41
287.419	8377.51
287.487	8389.1
287.555	8396.08
287.622	8391.27
287.69	8400.46
287.758	8410.56
287.825	8408.54
287.893	8393.63
287.96	8405.41
288.028	8409.41
288.096	8405.32
288.163	8409.21
288.231	8396.13
288.298	8395.6
288.366	8408.97
288.433	8400.7
288.501	8397.09
288.569	8394.11
288.636	8389.29
288.704	8403.54
288.771	8410.27
288.839	8402.77
288.906	8393.58
288.974	8405.66
289.041	8404.7
289.109	8394.98
289.176	8403.3
289.244	8408.64
289.311	8419.71
289.379	8430.25
289.446	8435.49
289.514	8439.1
289.581	8438.14
289.649	8438.76
289.716	8441.6
289.783	8431.55
289.851	8452.86
289.918	8448
289.986	8461.86
290.053	8461.19
290.121	8461.19
290.188	8463.54
290.255	8488.52
290.323	8493.76
290.39	8480.29
290.458	8489.09
290.525	8499.97
290.592	8496.74
290.66	8503.48
290.727	8502.33
290.794	8517.73
290.862	8519.03
290.929	8521.67
290.996	8520.57
291.064	8531.58
291.131	8549.25
291.198	8561.86
291.266	8558.49
291.333	8559.11
291.4	8567.34
291.468	8587.85
291.535	8582.41
291.602	8583.61
291.669	8582.55
291.737	8580.72
291.804	8584.33
291.871	8597.66
291.938	8604.16
292.006	8627.56
292.073	8636.36
292.14	8648.88
292.207	8637.52
292.275	8641.42
292.342	8649.6
292.409	8683.29
292.476	8706.78
292.543	8689.45
292.611	8693.93
292.678	8711.3
292.745	8735.8
292.812	8738.49
292.879	8732.72
292.946	8742.2
293.014	8755.24
293.081	8763.42
293.148	8782.24
293.215	8798.51
293.282	8789.17
293.349	8802.65
293.416	8784.79
293.484	8802.55
293.551	8809.73
293.618	8826.09
293.685	8852.33
293.752	8850.88
293.819	8835.82
293.886	8825.08
293.953	8835.76
294.02	8850.4
294.087	8854.78
294.154	8852.57
294.221	8875.77
294.288	8877.89
294.356	8896.71
294.423	8904.17
294.49	8893
294.557	8902.29
294.624	8887.56
294.691	8916.06
294.758	8917.65
294.825	8921.21
294.892	8908.55
294.959	8917.07
295.026	8929.01
295.093	8921.64
295.16	8921.98
295.226	8925.74
295.293	8952.74
295.36	8954.72
295.427	8960.93
295.494	8974.02
295.561	8975.13
295.628	8991.31
295.695	9006.76
295.762	9008.45
295.829	9019.04
295.896	9037.62
295.963	9052.98
296.03	9066.79
296.096	9069.49
296.163	9077.96
296.23	9097.7
296.297	9108.68
296.364	9105.45
296.431	9106.08
296.498	9095.44
296.564	9117.49
296.631	9120.62
296.698	9104.87
296.765	9121.96
296.832	9113.1
296.899	9102.65
296.965	9128.89
297.032	9106.84
297.099	9128.07
297.166	9135.78
297.233	9132.94
297.299	9126.34
297.366	9124.56
297.433	9135.63
297.5	9148.15
297.566	9149.84
297.633	9147.72
297.7	9154.94
297.767	9148.59
297.833	9157.59
297.9	9170.4
297.967	9156.29
298.033	9172.42
298.1	9200.78
298.167	9198.9
298.234	9203.62
298.3	9209.4
298.367	9207.13
298.434	9214.84
298.5	9200.68
298.567	9192.26
298.634	9189.27
298.7	9206.99
298.767	9208.19
298.834	9217.34
298.9	9205.74
298.967	9197.6
299.033	9208.58
299.1	9225.48
299.167	9244.3
299.233	9238.09
299.3	9246.18
299.366	9265.24
299.433	9281.62
299.5	9258.41
299.566	9266.74
299.633	9287.44
299.699	9300.44
299.766	9291.34
299.832	9295.44
299.899	9307.86
299.965	9324.09
300.032	9322.98
300.099	9330.64
300.165	9338.34
300.232	9329.96
300.298	9335.88
300.365	9352.06
300.431	9353.6
300.498	9341.76
300.564	9351.48
300.631	9356.2
300.697	9371.95
300.763	9373.83
300.83	9365.98
300.896	9379.36
300.963	9385.96
301.029	9388.51
301.096	9392.99
301.162	9406.81
301.229	9403.49
301.295	9390.44
301.361	9394.19
301.428	9397.03
301.494	9386.01
301.561	9387.36
301.627	9402.62
301.693	9412.83
301.76	9413.6
301.826	9408.88
301.892	9422.75
301.959	9430.36
302.025	9432.14
302.092	9425.45
302.158	9426.26
302.224	9434.11
302.291	9424.2
302.357	9424.53
302.423	9417.21
302.49	9411.19
302.556	9423.04
302.622	9428.72
302.688	9440.18
302.755	9452.75
302.821	9461.18
302.887	9464.84
302.954	9457.09
303.02	9458.63
303.086	9459.64
303.152	9458.82
303.219	9453.14
303.285	9458.82
303.351	9461.85
303.417	9461.42
303.483	9453.09
303.55	9452.18
303.616	9451.21
303.682	9451.6
303.748	9445.63
303.815	9464.55
303.881	9476.54
303.947	9463.11
304.013	9458.05
304.079	9454.78
304.145	9433.83
304.212	9432.1
304.278	9429.64
304.344	9430.6
304.41	9417.51
304.476	9403.64
304.542	9399.45
304.608	9412.3
304.674	9392.22
304.741	9383.07
304.807	9385.19
304.873	9391.84
304.939	9407.1
305.005	9392.17
305.071	9390.39
305.137	9388.42
305.203	9360.29
305.269	9353.5
305.335	9363.71
305.401	9367.23
305.467	9361.83
305.533	9370.98
305.599	9379.27
305.666	9388.37
305.732	9393.81
305.798	9409.12
305.864	9436.86
305.93	9444.04
305.996	9435.61
306.062	9439.36
306.128	9438.11
306.194	9427.37
306.259	9425.74
306.325	9415.38
306.391	9420.15
306.457	9429.88
306.523	9433.44
306.589	9460.07
306.655	9453.76
306.721	9440.14
306.787	9424.2
306.853	9436.86
306.919	9417.17
306.985	9414.71
307.051	9406.72
307.117	9401.57
307.183	9392.03
307.248	9359.43
307.314	9362.08
307.38	9364.49
307.446	9367.13
307.512	9356.83
307.578	9365.88
307.644	9361.07
307.709	9356.25
307.775	9345.95
307.841	9346
307.907	9346.86
307.973	9327.31
308.039	9331.21
308.104	9330.63
308.17	9339.59
308.236	9332.8
308.302	9340.36
308.368	9323.31
308.433	9324.23
308.499	9315.61
308.565	9307.37
308.631	9314.16
308.696	9291.44
308.762	9285.13
308.828	9284.84
308.894	9267.46
308.959	9247.43
309.025	9235.3
309.091	9234.67
309.156	9230.19
309.222	9226.73
309.288	9216.18
309.354	9189.89
309.419	9183.44
309.485	9171.02
309.551	9170.97
309.616	9148.34
309.682	9145.41
309.748	9139.92
309.813	9130.91
309.879	9122.97
309.945	9108.53
310.01	9102.99
310.076	9101.79
310.141	9092.64
310.207	9074.1
310.273	9081.76
310.338	9082.62
310.404	9071.98
310.469	9057.59
310.535	9050.17
310.601	9030.63
310.666	9030.48
310.732	9046.9
310.797	9029.47
310.863	9020.04
310.928	9011.42
310.994	9021
311.059	9017.48
311.125	9018.59
311.191	9032.07
311.256	9023.84
311.322	9025.14
311.387	9007.28
311.453	9422.03
311.518	9400.28
311.584	9405.57
311.649	9406.39
311.715	9400.9
311.78	9400.13
311.846	9392.29
311.911	9401.77
311.976	9404.23
312.042	9389.88
312.107	9370.29
312.173	9364.85
312.238	9362.68
312.304	9358.73
312.369	9344.58
312.434	9328.94
312.5	9319.16
312.565	9282.96
312.631	9283.73
312.696	9278.24
312.761	9280.27
312.827	8856.22
312.892	8895.17
312.958	8891.17
313.023	8888.14
313.088	8882.27
313.154	8873.03
313.219	8866.82
313.284	8853.43
313.35	8849.53
313.415	8843.08
313.48	8839.43
313.546	8839.71
313.611	8848.62
313.676	8838.51
313.741	8832.93
313.807	8844.77
313.872	8850.35
313.937	8860.8
314.003	8870.18
314.068	8874.81
314.133	8879.19
314.198	8868.5
314.264	8840.53
314.329	8825.85
314.394	8823.78
314.459	8820.55
314.525	8844.23
314.59	8836.87
314.655	8823.15
314.72	8829.12
314.785	8836.39
314.851	8833.79
314.916	8821.23
314.981	8805.06
315.046	8797.02
315.111	8780.56
315.176	8766.65
315.242	8770.02
315.307	8766.99
315.372	8744.94
315.437	8729.64
315.502	8719.19
315.567	8736.71
315.632	8724.29
315.698	8724.77
315.763	8717.84
315.828	8714.47
315.893	8706.82
315.958	8708.26
316.023	8706.82
316.088	8683.62
316.153	8659.8
316.218	8653.25
316.283	8639.01
316.348	8628.76
316.413	8623.95
316.479	8612.64
316.544	8581.99
316.609	8552.54
316.674	8516.11
316.739	8487.92
316.804	8463.76
316.869	8427
316.934	8382.06
316.999	8355.11
317.064	8307.1
317.129	8265.67
317.194	8229.83
317.259	8180.17
317.324	8129.57
317.389	8084.35
317.454	8050.15
317.518	8013.26
317.583	7988.34
317.648	7965.39
317.713	7923.74
317.778	7867.32
317.843	7843.08
317.908	7804.23
317.973	7761.43
318.038	7734.16
318.103	7698.3
318.168	7670.4
318.233	7643.14
318.297	7602.32
318.362	7566.69
318.427	7531.03
318.492	7507.52
318.557	7456.38
318.622	7429.93
318.687	7407.2
318.751	7365.53
318.816	7337.99
318.881	7306.65
318.946	7250.7
319.011	7201.87
319.075	7167.03
319.14	7132.78
319.205	7082.99
319.27	7053.98
319.335	7012.08
319.399	6972.3
319.464	6949.14
319.529	6894.62
319.594	6855.61
319.658	6820.88
319.723	6780.24
319.788	6753.83
319.853	6699.07
319.917	6673.86
319.982	6616.99
320.047	6584.15
320.112	6557.79
320.176	6500.07
320.241	6466.07
320.306	6435.11
320.37	6394.07
320.435	6360.17
320.5	6334.92
320.564	6302.57
320.629	6259.48
320.694	6233.46
320.758	6200.39
320.823	6153.65
320.888	6124.96
320.952	6076.64
321.017	6042.14
321.082	6006.4
321.146	5974.01
321.211	5941.05
321.275	5902.68
321.34	5865.28
321.405	5820.62
321.469	5777.6
321.534	5743.9
321.598	5691.15
321.663	5665.01
321.727	5640.8
321.792	5593.43
321.857	5549.75
321.921	5511.59
321.986	5473.49
322.05	5414.4
322.115	5370.69
322.179	5328.9
322.244	5272.85
322.308	5242.23
322.373	5191.98
322.437	5148.81
322.502	5120.15
322.566	5074.54
322.631	5038.14
322.695	4997.97
322.76	4952.81
322.824	4915.89
322.889	4874.76
322.953	4833.46
323.018	4764.47
323.082	4696.41
323.146	4645.64
323.211	4594.38
323.275	4549.77
323.34	4502.03
323.404	4471.23
323.468	4429.07
323.533	4385.59
323.597	4343.71
323.662	4293.15
323.726	4259.82
323.79	4214.96
323.855	4150.86
323.919	4108.06
323.983	4061.21
324.048	3993.42
324.112	4154.44
324.177	4030.89
324.241	3819.91
324.305	3618.5
324.37	3420.49
324.434	3231.65
324.498	3191.07
324.562	3141.62
324.627	3083.22
324.691	3032.83
324.755	2965.66
324.82	2889.54
324.884	2813.22
324.948	2744.54
325.012	2654.04
325.077	2535.14
