Data from 20250703_urea_0.1M_MAYP1162681_01-21-05-651.txt Node
Date: Fri Jul 04 01:21:05 BST 2025
User: adleo
Spectrometer: MAYP116268
Trigger mode: 0
Integration Time (sec): 1.000000E0
Scans to average: 1
Electric dark correction enabled: true
Nonlinearity correction enabled: true
Boxcar width: 10
XAxis mode: Wavelengths
Number of Pixels in Spectrum: 2068
>>>>>Begin Spectral Data<<<<<
179.565	1341.94
179.642	1404.13
179.718	1451.07
179.795	1495.22
179.871	1533.49
179.948	1553.18
180.024	1578.61
180.101	1603.37
180.177	1620.79
180.254	1646.56
180.33	1672.16
180.407	1738.89
180.483	1845.56
180.56	1948.43
180.636	2042.45
180.712	2027.22
180.789	2041.25
180.865	2054.76
180.942	2062.36
181.018	2074.45
181.095	2088.05
181.171	2093.38
181.248	2096.9
181.324	2114.36
181.4	2122.59
181.477	2132.34
181.553	2146.47
181.63	2167.5
181.706	2184.82
181.782	2192.85
181.859	2188.67
181.935	2193.71
182.011	2188
182.088	2204.75
182.164	2225.17
182.24	2240.68
182.317	2254.29
182.393	2248.29
182.469	2260.9
182.546	2277.27
182.622	2281.46
182.698	2276.75
182.775	2286.93
182.851	2299.21
182.927	2290.93
183.003	2287.07
183.08	2284.08
183.156	2294.02
183.232	2288.36
183.308	2277.17
183.385	2286.45
183.461	2309.96
183.537	2311.82
183.613	2325.67
183.69	2315.82
183.766	2304.01
183.842	2310.15
183.918	2314.19
183.995	2330.09
184.071	2336.61
184.147	2331.42
184.223	2318.77
184.299	2329.62
184.375	2316.77
184.452	2326.25
184.528	2381.62
184.604	2390.57
184.68	2400.89
184.756	2410.99
184.832	2417.41
184.908	2420.65
184.985	2419.56
185.061	2401.94
185.137	2410.08
185.213	2396.85
185.289	2399.8
185.365	2388.62
185.441	2388
185.517	2402.48
185.593	2400.67
185.669	2397.86
185.745	2408.57
185.822	2427.75
185.898	2421.03
185.974	2432.69
186.05	2420.84
186.126	2382.36
186.202	2377.22
186.278	2373.32
186.354	2360.89
186.43	2367.99
186.506	2368.18
186.582	2366.85
186.658	2371.65
186.734	2350.05
186.81	2355.85
186.886	2356.8
186.962	2371.22
187.038	2368.84
187.114	2358.22
187.19	2363.89
187.266	2353.18
187.341	2354.13
187.417	2345.99
187.493	2344.47
187.569	2347.33
187.645	2340.95
187.721	2327.43
187.797	2335.71
187.873	2343.47
187.949	2341.04
188.025	2332.85
188.101	2336.23
188.176	2343.32
188.252	2341.23
188.328	2351.17
188.404	2347.6
188.48	2346.75
188.556	2340.22
188.632	2337.37
188.707	2341.18
188.783	2338.94
188.859	2331.19
188.935	2318.95
189.011	2329.14
189.086	2321.43
189.162	2313.43
189.238	2312.91
189.314	2312.91
189.39	2305.44
189.465	2291.73
189.541	2306.06
189.617	2292.07
189.693	2284.79
189.768	2288.79
189.844	2314.5
189.92	2306.84
189.996	2318.36
190.071	2325.74
190.147	2325.74
190.223	2335.07
190.298	2323.55
190.374	2310.12
190.45	2322.21
190.526	2332.44
190.601	2324.49
190.677	2332.11
190.753	2364.73
190.828	2365.64
190.904	2382.4
190.98	2397.63
191.055	2412.39
191.131	2404.72
191.207	2427.57
191.282	2438.27
191.358	2425.47
191.433	2409.61
191.509	2420.08
191.585	2415.27
191.66	2416.94
191.736	2425.31
191.811	2419.22
191.887	2437.98
191.963	2463.4
192.038	2470.73
192.114	2470.78
192.189	2476.88
192.265	2469.74
192.34	2444.16
192.416	2446.58
192.491	2439.58
192.567	2441.25
192.642	2442.3
192.718	2440.77
192.793	2427.97
192.869	2423.97
192.944	2426.35
193.02	2434.82
193.095	2441.35
193.171	2447.39
193.246	2447.3
193.322	2443.73
193.397	2442.92
193.473	2428.34
193.548	2407.96
193.624	2416.49
193.699	2415.35
193.775	2433.78
193.85	2436.73
193.925	2445.78
194.001	2445.4
194.076	2437.92
194.152	2430.45
194.227	2421.59
194.302	2411.5
194.378	2414.4
194.453	2410.65
194.529	2425.21
194.604	2406.69
194.679	2398.98
194.755	2379.33
194.83	2390.28
194.905	2385.81
194.981	2393.66
195.056	2386.71
195.131	2393.05
195.207	2388.43
195.282	2376.72
195.357	2352.05
195.433	2367.95
195.508	2356.33
195.583	2362.23
195.659	2376.61
195.734	2383.66
195.809	2386.61
195.884	2395.6
195.96	2396.65
196.035	2414.5
196.11	2410.6
196.185	2428.21
196.261	2434.73
196.336	2468.44
196.411	2455.96
196.486	2465.58
196.561	2459.67
196.637	2467.19
196.712	2489.49
196.787	2493.39
196.862	2507.82
196.937	2521.15
197.013	2529.24
197.088	2540.29
197.163	2566.16
197.238	2585.08
197.313	2583.41
197.388	2596.56
197.464	2630.33
197.539	2640.38
197.614	2633.81
197.689	2647.77
197.764	2663.21
197.839	2680.73
197.914	2673.54
197.989	2698.27
198.065	2711.65
198.14	2766.76
198.215	2794.92
198.29	2803.84
198.365	2821.9
198.44	2836.76
198.515	2865.93
198.59	2881.04
198.665	2909.07
198.74	2917.36
198.815	2920.37
198.89	2944.82
198.965	2977.19
199.04	2970.81
199.115	2987.63
199.19	3032.77
199.265	3034.34
199.34	3043.83
199.415	3083.28
199.49	3106.49
199.565	3118.66
199.64	3145.41
199.715	3142.64
199.79	3153.7
199.865	3161.77
199.94	3156.66
200.015	3190.01
200.09	3195.26
200.165	3203.41
200.24	3211.9
200.315	3256.26
200.39	3269.52
200.464	3278.68
200.539	3280.02
200.614	3302.1
200.689	3333.36
200.764	3342.76
200.839	3362.88
200.914	3370.56
200.989	3358.58
201.063	3375.28
201.138	3353.11
201.213	3353.83
201.288	3335.27
201.363	3339.85
201.438	3341.09
201.512	3360.78
201.587	3341.08
201.662	3347.18
201.737	3357.73
201.812	3368.52
201.886	3332.56
201.961	3346.35
202.036	3333.14
202.111	3331.52
202.186	3298.24
202.26	3274.75
202.335	3251.75
202.41	3245.22
202.485	3227.14
202.559	3207.87
202.634	3181.88
202.709	3193.46
202.784	3175.57
202.858	3174.9
202.933	3158.59
203.008	3153.44
203.082	3135.46
203.157	3140.7
203.232	3098.84
203.306	3082
203.381	3052.52
203.456	3035.35
203.53	3019.64
203.605	3007.82
203.68	2987.07
203.754	2988.69
203.829	2985.93
203.904	2973.58
203.978	2975.01
204.053	2991.08
204.127	2990.84
204.202	3004.67
204.277	3004.34
204.351	3012.83
204.426	3023.18
204.5	3035.24
204.575	3021.18
204.65	3056.11
204.724	3072.52
204.799	3105.13
204.873	3128.22
204.948	3155.22
205.022	3172.25
205.097	3195.84
205.171	3244.74
205.246	3295.29
205.32	3334.49
205.395	3375.65
205.469	3408.56
205.544	3457.51
205.618	3489.69
205.693	3555.97
205.767	3592.69
205.842	3672.76
205.916	3722.86
205.991	3770.2
206.065	3831.69
206.14	3911.01
206.214	3968.16
206.289	4026.83
206.363	4112.11
206.438	4187.1
206.512	4265.49
206.586	4365.06
206.661	4446.14
206.735	4503.87
206.81	4584.02
206.884	4683.06
206.958	4751.98
207.033	4857.84
207.107	4953.22
207.181	5082.24
207.256	5165.51
207.33	5281.78
207.405	5391.8
207.479	5511.25
207.553	5623.93
207.628	5707.32
207.702	5820.63
207.776	5921.16
207.851	6028.62
207.925	6151
207.999	6254.85
208.073	6358.42
208.148	6466.97
208.222	6569.34
208.296	6718.75
208.371	6851.89
208.445	6979.76
208.519	7127.28
208.593	7261.3
208.668	7376.02
208.742	7496.35
208.816	7614.87
208.89	7748.65
208.965	7861.74
209.039	7985.25
209.113	8120.99
209.187	8270.83
209.261	8389.45
209.336	8530.86
209.41	8676.24
209.484	8802.3
209.558	8945.25
209.632	9085.11
209.707	9220.53
209.781	9366.26
209.855	9498.3
209.929	9641.55
210.003	9773.65
210.077	9892.7
210.151	10062.42
210.226	10230.64
210.3	10377.21
210.374	10534.59
210.448	10653.69
210.522	10780.94
210.596	10911.99
210.67	11039.78
210.744	11206.95
210.818	11359.75
210.892	11503.27
210.966	11617.29
211.041	11745.2
211.115	11861.16
211.189	12001.41
211.263	12136.08
211.337	12256.24
211.411	12389.47
211.485	12492.82
211.559	12613.37
211.633	12730.31
211.707	12806.71
211.781	12919.71
211.855	12996.64
211.929	13091.17
212.003	13189.32
212.077	13308.97
212.151	13434.35
212.225	13553.46
212.299	13639.22
212.373	13734.09
212.447	13826.36
212.52	13959.31
212.594	14071.19
212.668	14188.96
212.742	14277.71
212.816	14372.67
212.89	14461.32
212.964	14550.26
213.038	14651.1
213.112	14757.44
213.186	14867.54
213.26	14945.39
213.333	14991.08
213.407	15084.89
213.481	15178.45
213.555	15278.04
213.629	15356.22
213.703	15429.34
213.777	15516.2
213.85	15596.17
213.924	15713.44
213.998	15799.86
214.072	15877.99
214.146	15949.51
214.219	16019.31
214.293	16103.56
214.367	16184.63
214.441	16284.06
214.515	16352.31
214.588	16408.07
214.662	16453.76
214.736	16507.89
214.81	16586.21
214.883	16668.68
214.957	16732.15
215.031	16792.01
215.105	16847.39
215.178	16902.09
215.252	16960.65
215.326	17008.07
215.4	17052.56
215.473	17074.2
215.547	17119.16
215.621	17170.34
215.694	17236.22
215.768	17281.43
215.842	17332.41
215.915	17382.29
215.989	17414.97
216.063	17468.85
216.136	17528.22
216.21	17583.98
216.284	17657.42
216.357	17712.84
216.431	17772.65
216.504	17839.01
216.578	17917.71
216.652	17980.02
216.725	18037.41
216.799	18093.8
216.873	18142.71
216.946	18209.31
217.02	18253.26
217.093	18306.32
217.167	18332.39
217.24	18354.61
217.314	18399.33
217.387	18439.18
217.461	18482.84
217.535	18552.81
217.608	18595.27
217.682	18646.35
217.755	18705.87
217.829	18743.12
217.902	18793.57
217.976	18829.62
218.049	18860.22
218.123	18890.14
218.196	18944.79
218.27	18995.53
218.343	19037.31
218.417	19090.13
218.49	19136.01
218.563	19202.8
218.637	19254.65
218.71	19321.68
218.784	19389.53
218.857	19450.3
218.931	19498.83
219.004	19545
219.077	19582.78
219.151	19624.27
219.224	19662.05
219.298	19711.25
219.371	19772.55
219.444	19813.37
219.518	19865.46
219.591	19914.18
219.665	19981.56
219.738	20024.25
219.811	20051.34
219.885	20100.3
219.958	20153.41
220.031	20191.53
220.105	20245.07
220.178	20288.2
220.251	20323.52
220.325	20375.67
220.398	20419.86
220.471	20464.01
220.544	20513.65
220.618	20551.33
220.691	20599.57
220.764	20642.95
220.838	20681.74
220.911	20708.11
220.984	20761.89
221.057	20800.54
221.131	20839.82
221.204	20847
221.277	20901.22
221.35	20975.06
221.424	21002.92
221.497	21027.88
221.57	21061.38
221.643	21096.8
221.716	21155.22
221.79	21175.12
221.863	21195.42
221.936	21224.48
222.009	21258.17
222.082	21279.86
222.155	21293.26
222.229	21336.73
222.302	21366.32
222.375	21385.99
222.448	21413.03
222.521	21435.83
222.594	21454.58
222.667	21474.87
222.74	21510.44
222.814	21525.09
222.887	21539.79
222.96	21579.7
223.033	21623.28
223.106	21643.71
223.179	21666.56
223.252	21668.2
223.325	21700.11
223.398	21719.29
223.471	21747.49
223.544	21761.42
223.617	21783.01
223.69	21811.21
223.763	21818.01
223.837	21840.33
223.91	21872.77
223.983	21886.07
224.056	21892.48
224.129	21921.93
224.202	21957.46
224.275	21974.09
224.348	21973.65
224.42	21978.23
224.493	21967.24
224.566	21953.07
224.639	21966.66
224.712	21965.07
224.785	21964.88
224.858	21962.33
224.931	21961.7
225.004	21950.76
225.077	21973.03
225.15	21963.24
225.223	21975.63
225.296	22002.58
225.369	21992.07
225.442	21975.1
225.514	21968.59
225.587	21978.04
225.66	21980.4
225.733	21970.38
225.806	21984.94
225.879	21992.99
225.952	21987.97
226.025	22009.04
226.097	22039.84
226.17	22045.87
226.243	22029.58
226.316	22039.94
226.389	22046.3
226.461	22057.24
226.534	22070.69
226.607	22063.46
226.68	22083.95
226.753	22085.88
226.825	22054.3
226.898	22072.23
226.971	22086.02
227.044	22102.8
227.117	22107.18
227.189	22118.17
227.262	22129.69
227.335	22126.56
227.407	22116.68
227.48	22110.46
227.553	22113.88
227.626	22113.06
227.698	22116.05
227.771	22116.63
227.844	22100.96
227.916	22110.99
227.989	22095.04
228.062	22092.96
228.134	22108.58
228.207	22113.79
228.28	22099.62
228.352	22103.04
228.425	22098.65
228.498	22103.23
228.57	22092.05
228.643	22102.27
228.716	22093.06
228.788	22086.41
228.861	22070.89
228.934	22083.71
229.006	22080.67
229.079	22064.47
229.151	22044.61
229.224	22016.22
229.296	22021.09
229.369	22044.66
229.442	22055.17
229.514	22039.65
229.587	22039.02
229.659	22007.69
229.732	21989.85
229.804	21992.84
229.877	22014.05
229.949	22014.58
230.022	22031.84
230.094	22021.09
230.167	22009.28
230.239	21976.17
230.312	21959.2
230.384	21981.33
230.457	21975.16
230.529	21975.83
230.602	21974.92
230.674	21973.61
230.747	21991.11
230.819	21991.79
230.892	21947.82
230.964	21935
231.037	21932.54
231.109	21917.55
231.181	21918.76
231.254	21897.89
231.326	21882.85
231.399	21862.31
231.471	21843.9
231.544	21802.59
231.616	21800.08
231.688	21785.62
231.761	21789.18
231.833	21775.69
231.905	21734.33
231.978	21715.58
232.05	21694.95
232.122	21675.38
232.195	21650.7
232.267	21641.97
232.339	21616.81
232.412	21616.38
232.484	21593.77
232.556	21573.34
232.629	21588.91
232.701	21577.15
232.773	21568.23
232.846	21550.78
232.918	21530.78
232.99	21512.32
233.062	21505.86
233.135	21496.7
233.207	21461.13
233.279	21445.17
233.351	21425.22
233.424	21387.39
233.496	21358.42
233.568	21351.09
233.64	21312.78
233.713	21284.63
233.785	21260.38
233.857	21235.32
233.929	21196.33
234.001	21190.07
234.074	21186.88
234.146	21121.43
234.218	21092.85
234.29	21073.81
234.362	21044.03
234.434	21005.71
234.507	20981.08
234.579	20934.72
234.651	20900.69
234.723	20888.88
234.795	20866.18
234.867	20839.58
234.939	20847.92
235.012	20826.95
235.084	20808.54
235.156	20802.85
235.228	20775.34
235.3	20737.5
235.372	20717.6
235.444	20713.36
235.516	20663.67
235.588	20641.93
235.66	20625.79
235.732	20588.15
235.804	20616.54
235.876	20593.69
235.948	20578.27
236.02	20543.09
236.092	20518.56
236.164	20484.44
236.236	20441.55
236.308	20408.15
236.38	20391
236.452	20342.42
236.524	20313.84
236.596	20298.9
236.668	20283.43
236.74	20260.68
236.812	20242.71
236.884	20225.55
236.956	20195.33
237.028	20153.02
237.1	20109.6
237.172	20098.37
237.244	20095.05
237.316	20024.15
237.388	19992.69
237.46	19957.31
237.532	19941.12
237.604	19899.58
237.675	19886.14
237.747	19877.17
237.819	19840.6
237.891	19804.45
237.963	19767.68
238.035	19725.66
238.107	19645.57
238.178	19618.44
238.25	19586.92
238.322	19569.19
238.394	19518.11
238.466	19477.34
238.538	19454.54
238.609	19430.3
238.681	19375.13
238.753	19325.54
238.825	19293.11
238.897	19263.18
238.968	19255.95
239.04	19208.48
239.112	19202.12
239.184	19158.37
239.255	19119.24
239.327	19087.72
239.399	19060.64
239.471	19041.84
239.542	19025.51
239.614	19024.69
239.686	18963.63
239.758	18946.57
239.829	18899.97
239.901	18878.24
239.973	18847.64
240.044	18819.69
240.116	18772.75
240.188	18737.62
240.259	18710.64
240.331	18667.26
240.403	18648.04
240.474	18589.49
240.546	18549.44
240.618	18489.06
240.689	18453.54
240.761	18415.52
240.833	18401.5
240.904	18364.49
240.976	18323.77
241.048	18287.57
241.119	18257.65
241.191	18221.79
241.262	18193.31
241.334	18156.3
241.405	18126.43
241.477	18081.42
241.549	18055.25
241.62	18040.12
241.692	18017.76
241.763	17985.85
241.835	17947.49
241.906	17908.22
241.978	17864.8
242.049	17847.3
242.121	17835.5
242.192	17816.36
242.264	17774.82
242.335	17723.45
242.407	17699.16
242.478	17665.33
242.55	17633.67
242.621	17589.09
242.693	17554.83
242.764	17508.42
242.836	17469.38
242.907	17435.21
242.979	17407.65
243.05	17371.12
243.122	17332.51
243.193	17287.36
243.264	17232.66
243.336	17196.41
243.407	17173.43
243.479	17160.56
243.55	17131.06
243.622	17097.81
243.693	17063.64
243.764	17037.62
243.836	16987.35
243.907	16950.53
243.978	16914.09
244.05	16885.08
244.121	16833.94
244.192	16817.17
244.264	16767.24
244.335	16732.73
244.407	16678.47
244.478	16656.54
244.549	16612.15
244.62	16569.11
244.692	16538.6
244.763	16523.27
244.834	16491.9
244.906	16440.86
244.977	16404.71
245.048	16379.7
245.119	16333.48
245.191	16278.43
245.262	16233.56
245.333	16219.1
245.405	16181.46
245.476	16149.31
245.547	16117.41
245.618	16096.82
245.689	16066.46
245.761	16048.87
245.832	16018.02
245.903	16001.97
245.974	15970.83
246.045	15943.41
246.117	15928.61
246.188	15886.34
246.259	15845.18
246.33	15809.07
246.401	15774.37
246.473	15721.5
246.544	15688.14
246.615	15672.38
246.686	15648.86
246.757	15632.33
246.828	15590.49
246.899	15574.24
246.97	15531.68
247.042	15493.55
247.113	15475.91
247.184	15455.96
247.255	15412.67
247.326	15387.22
247.397	15350.4
247.468	15317.76
247.539	15281.71
247.61	15236.16
247.681	15221.99
247.752	15195.91
247.823	15155.22
247.894	15129.97
247.965	15096.03
248.037	15055.11
248.108	15002.37
248.179	14967.23
248.25	14929.87
248.321	14912.96
248.392	14866.58
248.463	14860.75
248.534	14832.02
248.605	14806.38
248.675	14775
248.746	14750.46
248.817	14725.3
248.888	14701.97
248.959	14654.01
249.03	14632.84
249.101	14612.21
249.172	14580.93
249.243	14531.03
249.314	14523.56
249.385	14503.99
249.456	14483.94
249.527	14455.3
249.598	14449.09
249.669	14422.57
249.739	14403.29
249.81	14376.44
249.881	14337.49
249.952	14310.35
250.023	14280.8
250.094	14237.61
250.165	14204.73
250.235	14183.96
250.306	14153.78
250.377	14122.59
250.448	14104.03
250.519	14059.05
250.59	14041.75
250.66	14002.65
250.731	14000.72
250.802	13975.71
250.873	13951.27
250.944	13928.17
251.014	13891.73
251.085	13880.74
251.156	13859.53
251.227	13846.27
251.297	13848.54
251.368	13836.97
251.439	13824.87
251.51	13809.49
251.58	13774.54
251.651	13744.56
251.722	13726.86
251.792	13684.25
251.863	13650.12
251.934	13650.89
252.005	13659.38
252.075	13636.48
252.146	13629.58
252.217	13618.3
252.287	13603.94
252.358	13579.79
252.429	13571.4
252.499	13545.03
252.57	13526.18
252.641	13512.68
252.711	13478.94
252.782	13425.24
252.852	13417.04
252.923	13381.75
252.994	13369.08
253.064	13360.83
253.135	13325.16
253.205	13298.6
253.276	13302.16
253.347	13302.36
253.417	13259.98
253.488	13233.18
253.558	13200.45
253.629	13175.77
253.699	13155.81
253.77	13133.88
253.841	13103.41
253.911	13087.65
253.982	13072.46
254.052	13053.95
254.123	13034.72
254.193	13021.65
254.264	13037.56
254.334	13008.25
254.405	12979.57
254.475	12940.57
254.546	12919.21
254.616	12917.96
254.687	12894.24
254.757	12875.15
254.827	12847.82
254.898	12833.84
254.968	12809.26
255.039	12781.88
255.109	12762.35
255.18	12728.37
255.25	12681.75
255.321	12669.17
255.391	12634.51
255.461	12638.66
255.532	12588.53
255.602	12559.8
255.673	12518
255.743	12483.92
255.813	12437.79
255.884	12431.33
255.954	12418.75
256.024	12409.3
256.095	12383.03
256.165	12347.79
256.235	12333.43
256.306	12304.65
256.376	12300.99
256.446	12287.44
256.517	12272.11
256.587	12271.44
256.657	12256.4
256.728	12246.18
256.798	12226.56
256.868	12204.49
256.938	12173.97
257.009	12165.3
257.079	12155.17
257.149	12160.67
257.219	12115.07
257.29	12101.96
257.36	12059.54
257.43	12050.67
257.5	12011.97
257.571	11984.78
257.641	11980.01
257.711	11942.46
257.781	11932.34
257.852	11908.58
257.922	11875.27
257.992	11858.01
258.062	11838.59
258.132	11826.25
258.202	11799.35
258.273	11787.64
258.343	11786.73
258.413	11757.08
258.483	11737.18
258.553	11707.73
258.623	11677.46
258.693	11672.11
258.764	11672.88
258.834	11668.78
258.904	11646.95
258.974	11624.39
259.044	11613.45
259.114	11604.73
259.184	11592.87
259.254	11572.15
259.324	11535.18
259.394	11519.18
259.464	11525.68
259.535	11500.62
259.605	11473.73
259.675	11452.09
259.745	11434.74
259.815	11403.84
259.885	11379.17
259.955	11402.3
260.025	11373.73
260.095	11356.81
260.165	11340.57
260.235	11341.24
260.305	11312.38
260.375	11281.34
260.445	11287.84
260.515	11288.91
260.585	11279.99
260.655	11265.87
260.725	11259.55
260.795	11257.87
260.865	11261.48
260.934	11226.25
261.004	11217.09
261.074	11207.55
261.144	11214.35
261.214	11201.14
261.284	11185.43
261.354	11186.59
261.424	11143.88
261.494	11149.67
261.564	11134.25
261.634	11124.99
261.703	11085.33
261.773	11081.09
261.843	11078.34
261.913	11054.01
261.983	11012.23
262.053	10999.7
262.123	10981.05
262.192	10947.85
262.262	10932.91
262.332	10896.33
262.402	10892
262.472	10875.27
262.541	10834.94
262.611	10823.28
262.681	10802.61
262.751	10798.8
262.821	10774.66
262.89	10749.8
262.96	10741.17
263.03	10750.71
263.1	10740.4
263.169	10732.3
263.239	10726.67
263.309	10723.05
263.379	10713.46
263.448	10704.55
263.518	10689.13
263.588	10673.81
263.657	10685.37
263.727	10680.17
263.797	10668.6
263.867	10651.93
263.936	10620.42
264.006	10624.8
264.076	10612.03
264.145	10592.96
264.215	10564.96
264.285	10569.25
264.354	10533.79
264.424	10505.22
264.494	10467.44
264.563	10445.62
264.633	10448.75
264.702	10439.98
264.772	10412.03
264.842	10394.06
264.911	10385.34
264.981	10355.08
265.05	10343.67
265.12	10320.78
265.19	10308.44
265.259	10307.1
265.329	10297.7
265.398	10288.79
265.468	10299.73
265.537	10272.75
265.607	10263.26
265.676	10263.59
265.746	10251.02
265.815	10252.61
265.885	10245.43
265.955	10229.34
266.024	10214.55
266.094	10173.84
266.163	10163.44
266.232	10164.16
266.302	10150.14
266.371	10138.15
266.441	10125.86
266.51	10125.62
266.58	10105.2
266.649	10083.18
266.719	10077.16
266.788	10061.02
266.858	10070.46
266.927	10030.48
266.996	10024.27
267.066	10018.82
267.135	9993.1
267.205	9979.76
267.274	9971.95
267.343	9969.98
267.413	9949.89
267.482	9955.72
267.552	9956.59
267.621	9933.13
267.69	9904.37
267.76	9900.28
267.829	9889.97
267.898	9878.31
267.968	9849.94
268.037	9844.69
268.106	9844.84
268.176	9826.92
268.245	9815.98
268.314	9793.3
268.384	9792.43
268.453	9786.26
268.522	9778.22
268.592	9774.13
268.661	9756.88
268.73	9748.5
268.799	9725.34
268.869	9737.04
268.938	9699.23
269.007	9684.49
269.076	9674.09
269.146	9677.94
269.215	9666.91
269.284	9676.6
269.353	9668.55
269.422	9660.13
269.492	9653.77
269.561	9613.65
269.63	9606.96
269.699	9594.48
269.768	9585.62
269.838	9577.53
269.907	9572.38
269.976	9549.02
270.045	9522.05
270.114	9521.04
270.183	9503.85
270.253	9496.44
270.322	9470.48
270.391	9471.68
270.46	9481.36
270.529	9481.89
270.598	9473.61
270.667	9461.91
270.736	9435.47
270.806	9432.34
270.875	9437.25
270.944	9424.1
271.013	9446.16
271.082	9436.48
271.151	9435.22
271.22	9406.19
271.289	9400.89
271.358	9386.69
271.427	9377.44
271.496	9372.44
271.565	9351.54
271.634	9348.74
271.703	9382.75
271.772	9385.44
271.841	9366.76
271.91	9338.69
271.979	9326.36
272.048	9301.66
272.117	9299.44
272.186	9282.21
272.255	9272.53
272.324	9263.38
272.393	9253.99
272.462	9239.98
272.531	9229.87
272.6	9218.36
272.669	9228.95
272.738	9217.25
272.807	9210.56
272.876	9188.8
272.945	9216.1
273.013	9221.15
273.082	9225.63
273.151	9172.47
273.22	9167.99
273.289	9163.18
273.358	9171.84
273.427	9165.05
273.496	9168.47
273.564	9161.3
273.633	9170.06
273.702	9152.15
273.771	9144.11
273.84	9137.85
273.909	9134.29
273.977	9130.48
274.046	9113.87
274.115	9116.81
274.184	9099.63
274.253	9093.08
274.322	9109.59
274.39	9077.81
274.459	9059.71
274.528	9029.96
274.597	9026.97
274.665	9020.76
274.734	9023.17
274.803	9013.06
274.872	9003.77
274.94	8981.05
275.009	9041.15
275.078	9019.59
275.147	9018.34
275.215	9007.84
275.284	9014.39
275.353	9001.73
275.421	8980.35
275.49	8999.03
275.559	8989.36
275.627	8981.13
275.696	8975.01
275.765	8974.96
275.833	8963.36
275.902	8962.02
275.971	8969.14
276.039	8987.63
276.108	8993.07
276.177	9002.74
276.245	8989.7
276.314	8981.42
276.383	8993.45
276.451	8925.21
276.52	8931.22
276.588	8949.61
276.657	8953.71
276.725	8941.72
276.794	8937.92
276.863	8946.92
276.931	8921.21
277	8928.91
277.068	8942.73
277.137	8960.11
277.205	8957.07
277.274	8978.35
277.342	8993.23
277.411	8975.18
277.48	8959.63
277.548	8949.81
277.617	8941.04
277.685	8932.19
277.754	8936.33
277.822	8923.57
277.89	8941.24
277.959	8934.07
278.027	8909.95
278.096	8902.06
278.164	8933.83
278.233	8933.02
278.301	8919.44
278.37	8922.28
278.438	8901.58
278.507	8896.91
278.575	8869.04
278.643	8863.17
278.712	8839.58
278.78	8817.77
278.849	8828.75
278.917	8834.48
278.985	8830.77
279.054	8834.38
279.122	8850.17
279.191	8853.3
279.259	8852.86
279.327	8828.45
279.396	8851.71
279.464	8844.58
279.532	8852
279.601	8846.51
279.669	8836.25
279.737	8852.96
279.806	8857.38
279.874	8869.71
279.942	8875.48
280.011	8875.63
280.079	8881.07
280.147	8898.44
280.215	8908.99
280.284	8903.55
280.352	8891.85
280.42	8896.86
280.488	8886.31
280.557	8879.38
280.625	8881.16
280.693	8877.94
280.761	8884.63
280.83	8858.97
280.898	8876.06
280.966	8850.31
281.034	8811.07
281.102	8796.44
281.171	8790.52
281.239	8801.55
281.307	8792.16
281.375	8769.64
281.443	8793.18
281.512	8788.12
281.58	8794.09
281.648	8777.77
281.716	8780.95
281.784	8771.32
281.852	8761.17
281.92	8761.94
281.989	8770.27
282.057	8750.77
282.125	8805.27
282.193	8798.77
282.261	8804.74
282.329	8792.71
282.397	8801.23
282.465	8811.14
282.533	8830.63
282.601	8818.07
282.67	8789.62
282.738	8776.92
282.806	8797.03
282.874	8780.14
282.942	8786.68
283.01	8779.65
283.078	8783.5
283.146	8779.41
283.214	8795.25
283.282	8801.27
283.35	8813.73
283.418	8805.21
283.486	8813.78
283.554	8763.76
283.622	8762.36
283.69	8755.09
283.758	8752.69
283.826	8759.52
283.894	8767.66
283.962	8785.47
284.03	8801.93
284.098	8806.26
284.165	8800.63
284.233	8797.89
284.301	8789.75
284.369	8778.15
284.437	8768.33
284.505	8765.93
284.573	8778.2
284.641	8767.42
284.709	8772.9
284.777	8753.99
284.845	8764.96
284.912	8764.63
284.98	8769.92
285.048	8764.72
285.116	8772.09
285.184	8780.75
285.252	8779.83
285.319	8755.19
285.387	8743.64
285.455	8722.99
285.523	8725.49
285.591	8728.43
285.659	8726.17
285.726	8741.18
285.794	8725.83
285.862	8725.11
285.93	8725.3
285.997	8722.41
286.065	8712.36
286.133	8705.42
286.201	8701.96
286.269	8693.92
286.336	8683.96
286.404	8678.52
286.472	8684.68
286.539	8657.73
286.607	8647.24
286.675	8638.96
286.743	8655.32
286.81	8653.16
286.878	8671.4
286.946	8667.6
287.013	8672.26
287.081	8673.85
287.149	8654.65
287.216	8677.46
287.284	8675.82
287.352	8670.58
287.419	8663.7
287.487	8681.17
287.555	8681.41
287.622	8680.49
287.69	8680.49
287.758	8688.19
287.825	8686.8
287.893	8678.28
287.96	8693.05
288.028	8709.13
288.096	8718.22
288.163	8718.13
288.231	8701.52
288.298	8698.59
288.366	8713.41
288.433	8705.61
288.501	8693.39
288.569	8700.37
288.636	8695.94
288.704	8707.35
288.771	8720.78
288.839	8712.74
288.906	8705.23
288.974	8716.21
289.041	8713.61
289.109	8697.72
289.176	8716.74
289.244	8715.15
289.311	8730.26
289.379	8739.7
289.446	8739.17
289.514	8733.1
289.581	8736.95
289.649	8746.43
289.716	8746.68
289.783	8737.39
289.851	8764.05
289.918	8763.62
289.986	8777.67
290.053	8779.45
290.121	8775.99
290.188	8780.7
290.255	8813.48
290.323	8812.23
290.39	8802.65
290.458	8809.1
290.525	8823.83
290.592	8807.12
290.66	8811.7
290.727	8801.49
290.794	8816.08
290.862	8808.18
290.929	8822.48
290.996	8821.66
291.064	8833.41
291.131	8846.02
291.198	8861.86
291.266	8858.92
291.333	8865.75
291.4	8867.58
291.468	8885.25
291.535	8880.77
291.602	8877.93
291.669	8867.68
291.737	8870.18
291.804	8868.02
291.871	8879.81
291.938	8889.44
292.006	8927.81
292.073	8942.63
292.14	8957.17
292.207	8943.69
292.275	8949.47
292.342	8952.36
292.409	8978.98
292.476	8997.37
292.543	8991.89
292.611	8992.41
292.678	9001.13
292.745	9026.88
292.812	9039.06
292.879	9036.17
292.946	9045.22
293.014	9061.35
293.081	9074.88
293.148	9091.29
293.215	9109.59
293.282	9106.46
293.349	9114.36
293.416	9091
293.484	9106.02
293.551	9115.89
293.618	9140.35
293.685	9168.52
293.752	9165.63
293.819	9162.06
293.886	9145.55
293.953	9148.97
294.02	9158.84
294.087	9167.89
294.154	9164.95
294.221	9179.25
294.288	9175.98
294.356	9194.32
294.423	9203.62
294.49	9189.99
294.557	9199.33
294.624	9193.94
294.691	9215.32
294.758	9219.51
294.825	9228.89
294.892	9222.92
294.959	9227.74
295.026	9232.17
295.093	9219.99
295.16	9220.85
295.226	9220.85
295.293	9248.06
295.36	9252.53
295.427	9264.04
295.494	9277.62
295.561	9285.91
295.628	9304.83
295.695	9319.47
295.762	9322.5
295.829	9330.74
295.896	9353.51
295.963	9371.57
296.03	9378.46
296.096	9388.86
296.163	9399.31
296.23	9415.05
296.297	9427.72
296.364	9421.65
296.431	9426.42
296.498	9432.2
296.564	9452.56
296.631	9459.06
296.698	9450.64
296.765	9478.13
296.832	9465.42
296.899	9451.6
296.965	9466.82
297.032	9444.18
297.099	9467.01
297.166	9474.13
297.233	9473.41
297.299	9464.5
297.366	9457.62
297.433	9452.8
297.5	9455.79
297.566	9460.65
297.633	9453.91
297.7	9450.97
297.767	9451.98
297.833	9458
297.9	9457.71
297.967	9445.82
298.033	9457.24
298.1	9481.12
298.167	9469.85
298.234	9479.15
298.3	9491.04
298.367	9489.02
298.434	9500.53
298.5	9487.14
298.567	9482.08
298.634	9476.69
298.7	9497.25
298.767	9494.6
298.834	9517.77
298.9	9515.98
298.967	9503.08
299.033	9523.64
299.1	9538.19
299.167	9552.68
299.233	9547.19
299.3	9562.75
299.366	9579.94
299.433	9595.93
299.5	9573.15
299.566	9574.3
299.633	9588.99
299.699	9600.02
299.766	9594.24
299.832	9594.72
299.899	9603.73
299.965	9616.2
300.032	9612.59
300.099	9620.68
300.165	9631.76
300.232	9625.59
300.298	9625.26
300.365	9644.91
300.431	9642.02
300.498	9636.14
300.564	9641.05
300.631	9656.22
300.697	9672.26
300.763	9673.03
300.83	9667.2
300.896	9682.09
300.963	9692.15
301.029	9695.43
301.096	9696.73
301.162	9713.68
301.229	9710.89
301.295	9699.57
301.361	9705.54
301.428	9714.06
301.494	9697.26
301.561	9701.64
301.627	9712.33
301.693	9711.99
301.76	9718.64
301.826	9712.67
301.892	9732.13
301.959	9744.02
302.025	9737.52
302.092	9729.72
302.158	9736.27
302.224	9735.45
302.291	9724.37
302.357	9717.2
302.423	9711.75
302.49	9702.07
302.556	9710.89
302.622	9713.1
302.688	9726.88
302.755	9741.62
302.821	9751.01
302.887	9763.39
302.954	9764.78
303.02	9771.09
303.086	9783.47
303.152	9775.19
303.219	9769.17
303.285	9772.39
303.351	9776.87
303.417	9786.22
303.483	9778.03
303.55	9773.79
303.616	9777.79
303.682	9776.54
303.748	9771.53
303.815	9792.1
303.881	9806.4
303.947	9787.23
304.013	9788.44
304.079	9775.48
304.145	9749.86
304.212	9745.52
304.278	9736.08
304.344	9731.89
304.41	9714.79
304.476	9703.81
304.542	9697.74
304.608	9710.27
304.674	9687.24
304.741	9682.04
304.807	9682.38
304.873	9684.06
304.939	9698.9
305.005	9677.32
305.071	9677.03
305.137	9686.57
305.203	9656.46
305.269	9653.52
305.335	9667.78
305.401	9665.52
305.467	9668.21
305.533	9677.46
305.599	9686.71
305.666	9689.55
305.732	9693.26
305.798	9712.43
305.864	9739.26
305.93	9746.43
305.996	9741.71
306.062	9745.9
306.128	9742.48
306.194	9724.37
306.259	9726.45
306.325	9714.36
306.391	9722.93
306.457	9728.47
306.523	9727.84
306.589	9754.86
306.655	9740.08
306.721	9720.09
306.787	9704.53
306.853	9715.61
306.919	9700.49
306.985	9689.65
307.051	9692.93
307.117	9673.95
307.183	9665.28
307.248	9636.86
307.314	9641.34
307.38	9641.58
307.446	9647.8
307.512	9637.3
307.578	9652.76
307.644	9648.23
307.709	9654.83
307.775	9655.74
307.841	9656.08
307.907	9650.45
307.973	9629.44
308.039	9629.83
308.104	9636.38
308.17	9645.24
308.236	9634.31
308.302	9636.28
308.368	9627.37
308.433	9622.75
308.499	9621.4
308.565	9602.96
308.631	9605.8
308.696	9582.01
308.762	9573.43
308.828	9573.19
308.894	9556.97
308.959	9524.12
309.025	9512.66
309.091	9507.46
309.156	9503.9
309.222	9506.59
309.288	9504.67
309.354	9483.09
309.419	9483.33
309.485	9476.06
309.551	9470.38
309.616	9455.98
309.682	9452.32
309.748	9443.99
309.813	9440.91
309.879	9433.78
309.945	9426.8
310.01	9421.41
310.076	9423.81
310.141	9415.63
310.207	9395.69
310.273	9390.68
310.338	9400.41
310.404	9386.3
310.469	9370.26
310.535	9357.02
310.601	9329
310.666	9326.59
310.732	9338.39
310.797	9328.37
310.863	9314.74
310.928	9314.79
310.994	9314.98
311.059	9314.16
311.125	9311.52
311.191	9319.08
311.256	9312.34
311.322	9320.52
311.387	9298.47
311.453	9642.49
311.518	9612.31
311.584	9614.09
311.649	9621.31
311.715	9606.82
311.78	9607.54
311.846	9599.5
311.911	9604.17
311.976	9611.2
312.042	9595.12
312.107	9577.59
312.173	9570.9
312.238	9565.22
312.304	9557.75
312.369	9547.35
312.434	9534.98
312.5	9533.97
312.565	9499.15
312.631	9502.86
312.696	9493.62
312.761	9499.44
312.827	9145.98
312.892	9191.39
312.958	9187.63
313.023	9187.63
313.088	9191.29
313.154	9176.85
313.219	9165.92
313.284	9150.51
313.35	9145.94
313.415	9138.52
313.48	9136.55
313.546	9135.06
313.611	9142.42
313.676	9133.32
313.741	9132.22
313.807	9142.33
313.872	9138.19
313.937	9147.77
314.003	9160.57
314.068	9161.39
314.133	9163.37
314.198	9148.68
314.264	9127.74
314.329	9114.01
314.394	9108.38
314.459	9102.03
314.525	9124.75
314.59	9121.14
314.655	9112.76
314.72	9118.59
314.785	9122.58
314.851	9113.34
314.916	9096.73
314.981	9079.93
315.046	9068.67
315.111	9056.87
315.176	9043.15
315.242	9050.42
315.307	9053.89
315.372	9030.92
315.437	9024.18
315.502	9018.31
315.567	9034.53
315.632	9019.65
315.698	9022.59
315.763	9017.63
315.828	9011.13
315.893	9007.43
315.958	9008.1
316.023	8999.24
316.088	8981.86
316.153	8959.53
316.218	8952.6
316.283	8935.22
316.348	8917.13
316.413	8915.01
316.479	8897.78
316.544	8865.48
316.609	8833.23
316.674	8794.53
316.739	8757
316.804	8726.24
316.869	8691.68
316.934	8651.59
316.999	8622.33
317.064	8573.15
317.129	8526.99
317.194	8491.14
317.259	8442.44
317.324	8388.26
317.389	8347.65
317.454	8308.53
317.518	8276.44
317.583	8248.29
317.648	8226.64
317.713	8200.62
317.778	8143.8
317.843	8116.38
317.908	8071.99
317.973	8037.69
318.038	8009.64
318.103	7977.95
318.168	7941.83
318.233	7907.58
318.297	7860.59
318.362	7820.92
318.427	7774.52
318.492	7759.37
318.557	7707.35
318.622	7678.83
318.687	7656.19
318.751	7618.4
318.816	7582.39
318.881	7550.61
318.946	7498.3
319.011	7449.65
319.075	7405.28
319.14	7370.34
319.205	7326.79
319.27	7300.84
319.335	7253.55
319.399	7210.14
319.464	7184.15
319.529	7132.59
319.594	7093.28
319.658	7061.8
319.723	7019.19
319.788	7000.55
319.853	6936.35
319.917	6912.58
319.982	6858.53
320.047	6820.1
320.112	6790.46
320.176	6742.29
320.241	6707.99
320.306	6687.72
320.37	6651.95
320.435	6618.33
320.5	6596.53
320.564	6553.7
320.629	6510.44
320.694	6480.58
320.758	6439.29
320.823	6392.53
320.888	6365.65
320.952	6319.91
321.017	6277.19
321.082	6243.07
321.146	6207.89
321.211	6180.73
321.275	6140.61
321.34	6098.01
321.405	6056.17
321.469	6007.62
321.534	5966.37
321.598	5915.43
321.663	5879.1
321.727	5845.57
321.792	5796.03
321.857	5745.9
321.921	5709.32
321.986	5667.85
322.05	5600.07
322.115	5563.48
322.179	5517.47
322.244	5461.87
322.308	5427.22
322.373	5378.29
322.437	5336.02
322.502	5305.24
322.566	5258.94
322.631	5221.81
322.695	5183.48
322.76	5143.81
322.824	5111
322.889	5066.66
322.953	5023.6
323.018	4955.64
323.082	4890.19
323.146	4841.94
323.211	4791.19
323.275	4748.86
323.34	4706.94
323.404	4681.58
323.468	4638.25
323.533	4598.39
323.597	4552.67
323.662	4501.28
323.726	4473.34
323.79	4425.26
323.855	4357.11
323.919	4306.99
323.983	4262.36
324.048	4192.34
324.112	4329.77
324.177	4200.24
324.241	3985.4
324.305	3770.35
324.37	3562.2
324.434	3364.61
324.498	3320.06
324.562	3267.48
324.627	3203.7
324.691	3142.76
324.755	3073.51
324.82	2989.47
324.884	2906.77
324.948	2832.26
325.012	2732.38
325.077	2598.36
