Data from 20250703_urea_0.1M_MAYP1162681_15-11-05-568.txt Node
Date: Thu Jul 03 15:11:05 BST 2025
User: adleo
Spectrometer: MAYP116268
Trigger mode: 0
Integration Time (sec): 1.000000E0
Scans to average: 1
Electric dark correction enabled: true
Nonlinearity correction enabled: true
Boxcar width: 10
XAxis mode: Wavelengths
Number of Pixels in Spectrum: 2068
>>>>>Begin Spectral Data<<<<<
179.565	1277.25
179.642	1335.23
179.718	1376.46
179.795	1416.58
179.871	1453.68
179.948	1472.29
180.024	1494.93
180.101	1520.16
180.177	1536.01
180.254	1562.51
180.33	1585.91
180.407	1643.89
180.483	1743.51
180.56	1837.3
180.636	1927.85
180.712	1913.1
180.789	1921.71
180.865	1932.55
180.942	1938.44
181.018	1949.47
181.095	1966.55
181.171	1971.16
181.248	1975.44
181.324	1994.08
181.4	2003.93
181.477	2012.54
181.553	2027.61
181.63	2048.91
181.706	2065.52
181.782	2073.41
181.859	2069.27
181.935	2074.6
182.011	2071.41
182.088	2090.77
182.164	2112.56
182.24	2124.74
182.317	2134.82
182.393	2133.63
182.469	2151.99
182.546	2167.5
182.622	2173.59
182.698	2167.35
182.775	2179.63
182.851	2191.57
182.927	2183.05
183.003	2178.16
183.08	2173.16
183.156	2183.72
183.232	2176.68
183.308	2163.22
183.385	2172.44
183.461	2190.19
183.537	2192.38
183.613	2205.89
183.69	2193.61
183.766	2182.81
183.842	2190.04
183.918	2197.56
183.995	2212.17
184.071	2215.07
184.147	2206.79
184.223	2194.81
184.299	2207.7
184.375	2197.43
184.452	2206.14
184.528	2255.24
184.604	2266.14
184.68	2277.41
184.756	2283.74
184.832	2292.97
184.908	2299.54
184.985	2299.01
185.061	2285.22
185.137	2294.21
185.213	2282.84
185.289	2284.36
185.365	2276.37
185.441	2277.47
185.517	2292.56
185.593	2286.89
185.669	2284.23
185.745	2297.79
185.822	2314.72
185.898	2303.16
185.974	2310.91
186.05	2301.58
186.126	2272.47
186.202	2268.94
186.278	2266.9
186.354	2257.38
186.43	2265.76
186.506	2265.95
186.582	2265.43
186.658	2270.85
186.734	2248.54
186.81	2250.91
186.886	2253.86
186.962	2269.76
187.038	2265.33
187.114	2253.95
187.19	2262.52
187.266	2252.05
187.341	2250.62
187.417	2245.06
187.493	2248.81
187.569	2249
187.645	2241.25
187.721	2224.83
187.797	2227.11
187.873	2231.78
187.949	2224.59
188.025	2214.6
188.101	2215.83
188.176	2220.92
188.252	2216.64
188.328	2227.15
188.404	2227.53
188.48	2222.87
188.556	2213.64
188.632	2211.83
188.707	2213.73
188.783	2213.26
188.859	2206.46
188.935	2195.66
189.011	2202.51
189.086	2196.37
189.162	2190.76
189.238	2188.14
189.314	2188.09
189.39	2181
189.465	2171.68
189.541	2190.47
189.617	2174.82
189.693	2170.26
189.768	2174.83
189.844	2201.96
189.92	2191.21
189.996	2200.3
190.071	2212.43
190.147	2211.38
190.223	2222
190.298	2211.91
190.374	2195.82
190.45	2208.67
190.526	2220.42
190.601	2215
190.677	2215.14
190.753	2241.56
190.828	2248.84
190.904	2263.31
190.98	2284.01
191.055	2296.43
191.131	2285.48
191.207	2305.8
191.282	2312.56
191.358	2302.42
191.433	2286.18
191.509	2300.59
191.585	2296.36
191.66	2295.45
191.736	2303.16
191.811	2292.03
191.887	2312.5
191.963	2337.82
192.038	2343.77
192.114	2338.43
192.189	2343.38
192.265	2340.67
192.34	2319.15
192.416	2314.87
192.491	2309.11
192.567	2307.49
192.642	2307.82
192.718	2307.73
192.793	2295.74
192.869	2293.59
192.944	2294.78
193.02	2302.64
193.095	2307.4
193.171	2313.11
193.246	2318.63
193.322	2314.58
193.397	2319.53
193.473	2304.63
193.548	2284.97
193.624	2291.49
193.699	2292.83
193.775	2308.3
193.85	2311.15
193.925	2318.72
194.001	2318.15
194.076	2314.39
194.152	2303.3
194.227	2297.68
194.302	2288.6
194.378	2294.73
194.453	2292.4
194.529	2305.92
194.604	2290.79
194.679	2283.89
194.755	2265.05
194.83	2274.86
194.905	2272.67
194.981	2278.28
195.056	2271.05
195.131	2278.57
195.207	2277.66
195.282	2269.1
195.357	2249.34
195.433	2262.86
195.508	2255.01
195.583	2264.19
195.659	2275.04
195.734	2286.75
195.809	2287.66
195.884	2297.69
195.96	2298.41
196.035	2314.07
196.11	2307.35
196.185	2317.82
196.261	2323.58
196.336	2358.9
196.411	2344.9
196.486	2348.42
196.561	2341.42
196.637	2349.51
196.712	2366.13
196.787	2368.32
196.862	2381.74
196.937	2392.88
197.013	2398.45
197.088	2408.4
197.163	2431.69
197.238	2453.75
197.313	2452.51
197.388	2466.65
197.464	2497.61
197.539	2510.17
197.614	2501.94
197.689	2516.99
197.764	2535.89
197.839	2553.13
197.914	2544.13
197.989	2565.37
198.065	2584.13
198.14	2638.12
198.215	2666.56
198.29	2679.67
198.365	2694.62
198.44	2706.15
198.515	2733.97
198.59	2750.22
198.665	2778.19
198.74	2786.91
198.815	2782.62
198.89	2806.02
198.965	2836.52
199.04	2831.52
199.115	2847.15
199.19	2892.37
199.265	2896.23
199.34	2907.76
199.415	2943.43
199.49	2967.88
199.565	2977.98
199.64	3003.15
199.715	3001.1
199.79	3010.54
199.865	3015.4
199.94	3013.93
200.015	3051.31
200.09	3057.61
200.165	3066.43
200.24	3074.58
200.315	3116.25
200.39	3135.28
200.464	3142.05
200.539	3142.52
200.614	3162.55
200.689	3188.12
200.764	3196.8
200.839	3217.01
200.914	3222.88
200.989	3212.62
201.063	3225.21
201.138	3212.25
201.213	3210.48
201.288	3191.17
201.363	3192.03
201.438	3193.22
201.512	3211.19
201.587	3191.16
201.662	3199.46
201.737	3210.52
201.812	3220.4
201.886	3185.07
201.961	3197.29
202.036	3186.8
202.111	3184.89
202.186	3155.86
202.26	3140.83
202.335	3120.23
202.41	3115.89
202.485	3101.06
202.559	3087.09
202.634	3061.91
202.709	3072.16
202.784	3056.42
202.858	3059.66
202.933	3049.32
203.008	3047.74
203.082	3032.87
203.157	3039.69
203.232	3000.79
203.306	2989.44
203.381	2964.59
203.456	2950.19
203.53	2937.73
203.605	2927.3
203.68	2921.05
203.754	2927.72
203.829	2924.28
203.904	2919.28
203.978	2929.15
204.053	2953.38
204.127	2961.82
204.202	2987.47
204.277	2995.15
204.351	3017.7
204.426	3038.5
204.5	3062.73
204.575	3060.64
204.65	3105.83
204.724	3136.23
204.799	3185.63
204.873	3223.1
204.948	3266.62
205.022	3301.63
205.097	3342.61
205.171	3410.43
205.246	3474.72
205.32	3535.38
205.395	3599.14
205.469	3656.61
205.544	3726.91
205.618	3780.09
205.693	3866.07
205.767	3929.15
205.842	4037.3
205.916	4112.74
205.991	4192.55
206.065	4288.03
206.14	4400.81
206.214	4492.48
206.289	4585.73
206.363	4705.31
206.438	4820.97
206.512	4940.56
206.586	5077.51
206.661	5206.06
206.735	5308.24
206.81	5432.87
206.884	5579.55
206.958	5699.27
207.033	5854.52
207.107	6002.96
207.181	6176.87
207.256	6313.95
207.33	6476.74
207.405	6635.71
207.479	6808.1
207.553	6967.88
207.628	7109.34
207.702	7275.81
207.776	7423.44
207.851	7594.81
207.925	7767.25
207.999	7926.91
208.073	8089.04
208.148	8264.28
208.222	8418.15
208.296	8622.51
208.371	8814.19
208.445	8992.09
208.519	9196.22
208.593	9383.6
208.668	9551.28
208.742	9730.55
208.816	9912.48
208.89	10108.18
208.965	10286
209.039	10479.33
209.113	10680.76
209.187	10875.14
209.261	11050.95
209.336	11268.31
209.41	11466.86
209.484	11643.34
209.558	11842.29
209.632	12034.05
209.707	12228.1
209.781	12432.41
209.855	12622.71
209.929	12822.75
210.003	13013.54
210.077	13192.71
210.151	13417.77
210.226	13629.63
210.3	13826.73
210.374	14022.68
210.448	14206.1
210.522	14386.82
210.596	14571.58
210.67	14749.69
210.744	14970.17
210.818	15167.85
210.892	15356.27
210.966	15513.7
211.041	15703.9
211.115	15866.34
211.189	16055.91
211.263	16230.82
211.337	16402.6
211.411	16579
211.485	16719.25
211.559	16882.06
211.633	17041.39
211.707	17168.58
211.781	17331.37
211.855	17455.47
211.929	17593.64
212.003	17717.31
212.077	17877.98
212.151	18033.69
212.225	18190.51
212.299	18328.33
212.373	18464.76
212.447	18591.12
212.52	18764.8
212.594	18907.54
212.668	19057.32
212.742	19183
212.816	19311.95
212.89	19431.9
212.964	19556.28
213.038	19691.99
213.112	19839.41
213.186	19991.79
213.26	20096.51
213.333	20176.51
213.407	20301.33
213.481	20430.43
213.555	20570.58
213.629	20676.75
213.703	20775.6
213.777	20893.54
213.85	20987.04
213.924	21134.33
213.998	21251.26
214.072	21353.11
214.146	21446.71
214.219	21554.49
214.293	21655.61
214.367	21750.42
214.441	21863.31
214.515	21958.8
214.588	22033.47
214.662	22097.63
214.736	22157.64
214.81	22254.1
214.883	22347.62
214.957	22427.69
215.031	22501.63
215.105	22554.56
215.178	22618.63
215.252	22689.6
215.326	22744.85
215.4	22806.81
215.473	22835.74
215.547	22895.19
215.621	22960.72
215.694	23038.93
215.768	23080.01
215.842	23134.55
215.915	23199.16
215.989	23248.49
216.063	23299.08
216.136	23364.8
216.21	23425.13
216.284	23503.11
216.357	23576.56
216.431	23638.82
216.504	23694.9
216.578	23783.35
216.652	23852.12
216.725	23906.18
216.799	23970.62
216.873	24030.48
216.946	24089.27
217.02	24140.63
217.093	24179.95
217.167	24201.46
217.24	24230.88
217.314	24275.93
217.387	24314.08
217.461	24351.37
217.535	24397.49
217.608	24438.35
217.682	24485.72
217.755	24535.51
217.829	24555.72
217.902	24585.92
217.976	24616.7
218.049	24657.32
218.123	24673.48
218.196	24719.94
218.27	24749.22
218.343	24767.7
218.417	24789.17
218.49	24825.02
218.563	24878.97
218.637	24923.07
218.71	24984.11
218.784	25023
218.857	25062.56
218.931	25110.86
219.004	25150.33
219.077	25184.84
219.151	25211.28
219.224	25229.33
219.298	25252.39
219.371	25303.16
219.444	25316.53
219.518	25354.99
219.591	25383.07
219.665	25438.29
219.738	25465.17
219.811	25493.16
219.885	25534.61
219.958	25573.13
220.031	25593.15
220.105	25611.25
220.178	25623.42
220.251	25630.22
220.325	25655.71
220.398	25696.44
220.471	25723.33
220.544	25748.77
220.618	25765.9
220.691	25796.84
220.764	25823.63
220.838	25852.3
220.911	25853.89
220.984	25891.25
221.057	25914.18
221.131	25930.83
221.204	25914.03
221.277	25952.17
221.35	25993.2
221.424	25993.3
221.497	26002.27
221.57	26006.76
221.643	26026.41
221.716	26053.4
221.79	26063.15
221.863	26077.58
221.936	26077.05
222.009	26081.78
222.082	26088.73
222.155	26088.93
222.229	26107.37
222.302	26111.18
222.375	26102.73
222.448	26117.31
222.521	26110.7
222.594	26105.2
222.667	26102.88
222.74	26111.81
222.814	26101.86
222.887	26094.33
222.96	26103.26
223.033	26112.44
223.106	26116.1
223.179	26117.46
223.252	26110.26
223.325	26100.27
223.398	26100.08
223.471	26096.36
223.544	26086.13
223.617	26078.21
223.69	26080.04
223.763	26054.7
223.837	26057.35
223.91	26065.56
223.983	26044.27
224.056	26030.61
224.129	26025.88
224.202	26024.14
224.275	26015.31
224.348	25987.12
224.42	25960.13
224.493	25927.12
224.566	25906.31
224.639	25904.82
224.712	25882.22
224.785	25864.07
224.858	25851.67
224.931	25821.5
225.004	25796.11
225.077	25773.04
225.15	25723.04
225.223	25702.72
225.296	25708.27
225.369	25676.46
225.442	25647.26
225.514	25629.55
225.587	25614.78
225.66	25606.23
225.733	25586.64
225.806	25565.5
225.879	25548.7
225.952	25525.54
226.025	25527.61
226.097	25525.05
226.17	25493.78
226.243	25449.38
226.316	25425.98
226.389	25411.79
226.461	25394.99
226.534	25375.21
226.607	25352.62
226.68	25375.16
226.753	25349.49
226.825	25303.49
226.898	25286.02
226.971	25251.23
227.044	25227.2
227.117	25213.79
227.189	25186.38
227.262	25166.83
227.335	25149.17
227.407	25116.31
227.48	25093.01
227.553	25074.19
227.626	25038.43
227.698	25009.72
227.771	24993.17
227.844	24952.88
227.916	24928.03
227.989	24889.82
228.062	24855.81
228.134	24851.37
228.207	24813.49
228.28	24783.29
228.352	24757.96
228.425	24737.79
228.498	24731.42
228.57	24707.78
228.643	24684.58
228.716	24651.48
228.788	24614.43
228.861	24583.12
228.934	24580.51
229.006	24549.45
229.079	24515.48
229.151	24479.88
229.224	24443.8
229.296	24416.4
229.369	24426.92
229.442	24401.35
229.514	24369.51
229.587	24357.36
229.659	24312.45
229.732	24282.83
229.804	24271.15
229.877	24264.74
229.949	24249.11
230.022	24238.35
230.094	24210.04
230.167	24180.56
230.239	24145.74
230.312	24124.13
230.384	24110.29
230.457	24080.62
230.529	24062.2
230.602	24037.55
230.674	24024.04
230.747	24013.39
230.819	24009.29
230.892	23935.69
230.964	23914.61
231.037	23885.1
231.109	23852.78
231.181	23835.76
231.254	23789.95
231.326	23742.01
231.399	23709.69
231.471	23665.95
231.544	23604.07
231.616	23570.41
231.688	23540.32
231.761	23499.04
231.833	23466.93
231.905	23413.11
231.978	23372.12
232.05	23332.53
232.122	23295.69
232.195	23235.75
232.267	23210.04
232.339	23164.81
232.412	23167.7
232.484	23120.35
232.556	23086.46
232.629	23068.13
232.701	23039.59
232.773	23016.78
232.846	22991.52
232.918	22961.14
232.99	22933.75
233.062	22909.21
233.135	22886.93
233.207	22831.39
233.279	22809.7
233.351	22780.48
233.424	22740.71
233.496	22696.35
233.568	22681.26
233.64	22637.53
233.713	22617.28
233.785	22592.6
233.857	22563.43
233.929	22504.23
234.001	22483.5
234.074	22464.31
234.146	22411.81
234.218	22371.31
234.29	22332.75
234.362	22286.04
234.434	22223.37
234.507	22165.18
234.579	22114.81
234.651	22067.13
234.723	22048.52
234.795	22016.47
234.867	21974.96
234.939	21958.62
235.012	21934.28
235.084	21897.45
235.156	21869.83
235.228	21823.32
235.3	21772.27
235.372	21732.26
235.444	21712.25
235.516	21653.59
235.588	21611.61
235.66	21572.09
235.732	21526.44
235.804	21548.03
235.876	21529.14
235.948	21510.29
236.02	21473.86
236.092	21434.77
236.164	21382.62
236.236	21329.94
236.308	21282.42
236.38	21248.15
236.452	21194.84
236.524	21150.45
236.596	21133.1
236.668	21103.07
236.74	21067.36
236.812	21029.24
236.884	20995.4
236.956	20950.44
237.028	20912.07
237.1	20866.96
237.172	20848.46
237.244	20828.79
237.316	20759.43
237.388	20708.64
237.46	20659.28
237.532	20636.78
237.604	20596.06
237.675	20585.84
237.747	20569.12
237.819	20518.23
237.891	20471.53
237.963	20436.49
238.035	20395.86
238.107	20310.71
238.178	20279.43
238.25	20235.82
238.322	20219.91
238.394	20167.05
238.466	20122.66
238.538	20086.61
238.609	20065.94
238.681	20001.85
238.753	19950.14
238.825	19902.62
238.897	19867.58
238.968	19845.37
239.04	19802.77
239.112	19789.47
239.184	19743.83
239.255	19691.3
239.327	19662.34
239.399	19627.98
239.471	19589.57
239.542	19548.71
239.614	19531.36
239.686	19468.52
239.758	19447.27
239.829	19393.49
239.901	19360.52
239.973	19327.8
240.044	19300.82
240.116	19251.71
240.188	19208.24
240.259	19165.16
240.331	19112.92
240.403	19073.31
240.474	19020.4
240.546	18972.02
240.618	18915.88
240.689	18870.34
240.761	18842.39
240.833	18827.98
240.904	18785.28
240.976	18749.43
241.048	18721.82
241.119	18692.56
241.191	18654.06
241.262	18621.2
241.334	18575.95
241.405	18536.81
241.477	18495.81
241.549	18451.95
241.62	18420.58
241.692	18395.04
241.763	18373.31
241.835	18337.36
241.906	18304.25
241.978	18254.32
242.049	18223.05
242.121	18197.65
242.192	18177.17
242.264	18121.51
242.335	18049.56
242.407	18024.4
242.478	17976.21
242.55	17933.61
242.621	17885.13
242.693	17850.77
242.764	17808.03
242.836	17767.69
242.907	17737.38
242.979	17693.33
243.05	17661.47
243.122	17625.28
243.193	17591.74
243.264	17528.9
243.336	17497
243.407	17467.65
243.479	17453.67
243.55	17427.26
243.622	17391.6
243.693	17352.8
243.764	17328.76
243.836	17292.8
243.907	17243.36
243.978	17203.88
244.05	17176.03
244.121	17123.3
244.192	17091.78
244.264	17042.92
244.335	17012.46
244.407	16957.71
244.478	16934.48
244.549	16894.43
244.62	16842.18
244.692	16803.34
244.763	16777.7
244.834	16729.84
244.906	16685.6
244.977	16653.89
245.048	16627.67
245.119	16582.8
245.191	16533.3
245.262	16481.92
245.333	16468.14
245.405	16432.33
245.476	16410.88
245.547	16376.13
245.618	16351.93
245.689	16317.72
245.761	16285.04
245.832	16246.29
245.903	16221.9
245.974	16187.82
246.045	16144.93
246.117	16131.38
246.188	16078.22
246.259	16031.27
246.33	15994.83
246.401	15955.89
246.473	15901.81
246.544	15859.59
246.615	15838.57
246.686	15803.58
246.757	15786.32
246.828	15735.67
246.899	15726.75
246.97	15670.31
247.042	15628.81
247.113	15599.98
247.184	15586.1
247.255	15551.83
247.326	15519.97
247.397	15485.6
247.468	15456.92
247.539	15427.81
247.61	15382.07
247.681	15373.73
247.752	15367.56
247.823	15337.53
247.894	15320.22
247.965	15279.49
248.037	15241.46
248.108	15192.58
248.179	15157.3
248.25	15118.01
248.321	15100.51
248.392	15056.41
248.463	15055.2
248.534	15026.14
248.605	15014.47
248.675	14976.39
248.746	14958.22
248.817	14938.65
248.888	14915.85
248.959	14866.87
249.03	14845.13
249.101	14818
249.172	14777.31
249.243	14714.12
249.314	14703.32
249.385	14661.52
249.456	14642.19
249.527	14614.28
249.598	14595.58
249.669	14565.6
249.739	14542.46
249.81	14517.58
249.881	14479.5
249.952	14445.37
250.023	14411.24
250.094	14358.12
250.165	14318.02
250.235	14285.09
250.306	14255.98
250.377	14210.52
250.448	14183.81
250.519	14139.08
250.59	14129.39
250.66	14102.01
250.731	14096.85
250.802	14071.88
250.873	14053.03
250.944	14028.3
251.014	13997.93
251.085	13998.7
251.156	13985.2
251.227	13976.77
251.297	13962.11
251.368	13941.72
251.439	13929.04
251.51	13921.67
251.58	13882.67
251.651	13861.46
251.722	13847.86
251.792	13804.38
251.863	13781.68
251.934	13777.72
252.005	13776.76
252.075	13750.78
252.146	13737.33
252.217	13725.51
252.287	13698.76
252.358	13669.31
252.429	13673.11
252.499	13639.95
252.57	13609.48
252.641	13593.38
252.711	13563.64
252.782	13523.58
252.852	13526.57
252.923	13497.5
252.994	13475.85
253.064	13468.33
253.135	13436.95
253.205	13400.99
253.276	13392.7
253.347	13388.02
253.417	13358.28
253.488	13331.38
253.558	13298.45
253.629	13274.78
253.699	13245.23
253.77	13232.12
253.841	13211.1
253.911	13185.46
253.982	13169.45
254.052	13152.05
254.123	13135.18
254.193	13111.51
254.264	13129.2
254.334	13089.96
254.405	13052.99
254.475	13017.6
254.546	13000.49
254.616	12993.45
254.687	12975.76
254.757	12964.05
254.827	12938.79
254.898	12918.88
254.968	12896.36
255.039	12866.09
255.109	12856.93
255.18	12832.11
255.25	12784.05
255.321	12772.72
255.391	12737.96
255.461	12745.1
255.532	12702.53
255.602	12676.11
255.673	12639.38
255.743	12605.35
255.813	12560.57
255.884	12557.67
255.954	12545.91
256.024	12545.33
256.095	12520.56
256.165	12485.9
256.235	12467.97
256.306	12440.88
256.376	12431.38
256.446	12419.86
256.517	12414.8
256.587	12398.21
256.657	12381.92
256.728	12367.22
256.798	12341.77
256.868	12314.68
256.938	12277.71
257.009	12262.33
257.079	12251.68
257.149	12259.63
257.219	12217.93
257.29	12207.72
257.36	12169.78
257.43	12158.45
257.5	12112.56
257.571	12095.16
257.641	12096.51
257.711	12068.8
257.781	12057.81
257.852	12044.31
257.922	12003.43
257.992	11976.97
258.062	11955.38
258.132	11949.74
258.202	11934.7
258.273	11917.64
258.343	11916.58
258.413	11886.84
258.483	11873.1
258.553	11840.9
258.623	11804.85
258.693	11792.51
258.764	11792.12
258.834	11783.35
258.904	11764.41
258.974	11737.56
259.044	11710.52
259.114	11687.24
259.184	11668.06
259.254	11651.77
259.324	11611.09
259.394	11601.31
259.464	11605.16
259.535	11581.59
259.605	11548.09
259.675	11518.5
259.745	11510.89
259.815	11482.4
259.885	11462.59
259.955	11465.73
260.025	11432.19
260.095	11419.46
260.165	11407.6
260.235	11402.79
260.305	11382.69
260.375	11348.37
260.445	11353.05
260.515	11356.13
260.585	11353.39
260.655	11336.47
260.725	11328.9
260.795	11321.53
260.865	11331.02
260.934	11301.53
261.004	11296.18
261.074	11282.83
261.144	11279.84
261.214	11273.14
261.284	11254.49
261.354	11244.95
261.424	11217.43
261.494	11222.73
261.564	11203.64
261.634	11192.46
261.703	11154.44
261.773	11142.68
261.843	11134.73
261.913	11119.07
261.983	11086.1
262.053	11073.28
262.123	11056.18
262.192	11023.51
262.262	11019.84
262.332	10977.53
262.402	10965.92
262.472	10950.45
262.541	10917.54
262.611	10918.79
262.681	10888.91
262.751	10881.25
262.821	10868.29
262.89	10842.07
262.96	10832.96
263.03	10838.7
263.1	10831.13
263.169	10814.12
263.239	10806.61
263.309	10816.2
263.379	10802.9
263.448	10787.67
263.518	10769.65
263.588	10754.42
263.657	10762.08
263.727	10750.13
263.797	10742.9
263.867	10723.92
263.936	10691.59
264.006	10689.47
264.076	10663.98
264.145	10644.22
264.215	10622.49
264.285	10618.16
264.354	10585.83
264.424	10564.82
264.494	10534.51
264.563	10514.22
264.633	10522.22
264.702	10507.67
264.772	10470.09
264.842	10456.5
264.911	10449.47
264.981	10422.68
265.05	10406.73
265.12	10379.85
265.19	10372.47
265.259	10365.87
265.329	10358.55
265.398	10346.99
265.468	10357.97
265.537	10343.08
265.607	10334.65
265.676	10330.9
265.746	10316.64
265.815	10312.3
265.885	10299.39
265.955	10274.92
266.024	10250.63
266.094	10212.38
266.163	10213.54
266.232	10211.13
266.302	10188.73
266.371	10174.04
266.441	10162.67
266.51	10156.5
266.58	10144.22
266.649	10112.18
266.719	10106.4
266.788	10093.97
266.858	10103.12
266.927	10060.68
266.996	10050.52
267.066	10043.87
267.135	10020.94
267.205	10017.91
267.274	10013.91
267.343	10012.08
267.413	10000.37
267.482	10006.68
267.552	10011.79
267.621	9989.49
267.69	9962.8
267.76	9956.92
267.829	9950.66
267.898	9938.28
267.968	9920.46
268.037	9913.04
268.106	9915.11
268.176	9886.98
268.245	9874.56
268.314	9853.5
268.384	9867.67
268.453	9854.18
268.522	9844.4
268.592	9841.03
268.661	9816.17
268.73	9809.09
268.799	9788.09
268.869	9791.71
268.938	9760.2
269.007	9743.54
269.076	9730.3
269.146	9731.79
269.215	9729.91
269.284	9735.02
269.353	9720.76
269.422	9704.87
269.492	9689.99
269.561	9649.77
269.63	9648.04
269.699	9630.12
269.768	9619.77
269.838	9607.2
269.907	9607.68
269.976	9584.47
270.045	9555.24
270.114	9554.47
270.183	9538.14
270.253	9531.97
270.322	9507.17
270.391	9495.81
270.46	9496.87
270.529	9490.03
270.598	9487.09
270.667	9467.06
270.736	9442.83
270.806	9437.39
270.875	9439.46
270.944	9425.02
271.013	9446.93
271.082	9446.01
271.151	9443.75
271.22	9414.09
271.289	9401.09
271.358	9385.63
271.427	9374.5
271.496	9362.81
271.565	9345.09
271.634	9332.47
271.703	9360.31
271.772	9361.9
271.841	9353.14
271.91	9330.22
271.979	9318.27
272.048	9294.05
272.117	9297.52
272.186	9282.3
272.255	9279.9
272.324	9278.74
272.393	9272.43
272.462	9252.69
272.531	9238.34
272.6	9231.16
272.669	9245.66
272.738	9235.79
272.807	9228.03
272.876	9212.53
272.945	9246.72
273.013	9248.74
273.082	9258.47
273.151	9207.95
273.22	9202.75
273.289	9196.49
273.358	9205.35
273.427	9199.57
273.496	9198.08
273.564	9195.43
273.633	9194.13
273.702	9176.65
273.771	9169.96
273.84	9168.08
273.909	9172.9
273.977	9175.74
274.046	9157.4
274.115	9151.28
274.184	9129.86
274.253	9123.02
274.322	9137.71
274.39	9103.62
274.459	9090.38
274.528	9059.08
274.597	9047.77
274.665	9044.31
274.734	9049.94
274.803	9036.94
274.872	9033.42
274.94	9019.61
275.009	9074.57
275.078	9059.98
275.147	9054.83
275.215	9043.81
275.284	9050.5
275.353	9026.28
275.421	8999.71
275.49	9019.25
275.559	9006.45
275.627	9001.44
275.696	8993.93
275.765	8992.2
275.833	8985.41
275.902	8988.35
275.971	9001.63
276.039	9018.1
276.108	9020.41
276.177	9013.33
276.245	9003.27
276.314	8997.93
276.383	9009.77
276.451	8946.67
276.52	8951.63
276.588	8965.69
276.657	8973.34
276.725	8956.59
276.794	8967.23
276.863	8976.28
276.931	8952.45
277	8966.7
277.068	8974.54
277.137	8987.06
277.205	8982.92
277.274	8998.57
277.342	9006.32
277.411	8990.24
277.48	8976.33
277.548	8965.06
277.617	8971.75
277.685	8966.51
277.754	8965.21
277.822	8957.89
277.89	8968.15
277.959	8963.04
278.027	8941.48
278.096	8932.09
278.164	8962.42
278.233	8949.71
278.301	8938.88
278.37	8947.11
278.438	8927.18
278.507	8932
278.575	8908.65
278.643	8902.68
278.712	8888.15
278.78	8864.85
278.849	8871.2
278.917	8884.44
278.985	8875.72
279.054	8875.53
279.122	8885.35
279.191	8885.88
279.259	8874.43
279.327	8850.06
279.396	8861.09
279.464	8858.49
279.532	8859.31
279.601	8850.11
279.669	8847.37
279.737	8860.7
279.806	8862.87
279.874	8871.82
279.942	8868.69
280.011	8864.5
280.079	8874.47
280.147	8884.48
280.215	8890.74
280.284	8883.09
280.352	8867.44
280.42	8879.43
280.488	8871.77
280.557	8861.66
280.625	8862.53
280.693	8865.32
280.761	8858.01
280.83	8844.05
280.898	8860.89
280.966	8847.95
281.034	8818.1
281.102	8803.61
281.171	8791.97
281.239	8800.82
281.307	8794.18
281.375	8783.74
281.443	8810.69
281.512	8797.94
281.58	8804.87
281.648	8790.81
281.716	8790.72
281.784	8786.72
281.852	8779.94
281.92	8770.02
281.989	8786.63
282.057	8765.98
282.125	8812.49
282.193	8819.76
282.261	8821.35
282.329	8812.63
282.397	8811.91
282.465	8814.85
282.533	8833.91
282.601	8828.76
282.67	8797.71
282.738	8790.87
282.806	8799.97
282.874	8785.86
282.942	8793.71
283.01	8786.06
283.078	8793.42
283.146	8795.06
283.214	8804.06
283.282	8808.53
283.35	8824.32
283.418	8810.17
283.486	8817.53
283.554	8767.22
283.622	8767.6
283.69	8765.1
283.758	8760.39
283.826	8764.86
283.894	8773.43
283.962	8793.55
284.03	8806.74
284.098	8813.72
284.165	8805.44
284.233	8806.12
284.301	8796.34
284.369	8782.1
284.437	8776.08
284.505	8773.38
284.573	8790.52
284.641	8777.72
284.709	8778.39
284.777	8761.4
284.845	8771.6
284.912	8776.37
284.98	8784.02
285.048	8777.04
285.116	8779.4
285.184	8798.94
285.252	8797.98
285.319	8788.45
285.387	8776.75
285.455	8757.45
285.523	8764.24
285.591	8760.97
285.659	8756.59
285.726	8773.05
285.794	8770.35
285.862	8772.62
285.93	8771.36
285.997	8762.56
286.065	8760.58
286.133	8753.7
286.201	8750.23
286.269	8738.87
286.336	8728.38
286.404	8713.85
286.472	8719.67
286.539	8702.3
286.607	8680.25
286.675	8682.08
286.743	8686.7
286.81	8678.95
286.878	8699.55
286.946	8692.67
287.013	8693.73
287.081	8696.37
287.149	8679.34
287.216	8693.34
287.284	8682.32
287.352	8681.4
287.419	8679.62
287.487	8694.54
287.555	8699.74
287.622	8698.54
287.69	8701.43
287.758	8719.67
287.825	8723.62
287.893	8716.92
287.96	8725.3
288.028	8734.54
288.096	8737.76
288.163	8738.25
288.231	8726.26
288.298	8716.92
288.366	8731.99
288.433	8736.75
288.501	8730.26
288.569	8733.29
288.636	8728.33
288.704	8742.24
288.771	8751.05
288.839	8740.22
288.906	8738.25
288.974	8744.12
289.041	8739.02
289.109	8733.29
289.176	8738.87
289.244	8746.09
289.311	8759.04
289.379	8769.1
289.446	8774.59
289.514	8773.72
289.581	8777.72
289.649	8781.76
289.716	8781.37
289.783	8771.55
289.851	8789.7
289.918	8786.81
289.986	8801.35
290.053	8807.75
290.121	8803.03
290.188	8807.32
290.255	8836.63
290.323	8830.13
290.39	8829.75
290.458	8841.16
290.525	8854.2
290.592	8845.25
290.66	8849.29
290.727	8840.48
290.794	8850.35
290.862	8847.03
290.929	8852.75
290.996	8850.3
291.064	8863.73
291.131	8879.47
291.198	8888.95
291.266	8885.39
291.333	8890.25
291.4	8890.2
291.468	8902.91
291.535	8896.42
291.602	8896.9
291.669	8890.01
291.737	8896.22
291.804	8893.86
291.871	8909.41
291.938	8921.06
292.006	8953.56
292.073	8957.94
292.14	8969.2
292.207	8961.79
292.275	8970.6
292.342	8975.46
292.409	9007.77
292.476	9032.37
292.543	9027.17
292.611	9031.7
292.678	9053.41
292.745	9079.07
292.812	9090.19
292.879	9083.35
292.946	9089.13
293.014	9096.74
293.081	9102.37
293.148	9117.97
293.215	9134.1
293.282	9130.24
293.349	9139.87
293.416	9117.53
293.484	9136.21
293.551	9147.53
293.618	9174.44
293.685	9194.81
293.752	9187.92
293.819	9183.64
293.886	9165.44
293.953	9168.18
294.02	9171.74
294.087	9170.88
294.154	9168.85
294.221	9187.97
294.288	9194.81
294.356	9217.92
294.423	9227.55
294.49	9218.83
294.557	9230.68
294.624	9223.99
294.691	9241.03
294.758	9233.28
294.825	9245.46
294.892	9236.45
294.959	9239.92
295.026	9241.51
295.093	9233.85
295.16	9240.4
295.226	9236.31
295.293	9265.63
295.36	9275.36
295.427	9297.08
295.494	9315.47
295.561	9320.43
295.628	9335.07
295.695	9346.68
295.762	9347.3
295.829	9362.38
295.896	9384.91
295.963	9395.46
296.03	9402.2
296.096	9408.02
296.163	9421.7
296.23	9436.15
296.297	9449.24
296.364	9452.03
296.431	9454.73
296.498	9449.48
296.564	9469.9
296.631	9471.1
296.698	9454.97
296.765	9473.51
296.832	9457.95
296.899	9438.69
296.965	9455.16
297.032	9438.06
297.099	9456.89
297.166	9469.61
297.233	9467.83
297.299	9456.85
297.366	9451.93
297.433	9457.66
297.5	9475.34
297.566	9474.33
297.633	9473.32
297.7	9478.95
297.767	9472.5
297.833	9475.39
297.9	9481.41
297.967	9461.91
298.033	9477.65
298.1	9505.49
298.167	9498.22
298.234	9501.25
298.3	9511.99
298.367	9505.34
298.434	9516.61
298.5	9505.44
298.567	9493.11
298.634	9489.74
298.7	9514.01
298.767	9519.07
298.834	9535.06
298.9	9526.53
298.967	9524.85
299.033	9536.41
299.1	9555.96
299.167	9575.9
299.233	9578.84
299.3	9591.74
299.366	9613.94
299.433	9628.1
299.5	9604.98
299.566	9608.88
299.633	9632.96
299.699	9650.69
299.766	9650.98
299.832	9651.22
299.899	9662.87
299.965	9682.57
300.032	9681.99
300.099	9689.41
300.165	9692.68
300.232	9688.2
300.298	9689.21
300.365	9698.03
300.431	9698.51
300.498	9680.5
300.564	9682.9
300.631	9692.34
300.697	9704.72
300.763	9708.24
300.83	9708.19
300.896	9720.71
300.963	9732.27
301.029	9733.86
301.096	9739.74
301.162	9752.35
301.229	9746.77
301.295	9736.51
301.361	9741.13
301.428	9740.89
301.494	9720.47
301.561	9723.46
301.627	9724.81
301.693	9728.18
301.76	9735.88
301.826	9728.85
301.892	9747.92
301.959	9759.2
302.025	9750.33
302.092	9747.44
302.158	9755.34
302.224	9753.95
302.291	9748.41
302.357	9747.15
302.423	9735.35
302.49	9715.12
302.556	9725.58
302.622	9724.61
302.688	9736.51
302.755	9743.21
302.821	9756.88
302.887	9770.9
302.954	9770.37
303.02	9777.01
303.086	9782.46
303.152	9779.42
303.219	9772.78
303.285	9778.12
303.351	9784.77
303.417	9793.87
303.483	9784.39
303.55	9777.35
303.616	9779.18
303.682	9771.86
303.748	9759.39
303.815	9777.02
303.881	9793.15
303.947	9778.9
304.013	9784.87
304.079	9768.64
304.145	9750.72
304.212	9743.4
304.278	9733.77
304.344	9730.54
304.41	9718.21
304.476	9705.21
304.542	9702.85
304.608	9712.62
304.674	9698.51
304.741	9688.4
304.807	9686.76
304.873	9690.42
304.939	9704.58
305.005	9685.7
305.071	9690.71
305.137	9697.98
305.203	9670.04
305.269	9663.88
305.335	9676.45
305.401	9677.99
305.467	9688.44
305.533	9698.41
305.599	9706.12
305.666	9723.26
305.732	9721.39
305.798	9738.1
305.864	9767.38
305.93	9771.72
305.996	9774.42
306.062	9767.82
306.128	9768.54
306.194	9756.36
306.259	9758.86
306.325	9747.69
306.391	9758.33
306.457	9770.23
306.523	9773.07
306.589	9795.75
306.655	9793.68
306.721	9773.64
306.787	9756.45
306.853	9768.01
306.919	9744.8
306.985	9733.67
307.051	9718.84
307.117	9713.73
307.183	9702.32
307.248	9670.29
307.314	9674.43
307.38	9671.3
307.446	9677.08
307.512	9664.31
307.578	9672.98
307.644	9661.91
307.709	9665.9
307.775	9660.65
307.841	9650.11
307.907	9647.7
307.973	9632.14
308.039	9626.99
308.104	9636.86
308.17	9642.98
308.236	9626.75
308.302	9637.1
308.368	9628.96
308.433	9629.73
308.499	9625.4
308.565	9616.78
308.631	9623.28
308.696	9600.4
308.762	9587.54
308.828	9589.81
308.894	9567.61
308.959	9541.17
309.025	9539.82
309.091	9533.13
309.156	9523.54
309.222	9528.55
309.288	9512.61
309.354	9497.2
309.419	9493.64
309.485	9475.34
309.551	9474.28
309.616	9458.39
309.682	9453.24
309.748	9446.78
309.813	9442.88
309.879	9424.73
309.945	9416.06
310.01	9405.61
310.076	9409.13
310.141	9400.22
310.207	9379.65
310.273	9384.18
310.338	9391.69
310.404	9371.32
310.469	9357.21
310.535	9350.04
310.601	9321.73
310.666	9331.69
310.732	9336.22
310.797	9327.55
310.863	9319.22
310.928	9310.31
310.994	9313.35
311.059	9309.35
311.125	9308.48
311.191	9313.49
311.256	9313.88
311.322	9318.55
311.387	9298.71
311.453	9692.23
311.518	9664.07
311.584	9668.59
311.649	9679.38
311.715	9669.94
311.78	9673.51
311.846	9664.84
311.911	9669.46
311.976	9676.68
312.042	9661.51
312.107	9645.34
312.173	9633.2
312.238	9619.39
312.304	9616.88
312.369	9608.12
312.434	9593.39
312.5	9587.75
312.565	9555.11
312.631	9560.45
312.696	9544.18
312.761	9548.9
312.827	9142.18
312.892	9185.61
312.958	9174.39
313.023	9168.61
313.088	9164.38
313.154	9151.04
313.219	9141.75
313.284	9129.47
313.35	9126.97
313.415	9119.84
313.48	9117.53
313.546	9121.72
313.611	9133.13
313.676	9121.14
313.741	9116.42
313.807	9134.81
313.872	9135.44
313.937	9136.02
314.003	9140.11
314.068	9143.43
314.133	9150.99
314.198	9136.84
314.264	9117.24
314.329	9107.47
314.394	9099.95
314.459	9097.69
314.525	9115.75
314.59	9111.8
314.655	9101.35
314.72	9107.37
314.785	9109.83
314.851	9105.25
314.916	9091.44
314.981	9079.69
315.046	9068.04
315.111	9052.3
315.176	9033.57
315.242	9038.77
315.307	9042.91
315.372	9025.05
315.437	9022.59
315.502	9009.69
315.567	9029.96
315.632	9016.09
315.698	9022.69
315.763	9019.12
315.828	9012.29
315.893	9001.36
315.958	8997.51
316.023	8988.12
316.088	8962.17
316.153	8937.67
316.218	8928.48
316.283	8907.49
316.348	8889.4
316.413	8889.74
316.479	8873.23
316.544	8841.75
316.609	8808.49
316.674	8771.19
316.739	8736.06
316.804	8695.15
316.869	8664.93
316.934	8621.08
316.999	8591.38
317.064	8539.5
317.129	8495.13
317.194	8456.73
317.259	8415.35
317.324	8360.89
317.389	8315.66
317.454	8278.03
317.518	8242.82
317.583	8218.37
317.648	8194.32
317.713	8162.18
317.778	8104.45
317.843	8078.47
317.908	8034.71
317.973	7997.33
318.038	7975.49
318.103	7939.23
318.168	7908.55
318.233	7873
318.297	7822.6
318.362	7784.71
318.427	7742.4
318.492	7717.15
318.557	7672.19
318.622	7643
318.687	7623.1
318.751	7585.08
318.816	7554.11
318.881	7517.43
318.946	7460.46
319.011	7418.69
319.075	7376.39
319.14	7337.17
319.205	7292.04
319.27	7264.45
319.335	7221.68
319.399	7180.25
319.464	7160.16
319.529	7108.22
319.594	7072.61
319.658	7041.33
319.723	7000.16
319.788	6971
319.853	6916.41
319.917	6884.38
319.982	6829.47
320.047	6792.15
320.112	6766.16
320.176	6714.1
320.241	6679.08
320.306	6650.8
320.37	6609.07
320.435	6580.21
320.5	6560.57
320.564	6522.35
320.629	6478.09
320.694	6446.06
320.758	6397.82
320.823	6346.83
320.888	6319.62
320.952	6268.84
321.017	6229.05
321.082	6185.34
321.146	6155
321.211	6120.89
321.275	6078.33
321.34	6035.5
321.405	5992.32
321.469	5944.68
321.534	5904.44
321.598	5855.14
321.663	5824.28
321.727	5791.52
321.792	5740.26
321.857	5692.96
321.921	5652.06
321.986	5611.69
322.05	5554.55
322.115	5521.23
322.179	5477.81
322.244	5422.74
322.308	5386.51
322.373	5339.16
322.437	5301.45
322.502	5269.81
322.566	5222.71
322.631	5189.12
322.695	5151.24
322.76	5108.8
322.824	5077.95
322.889	5034.9
322.953	4987.88
323.018	4918.15
323.082	4852.42
323.146	4800.39
323.211	4746.01
323.275	4700.24
323.34	4655.07
323.404	4617.79
323.468	4570.17
323.533	4524.57
323.597	4478.85
323.662	4428.95
323.726	4393.65
323.79	4346.34
323.855	4279.92
323.919	4234.3
323.983	4189.29
324.048	4125.35
324.112	4283.67
324.177	4149.86
324.241	3935.69
324.305	3728.63
324.37	3525.26
324.434	3328.25
324.498	3286.71
324.562	3235.35
324.627	3176.51
324.691	3119.24
324.755	3053.5
324.82	2977.19
324.884	2901.38
324.948	2832.66
325.012	2737.1
325.077	2614.22
