Data from 20250703_urea_0.1M_MAYP1162681_04-51-05-611.txt Node
Date: Fri Jul 04 04:51:05 BST 2025
User: adleo
Spectrometer: MAYP116268
Trigger mode: 0
Integration Time (sec): 1.000000E0
Scans to average: 1
Electric dark correction enabled: true
Nonlinearity correction enabled: true
Boxcar width: 10
XAxis mode: Wavelengths
Number of Pixels in Spectrum: 2068
>>>>>Begin Spectral Data<<<<<
179.565	1271.16
179.642	1334.49
179.718	1381.24
179.795	1422.45
179.871	1456.84
179.948	1473.64
180.024	1496.04
180.101	1521.88
180.177	1537.39
180.254	1564.02
180.33	1586.98
180.407	1646.38
180.483	1747.72
180.56	1840.89
180.636	1929.73
180.712	1915.37
180.789	1925.06
180.865	1940.75
180.942	1948.78
181.018	1958.53
181.095	1973.23
181.171	1978.6
181.248	1976.18
181.324	1992.78
181.4	2000.48
181.477	2012.85
181.553	2027.49
181.63	2048.51
181.706	2064.49
181.782	2072.81
181.859	2070.24
181.935	2076.9
182.011	2072.62
182.088	2089.89
182.164	2115.02
182.24	2131.04
182.317	2141.5
182.393	2142.6
182.469	2156.54
182.546	2171.04
182.622	2172.33
182.698	2164.62
182.775	2175.14
182.851	2190.93
182.927	2183.41
183.003	2178.04
183.08	2172.14
183.156	2182.84
183.232	2180.89
183.308	2168.14
183.385	2176.32
183.461	2193.83
183.537	2191.6
183.613	2206.01
183.69	2197.21
183.766	2181.69
183.842	2186.83
183.918	2192.35
183.995	2205.72
184.071	2209.62
184.147	2206.39
184.223	2197.59
184.299	2212.58
184.375	2203.02
184.452	2209.92
184.528	2260.13
184.604	2272.73
184.68	2285.06
184.756	2292.2
184.832	2294.76
184.908	2300.95
184.985	2297.29
185.061	2280.49
185.137	2293.15
185.213	2279.49
185.289	2281.02
185.365	2275.07
185.441	2275.4
185.517	2289.21
185.593	2284.11
185.669	2281.45
185.745	2289.49
185.822	2308.19
185.898	2298.19
185.974	2303.71
186.05	2296.09
186.126	2259.07
186.202	2250.64
186.278	2244.08
186.354	2235.32
186.43	2243.37
186.506	2236.9
186.582	2241.04
186.658	2248.84
186.734	2226.24
186.81	2230.52
186.886	2231.04
186.962	2245.08
187.038	2243.03
187.114	2235.61
187.19	2242.55
187.266	2233.75
187.341	2234.09
187.417	2227.57
187.493	2227.66
187.569	2236.09
187.645	2229.09
187.721	2217.81
187.797	2227.66
187.873	2235.42
187.949	2227.38
188.025	2220.76
188.101	2226.61
188.176	2229.99
188.252	2226.23
188.328	2236.65
188.404	2235.46
188.48	2230.46
188.556	2222.32
188.632	2219.52
188.707	2221.9
188.783	2218.37
188.859	2212.43
188.935	2202.06
189.011	2209.53
189.086	2206.1
189.162	2193.16
189.238	2191.68
189.314	2190.45
189.39	2182.79
189.465	2173.6
189.541	2189.21
189.617	2169.99
189.693	2164.47
189.768	2168.47
189.844	2194.13
189.92	2186.14
189.996	2196.75
190.071	2207.64
190.147	2207.55
190.223	2217.78
190.298	2209.64
190.374	2198.51
190.45	2208.31
190.526	2215.06
190.601	2208.88
190.677	2209.93
190.753	2239.44
190.828	2243.77
190.904	2259.48
190.98	2273.85
191.055	2285.98
191.131	2282.79
191.207	2306.15
191.282	2316.95
191.358	2305.2
191.433	2286.63
191.509	2295.76
191.585	2290.29
191.66	2290.2
191.736	2297.9
191.811	2286.2
191.887	2302.48
191.963	2323.8
192.038	2329.56
192.114	2329.8
192.189	2334.03
192.265	2330.41
192.34	2309.04
192.416	2306.23
192.491	2301.42
192.567	2302.85
192.642	2304.42
192.718	2300.52
192.793	2289.81
192.869	2284.62
192.944	2289.86
193.02	2298.95
193.095	2305.37
193.171	2313.37
193.246	2315.41
193.322	2314.27
193.397	2316.46
193.473	2298.99
193.548	2283.52
193.624	2290.52
193.699	2291.52
193.775	2306.08
193.85	2307.8
193.925	2315.98
194.001	2313.41
194.076	2306.32
194.152	2296.18
194.227	2286.52
194.302	2277.15
194.378	2284.24
194.453	2285.38
194.529	2296.52
194.604	2281.96
194.679	2273.87
194.755	2253.46
194.83	2263.74
194.905	2258.7
194.981	2267.55
195.056	2266.65
195.131	2272.36
195.207	2272.97
195.282	2263.17
195.357	2245.51
195.433	2261.84
195.508	2250.08
195.583	2262.64
195.659	2278.06
195.734	2289.54
195.809	2291.49
195.884	2305.43
195.96	2303.67
196.035	2313.61
196.11	2312.42
196.185	2324.46
196.261	2330.41
196.336	2363.87
196.411	2352.3
196.486	2359.77
196.561	2352.01
196.637	2355.63
196.712	2374.06
196.787	2376.15
196.862	2391.19
196.937	2402.57
197.013	2407.85
197.088	2420.75
197.163	2440.75
197.238	2455.71
197.313	2450.38
197.388	2463.62
197.464	2490.15
197.539	2500.95
197.614	2498
197.689	2506.91
197.764	2526.77
197.839	2550.63
197.914	2542.77
197.989	2567.06
198.065	2580.1
198.14	2634.24
198.215	2663.63
198.29	2674.21
198.365	2683.26
198.44	2696.5
198.515	2725.04
198.59	2738.76
198.665	2766.45
198.74	2773.98
198.815	2775.31
198.89	2803.42
198.965	2833.88
199.04	2830.3
199.115	2847.5
199.19	2893.58
199.265	2899.54
199.34	2909.12
199.415	2942.5
199.49	2969
199.565	2979.63
199.64	3002.75
199.715	2998.84
199.79	3007.37
199.865	3012.76
199.94	3016.62
200.015	3045.46
200.09	3049.14
200.165	3055.62
200.24	3062.2
200.315	3102.29
200.39	3119.46
200.464	3121.65
200.539	3126.52
200.614	3144.11
200.689	3168.15
200.764	3173.35
200.839	3193.56
200.914	3200
200.989	3189.93
201.063	3203.38
201.138	3182.41
201.213	3185.66
201.288	3166.44
201.363	3173.11
201.438	3175.55
201.512	3191.99
201.587	3176.59
201.662	3180.59
201.737	3194.04
201.812	3200.63
201.886	3167.74
201.961	3178.14
202.036	3171.04
202.111	3164.41
202.186	3135.86
202.26	3117.49
202.335	3095.22
202.41	3090.45
202.485	3069.47
202.559	3047.49
202.634	3018.6
202.709	3032.89
202.784	3013.34
202.858	3015.82
202.933	2999.99
203.008	2995.6
203.082	2977.2
203.157	2981.83
203.232	2942.13
203.306	2927.11
203.381	2899.26
203.456	2882.63
203.53	2867.69
203.605	2851.44
203.68	2837.19
203.754	2840.09
203.829	2833.23
203.904	2825.22
203.978	2821.69
204.053	2840.62
204.127	2839.95
204.202	2851.39
204.277	2847.24
204.351	2857.25
204.426	2867.31
204.5	2874.18
204.575	2857.21
204.65	2887.02
204.724	2900.04
204.799	2932.25
204.873	2955.05
204.948	2982.18
205.022	2997.96
205.097	3016.71
205.171	3063.78
205.246	3105.53
205.32	3139.67
205.395	3179.65
205.469	3205.21
205.544	3251.89
205.618	3275.08
205.693	3336.36
205.767	3371.53
205.842	3442.72
205.916	3487.02
205.991	3527.75
206.065	3585.91
206.14	3657.02
206.214	3710.97
206.289	3760.8
206.363	3835.43
206.438	3900.35
206.512	3969.41
206.586	4058.4
206.661	4133.58
206.735	4181.23
206.81	4253.05
206.884	4340.13
206.958	4399.43
207.033	4493.35
207.107	4580.92
207.181	4694.03
207.256	4766.32
207.33	4871.45
207.405	4966.33
207.479	5074.43
207.553	5165.7
207.628	5236.29
207.702	5338.86
207.776	5422.78
207.851	5518.44
207.925	5625.76
207.999	5717.79
208.073	5812.55
208.148	5911.99
208.222	5998.83
208.296	6128.43
208.371	6241.24
208.445	6353.46
208.519	6483.92
208.593	6595.43
208.668	6691.83
208.742	6797.05
208.816	6897.55
208.89	7014.22
208.965	7117.76
209.039	7226.52
209.113	7350.41
209.187	7476.09
209.261	7579.76
209.336	7703.02
209.41	7829
209.484	7935.97
209.558	8068.64
209.632	8192.34
209.707	8318.83
209.781	8447.77
209.855	8577.46
209.929	8702.71
210.003	8817.06
210.077	8921.79
210.151	9084.72
210.226	9228.49
210.3	9366.22
210.374	9500.72
210.448	9608.11
210.522	9723.6
210.596	9839.42
210.67	9961.61
210.744	10121.05
210.818	10258.8
210.892	10393.92
210.966	10501.3
211.041	10624.73
211.115	10719.55
211.189	10845.4
211.263	10949.97
211.337	11057.47
211.411	11172.11
211.485	11270.09
211.559	11380.64
211.633	11482.41
211.707	11544.15
211.781	11656.17
211.855	11712.75
211.929	11804.61
212.003	11884.91
212.077	11992.15
212.151	12103.35
212.225	12199.42
212.299	12274.86
212.373	12357.33
212.447	12440.24
212.52	12558.44
212.594	12649.69
212.668	12747.44
212.742	12822.45
212.816	12913.03
212.89	12994.5
212.964	13080.59
213.038	13172.52
213.112	13272.5
213.186	13371.8
213.26	13438.76
213.333	13468.36
213.407	13563.18
213.481	13643.93
213.555	13745.83
213.629	13815.78
213.703	13881.92
213.777	13968.16
213.85	14031.16
213.924	14147.34
213.998	14231.31
214.072	14297.4
214.146	14357.99
214.219	14436.76
214.293	14505.55
214.367	14577.14
214.441	14660.48
214.515	14725.94
214.588	14778.44
214.662	14815.46
214.736	14871.37
214.81	14946.09
214.883	15027.03
214.957	15083.71
215.031	15145.22
215.105	15178.39
215.178	15228.81
215.252	15281.44
215.326	15315.33
215.4	15357.6
215.473	15365.6
215.547	15404.45
215.621	15453.18
215.694	15529.97
215.768	15569.06
215.842	15615.72
215.915	15662.52
215.989	15691.97
216.063	15733.18
216.136	15789.86
216.21	15842.11
216.284	15906.31
216.357	15960.25
216.431	16008.4
216.504	16066.38
216.578	16150.92
216.652	16218.11
216.725	16276.19
216.799	16341.35
216.873	16399.77
216.946	16472.25
217.02	16522.57
217.093	16564.17
217.167	16585.04
217.24	16614.29
217.314	16649.33
217.387	16692.08
217.461	16735.22
217.535	16804.09
217.608	16851.46
217.682	16893.54
217.755	16954.26
217.829	16993.25
217.902	17037.4
217.976	17083.04
218.049	17132.1
218.123	17164.77
218.196	17218.08
218.27	17258.85
218.343	17291.23
218.417	17341.88
218.49	17373.84
218.563	17443.43
218.637	17506.7
218.71	17592.48
218.784	17645.06
218.857	17710.7
218.931	17766.32
219.004	17814.31
219.077	17865.78
219.151	17905.59
219.224	17952.91
219.298	17990.74
219.371	18046.55
219.444	18084.43
219.518	18133.58
219.591	18170.45
219.665	18233.38
219.738	18284.56
219.811	18313.57
219.885	18369.57
219.958	18423.35
220.031	18469.52
220.105	18514.53
220.178	18555.83
220.251	18579.63
220.325	18633.6
220.398	18676.2
220.471	18733.21
220.544	18786.22
220.618	18822.8
220.691	18878.55
220.764	18923.42
220.838	18978.26
220.911	19019.12
220.984	19080.81
221.057	19129.33
221.131	19179.59
221.204	19190.87
221.277	19245.61
221.35	19328.21
221.424	19353.85
221.497	19393.32
221.57	19432.88
221.643	19467.92
221.716	19510.76
221.79	19543.53
221.863	19571.28
221.936	19608.73
222.009	19639.76
222.082	19681.35
222.155	19716.38
222.229	19761.59
222.302	19800.62
222.375	19831.99
222.448	19871.22
222.521	19909
222.594	19936.76
222.667	19954.3
222.74	19996.23
222.814	20017.19
222.887	20029.77
222.96	20072.85
223.033	20103.6
223.106	20140.75
223.179	20176.03
223.252	20207.6
223.325	20247.4
223.398	20280.66
223.471	20316.61
223.544	20341.23
223.617	20364.08
223.69	20387.11
223.763	20395.79
223.837	20417.91
223.91	20440.94
223.983	20442.58
224.056	20448.08
224.129	20478.97
224.202	20515.4
224.275	20525.04
224.348	20534.53
224.42	20549.47
224.493	20552.65
224.566	20569.14
224.639	20598.49
224.712	20605.57
224.785	20611.35
224.858	20619.06
224.931	20626.1
225.004	20625.28
225.077	20641.81
225.15	20632.7
225.223	20644.66
225.296	20677.38
225.369	20670.87
225.442	20678.15
225.514	20698.97
225.587	20712.32
225.66	20720.9
225.733	20738.63
225.806	20753.96
225.879	20772.71
225.952	20773.24
226.025	20803.12
226.097	20816.85
226.17	20818.93
226.243	20804.23
226.316	20815.99
226.389	20817.43
226.461	20835.31
226.534	20850.21
226.607	20851.6
226.68	20889.1
226.753	20905.34
226.825	20892.91
226.898	20921.25
226.971	20923.99
227.044	20928.67
227.117	20946.26
227.189	20957.25
227.262	20969.34
227.335	20986.74
227.407	20987.27
227.48	20998.55
227.553	20999.03
227.626	21009.15
227.698	21009.54
227.771	21029.88
227.844	21022.84
227.916	21031.61
227.989	21022.31
228.062	21021.59
228.134	21053.25
228.207	21047.9
228.28	21042.84
228.352	21042.65
228.425	21040.34
228.498	21060.92
228.57	21054.36
228.643	21063.23
228.716	21061.64
228.788	21053.54
228.861	21039.04
228.934	21045.93
229.006	21038.84
229.079	21035.42
229.151	21021.11
229.224	21008.58
229.296	21011.85
229.369	21048.24
229.442	21078.32
229.514	21063.86
229.587	21075.33
229.659	21041.21
229.732	21038.94
229.804	21040.53
229.877	21060.48
229.949	21069.3
230.022	21081.93
230.094	21085.98
230.167	21088.2
230.239	21069.21
230.312	21051.23
230.384	21083.14
230.457	21083.81
230.529	21088.01
230.602	21086.8
230.674	21081.79
230.747	21091.77
230.819	21098.03
230.892	21053.16
230.964	21037.25
231.037	21041.93
231.109	21031.95
231.181	21049.26
231.254	21036.15
231.326	21031.76
231.399	21021.73
231.471	21005.16
231.544	20968.67
231.616	20973.83
231.688	20961.92
231.761	20950.26
231.833	20953.49
231.905	20912.18
231.978	20911.27
232.05	20903.75
232.122	20899.32
232.195	20889.68
232.267	20886.25
232.339	20869.87
232.412	20874.4
232.484	20855.7
232.556	20837.34
232.629	20843.46
232.701	20826.78
232.773	20818.2
232.846	20794.83
232.918	20773.72
232.99	20761.43
233.062	20759.21
233.135	20738.06
233.207	20712.37
233.279	20713.04
233.351	20704.9
233.424	20677.62
233.496	20643.84
233.568	20645.33
233.64	20608.9
233.713	20594.63
233.785	20580.22
233.857	20563.35
233.929	20530.39
234.001	20529.91
234.074	20526.87
234.146	20493.47
234.218	20467.11
234.29	20442.1
234.362	20416.94
234.434	20388.61
234.507	20351.31
234.579	20319.93
234.651	20297.14
234.723	20282.54
234.795	20267.31
234.867	20236.95
234.939	20231.89
235.012	20210.3
235.084	20185.57
235.156	20170.34
235.228	20142.1
235.3	20106.2
235.372	20087.65
235.444	20081.67
235.516	20031.84
235.588	20019.84
235.66	19995.89
235.732	19975.89
235.804	20013.87
235.876	20009.53
235.948	19997.1
236.02	19981.43
236.092	19956.09
236.164	19941.39
236.236	19911.12
236.308	19883.9
236.38	19862.79
236.452	19833.83
236.524	19815.85
236.596	19806.5
236.668	19791.56
236.74	19762.94
236.812	19749.16
236.884	19726.07
236.956	19702.07
237.028	19662.32
237.1	19617.79
237.172	19608.73
237.244	19594.46
237.316	19526.32
237.388	19483.67
237.46	19445.89
237.532	19436.93
237.604	19395.34
237.675	19379.29
237.747	19357.08
237.819	19319.25
237.891	19292.36
237.963	19259.3
238.035	19222.39
238.107	19150.39
238.178	19141.72
238.25	19113.38
238.322	19109.19
238.394	19061.82
238.466	19027.75
238.538	19016.04
238.609	18990.79
238.681	18927.71
238.753	18894.26
238.825	18864.96
238.897	18840.29
238.968	18838.84
239.04	18794.75
239.112	18799.57
239.184	18759.48
239.255	18727.38
239.327	18702.03
239.399	18662.57
239.471	18642.81
239.542	18624.69
239.614	18620.4
239.686	18560.64
239.758	18539.01
239.829	18486.77
239.901	18465.76
239.973	18433.95
240.044	18412.46
240.116	18382.68
240.188	18354.92
240.259	18317.72
240.331	18269.43
240.403	18240.56
240.474	18183.7
240.546	18138.74
240.618	18085.44
240.689	18038.89
240.761	18007.56
240.833	17991.32
240.904	17965.54
240.976	17932
241.048	17895.18
241.119	17865.35
241.191	17836.05
241.262	17822.56
241.334	17780.29
241.405	17750.75
241.477	17714.46
241.549	17672.49
241.62	17650.37
241.692	17631.67
241.763	17603.43
241.835	17577.6
241.906	17543.96
241.978	17494.03
242.049	17485.55
242.121	17460.25
242.192	17440.78
242.264	17398.32
242.335	17347.33
242.407	17320.44
242.478	17278.41
242.55	17247.67
242.621	17197.35
242.693	17160.58
242.764	17115.14
242.836	17076.68
242.907	17053.45
242.979	17027.47
243.05	17000.92
243.122	16969.11
243.193	16929.01
243.264	16875.37
243.336	16843.42
243.407	16825.63
243.479	16817.68
243.55	16782.35
243.622	16752.76
243.693	16719.94
243.764	16698.35
243.836	16657.67
243.907	16624.9
243.978	16598.24
244.05	16565.42
244.121	16527.97
244.192	16506.04
244.264	16459.53
244.335	16432.06
244.407	16365.16
244.478	16330.08
244.549	16289.35
244.62	16229.05
244.692	16196.81
244.763	16181.67
244.834	16138.15
244.906	16091.5
244.977	16061.9
245.048	16040.07
245.119	15993.17
245.191	15951.87
245.262	15905.59
245.333	15883.95
245.405	15844.82
245.476	15818.88
245.547	15792.37
245.618	15766.35
245.689	15737.52
245.761	15708.65
245.832	15679.97
245.903	15670.28
245.974	15650.96
246.045	15613.94
246.117	15605.98
246.188	15559.95
246.259	15516.47
246.33	15482.06
246.401	15443.21
246.473	15395.68
246.544	15357.84
246.615	15342.66
246.686	15308.92
246.757	15288.48
246.828	15244.95
246.899	15230.64
246.97	15184.99
247.042	15141.95
247.113	15117.41
247.184	15095.38
247.255	15062.31
247.326	15032.48
247.397	15002.88
247.468	14966.44
247.539	14937.13
247.61	14889.17
247.681	14872.88
247.752	14848.58
247.823	14816.19
247.894	14794.21
247.965	14754.1
248.037	14723.11
248.108	14683.14
248.179	14652.29
248.25	14624.67
248.321	14607.99
248.392	14565.33
248.463	14557.19
248.534	14517.18
248.605	14498.33
248.675	14467.67
248.746	14449.69
248.817	14426.31
248.888	14397.29
248.959	14348.31
249.03	14331.2
249.101	14303.39
249.172	14276.63
249.243	14227.41
249.314	14216.62
249.385	14192.75
249.456	14177.04
249.527	14144.55
249.598	14123.53
249.669	14094.32
249.739	14066.02
249.81	14042.78
249.881	14004.65
249.952	13976.79
250.023	13953.65
250.094	13902.7
250.165	13863.46
250.235	13826.48
250.306	13796.93
250.377	13772.59
250.448	13754.27
250.519	13712.48
250.59	13705.87
250.66	13669.23
250.731	13665.43
250.802	13635.78
250.873	13609.26
250.944	13580.53
251.014	13552.14
251.085	13553.06
251.156	13535.36
251.227	13522.88
251.297	13513.62
251.368	13504.99
251.439	13481.08
251.51	13472.65
251.58	13447.15
251.651	13424.73
251.722	13416.87
251.792	13378.79
251.863	13344.71
251.934	13340.8
252.005	13344.9
252.075	13322.97
252.146	13316.41
252.217	13305.52
252.287	13294.62
252.358	13275.63
252.429	13275.87
252.499	13248.15
252.57	13220.24
252.641	13206.11
252.711	13185.19
252.782	13138.29
252.852	13134.58
252.923	13118.38
252.994	13100.73
253.064	13093.55
253.135	13062.65
253.205	13032.43
253.276	13035.66
253.347	13024.67
253.417	12986.78
253.488	12962
253.558	12932.98
253.629	12906.17
253.699	12885.93
253.77	12864.72
253.841	12836.23
253.911	12812.9
253.982	12789.47
254.052	12772.02
254.123	12750.81
254.193	12728.2
254.264	12749.65
254.334	12711.42
254.405	12674.93
254.475	12641.72
254.546	12615.16
254.616	12608.36
254.687	12591.35
254.757	12566.76
254.827	12542.66
254.898	12528.73
254.968	12500.62
255.039	12472.81
255.109	12461.58
255.18	12431.64
255.25	12390.48
255.321	12376.93
255.391	12344.01
255.461	12343.87
255.532	12296.58
255.602	12267.08
255.673	12224.61
255.743	12181.71
255.813	12142.91
255.884	12134.47
255.954	12123.1
256.024	12117.21
256.095	12093.93
256.165	12068.53
256.235	12049.44
256.306	12026.5
256.376	12019.27
256.446	12011.89
256.517	11999.41
256.587	11991.79
256.657	11974.83
256.728	11956.75
256.798	11940.6
256.868	11917.9
256.938	11887.49
257.009	11879.49
257.079	11876.06
257.149	11887.1
257.219	11855.05
257.29	11841.07
257.36	11803.43
257.43	11796.25
257.5	11758.31
257.571	11734.21
257.641	11725.73
257.711	11699.65
257.781	11686.4
257.852	11670.83
257.922	11628.18
257.992	11606.58
258.062	11581.38
258.132	11571.49
258.202	11554.34
258.273	11533.23
258.343	11536.65
258.413	11517.76
258.483	11496.4
258.553	11464.88
258.623	11431.53
258.693	11420.25
258.764	11418.28
258.834	11411.63
258.904	11391.53
258.974	11370.28
259.044	11356.93
259.114	11333.84
259.184	11321.69
259.254	11298.9
259.324	11254.8
259.394	11249.45
259.464	11256.83
259.535	11240.25
259.605	11214.61
259.675	11185.98
259.745	11178.37
259.815	11149.89
259.885	11124.25
259.955	11142.03
260.025	11115.77
260.095	11099.53
260.165	11089.12
260.235	11092.21
260.305	11071.24
260.375	11040.74
260.445	11041.7
260.515	11036.5
260.585	11033.46
260.655	11014.52
260.725	11012.74
260.795	11010.23
260.865	11017.85
260.934	10985.41
261.004	10972.88
261.074	10961.37
261.144	10965.9
261.214	10957.61
261.284	10937.32
261.354	10932.89
261.424	10899.15
261.494	10909.99
261.564	10898.19
261.634	10892.84
261.703	10851.73
261.773	10842.67
261.843	10834.96
261.913	10817.52
261.983	10779.26
262.053	10761.53
262.123	10742.21
262.192	10714.89
262.262	10704.48
262.332	10667.57
262.402	10661.59
262.472	10644.15
262.541	10603.97
262.611	10595.82
262.681	10570.96
262.751	10562.87
262.821	10549.47
262.89	10522.54
262.96	10506.97
263.03	10512.75
263.1	10495.07
263.169	10482.01
263.239	10465.58
263.309	10467.8
263.379	10458.65
263.448	10453.73
263.518	10440.43
263.588	10428
263.657	10430.94
263.727	10429.35
263.797	10413.89
263.867	10392.11
263.936	10363.88
264.006	10361.52
264.076	10347.74
264.145	10325.82
264.215	10297.11
264.285	10284.77
264.354	10250.43
264.424	10224.32
264.494	10190.78
264.563	10169.39
264.633	10173.29
264.702	10167.46
264.772	10132.44
264.842	10115.05
264.911	10104.21
264.981	10083.16
265.05	10068.32
265.12	10045.49
265.19	10031.27
265.259	10027.9
265.329	10027.08
265.398	10014.22
265.468	10034.5
265.537	10011.62
265.607	10005.31
265.676	10014.61
265.746	10009.79
265.815	10010.75
265.885	9997.22
265.955	9971.64
266.024	9952.18
266.094	9912.83
266.163	9917.07
266.232	9920.01
266.302	9910.95
266.371	9900.84
266.441	9889.23
266.51	9885.37
266.58	9866.4
266.649	9843.18
266.719	9837.25
266.788	9823.43
266.858	9836.29
266.927	9793.81
266.996	9788.17
267.066	9780.66
267.135	9752.38
267.205	9748.15
267.274	9738.22
267.343	9740.25
267.413	9729.51
267.482	9737.12
267.552	9741.36
267.621	9712.07
267.69	9682.79
267.76	9674.5
267.829	9665.79
267.898	9653.7
267.968	9635.93
268.037	9637.85
268.106	9635.54
268.176	9614.49
268.245	9605.68
268.314	9583.33
268.384	9585.21
268.453	9574.9
268.522	9570.62
268.592	9571.48
268.661	9551.45
268.73	9545.77
268.799	9527.18
268.869	9537.68
268.938	9504.06
269.007	9489.23
269.076	9472.62
269.146	9468.52
269.215	9452.87
269.284	9465.2
269.353	9448.35
269.422	9432.94
269.492	9413.97
269.561	9379.15
269.63	9375.64
269.699	9356.47
269.768	9343.71
269.838	9334.32
269.907	9335.19
269.976	9304.27
270.045	9272.88
270.114	9272.21
270.183	9253.19
270.253	9244.04
270.322	9211.16
270.391	9205.86
270.46	9209.47
270.529	9208.8
270.598	9210.05
270.667	9203.79
270.736	9172.63
270.806	9169.02
270.875	9169.46
270.944	9161.37
271.013	9181.78
271.082	9175.52
271.151	9168.83
271.22	9139.8
271.289	9131.47
271.358	9117.9
271.427	9122.76
271.496	9115.15
271.565	9094.06
271.634	9090.31
271.703	9115.78
271.772	9119.1
271.841	9103.6
271.91	9083.43
271.979	9075.15
272.048	9044.68
272.117	9045.45
272.186	9036.73
272.255	9037.7
272.324	9036.01
272.393	9027.54
272.462	9009.43
272.531	8997.49
272.6	8983.24
272.669	8996.67
272.738	8989.6
272.807	8982.37
272.876	8952.29
272.945	8980.74
273.013	8981.46
273.082	8989.12
273.151	8942.22
273.22	8936.25
273.289	8935.15
273.358	8942.37
273.427	8931.1
273.496	8940.25
273.564	8932.45
273.633	8932.93
273.702	8911.66
273.771	8905.45
273.84	8900.34
273.909	8898.03
273.977	8888.5
274.046	8882.34
274.115	8885.61
274.184	8862.61
274.253	8855.96
274.322	8870.5
274.39	8835.65
274.459	8823.28
274.528	8790.02
274.597	8788.09
274.665	8789.15
274.734	8792.81
274.803	8777.84
274.872	8772.69
274.94	8758.2
275.009	8814.69
275.078	8795.24
275.147	8792.26
275.215	8784.65
275.284	8796.88
275.353	8782.39
275.421	8764.05
275.49	8777.58
275.559	8762.27
275.627	8757.85
275.696	8742.64
275.765	8743.84
275.833	8741.15
275.902	8740.67
275.971	8759.92
276.039	8775.08
276.108	8776.28
276.177	8776.33
276.245	8769.06
276.314	8760.54
276.383	8764.44
276.451	8700.25
276.52	8703.04
276.588	8722.58
276.657	8726.82
276.725	8715.27
276.794	8714.26
276.863	8727.44
276.931	8703.09
277	8714.88
277.068	8727.73
277.137	8749.34
277.205	8744.58
277.274	8761.13
277.342	8764.55
277.411	8738.13
277.48	8720.95
277.548	8714.79
277.617	8715.27
277.685	8711.61
277.754	8718.54
277.822	8706.61
277.89	8722.92
277.959	8722.83
278.027	8696.45
278.096	8683.65
278.164	8711.19
278.233	8702.81
278.301	8689.58
278.37	8692.51
278.438	8676.97
278.507	8679.33
278.575	8654.01
278.643	8646.5
278.712	8630.19
278.78	8615.31
278.849	8628.74
278.917	8637.83
278.985	8633.02
279.054	8630.33
279.122	8638.41
279.191	8633.89
279.259	8639.13
279.327	8612.61
279.396	8625.08
279.464	8621.85
279.532	8630.32
279.601	8618
279.669	8620.4
279.737	8636
279.806	8641.96
279.874	8644.71
279.942	8637.34
280.011	8631.23
280.079	8643.02
280.147	8658.19
280.215	8666.94
280.284	8662.42
280.352	8650.1
280.42	8656.16
280.488	8649.91
280.557	8642.83
280.625	8648.03
280.693	8641.82
280.761	8643.6
280.83	8625.27
280.898	8636.96
280.966	8615.5
281.034	8583.11
281.102	8563.14
281.171	8553.32
281.239	8566.51
281.307	8562.9
281.375	8547.65
281.443	8575.56
281.512	8570.02
281.58	8572.09
281.648	8557.61
281.716	8557.46
281.784	8559.39
281.852	8549.28
281.92	8548.13
281.989	8556.79
282.057	8540.29
282.125	8584.71
282.193	8583.08
282.261	8584.43
282.329	8579.04
282.397	8587.65
282.465	8597.85
282.533	8620.56
282.601	8612.04
282.67	8583.6
282.738	8577.68
282.806	8596.93
282.874	8581.57
282.942	8582.2
283.01	8572.67
283.078	8575.65
283.146	8570.36
283.214	8574.55
283.282	8576.04
283.35	8588.6
283.418	8580.03
283.486	8586.63
283.554	8544.12
283.622	8548.74
283.69	8547.88
283.758	8546.29
283.826	8549.22
283.894	8554.08
283.962	8576.47
284.03	8595.24
284.098	8597.21
284.165	8589.37
284.233	8584.02
284.301	8577.14
284.369	8570.21
284.437	8565.5
284.505	8559.96
284.573	8580.9
284.641	8572.33
284.709	8584.27
284.777	8566.79
284.845	8583.3
284.912	8580.08
284.98	8587.92
285.048	8576.04
285.116	8582.92
285.184	8591.63
285.252	8588.69
285.319	8574.16
285.387	8557.31
285.455	8534.41
285.523	8538.79
285.591	8536.72
285.659	8534.65
285.726	8551.3
285.794	8533.59
285.862	8529.94
285.93	8532.2
285.997	8523.73
286.065	8520.65
286.133	8505.68
286.201	8502.41
286.269	8479.69
286.336	8477.81
286.404	8472.9
286.472	8482.91
286.539	8455.3
286.607	8441.44
286.675	8442.88
286.743	8449.18
286.81	8436.86
286.878	8456.02
286.946	8451.01
287.013	8452.45
287.081	8458.28
287.149	8442.49
287.216	8468.09
287.284	8458.76
287.352	8459.24
287.419	8452.31
287.487	8467.76
287.555	8475.22
287.622	8469.35
287.69	8480.65
287.758	8495.62
287.825	8490.52
287.893	8475.55
287.96	8487.73
288.028	8498.07
288.096	8500.77
288.163	8503.94
288.231	8496.97
288.298	8493.12
288.366	8505.34
288.433	8506.88
288.501	8492.4
288.569	8493.45
288.636	8484.55
288.704	8505.68
288.771	8511.88
288.839	8503.9
288.906	8491.19
288.974	8498.99
289.041	8502.98
289.109	8486.72
289.176	8494.42
289.244	8497.26
289.311	8513.57
289.379	8521.32
289.446	8526.37
289.514	8525.99
289.581	8533.16
289.649	8539.89
289.716	8541.58
289.783	8535.9
289.851	8548.36
289.918	8556.25
289.986	8562.94
290.053	8566.12
290.121	8562.03
290.188	8571.27
290.255	8604.91
290.323	8605.39
290.39	8601.44
290.458	8610.34
290.525	8623
290.592	8615.2
290.66	8614.05
290.727	8605.39
290.794	8617.08
290.862	8612.6
290.929	8614.58
290.996	8605.34
291.064	8616.45
291.131	8626.32
291.198	8636.76
291.266	8638.83
291.333	8634.41
291.4	8642.73
291.468	8664.68
291.535	8660.01
291.602	8660.35
291.669	8649.47
291.737	8655.39
291.804	8647.6
291.871	8659.44
291.938	8668.44
292.006	8697.42
292.073	8713.1
292.14	8728.12
292.207	8723.79
292.275	8725.14
292.342	8739.38
292.409	8771.39
292.476	8795.9
292.543	8786.37
292.611	8789.5
292.678	8808.56
292.745	8837.34
292.812	8849.81
292.879	8840.95
292.946	8848.89
293.014	8864.15
293.081	8871.42
293.148	8886.05
293.215	8904.87
293.282	8900.92
293.349	8912.19
293.416	8890.04
293.484	8902.99
293.551	8916.85
293.618	8931
293.685	8962.54
293.752	8952.48
293.819	8948.24
293.886	8938.75
293.953	8947.08
294.02	8961.62
294.087	8967.01
294.154	8961.77
294.221	8974.86
294.288	8979.58
294.356	9000.57
294.423	9006.01
294.49	8998.07
294.557	9005.48
294.624	8998.64
294.691	9021.51
294.758	9019.78
294.825	9034.07
294.892	9029.26
294.959	9028.83
295.026	9040.96
295.093	9031.52
295.16	9035.04
295.226	9035.61
295.293	9051.45
295.36	9060.36
295.427	9070.23
295.494	9078.8
295.561	9084.67
295.628	9103.98
295.695	9113.61
295.762	9107.79
295.829	9111.83
295.896	9134.94
295.963	9146.3
296.03	9159.3
296.096	9168.64
296.163	9182.94
296.23	9198.3
296.297	9211.44
296.364	9210.19
296.431	9218.57
296.498	9214.38
296.564	9238.98
296.631	9245.24
296.698	9232.24
296.765	9246.11
296.832	9236.72
296.899	9227.47
296.965	9250.01
297.032	9229.97
297.099	9251.07
297.166	9262.67
297.233	9262.67
297.299	9256.07
297.366	9254.77
297.433	9256.07
297.5	9256.75
297.566	9254.92
297.633	9249.57
297.7	9250.78
297.767	9246.54
297.833	9249.14
297.9	9252.89
297.967	9242.54
298.033	9253.47
298.1	9281.31
298.167	9278.51
298.234	9285.45
298.3	9300.04
298.367	9296.91
298.434	9302.35
298.5	9289.35
298.567	9285.4
298.634	9284.29
298.7	9297.29
298.767	9303.16
298.834	9319.54
298.9	9316.84
298.967	9311.45
299.033	9327.63
299.1	9343.13
299.167	9361
299.233	9358.35
299.3	9371.78
299.366	9387.04
299.433	9397.93
299.5	9377.37
299.566	9383.29
299.633	9400.38
299.699	9405.73
299.766	9399.28
299.832	9405.06
299.899	9418.06
299.965	9430.48
300.032	9427.3
300.099	9435.01
300.165	9437.22
300.232	9432.94
300.298	9435.49
300.365	9452.87
300.431	9451.19
300.498	9447.29
300.564	9457.74
300.631	9461.44
300.697	9473.63
300.763	9472.04
300.83	9470.26
300.896	9480.9
300.963	9480.75
301.029	9476.32
301.096	9484.99
301.162	9499.1
301.229	9497.08
301.295	9486.48
301.361	9496.36
301.428	9505.31
301.494	9495.78
301.561	9501.65
301.627	9497.03
301.693	9496.4
301.76	9498.48
301.826	9487.35
301.892	9497.18
301.959	9502.38
302.025	9510.03
302.092	9510.32
302.158	9518.08
302.224	9521.93
302.291	9516.39
302.357	9515.86
302.423	9513.26
302.49	9500.59
302.556	9510.81
302.622	9505.75
302.688	9521.93
302.755	9529.2
302.821	9540.04
302.887	9544.52
302.954	9541.39
303.02	9555.25
303.086	9562.14
303.152	9558.77
303.219	9559.59
303.285	9562.67
303.351	9570.38
303.417	9572.74
303.483	9557.47
303.55	9548.85
303.616	9547.94
303.682	9549.09
303.748	9544.71
303.815	9563.35
303.881	9573.9
303.947	9565.95
304.013	9567.15
304.079	9548.27
304.145	9528.38
304.212	9518.46
304.278	9521.69
304.344	9514.71
304.41	9499.59
304.476	9488.08
304.542	9481.72
304.608	9487.02
304.674	9468.48
304.741	9461.59
304.807	9457.45
304.873	9464.72
304.939	9478.69
305.005	9463.47
305.071	9463.71
305.137	9469.97
305.203	9439.48
305.269	9438.28
305.335	9443.38
305.401	9449.79
305.467	9451.76
305.533	9460.87
305.599	9470.45
305.666	9474.16
305.732	9480.95
305.798	9496.93
305.864	9527.28
305.93	9534.69
305.996	9528.62
306.062	9536.52
306.128	9529.25
306.194	9517.16
306.259	9517.69
306.325	9508.83
306.391	9516.68
306.457	9521.3
306.523	9521.3
306.589	9546.3
306.655	9537.34
306.721	9520.29
306.787	9505.84
306.853	9522.12
306.919	9507.82
306.985	9502.91
307.051	9490.48
307.117	9483.94
307.183	9480.18
307.248	9447
307.314	9450.66
307.38	9455.71
307.446	9457.74
307.512	9442.86
307.578	9446.03
307.644	9442.37
307.709	9448.15
307.775	9441.65
307.841	9434
307.907	9433.03
307.973	9415.65
308.039	9411.94
308.104	9419.6
308.17	9423.88
308.236	9403.8
308.302	9407.12
308.368	9390.61
308.433	9397.59
308.499	9390.75
308.565	9379.77
308.631	9386.8
308.696	9359.45
308.762	9353.1
308.828	9347.32
308.894	9337.3
308.959	9324.69
309.025	9309.18
309.091	9299.99
309.156	9293.73
309.222	9299.17
309.288	9294.78
309.354	9271.39
309.419	9268.69
309.485	9250.2
309.551	9252.27
309.616	9246.92
309.682	9245.29
309.748	9241.87
309.813	9231.56
309.879	9222.75
309.945	9212.74
310.01	9205.28
310.076	9215.63
310.141	9208.79
310.207	9196.13
310.273	9196.32
310.338	9195.84
310.404	9186.59
310.469	9174.36
310.535	9165.6
310.601	9145.86
310.666	9143.07
310.732	9152.21
310.797	9146.29
310.863	9136.76
310.928	9124.58
310.994	9127.42
311.059	9124.63
311.125	9126.31
311.191	9140.9
311.256	9132.19
311.322	9136.14
311.387	9117.7
311.453	9509.57
311.518	9480.78
311.584	9484.06
311.649	9491.76
311.715	9480.93
311.78	9478.62
311.846	9471.3
311.911	9482.62
311.976	9481.17
312.042	9466.87
312.107	9453.83
312.173	9442.08
312.238	9435.68
312.304	9433.32
312.369	9416.9
312.434	9400.63
312.5	9397.07
312.565	9357.4
312.631	9367.6
312.696	9357.35
312.761	9362.93
312.827	8957.1
312.892	8995.8
312.958	8989.64
313.023	8986.94
313.088	8987.81
313.154	8977.46
313.219	8967.45
313.284	8952.14
313.35	8947.28
313.415	8942.32
313.48	8939.62
313.546	8946.7
313.611	8959.07
313.676	8949.11
313.741	8941.98
313.807	8946.17
313.872	8941.69
313.937	8953.2
314.003	8962.2
314.068	8966.39
314.133	8973.08
314.198	8963.36
314.264	8947.08
314.329	8936.4
314.394	8935.05
314.459	8930.62
314.525	8953
314.59	8955.07
314.655	8939.04
314.72	8946.31
314.785	8946.26
314.851	8940.78
314.916	8924.51
314.981	8910.21
315.046	8904.67
315.111	8895.53
315.176	8887.3
315.242	8889.66
315.307	8884.46
315.372	8855.48
315.437	8842.96
315.502	8827.41
315.567	8840.94
315.632	8824.67
315.698	8824.81
315.763	8819.76
315.828	8812.15
315.893	8801.61
315.958	8793.19
316.023	8786.45
316.088	8767.44
316.153	8745.15
316.218	8743.61
316.283	8719.22
316.348	8702.08
316.413	8697.99
316.479	8681.25
316.544	8648.72
316.609	8623.98
316.674	8588.56
316.739	8557.58
316.804	8531.59
316.869	8500.99
316.934	8462.44
316.999	8432.08
317.064	8385.16
317.129	8336.13
317.194	8301.2
317.259	8252.17
317.324	8201.32
317.389	8156.87
317.454	8120.02
317.518	8084.43
317.583	8053.64
317.648	8034.78
317.713	8001.78
317.778	7939.06
317.843	7916.02
317.908	7881.16
317.973	7839.31
318.038	7813.34
318.103	7781.7
318.168	7750.11
318.233	7714.28
318.297	7663.41
318.362	7624.32
318.427	7579.03
318.492	7560.71
318.557	7513.37
318.622	7486.3
318.687	7466.69
318.751	7430.69
318.816	7396.22
318.881	7365.08
318.946	7312.25
319.011	7267.26
319.075	7224.34
319.14	7202
319.205	7159.51
319.27	7121.31
319.335	7079.17
319.399	7040.01
319.464	7005.76
319.529	6949.31
319.594	6913.61
319.658	6889.35
319.723	6850.05
319.788	6827.34
319.853	6771.8
319.917	6744.14
319.982	6698.51
320.047	6662.68
320.112	6633
320.176	6582.92
320.241	6552.52
320.306	6524.77
320.37	6483.53
320.435	6458.18
320.5	6426.53
320.564	6384.91
320.629	6347.91
320.694	6321.12
320.758	6280.18
320.823	6239.15
320.888	6217.61
320.952	6170.67
321.017	6127.96
321.082	6088.43
321.146	6058.2
321.211	6026.1
321.275	5986.38
321.34	5942.15
321.405	5898.98
321.469	5857.35
321.534	5818.61
321.598	5766
321.663	5734.33
321.727	5707
321.792	5655.35
321.857	5608.07
321.921	5569.19
321.986	5530.46
322.05	5464.75
322.115	5430.82
322.179	5387.55
322.244	5325.59
322.308	5293.87
322.373	5248.11
322.437	5211.36
322.502	5181.88
322.566	5135.5
322.631	5099.47
322.695	5063.89
322.76	5015.52
322.824	4979.27
322.889	4936.99
322.953	4894.05
323.018	4828.4
323.082	4761.91
323.146	4713.72
323.211	4660.4
323.275	4619.71
323.34	4573.25
323.404	4541.78
323.468	4494.59
323.533	4455.41
323.597	4417.3
323.662	4369.65
323.726	4334.59
323.79	4285.42
323.855	4220.49
323.919	4173.1
323.983	4131.93
324.048	4060.63
324.112	4222.72
324.177	4099.8
324.241	3891.37
324.305	3685.08
324.37	3482.38
324.434	3288.86
324.498	3245.09
324.562	3199.46
324.627	3139.22
324.691	3085.48
324.755	3023.96
324.82	2948.95
324.884	2872.39
324.948	2799.89
325.012	2702
325.077	2581.03
