Data from 20250703_urea_0.1M_MAYP1162681_07-01-04-994.txt Node
Date: Fri Jul 04 07:01:04 BST 2025
User: adleo
Spectrometer: MAYP116268
Trigger mode: 0
Integration Time (sec): 1.000000E0
Scans to average: 1
Electric dark correction enabled: true
Nonlinearity correction enabled: true
Boxcar width: 10
XAxis mode: Wavelengths
Number of Pixels in Spectrum: 2068
>>>>>Begin Spectral Data<<<<<
179.565	1260.34
179.642	1313.35
179.718	1356.9
179.795	1399.01
179.871	1432.84
179.948	1452.21
180.024	1475.41
180.101	1498.58
180.177	1513.38
180.254	1534.93
180.33	1557.48
180.407	1616.31
180.483	1714.7
180.56	1809.92
180.636	1898.37
180.712	1883.49
180.789	1893.66
180.865	1904.35
180.942	1910.39
181.018	1920.85
181.095	1931.83
181.171	1937.45
181.248	1941.34
181.324	1960.04
181.4	1963.55
181.477	1974.16
181.553	1988.66
181.63	2010.01
181.706	2025.14
181.782	2032.27
181.859	2034.03
181.935	2038.64
182.011	2034.98
182.088	2052.1
182.164	2069.7
182.24	2080.78
182.317	2091.53
182.393	2090.77
182.469	2104.47
182.546	2120.35
182.622	2124.25
182.698	2121.4
182.775	2131.72
182.851	2144.85
182.927	2134.86
183.003	2134.91
183.08	2129.44
183.156	2140
183.232	2133.34
183.308	2123.92
183.385	2132.48
183.461	2150.99
183.537	2152.7
183.613	2166.35
183.69	2156.69
183.766	2146.94
183.842	2157.02
183.918	2164.02
183.995	2178.34
184.071	2182.76
184.147	2178.72
184.223	2168.54
184.299	2182.72
184.375	2169.83
184.452	2177.35
184.528	2226.93
184.604	2236.97
184.68	2250.24
184.756	2254.81
184.832	2260.09
184.908	2264.66
184.985	2265.28
185.061	2247.39
185.137	2258.38
185.213	2243.63
185.289	2244.77
185.365	2237.16
185.441	2234.16
185.517	2243.16
185.593	2238.35
185.669	2237.02
185.745	2244.49
185.822	2261.52
185.898	2253.95
185.974	2266.46
186.05	2261.08
186.126	2227.3
186.202	2220.69
186.278	2216.79
186.354	2207.55
186.43	2215.84
186.506	2212.65
186.582	2211.22
186.658	2219.45
186.734	2197.09
186.81	2199.76
186.886	2202.85
186.962	2218.17
187.038	2214.98
187.114	2207.98
187.19	2216.03
187.266	2208.75
187.341	2209.41
187.417	2200.14
187.493	2199.76
187.569	2200.95
187.645	2193.24
187.721	2180.63
187.797	2187.67
187.873	2189.71
187.949	2184.96
188.025	2175.87
188.101	2180.86
188.176	2187.14
188.252	2182.43
188.328	2190.32
188.404	2190.61
188.48	2186.66
188.556	2177.57
188.632	2177.05
188.707	2179.24
188.783	2173.48
188.859	2165.01
188.935	2155.26
189.011	2165.49
189.086	2158.12
189.162	2147.98
189.238	2144.03
189.314	2142.13
189.39	2136.76
189.465	2133.9
189.541	2149.6
189.617	2135.9
189.693	2131.77
189.768	2137.38
189.844	2163.61
189.92	2154.86
189.996	2164.56
190.071	2178.46
190.147	2177.98
190.223	2184.83
190.298	2178.84
190.374	2166.85
190.45	2180.55
190.526	2189.35
190.601	2185.35
190.677	2189.87
190.753	2218.05
190.828	2222.28
190.904	2239.56
190.98	2252.79
191.055	2261.73
191.131	2251.26
191.207	2272.05
191.282	2281.95
191.358	2268.63
191.433	2253.11
191.509	2270.09
191.585	2266.14
191.66	2266.95
191.736	2275.23
191.811	2267.9
191.887	2284.75
191.963	2308.97
192.038	2313.02
192.114	2313.73
192.189	2318.54
192.265	2312.78
192.34	2291.98
192.416	2291.07
192.491	2284.84
192.567	2288.93
192.642	2290.12
192.718	2290.69
192.793	2280.46
192.869	2271.71
192.944	2273.94
193.02	2282.18
193.095	2282.79
193.171	2292.65
193.246	2290.74
193.322	2289.84
193.397	2290.74
193.473	2273.56
193.548	2254.71
193.624	2262.18
193.699	2261.04
193.775	2276.42
193.85	2278.42
193.925	2288.65
194.001	2289.46
194.076	2282.7
194.152	2272.8
194.227	2262.81
194.302	2253.77
194.378	2254.15
194.453	2253.91
194.529	2267.24
194.604	2250.53
194.679	2246.91
194.755	2224.79
194.83	2235.7
194.905	2230.98
194.981	2238.79
195.056	2234.6
195.131	2240.26
195.207	2235.03
195.282	2223.99
195.357	2203.04
195.433	2217.79
195.508	2204.99
195.583	2212.65
195.659	2227.46
195.734	2232.79
195.809	2235.12
195.884	2245.3
195.96	2247.53
196.035	2267.14
196.11	2263.28
196.185	2274.66
196.261	2276.8
196.336	2310.87
196.411	2298.88
196.486	2304.11
196.561	2298.92
196.637	2307.49
196.712	2325.53
196.787	2330.53
196.862	2347.18
196.937	2358.27
197.013	2361.37
197.088	2372.69
197.163	2392.03
197.238	2407.89
197.313	2408.08
197.388	2423.08
197.464	2452.36
197.539	2462.6
197.614	2450.5
197.689	2465.79
197.764	2484.36
197.839	2505.74
197.914	2496.64
197.989	2518.36
198.065	2534.69
198.14	2586.63
198.215	2611.54
198.29	2622.35
198.365	2636.59
198.44	2646.5
198.515	2672.13
198.59	2690.47
198.665	2720.77
198.74	2734.45
198.815	2738.55
198.89	2764.51
198.965	2796.35
199.04	2791.01
199.115	2810.74
199.19	2857.24
199.265	2861.1
199.34	2869.1
199.415	2903.86
199.49	2924.16
199.565	2933.83
199.64	2955.76
199.715	2953.61
199.79	2963.91
199.865	2970.92
199.94	2970.82
200.015	3006.73
200.09	3014.55
200.165	3023.22
200.24	3026.46
200.315	3063.93
200.39	3078.57
200.464	3082.43
200.539	3080.52
200.614	3102.12
200.689	3124.63
200.764	3130.35
200.839	3151.33
200.914	3158.38
200.989	3147.12
201.063	3165.1
201.138	3148
201.213	3149
201.288	3130.02
201.363	3136.07
201.438	3136.55
201.512	3151.66
201.587	3130.39
201.662	3137.4
201.737	3148.51
201.812	3156.86
201.886	3123.98
201.961	3135.05
202.036	3125.18
202.111	3123.94
202.186	3091.77
202.26	3071.31
202.335	3050.8
202.41	3041.12
202.485	3026.58
202.559	3008.37
202.634	2982.76
202.709	2992.44
202.784	2974.32
202.858	2976.42
202.933	2961.92
203.008	2957.16
203.082	2941.14
203.157	2944.81
203.232	2902.68
203.306	2886.23
203.381	2860.01
203.456	2840.84
203.53	2821.28
203.605	2808.42
203.68	2792.26
203.754	2796.16
203.829	2792.97
203.904	2781.34
203.978	2778.63
204.053	2793.83
204.127	2793.59
204.202	2805.46
204.277	2803.41
204.351	2811.66
204.426	2818.62
204.5	2825.39
204.575	2807.66
204.65	2833.55
204.724	2843.81
204.799	2871.68
204.873	2891.61
204.948	2916.69
205.022	2927.75
205.097	2949.88
205.171	2992.46
205.246	3027.19
205.32	3058.27
205.395	3094
205.469	3119.02
205.544	3159.97
205.618	3181.25
205.693	3232.49
205.767	3259.4
205.842	3327.04
205.916	3367.65
205.991	3404.45
206.065	3459.07
206.14	3531.07
206.214	3581.09
206.289	3632.1
206.363	3703.27
206.438	3761.47
206.512	3828.47
206.586	3914.26
206.661	3980.53
206.735	4021.14
206.81	4089.72
206.884	4172.42
206.958	4226.01
207.033	4314.54
207.107	4394.55
207.181	4496.71
207.256	4564.66
207.33	4657.86
207.405	4747.05
207.479	4843.66
207.553	4934.37
207.628	4994.35
207.702	5085.77
207.776	5160.88
207.851	5247.17
207.925	5348.36
207.999	5429.93
208.073	5509.64
208.148	5596.76
208.222	5676.89
208.296	5801.05
208.371	5909.54
208.445	6017.45
208.519	6142.47
208.593	6248.04
208.668	6343.57
208.742	6441.05
208.816	6540.41
208.89	6661.92
208.965	6753.68
209.039	6852.01
209.113	6966.48
209.187	7089.95
209.261	7181.84
209.336	7303.75
209.41	7421.31
209.484	7520.11
209.558	7644.48
209.632	7760.58
209.707	7878
209.781	7999.62
209.855	8116.85
209.929	8236.14
210.003	8342.22
210.077	8438.93
210.151	8590.69
210.226	8723.05
210.3	8851.44
210.374	8975.94
210.448	9068.66
210.522	9180.5
210.596	9297.72
210.67	9398.92
210.744	9548.83
210.818	9674.63
210.892	9795.28
210.966	9890.15
211.041	10002.18
211.115	10094.08
211.189	10213.92
211.263	10319.95
211.337	10420.68
211.411	10522.86
211.485	10603.91
211.559	10701.09
211.633	10789.39
211.707	10843.51
211.781	10943.22
211.855	10995.12
211.929	11071.98
212.003	11138.76
212.077	11235.1
212.151	11335.78
212.225	11444.41
212.299	11519.26
212.373	11599.26
212.447	11680.82
212.52	11802.04
212.594	11889.76
212.668	11986.16
212.742	12058.46
212.816	12141.8
212.89	12222.73
212.964	12306.84
213.038	12395.2
213.112	12490.79
213.186	12594.71
213.26	12656.99
213.333	12692.61
213.407	12778.9
213.481	12865.33
213.555	12958.99
213.629	13024.26
213.703	13082.68
213.777	13152.77
213.85	13200.98
213.924	13314.6
213.998	13386.14
214.072	13453.1
214.146	13510.71
214.219	13585.43
214.293	13649.15
214.367	13719.78
214.441	13797.58
214.515	13858.32
214.588	13902.86
214.662	13944.27
214.736	13988.96
214.81	14061.7
214.883	14132.81
214.957	14187.33
215.031	14230.81
215.105	14277.43
215.178	14322.5
215.252	14379.09
215.326	14413.94
215.4	14464.85
215.473	14476.9
215.547	14519.13
215.621	14558.65
215.694	14621.27
215.768	14658.92
215.842	14703.07
215.915	14753.25
215.989	14780.54
216.063	14817.03
216.136	14875.45
216.21	14926.31
216.284	14991.96
216.357	15046.23
216.431	15097.43
216.504	15155.7
216.578	15240.97
216.652	15302.72
216.725	15364.9
216.799	15424.96
216.873	15484.59
216.946	15545.99
217.02	15590
217.093	15636.85
217.167	15667.8
217.24	15710.21
217.314	15753.64
217.387	15799.39
217.461	15830.23
217.535	15902.2
217.608	15949.77
217.682	15996.76
217.755	16058.79
217.829	16105.02
217.902	16153.26
217.976	16196.21
218.049	16233.95
218.123	16262.48
218.196	16314
218.27	16359.89
218.343	16399.65
218.417	16447.65
218.49	16493.78
218.563	16562.26
218.637	16625.25
218.71	16698.56
218.784	16751
218.857	16807.96
218.931	16858.91
219.004	16916.4
219.077	16966.38
219.151	17021.13
219.224	17069.9
219.298	17109.52
219.371	17161.9
219.444	17207.01
219.518	17265.38
219.591	17327.64
219.665	17407.5
219.738	17454.05
219.811	17479.26
219.885	17537.72
219.958	17586.1
220.031	17620.51
220.105	17660.7
220.178	17701.81
220.251	17737.18
220.325	17790.43
220.398	17836.31
220.471	17890.63
220.544	17942.14
220.618	17978.19
220.691	18031.78
220.764	18081.8
220.838	18135.58
220.911	18170.76
220.984	18229.21
221.057	18275.91
221.131	18323.86
221.204	18340.39
221.277	18409.74
221.35	18493.11
221.424	18522.55
221.497	18566.07
221.57	18604.04
221.643	18651.07
221.716	18687.36
221.79	18718.2
221.863	18755.31
221.936	18796.7
222.009	18836.65
222.082	18876.02
222.155	18900.07
222.229	18941.95
222.302	18976.21
222.375	19008.35
222.448	19057.31
222.521	19091.87
222.594	19124.2
222.667	19146.71
222.74	19188.24
222.814	19214.41
222.887	19241.25
222.96	19283.28
223.033	19326.36
223.106	19369.87
223.179	19410.69
223.252	19454.54
223.325	19489.87
223.398	19521.86
223.471	19551.98
223.544	19572.85
223.617	19603.84
223.69	19647.11
223.763	19667.93
223.837	19699.44
223.91	19729.03
223.983	19733.66
224.056	19744.7
224.129	19758.57
224.202	19788.84
224.275	19809.03
224.348	19814.86
224.42	19817.9
224.493	19826.91
224.566	19845.46
224.639	19872.79
224.712	19888.16
224.785	19894.52
224.858	19912.01
224.931	19917.99
225.004	19932.98
225.077	19957.22
225.15	19943.19
225.223	19954.28
225.296	19988.3
225.369	19981.75
225.442	19988.44
225.514	20011.87
225.587	20039.29
225.66	20076.2
225.733	20098.42
225.806	20115.67
225.879	20125.89
225.952	20136.63
226.025	20166.32
226.097	20192.05
226.17	20203.57
226.243	20196.54
226.316	20213.84
226.389	20227.91
226.461	20235.04
226.534	20249.74
226.607	20257.45
226.68	20305.55
226.753	20315.91
226.825	20310.08
226.898	20356.29
226.971	20369.06
227.044	20389.98
227.117	20398.46
227.189	20409.69
227.262	20424.24
227.335	20434.56
227.407	20449.02
227.48	20467.62
227.553	20467.57
227.626	20466.12
227.698	20469.55
227.771	20481.35
227.844	20475.76
227.916	20476.87
227.989	20478.51
228.062	20476.82
228.134	20508.58
228.207	20509.11
228.28	20510.36
228.352	20503.91
228.425	20494.17
228.498	20511.28
228.57	20499.33
228.643	20510.7
228.716	20507.76
228.788	20495.09
228.861	20482.7
228.934	20492.39
229.006	20487.23
229.079	20496.63
229.151	20492.73
229.224	20481.11
229.296	20490.56
229.369	20528.39
229.442	20557.64
229.514	20561.21
229.587	20575.09
229.659	20558.22
229.732	20553.98
229.804	20563.91
229.877	20594.27
229.949	20606.61
230.022	20616.34
230.094	20612.87
230.167	20616.54
230.239	20605.16
230.312	20613.89
230.384	20637.74
230.457	20645.36
230.529	20655.14
230.602	20653.45
230.674	20657.45
230.747	20675.48
230.819	20678.27
230.892	20641.79
230.964	20633.64
231.037	20632.73
231.109	20627.04
231.181	20630.13
231.254	20621.26
231.326	20617.69
231.399	20609.6
231.471	20598.41
231.544	20568.58
231.616	20587.57
231.688	20580.39
231.761	20577.26
231.833	20563.86
231.905	20533.11
231.978	20517.74
232.05	20506.32
232.122	20491.57
232.195	20471.47
232.267	20465.4
232.339	20453.4
232.412	20460.44
232.484	20442.7
232.556	20428.1
232.629	20437.88
232.701	20436.82
232.773	20428
232.846	20415.76
232.918	20401.01
232.99	20389.16
233.062	20396.63
233.135	20380.48
233.207	20353.45
233.279	20347.28
233.351	20344.63
233.424	20332.44
233.496	20306.75
233.568	20315.76
233.64	20299.47
233.713	20284.49
233.785	20272
233.857	20255.96
233.929	20220.49
234.001	20234.46
234.074	20239.48
234.146	20202.42
234.218	20177.4
234.29	20157.45
234.362	20131.48
234.434	20095.86
234.507	20061.89
234.579	20021.07
234.651	19999.29
234.723	20001.22
234.795	19985.94
234.867	19955.63
234.939	19957.51
235.012	19947.53
235.084	19924.64
235.156	19917.03
235.228	19894.42
235.3	19865.32
235.372	19852.02
235.444	19843.63
235.516	19785.08
235.588	19768.69
235.66	19752.98
235.732	19726.53
235.804	19761.9
235.876	19754.67
235.948	19755.68
236.02	19740.89
236.092	19719.44
236.164	19684.65
236.236	19649.42
236.308	19616.7
236.38	19603.74
236.452	19566.49
236.524	19548.27
236.596	19542.88
236.668	19523.12
236.74	19506.88
236.812	19489.24
236.884	19469.58
236.956	19446.5
237.028	19420.04
237.1	19373.73
237.172	19358.02
237.244	19353.49
237.316	19285.73
237.388	19251.86
237.46	19213.98
237.532	19202.99
237.604	19173.88
237.675	19172.1
237.747	19148.83
237.819	19124.83
237.891	19093.55
237.963	19060.11
238.035	19027.92
238.107	18958.28
238.178	18941.32
238.25	18909.08
238.322	18913.8
238.394	18874.29
238.466	18840.75
238.538	18819.5
238.609	18801.76
238.681	18758.25
238.753	18709.96
238.825	18680.57
238.897	18656.23
238.968	18642.54
239.04	18606.93
239.112	18605.77
239.184	18568.52
239.255	18544.81
239.327	18507.95
239.399	18491.18
239.471	18477.54
239.542	18450.55
239.614	18438.6
239.686	18373.26
239.758	18347.76
239.829	18293.31
239.901	18268.4
239.973	18235.58
240.044	18208.78
240.116	18177.27
240.188	18141.56
240.259	18113.99
240.331	18085.94
240.403	18060.98
240.474	18015.25
240.546	17973.18
240.618	17917.81
240.689	17880.36
240.761	17839.83
240.833	17826.34
240.904	17772.94
240.976	17731.98
241.048	17704.51
241.119	17676.9
241.191	17660.56
241.262	17651.16
241.334	17613.28
241.405	17577.62
241.477	17541.14
241.549	17504.08
241.62	17475.41
241.692	17453.91
241.763	17433.43
241.835	17390.68
241.906	17356.95
241.978	17315.6
242.049	17290.44
242.121	17275.84
242.192	17249.67
242.264	17213.19
242.335	17160.65
242.407	17144.51
242.478	17105.09
242.55	17078.87
242.621	17041.71
242.693	17001.13
242.764	16958.38
242.836	16930.29
242.907	16909.56
242.979	16886.96
243.05	16861.03
243.122	16834.76
243.193	16796.5
243.264	16744.45
243.336	16711.14
243.407	16686.18
243.479	16664.35
243.55	16642.71
243.622	16605.79
243.693	16569.69
243.764	16547.42
243.836	16508.29
243.907	16473.49
243.978	16443.99
244.05	16409.96
244.121	16352.42
244.192	16333.09
244.264	16279.01
244.335	16240.4
244.407	16186.76
244.478	16152.11
244.549	16112.44
244.62	16068.67
244.692	16036.67
244.763	16009.34
244.834	15978.11
244.906	15939.55
244.977	15916.17
245.048	15897.14
245.119	15854.67
245.191	15817.32
245.262	15771
245.333	15757.41
245.405	15722.51
245.476	15692.05
245.547	15656.91
245.618	15643.51
245.689	15611.74
245.761	15590.3
245.832	15558.19
245.903	15544.17
245.974	15523.78
246.045	15488.11
246.117	15467.33
246.188	15418.41
246.259	15374.5
246.33	15337.62
246.401	15295.78
246.473	15248.4
246.544	15208.54
246.615	15189.16
246.686	15155.85
246.757	15134.93
246.828	15095.21
246.899	15085.24
246.97	15038.86
247.042	15008.3
247.113	14985.84
247.184	14967.76
247.255	14931.47
247.326	14906.98
247.397	14869
247.468	14833.95
247.539	14810.96
247.61	14765.94
247.681	14752.2
247.752	14744.97
247.823	14713.58
247.894	14691.31
247.965	14647.45
248.037	14609.66
248.108	14563.91
248.179	14539.04
248.25	14504.76
248.321	14484.18
248.392	14437.61
248.463	14436.7
248.534	14401.22
248.605	14374.22
248.675	14347.08
248.746	14328.28
248.817	14302.25
248.888	14278.44
248.959	14232.02
249.03	14209.7
249.101	14189.31
249.172	14160.14
249.243	14110.3
249.314	14097.52
249.385	14075.59
249.456	14056.64
249.527	14025.02
249.598	14012.63
249.669	13988.77
249.739	13965.68
249.81	13943.84
249.881	13903.97
249.952	13874.86
250.023	13848.34
250.094	13806.69
250.165	13767.45
250.235	13736.31
250.306	13705.75
250.377	13674.42
250.448	13664.53
250.519	13617.97
250.59	13609.53
250.66	13585.33
250.731	13572.51
250.802	13548.02
250.873	13519.34
250.944	13505.07
251.014	13473.78
251.085	13463.95
251.156	13435.36
251.227	13434.73
251.297	13424.9
251.368	13415.02
251.439	13412.65
251.51	13401.23
251.58	13373.41
251.651	13346.56
251.722	13333.31
251.792	13293.97
251.863	13264.42
251.934	13255.31
252.005	13259.84
252.075	13225.08
252.146	13203.44
252.217	13192.4
252.287	13172.06
252.358	13144.72
252.429	13139.52
252.499	13111.46
252.57	13094.54
252.641	13080.46
252.711	13043.3
252.782	12994.42
252.852	12991.67
252.923	12953.25
252.994	12936.28
253.064	12934.06
253.135	12900.8
253.205	12875.2
253.276	12872.89
253.347	12866.33
253.417	12833.84
253.488	12809.16
253.558	12786.55
253.629	12763.51
253.699	12742.78
253.77	12731.5
253.841	12711.06
253.911	12681.42
253.982	12666.09
254.052	12651.34
254.123	12631.19
254.193	12608.58
254.264	12627.43
254.334	12593.88
254.405	12558.01
254.475	12515.21
254.546	12479.2
254.616	12481.7
254.687	12461.22
254.757	12445.94
254.827	12415.23
254.898	12405.59
254.968	12387.42
255.039	12356.28
255.109	12348.33
255.18	12318.34
255.25	12271.83
255.321	12254.96
255.391	12225.7
255.461	12228.3
255.532	12173.68
255.602	12152.23
255.673	12119.17
255.743	12091.4
255.813	12043.88
255.884	12044.84
255.954	12039.39
256.024	12035.49
256.095	12014.18
256.165	11982.03
256.235	11971
256.306	11953.07
256.376	11938.56
256.446	11919.28
256.517	11906.65
256.587	11895.08
256.657	11881.44
256.728	11866.45
256.798	11847.27
256.868	11822.2
256.938	11794.15
257.009	11786.1
257.079	11767.25
257.149	11776.75
257.219	11734.29
257.29	11723.73
257.36	11682.04
257.43	11669.46
257.5	11634.56
257.571	11610.32
257.641	11601.55
257.711	11565.83
257.781	11553.49
257.852	11531.66
257.922	11494.55
257.992	11478.88
258.062	11457.2
258.132	11448.47
258.202	11432.09
258.273	11419.17
258.343	11431.17
258.413	11399.51
258.483	11379.84
258.553	11351.26
258.623	11320.95
258.693	11310.2
258.764	11314.1
258.834	11314.15
258.904	11300.13
258.974	11275.89
259.044	11249.53
259.114	11236.9
259.184	11224.61
259.254	11202.78
259.324	11172.66
259.394	11163.98
259.464	11169.91
259.535	11150.2
259.605	11127.6
259.675	11097.87
259.745	11079.74
259.815	11034.15
259.885	11012.37
259.955	11030.01
260.025	11009.44
260.095	10991.61
260.165	10982.74
260.235	10977.49
260.305	10947.66
260.375	10912.19
260.445	10916.33
260.515	10921.01
260.585	10912.72
260.655	10895.81
260.725	10889.73
260.795	10881.49
260.865	10883.61
260.934	10854.7
261.004	10847.09
261.074	10827.28
261.144	10824.87
261.214	10828.1
261.284	10819.09
261.354	10819.24
261.424	10789.74
261.494	10792.73
261.564	10774.66
261.634	10771.86
261.703	10738.23
261.773	10727.58
261.843	10727.87
261.913	10713.46
261.983	10677.42
262.053	10668.31
262.123	10650.73
262.192	10623.84
262.262	10612.81
262.332	10578.93
262.402	10570.69
262.472	10554.5
262.541	10514.23
262.611	10516.11
262.681	10483.58
262.751	10476.31
262.821	10455.21
262.89	10424.8
262.96	10418.78
263.03	10426.01
263.1	10403.7
263.169	10385.44
263.239	10382.07
263.309	10389.44
263.379	10378.45
263.448	10367.9
263.518	10359.37
263.588	10344.49
263.657	10344.87
263.727	10340.25
263.797	10331.58
263.867	10308.5
263.936	10276.51
264.006	10285.09
264.076	10266.49
264.145	10247.32
264.215	10220.34
264.285	10218.27
264.354	10188.5
264.424	10160.7
264.494	10127.8
264.563	10106.84
264.633	10114.07
264.702	10097.93
264.772	10055.87
264.842	10035.3
264.911	10027.16
264.981	9990.59
265.05	9982.07
265.12	9963.38
265.19	9953.93
265.259	9944.73
265.329	9941.89
265.398	9930.86
265.468	9944.25
265.537	9926.96
265.607	9922
265.676	9927.59
265.746	9916.46
265.815	9919.01
265.885	9906.59
265.955	9881.73
266.024	9865.36
266.094	9825.72
266.163	9828.8
266.232	9829.81
266.302	9813.34
266.371	9807.66
266.441	9805.3
266.51	9797.4
266.58	9782.37
266.649	9758.57
266.719	9764.11
266.788	9755.83
266.858	9770.09
266.927	9722.07
266.996	9710.65
267.066	9704.78
267.135	9677.95
267.205	9676.6
267.274	9664.03
267.343	9664.99
267.413	9657.77
267.482	9660.18
267.552	9672.89
267.621	9649.58
267.69	9616.59
267.76	9610.91
267.829	9596.41
267.898	9579.56
267.968	9556.16
268.037	9552.5
268.106	9550.04
268.176	9514.01
268.245	9494.89
268.314	9471.3
268.384	9475.63
268.453	9468.89
268.522	9458.15
268.592	9460.12
268.661	9436.57
268.73	9430.31
268.799	9411.58
268.869	9417.17
268.938	9389.52
269.007	9369.88
269.076	9351.43
269.146	9359.67
269.215	9350.86
269.284	9353.65
269.353	9338.05
269.422	9323.41
269.492	9312
269.561	9269.73
269.63	9271.08
269.699	9255.04
269.768	9241.61
269.838	9237.85
269.907	9235.88
269.976	9213.73
270.045	9178.68
270.114	9174.78
270.183	9159.71
270.253	9151.86
270.322	9122.54
270.391	9109.01
270.46	9115.08
270.529	9124.42
270.598	9118.31
270.667	9112.05
270.736	9091.49
270.806	9088.89
270.875	9095.72
270.944	9078.25
271.013	9103.86
271.082	9094.47
271.151	9092.93
271.22	9066.74
271.289	9055.48
271.358	9038.92
271.427	9032.66
271.496	9032.08
271.565	9014.32
271.634	9004.21
271.703	9036.09
271.772	9043.88
271.841	9039.55
271.91	9008.26
271.979	8996.13
272.048	8972.58
272.117	8968.06
272.186	8953.76
272.255	8952.41
272.324	8948.37
272.393	8945.82
272.462	8925.5
272.531	8919
272.6	8907.16
272.669	8918.23
272.738	8900.08
272.807	8892.77
272.876	8866.97
272.945	8888.87
273.013	8899.85
273.082	8910.83
273.151	8859.79
273.22	8854.49
273.289	8843.71
273.358	8857.87
273.427	8840.49
273.496	8845.16
273.564	8839.67
273.633	8841.02
273.702	8822.97
273.771	8812.71
273.84	8808.82
273.909	8805.2
273.977	8799.33
274.046	8790.38
274.115	8794.09
274.184	8782.54
274.253	8778.73
274.322	8795.05
274.39	8759
274.459	8737.82
274.528	8702.15
274.597	8695.9
274.665	8685.69
274.734	8694.4
274.803	8682.27
274.872	8676.93
274.94	8655.32
275.009	8713.35
275.078	8696.99
275.147	8690.68
275.215	8688.81
275.284	8692.99
275.353	8683.17
275.421	8662.86
275.49	8677.69
275.559	8662.91
275.627	8656.85
275.696	8648.24
275.765	8650.16
275.833	8649.49
275.902	8647.23
275.971	8666.96
276.039	8688.66
276.108	8694.82
276.177	8692.56
276.245	8683.13
276.314	8679.18
276.383	8690.35
276.451	8627.07
276.52	8637.03
276.588	8648.83
276.657	8650.03
276.725	8637.03
276.794	8639.49
276.863	8653.49
276.931	8628.37
277	8637.75
277.068	8652.43
277.137	8668.07
277.205	8660.42
277.274	8677.31
277.342	8688
277.411	8664.03
277.48	8643
277.548	8630.34
277.617	8629.76
277.685	8620.81
277.754	8628.75
277.822	8626.44
277.89	8639.63
277.959	8624.67
278.027	8607.44
278.096	8601.95
278.164	8633.38
278.233	8621.45
278.301	8606.72
278.37	8612.84
278.438	8591.52
278.507	8589.06
278.575	8563.89
278.643	8563.22
278.712	8544.69
278.78	8527.03
278.849	8536.31
278.917	8547.96
278.985	8547.48
279.054	8553.26
279.122	8564.85
279.191	8560.33
279.259	8547.34
279.327	8522.16
279.396	8538.86
279.464	8542.33
279.532	8545.55
279.601	8539.97
279.669	8537.66
279.737	8554.02
279.806	8563.69
279.874	8578.66
279.942	8581.07
280.011	8574.76
280.079	8579.24
280.147	8596.66
280.215	8608.93
280.284	8605.03
280.352	8589.25
280.42	8595.21
280.488	8583.47
280.557	8571.97
280.625	8573.37
280.693	8577.36
280.761	8578.95
280.83	8564.03
280.898	8569.56
280.966	8550.12
281.034	8512.68
281.102	8500.36
281.171	8488.86
281.239	8487.85
281.307	8477.17
281.375	8460.32
281.443	8485.01
281.512	8489.29
281.58	8490.79
281.648	8475.82
281.716	8470.05
281.784	8467.88
281.852	8464.17
281.92	8462.25
281.989	8479.57
282.057	8462.4
282.125	8512.07
282.193	8505.34
282.261	8504.13
282.329	8501.63
282.397	8507.89
282.465	8515.87
282.533	8532.33
282.601	8522.75
282.67	8505.09
282.738	8500.47
282.806	8516.16
282.874	8508.84
282.942	8509.61
283.01	8503.74
283.078	8507.16
283.146	8513.89
283.214	8520.25
283.282	8520.58
283.35	8532.18
283.418	8526.45
283.486	8536.56
283.554	8487.7
283.622	8495.69
283.69	8497.32
283.758	8492.37
283.826	8495.83
283.894	8502.52
283.962	8523.99
284.03	8543.81
284.098	8544.15
284.165	8541.31
284.233	8538.28
284.301	8530.34
284.369	8514.7
284.437	8510.94
284.505	8503
284.573	8514.79
284.641	8503.24
284.709	8507.67
284.777	8489.91
284.845	8495.5
284.912	8496.12
284.98	8500.79
285.048	8492.66
285.116	8500.5
285.184	8512.34
285.252	8509.16
285.319	8491.55
285.387	8481.25
285.455	8460.51
285.523	8464.6
285.591	8456.71
285.659	8461.96
285.726	8474.18
285.794	8459.65
285.862	8455.13
285.93	8455.42
285.997	8450.56
286.065	8450.46
286.133	8444.25
286.201	8444.4
286.269	8423.18
286.336	8419.47
286.404	8414.75
286.472	8419.66
286.539	8391.28
286.607	8372.89
286.675	8379.05
286.743	8390.36
286.81	8384.3
286.878	8401.72
286.946	8397.43
287.013	8402.58
287.081	8397.09
287.149	8376.31
287.216	8396.66
287.284	8394.73
287.352	8393.77
287.419	8387.76
287.487	8396.99
287.555	8397.09
287.622	8393.34
287.69	8403.49
287.758	8411.43
287.825	8409.17
287.893	8401.04
287.96	8414.22
288.028	8426.25
288.096	8425.77
288.163	8430.63
288.231	8416.96
288.298	8417.25
288.366	8431.83
288.433	8422.26
288.501	8414.7
288.569	8420.38
288.636	8418.5
288.704	8429.91
288.771	8442.71
288.839	8435.73
288.906	8438.09
288.974	8450.17
289.041	8447.81
289.109	8440.55
289.176	8447.43
289.244	8442.33
289.311	8455.51
289.379	8460.95
289.446	8465.48
289.514	8464.13
289.581	8455.08
289.649	8461.53
289.716	8459.99
289.783	8447.48
289.851	8473.12
289.918	8476.68
289.986	8485.44
290.053	8483.95
290.121	8481.88
290.188	8483.03
290.255	8516.43
290.323	8509.79
290.39	8507.14
290.458	8519.65
290.525	8531.88
290.592	8525.24
290.66	8533.94
290.727	8527.11
290.794	8544
290.862	8542.85
290.929	8545.54
290.996	8550.02
291.064	8560.85
291.131	8569.08
291.198	8582.94
291.266	8584.86
291.333	8584.81
291.4	8590.97
291.468	8611.38
291.535	8605.8
291.602	8612.87
291.669	8605.8
291.737	8609.98
291.804	8606.37
291.871	8619.51
291.938	8631.93
292.006	8659.37
292.073	8673.47
292.14	8684.54
292.207	8671.59
292.275	8673.42
292.342	8688.29
292.409	8719.48
292.476	8740.85
292.543	8739.17
292.611	8742.92
292.678	8757.56
292.745	8776.61
292.812	8788.31
292.879	8779.12
292.946	8790.47
293.014	8804.63
293.081	8805.25
293.148	8819.55
293.215	8835.91
293.282	8828.69
293.349	8831.68
293.416	8806.84
293.484	8815.12
293.551	8826.72
293.618	8848.09
293.685	8872.2
293.752	8863.83
293.819	8859.06
293.886	8844.72
293.953	8845.2
294.02	8857.23
294.087	8866.67
294.154	8868.35
294.221	8886.41
294.288	8894.97
294.356	8908.02
294.423	8908.74
294.49	8905.32
294.557	8917.89
294.624	8906.82
294.691	8927.47
294.758	8927.18
294.825	8943.64
294.892	8939.4
294.959	8933.58
295.026	8941.81
295.093	8935.7
295.16	8937.29
295.226	8935.99
295.293	8965.84
295.36	8974.69
295.427	8984.71
295.494	9001.95
295.561	9006.61
295.628	9020.53
295.695	9034.69
295.762	9039.21
295.829	9049.42
295.896	9069.11
295.963	9078.78
296.03	9093.75
296.096	9105.12
296.163	9119.9
296.23	9134.29
296.297	9150.61
296.364	9157.83
296.431	9166.6
296.498	9165.15
296.564	9188.6
296.631	9186.48
296.698	9172.76
296.765	9189.17
296.832	9179.69
296.899	9153.21
296.965	9170.49
297.032	9152.43
297.099	9170.97
297.166	9178.14
297.233	9172.7
297.299	9167.84
297.366	9169.62
297.433	9174.58
297.5	9181.71
297.566	9179.98
297.633	9175.74
297.7	9176.36
297.767	9173.67
297.833	9175.11
297.9	9183.06
297.967	9166.45
298.033	9186.19
298.1	9211.18
298.167	9204.15
298.234	9208.77
298.3	9226.2
298.367	9222.2
298.434	9234.67
298.5	9218.11
298.567	9213.82
298.634	9214.88
298.7	9228.75
298.767	9229.23
298.834	9241.51
298.9	9230.77
298.967	9223.31
299.033	9238.24
299.1	9258.41
299.167	9275.6
299.233	9273.82
299.3	9283.74
299.366	9299.43
299.433	9320.62
299.5	9295.15
299.566	9303.48
299.633	9319.22
299.699	9329.14
299.766	9330.25
299.832	9333.24
299.899	9346
299.965	9359.19
300.032	9353.41
300.099	9360.06
300.165	9364.87
300.232	9360.06
300.298	9359.72
300.365	9379.41
300.431	9372.53
300.498	9365.21
300.564	9369.93
300.631	9379.22
300.697	9394.49
300.763	9395.5
300.83	9383.75
300.896	9398.38
300.963	9404.64
301.029	9413.22
301.096	9416.59
301.162	9428.24
301.229	9421.79
301.295	9413.55
301.361	9417.69
301.428	9424
301.494	9413.02
301.561	9417.74
301.627	9416.68
301.693	9421.55
301.76	9424
301.826	9423.09
301.892	9430.99
301.959	9439.41
302.025	9436.48
302.092	9425.93
302.158	9432.38
302.224	9440.71
302.291	9430.22
302.357	9430.6
302.423	9414.47
302.49	9402.96
302.556	9413.65
302.622	9414.13
302.688	9421.35
302.755	9433.64
302.821	9444.23
302.887	9454.29
302.954	9448.37
303.02	9458.72
303.086	9471.05
303.152	9467.49
303.219	9468.11
303.285	9469.9
303.351	9478.95
303.417	9483.19
303.483	9474.66
303.55	9471.97
303.616	9468.93
303.682	9469.75
303.748	9461.04
303.815	9482.71
303.881	9497.73
303.947	9488.25
304.013	9487.57
304.079	9486.42
304.145	9466.33
304.212	9462.38
304.278	9450.01
304.344	9446.59
304.41	9436.53
304.476	9422.95
304.542	9417.55
304.608	9422.8
304.674	9408.84
304.741	9398.43
304.807	9396.27
304.873	9402.48
304.939	9419.29
305.005	9402.77
305.071	9398.72
305.137	9397.57
305.203	9374.45
305.269	9365.54
305.335	9366.46
305.401	9373.44
305.467	9376.57
305.533	9387.16
305.599	9398
305.666	9407.2
305.732	9413.74
305.798	9425.83
305.864	9449.04
305.93	9454
305.996	9449.81
306.062	9451.84
306.128	9450.97
306.194	9440.71
306.259	9439.7
306.325	9430.17
306.391	9437.58
306.457	9446.2
306.523	9452.46
306.589	9476.15
306.655	9473.27
306.721	9467.05
306.787	9448.32
306.853	9451.07
306.919	9434.6
306.985	9421.69
307.051	9416.64
307.117	9404.12
307.183	9396.99
307.248	9372.91
307.314	9379.89
307.38	9383.75
307.446	9391.79
307.512	9381.15
307.578	9383.02
307.644	9376.86
307.709	9370.79
307.775	9372.24
307.841	9367.04
307.907	9372.58
307.973	9351.24
308.039	9344.69
308.104	9344.45
308.17	9350.28
308.236	9334.58
308.302	9336.79
308.368	9328.18
308.433	9327.79
308.499	9326.3
308.565	9315.51
308.631	9323.12
308.696	9298.9
308.762	9287.97
308.828	9281.47
308.894	9261.54
308.959	9243.44
309.025	9238.96
309.091	9239.05
309.156	9225.52
309.222	9230.34
309.288	9215.22
309.354	9195.57
309.419	9200.92
309.485	9190.09
309.551	9193.41
309.616	9183.35
309.682	9184.02
309.748	9177.81
309.813	9173.38
309.879	9164.52
309.945	9148.64
310.01	9135.3
310.076	9134.86
310.141	9129.86
310.207	9113.68
310.273	9120.61
310.338	9129.85
310.404	9114.4
310.469	9097.93
310.535	9086.14
310.601	9067.31
310.666	9068.04
310.732	9074.73
310.797	9058.31
310.863	9043.24
310.928	9024.66
310.994	9033.61
311.059	9021.19
311.125	9018.64
311.191	9030.97
311.256	9017.54
311.322	9025.53
311.387	9003.48
311.453	9403.1
311.518	9378.22
311.584	9374.65
311.649	9379.47
311.715	9363.53
311.78	9366.42
311.846	9366.57
311.911	9376.48
311.976	9375.47
312.042	9356.99
312.107	9338.7
312.173	9337.93
312.238	9337.54
312.304	9343.27
312.369	9327.82
312.434	9315.97
312.5	9307.07
312.565	9271.06
312.631	9281.98
312.696	9279.87
312.761	9282.51
312.827	8875.24
312.892	8910.38
312.958	8908.31
313.023	8898.05
313.088	8901.42
313.154	8885.01
313.219	8870.62
313.284	8854.35
313.35	8854.83
313.415	8847.56
313.48	8847.46
313.546	8844.19
313.611	8850.35
313.676	8836.2
313.741	8829.75
313.807	8840.92
313.872	8848.76
313.937	8857.81
314.003	8870.91
314.068	8869.61
314.133	8881.11
314.198	8875.91
314.264	8856.08
314.329	8850.11
314.394	8853.77
314.459	8849.34
314.525	8874.46
314.59	8874.37
314.655	8868.93
314.72	8874.66
314.785	8882.17
314.851	8875.81
314.916	8855.74
314.981	8840.92
315.046	8834.47
315.111	8825.61
315.176	8814.97
315.242	8816.37
315.307	8811.22
315.372	8784.7
315.437	8777.62
315.502	8767.94
315.567	8778.39
315.632	8759.33
315.698	8753.7
315.763	8750.71
315.828	8742.39
315.893	8727.95
315.958	8723.04
316.023	8713.56
316.088	8691.27
316.153	8665.77
316.218	8664.85
316.283	8649.94
316.348	8635.45
316.413	8639.59
316.479	8622.27
316.544	8588.49
316.609	8557.21
316.674	8523.86
316.739	8484.65
316.804	8454.43
316.869	8419.4
316.934	8376.33
316.999	8354.49
317.064	8308.74
317.129	8263.65
317.194	8233.96
317.259	8189.36
317.324	8141.6
317.389	8099.94
317.454	8064.58
317.518	8030.05
317.583	8003.01
317.648	7985.36
317.713	7948.37
317.778	7880.02
317.843	7856.21
317.908	7821.06
317.973	7784.9
318.038	7761.04
318.103	7731.48
318.168	7695.8
318.233	7664.49
318.297	7620.26
318.362	7581.12
318.427	7540.65
318.492	7515.55
318.557	7465.94
318.622	7442.34
318.687	7418.06
318.751	7381.54
318.816	7353.85
318.881	7325.49
318.946	7270.84
319.011	7223.45
319.075	7186.59
319.14	7161.12
319.205	7115.13
319.27	7085.82
319.335	7041.05
319.399	7000.97
319.464	6975.41
319.529	6925.12
319.594	6886.39
319.658	6856.23
319.723	6816.94
319.788	6790.96
319.853	6739.07
319.917	6709.93
319.982	6656.09
320.047	6623.04
320.112	6595.05
320.176	6542.75
320.241	6507.51
320.306	6480.57
320.37	6440.05
320.435	6413.07
320.5	6384.89
320.564	6345.43
320.629	6300.99
320.694	6276.18
320.758	6236.05
320.823	6193.77
320.888	6167.86
320.952	6123.18
321.017	6080.19
321.082	6042.39
321.146	6007.89
321.211	5975.65
321.275	5937.71
321.34	5892.15
321.405	5842.03
321.469	5797.24
321.534	5751.64
321.598	5704.74
321.663	5673.17
321.727	5643.21
321.792	5590.46
321.857	5545.05
321.921	5506.94
321.986	5466.21
322.05	5400.89
322.115	5361.11
322.179	5315.63
322.244	5264.27
322.308	5229.62
322.373	5182.63
322.437	5141.62
322.502	5117.65
322.566	5071.57
322.631	5034.78
322.695	5002.36
322.76	4964.48
322.824	4927.9
322.889	4892.57
322.953	4850.39
323.018	4786.33
323.082	4725.68
323.146	4676.73
323.211	4625.08
323.275	4581.77
323.34	4539.86
323.404	4510.26
323.468	4469.15
323.533	4427.39
323.597	4377.95
323.662	4326.39
323.726	4295.64
323.79	4250.49
323.855	4186.29
323.919	4135.95
323.983	4092.1
324.048	4025.97
324.112	4189.7
324.177	4067.47
324.241	3855.59
324.305	3649.45
324.37	3447.37
324.434	3252.46
324.498	3210.73
324.562	3162.07
324.627	3105.21
324.691	3049.52
324.755	2987.62
324.82	2909.24
324.884	2835.07
324.948	2768.86
325.012	2679.5
325.077	2559.39
