Data from 20250703_urea_0.1M_MAYP1162681_06-31-05-161.txt Node
Date: Fri Jul 04 06:31:05 BST 2025
User: adleo
Spectrometer: MAYP116268
Trigger mode: 0
Integration Time (sec): 1.000000E0
Scans to average: 1
Electric dark correction enabled: true
Nonlinearity correction enabled: true
Boxcar width: 10
XAxis mode: Wavelengths
Number of Pixels in Spectrum: 2068
>>>>>Begin Spectral Data<<<<<
179.565	1258.99
179.642	1317.85
179.718	1364.67
179.795	1402.51
179.871	1436.38
179.948	1454.03
180.024	1474.6
180.101	1499.26
180.177	1514.49
180.254	1539.68
180.33	1561.76
180.407	1619.31
180.483	1719.41
180.56	1812.11
180.636	1899.85
180.712	1886.77
180.789	1900.6
180.865	1916.72
180.942	1923.47
181.018	1934.97
181.095	1947.48
181.171	1953.28
181.248	1955.33
181.324	1969.79
181.4	1979.25
181.477	1990.42
181.553	2005.02
181.63	2025.56
181.706	2039.26
181.782	2048.34
181.859	2046.29
181.935	2053.43
182.011	2049.1
182.088	2066.03
182.164	2087.59
182.24	2102.57
182.317	2111.12
182.393	2105.51
182.469	2118.74
182.546	2134.81
182.622	2138.33
182.698	2132.86
182.775	2141.9
182.851	2157.08
182.927	2149.32
183.003	2144.52
183.08	2138.95
183.156	2150.61
183.232	2145.66
183.308	2136.15
183.385	2142.33
183.461	2163.6
183.537	2163.41
183.613	2175.82
183.69	2166.69
183.766	2154.41
183.842	2162.17
183.918	2168.87
183.995	2184.14
184.071	2187.19
184.147	2180.72
184.223	2168.74
184.299	2182.54
184.375	2170.22
184.452	2175.64
184.528	2229.18
184.604	2240.31
184.68	2250.78
184.756	2256.87
184.832	2267.39
184.908	2274.38
184.985	2274.28
185.061	2253.73
185.137	2264.53
185.213	2253.78
185.289	2254.78
185.365	2248.21
185.441	2245.31
185.517	2258.78
185.593	2253.98
185.669	2251.45
185.745	2264.87
185.822	2283.14
185.898	2271.29
185.974	2284.46
186.05	2276.37
186.126	2241.25
186.202	2235.06
186.278	2235.16
186.354	2224.21
186.43	2226.83
186.506	2222.88
186.582	2226.12
186.658	2235.63
186.734	2213.8
186.81	2216.08
186.886	2217.6
186.962	2231.3
187.038	2231.49
187.114	2223.78
187.19	2231.01
187.266	2217.93
187.341	2217.03
187.417	2208.7
187.493	2211.75
187.569	2212.89
187.645	2208.04
187.721	2193.85
187.797	2200.7
187.873	2203.84
187.949	2200.32
188.025	2193.95
188.101	2196.8
188.176	2197.28
188.252	2188.86
188.328	2197.04
188.404	2200.41
188.48	2196.75
188.556	2187.23
188.632	2183.9
188.707	2185.33
188.783	2186.52
188.859	2182.58
188.935	2171.11
189.011	2181.1
189.086	2173.44
189.162	2165.4
189.238	2159.26
189.314	2158.5
189.39	2153.36
189.465	2143.37
189.541	2155.89
189.617	2141.47
189.693	2137.19
189.768	2141.05
189.844	2169.51
189.92	2162.8
189.996	2170.84
190.071	2183.6
190.147	2186.59
190.223	2194.82
190.298	2184.07
190.374	2168.37
190.45	2184.49
190.526	2195.29
190.601	2188.39
190.677	2189.68
190.753	2218
190.828	2222.71
190.904	2236.75
190.98	2251.93
191.055	2264.07
191.131	2256.98
191.207	2278.43
191.282	2287.38
191.358	2280.43
191.433	2263.2
191.509	2274.56
191.585	2270.99
191.66	2273.71
191.736	2280.13
191.811	2272.52
191.887	2291.7
191.963	2314.16
192.038	2315.35
192.114	2315.35
192.189	2320.87
192.265	2319.87
192.34	2294.73
192.416	2294.21
192.491	2291.55
192.567	2293.59
192.642	2295.02
192.718	2293.31
192.793	2278.94
192.869	2276.08
192.944	2278.94
193.02	2288.46
193.095	2294.83
193.171	2300.92
193.246	2294.4
193.322	2290.31
193.397	2289.55
193.473	2274.03
193.548	2254.66
193.624	2260.37
193.699	2257.61
193.775	2273.7
193.85	2274.23
193.925	2284.27
194.001	2283.51
194.076	2273.75
194.152	2262.8
194.227	2257
194.302	2250.15
194.378	2257
194.453	2252.24
194.529	2264.9
194.604	2247.67
194.679	2238.3
194.755	2218.56
194.83	2234.74
194.905	2232.46
194.981	2243.22
195.056	2234.61
195.131	2246.22
195.207	2246.07
195.282	2237.32
195.357	2215.66
195.433	2235.03
195.508	2225.03
195.583	2232.93
195.659	2250.88
195.734	2257.4
195.809	2257.35
195.884	2267.96
195.96	2268.96
196.035	2287.28
196.11	2282.99
196.185	2297.46
196.261	2305.17
196.336	2337.29
196.411	2320.77
196.486	2325.2
196.561	2316.87
196.637	2326.14
196.712	2338.86
196.787	2340.19
196.862	2352.85
196.937	2366.6
197.013	2369.32
197.088	2380.79
197.163	2404.74
197.238	2418.7
197.313	2417.41
197.388	2430.41
197.464	2459.17
197.539	2467.31
197.614	2457.89
197.689	2471.03
197.764	2490.56
197.839	2510.08
197.914	2505.6
197.989	2529.65
198.065	2547.36
198.14	2602.69
198.215	2632.36
198.29	2645.7
198.365	2661.52
198.44	2675.85
198.515	2702.48
198.59	2715.73
198.665	2741.41
198.74	2748.7
198.815	2753.8
198.89	2778.38
198.965	2809.93
199.04	2809.03
199.115	2827.13
199.19	2872.87
199.265	2875.15
199.34	2883.97
199.415	2917.73
199.49	2934.79
199.565	2946.13
199.64	2968.87
199.715	2963.24
199.79	2971.92
199.865	2979.64
199.94	2979.59
200.015	3012.78
200.09	3016.02
200.165	3026.27
200.24	3032.04
200.315	3073.65
200.39	3087.25
200.464	3095.07
200.539	3096.02
200.614	3113.33
200.689	3138.8
200.764	3144.66
200.839	3164.97
200.914	3170.02
200.989	3160.48
201.063	3178.03
201.138	3158.3
201.213	3159.73
201.288	3138.99
201.363	3143.66
201.438	3143.09
201.512	3156.1
201.587	3134.78
201.662	3139.03
201.737	3150.19
201.812	3162.31
201.886	3128.18
201.961	3140.11
202.036	3130.57
202.111	3129.29
202.186	3097.78
202.26	3080.23
202.335	3058.72
202.41	3053.23
202.485	3037.83
202.559	3018.72
202.634	2991.97
202.709	3006.07
202.784	2987.34
202.858	2991.39
202.933	2973.41
203.008	2970.12
203.082	2954.2
203.157	2958.02
203.232	2920.47
203.306	2904.54
203.381	2873.93
203.456	2853.67
203.53	2834.11
203.605	2819.01
203.68	2803.03
203.754	2802.94
203.829	2798.7
203.904	2787.4
203.978	2785.88
204.053	2802.28
204.127	2801.8
204.202	2816.05
204.277	2809.28
204.351	2818.34
204.426	2826.83
204.5	2834.88
204.575	2815.2
204.65	2842.81
204.724	2855.92
204.799	2888.23
204.873	2907.64
204.948	2931.14
205.022	2949.49
205.097	2966.95
205.171	3009.19
205.246	3045.5
205.32	3077.81
205.395	3109.49
205.469	3136.52
205.544	3176.71
205.618	3193.64
205.693	3242.41
205.767	3268.32
205.842	3337.67
205.916	3374.8
205.991	3414.23
206.065	3468.37
206.14	3536.74
206.214	3589.05
206.289	3635.67
206.363	3701.01
206.438	3762.66
206.512	3830.08
206.586	3913.41
206.661	3988.48
206.735	4030.62
206.81	4102.32
206.884	4188.18
206.958	4242.77
207.033	4331.69
207.107	4417.18
207.181	4527.62
207.256	4601.65
207.33	4702.62
207.405	4792.77
207.479	4892
207.553	4979.66
207.628	5043.66
207.702	5140.17
207.776	5219.84
207.851	5308.76
207.925	5412.34
207.999	5494.02
208.073	5580.78
208.148	5671.8
208.222	5748.11
208.296	5876.16
208.371	5982.8
208.445	6090.48
208.519	6221.65
208.593	6330.25
208.668	6417.01
208.742	6516.15
208.816	6614.6
208.89	6728.01
208.965	6819.49
209.039	6933.11
209.113	7048.16
209.187	7172.21
209.261	7265.56
209.336	7389.8
209.41	7510.39
209.484	7612.61
209.558	7738.2
209.632	7855.32
209.707	7972.33
209.781	8102.81
209.855	8221.78
209.929	8347.24
210.003	8453.58
210.077	8549.05
210.151	8702.21
210.226	8834.57
210.3	8963.31
210.374	9092.88
210.448	9190.99
210.522	9305.43
210.596	9408.28
210.67	9522.73
210.744	9671.48
210.818	9805.01
210.892	9918.53
210.966	10015.24
211.041	10131.17
211.115	10226.84
211.189	10345.24
211.263	10453.83
211.337	10545.37
211.411	10645.58
211.485	10723.79
211.559	10824.15
211.633	10923.45
211.707	10982.29
211.781	11085.76
211.855	11143.93
211.929	11225.85
212.003	11305.17
212.077	11405.37
212.151	11508.55
212.225	11600.99
212.299	11678.55
212.373	11756.92
212.447	11842.04
212.52	11962.63
212.594	12048.24
212.668	12144.83
212.742	12217.18
212.816	12296.04
212.89	12377.89
212.964	12462.63
213.038	12545.93
213.112	12640.79
213.186	12740.86
213.26	12796.93
213.333	12836.16
213.407	12920.28
213.481	13000.83
213.555	13090.83
213.629	13156.25
213.703	13224.41
213.777	13307.23
213.85	13364.54
213.924	13469.73
213.998	13545.75
214.072	13610.54
214.146	13673.45
214.219	13748.27
214.293	13816.72
214.367	13892.74
214.441	13977.68
214.515	14048.78
214.588	14102.53
214.662	14137.05
214.736	14171.13
214.81	14244.21
214.883	14325.1
214.957	14380.87
215.031	14429.37
215.105	14470.34
215.178	14523.03
215.252	14569.26
215.326	14604.11
215.4	14644.12
215.473	14661.86
215.547	14701.49
215.621	14748.77
215.694	14807.53
215.768	14839.64
215.842	14891.46
215.915	14935.56
215.989	14960.82
216.063	14999.43
216.136	15055.39
216.21	15117.19
216.284	15194.26
216.357	15254.04
216.431	15297.32
216.504	15360.8
216.578	15445.93
216.652	15511.05
216.725	15568.94
216.799	15634.15
216.873	15694.69
216.946	15761.31
217.02	15812.21
217.093	15869.08
217.167	15892.55
217.24	15933.23
217.314	15979.17
217.387	16024.14
217.461	16065.25
217.535	16133.89
217.608	16174.57
217.682	16220.69
217.755	16273.76
217.829	16310.15
217.902	16360.37
217.976	16406.59
218.049	16444.62
218.123	16475.32
218.196	16530.21
218.27	16564.19
218.343	16602.56
218.417	16641.88
218.49	16689.5
218.563	16745.41
218.637	16785.7
218.71	16856.59
218.784	16915.49
218.857	16973.61
218.931	17015.73
219.004	17065.47
219.077	17111.83
219.151	17163.83
219.224	17216.56
219.298	17255.21
219.371	17318.34
219.444	17359.74
219.518	17415.45
219.591	17464.66
219.665	17533.33
219.738	17576.8
219.811	17616.08
219.885	17669.33
219.958	17724.94
220.031	17766.77
220.105	17826
220.178	17881.28
220.251	17920.6
220.325	17964.74
220.398	18009.37
220.471	18066.76
220.544	18112.06
220.618	18153.85
220.691	18203.53
220.764	18242.42
220.838	18299.09
220.911	18326.56
220.984	18388.63
221.057	18434.31
221.131	18477.35
221.204	18494.6
221.277	18551.85
221.35	18632.28
221.424	18667.55
221.497	18709.53
221.57	18747.02
221.643	18793.28
221.716	18840.56
221.79	18877.52
221.863	18921.03
221.936	18960.31
222.009	18995.2
222.082	19042.18
222.155	19077.94
222.229	19129.74
222.302	19172.05
222.375	19207.33
222.448	19259.32
222.521	19295.18
222.594	19330.55
222.667	19360.86
222.74	19403.27
222.814	19430.16
222.887	19451.65
222.96	19496.27
223.033	19532.56
223.106	19566.68
223.179	19592.85
223.252	19623.69
223.325	19648.84
223.398	19672.41
223.471	19702.58
223.544	19735.39
223.617	19760.69
223.69	19793.99
223.763	19796.79
223.837	19824.5
223.91	19851.15
223.983	19858.67
224.056	19861.61
224.129	19880.21
224.202	19913.31
224.275	19926.42
224.348	19935.43
224.42	19944.54
224.493	19944.73
224.566	19952.4
224.639	19986.52
224.712	19993.7
224.785	20006.03
224.858	20030.9
224.931	20044.01
225.004	20061.5
225.077	20075.33
225.15	20071
225.223	20078.47
225.296	20124.68
225.369	20119.67
225.442	20136.63
225.514	20151.33
225.587	20168.15
225.66	20191.76
225.733	20202.51
225.806	20222.9
225.879	20242.08
225.952	20240.34
226.025	20276.87
226.097	20321.4
226.17	20327.43
226.243	20330.08
226.316	20336.58
226.389	20354.41
226.461	20371.86
226.534	20375.86
226.607	20386.9
226.68	20418.75
226.753	20439.33
226.825	20428.63
226.898	20462.61
226.971	20461.98
227.044	20476.77
227.117	20496.05
227.189	20503.09
227.262	20526.99
227.335	20544.63
227.407	20556.78
227.48	20575.91
227.553	20581.02
227.626	20574.27
227.698	20587.91
227.771	20605.93
227.844	20603.33
227.916	20604.05
227.989	20601.02
228.062	20608.24
228.134	20637.88
228.207	20637.98
228.28	20625.59
228.352	20628.97
228.425	20629.45
228.498	20644.68
228.57	20642.37
228.643	20655.62
228.716	20654.61
228.788	20656.34
228.861	20646.37
228.934	20646.85
229.006	20650.99
229.079	20649.74
229.151	20639.23
229.224	20625.55
229.296	20627.43
229.369	20661.5
229.442	20679.33
229.514	20673.11
229.587	20688.15
229.659	20665.74
229.732	20671.86
229.804	20678.66
229.877	20704.06
229.949	20726.61
230.022	20752.25
230.094	20750.56
230.167	20748.59
230.239	20739.05
230.312	20727.24
230.384	20759.72
230.457	20763.48
230.529	20764.06
230.602	20756.73
230.674	20764.64
230.747	20770.13
230.819	20777.6
230.892	20742.32
230.964	20743.96
231.037	20753.6
231.109	20736.3
231.181	20736.64
231.254	20720.64
231.326	20722.37
231.399	20707.77
231.471	20682.66
231.544	20646.95
231.616	20662.27
231.688	20659.14
231.761	20648.58
231.833	20633.16
231.905	20592
231.978	20593.45
232.05	20589.5
232.122	20586.22
232.195	20563.43
232.267	20567.86
232.339	20547.62
232.412	20549.4
232.484	20524.77
232.556	20504.53
232.629	20529.06
232.701	20530.37
232.773	20524
232.846	20505.84
232.918	20498.56
232.99	20489.79
233.062	20486.36
233.135	20466.36
233.207	20441.3
233.279	20437.06
233.351	20424.53
233.424	20399.76
233.496	20373.55
233.568	20374.37
233.64	20348.34
233.713	20342.41
233.785	20320.97
233.857	20306.94
233.929	20273.45
234.001	20270.27
234.074	20265.11
234.146	20212.2
234.218	20194.51
234.29	20170.75
234.362	20147.96
234.434	20106.27
234.507	20076.06
234.579	20043.48
234.651	20016.01
234.723	20004.35
234.795	19998.23
234.867	19987
234.939	19998.08
235.012	19980.88
235.084	19966.66
235.156	19957.65
235.228	19922.23
235.3	19898.38
235.372	19886.28
235.444	19881.7
235.516	19838.14
235.588	19817.41
235.66	19813.32
235.732	19773.71
235.804	19820.5
235.876	19808.6
235.948	19801.71
236.02	19781.47
236.092	19760.74
236.164	19740.79
236.236	19712.65
236.308	19679.4
236.38	19652.03
236.452	19604.95
236.524	19584.42
236.596	19572.13
236.668	19552.51
236.74	19543.17
236.812	19529.67
236.884	19512.81
236.956	19489.48
237.028	19461.53
237.1	19442.06
237.172	19433.15
237.244	19428.43
237.316	19357.97
237.388	19332.57
237.46	19303.61
237.532	19291.47
237.604	19262.12
237.675	19245.98
237.747	19221.01
237.819	19185.84
237.891	19158.61
237.963	19136.63
238.035	19102.47
238.107	19027.34
238.178	19009.22
238.25	18967.97
238.322	18963.68
238.394	18911.88
238.466	18884.89
238.538	18859.11
238.609	18829.71
238.681	18772.32
238.753	18728.61
238.825	18699.17
238.897	18664.66
238.968	18644.57
239.04	18601.15
239.112	18584.33
239.184	18542.45
239.255	18515.37
239.327	18492.58
239.399	18468.53
239.471	18446.31
239.542	18419.81
239.614	18412.29
239.686	18354.8
239.758	18337.5
239.829	18287.82
239.901	18270.61
239.973	18233.22
240.044	18204.98
240.116	18169.85
240.188	18133.56
240.259	18104.4
240.331	18071.1
240.403	18048.69
240.474	18006.72
240.546	17969.37
240.618	17930.05
240.689	17900.36
240.761	17872.51
240.833	17856.07
240.904	17823.01
240.976	17788.27
241.048	17761.57
241.119	17744.61
241.191	17719.21
241.262	17715.79
241.334	17670.34
241.405	17633.57
241.477	17597.91
241.549	17564.71
241.62	17537.14
241.692	17524.56
241.763	17503.26
241.835	17463.65
241.906	17433.57
241.978	17381.04
242.049	17368.51
242.121	17348.85
242.192	17324.9
242.264	17274.54
242.335	17218.92
242.407	17195.02
242.478	17158.44
242.55	17122.19
242.621	17074.34
242.693	17036.07
242.764	16981.66
242.836	16944.26
242.907	16919.44
242.979	16894.14
243.05	16870.91
243.122	16837.22
243.193	16789.46
243.264	16731.77
243.336	16700.35
243.407	16675.04
243.479	16674.32
243.55	16647.91
243.622	16613.45
243.693	16582.08
243.764	16573.88
243.836	16541.45
243.907	16502.74
243.978	16466.45
244.05	16437.44
244.121	16389.05
244.192	16364.85
244.264	16323.69
244.335	16293.28
244.407	16236.5
244.478	16204.11
244.549	16165.07
244.62	16119.38
244.692	16095.57
244.763	16078.8
244.834	16041.97
244.906	15998.5
244.977	15963.02
245.048	15935.21
245.119	15896.85
245.191	15851.54
245.262	15793.65
245.333	15778.85
245.405	15740.15
245.476	15715.91
245.547	15686.12
245.618	15664.09
245.689	15638.64
245.761	15605.57
245.832	15578.92
245.903	15567.74
245.974	15543.88
246.045	15504.69
246.117	15494.52
246.188	15441.26
246.259	15395.66
246.33	15361.67
246.401	15329.38
246.473	15280.7
246.544	15243.1
246.615	15221.94
246.686	15188.82
246.757	15169.83
246.828	15120.9
246.899	15111.02
246.97	15064.17
247.042	15026.09
247.113	15008.4
247.184	15003
247.255	14973.6
247.326	14945.25
247.397	14905.68
247.468	14880.03
247.539	14859.11
247.61	14811.78
247.681	14801.03
247.752	14791.63
247.823	14759.28
247.894	14731.85
247.965	14696.23
248.037	14656.03
248.108	14610.67
248.179	14574.22
248.25	14536.62
248.321	14515.99
248.392	14475.16
248.463	14467.69
248.534	14437.32
248.605	14413.37
248.675	14375.33
248.746	14347.33
248.817	14328.81
248.888	14308.81
248.959	14259.69
249.03	14239.01
249.101	14204.2
249.172	14172.39
249.243	14114.83
249.314	14102.54
249.385	14075.64
249.456	14052.45
249.527	14023.72
249.598	14000.29
249.669	13977.87
249.739	13962.01
249.81	13943.02
249.881	13901.71
249.952	13880.06
250.023	13855.53
250.094	13804.77
250.165	13762.39
250.235	13733.76
250.306	13703.63
250.377	13668.25
250.448	13645.4
250.519	13600.03
250.59	13593.96
250.66	13566.82
250.731	13566.34
250.802	13534.42
250.873	13508.92
250.944	13492.29
251.014	13471.56
251.085	13473.3
251.156	13459.03
251.227	13445.48
251.297	13435.75
251.368	13426.1
251.439	13408.75
251.51	13394.38
251.58	13368.64
251.651	13343.96
251.722	13337.11
251.792	13296.96
251.863	13267.99
251.934	13264.47
252.005	13276.42
252.075	13251.6
252.146	13236.94
252.217	13224.26
252.287	13210.67
252.358	13192.5
252.429	13188.25
252.499	13149.88
252.57	13123.8
252.641	13106.69
252.711	13079.89
252.782	13035.34
252.852	13037.66
252.923	13011.53
252.994	12990.37
253.064	12978.27
253.135	12946.55
253.205	12908.61
253.276	12899.02
253.347	12893.04
253.417	12863.34
253.488	12832.44
253.558	12813.74
253.629	12789.98
253.699	12767.94
253.77	12757.44
253.841	12731.55
253.911	12705.23
253.982	12689.03
254.052	12676.07
254.123	12662.33
254.193	12643.33
254.264	12661.07
254.334	12618.22
254.405	12582.74
254.475	12551.65
254.546	12530.73
254.616	12528.85
254.687	12520.65
254.757	12509.47
254.827	12490.04
254.898	12471.63
254.968	12441.6
255.039	12406.46
255.109	12395.23
255.18	12363.36
255.25	12317.57
255.321	12306.87
255.391	12267.54
255.461	12267.54
255.532	12220.49
255.602	12194.99
255.673	12148.67
255.743	12114.01
255.813	12073.04
255.884	12061.66
255.954	12044.31
256.024	12044.46
256.095	12020.69
256.165	11989.36
256.235	11972.54
256.306	11944.77
256.376	11929.59
256.446	11927.04
256.517	11921.73
256.587	11906.94
256.657	11890.74
256.728	11874.06
256.798	11855.27
256.868	11839.26
256.938	11812.95
257.009	11808.13
257.079	11793.09
257.149	11810.97
257.219	11773.61
257.29	11765.23
257.36	11730.29
257.43	11727.06
257.5	11688.01
257.571	11664.73
257.641	11651.14
257.711	11614.13
257.781	11601.69
257.852	11593.88
257.922	11553.64
257.992	11526.6
258.062	11508.33
258.132	11502.74
258.202	11479.8
258.273	11463.12
258.343	11468.57
258.413	11441.97
258.483	11416.71
258.553	11387.89
258.623	11355.07
258.693	11344.61
258.764	11338.06
258.834	11334.88
258.904	11318.63
258.974	11288.47
259.044	11271.65
259.114	11258.92
259.184	11250.83
259.254	11230.15
259.324	11191.6
259.394	11178.97
259.464	11179.02
259.535	11159.45
259.605	11133.57
259.675	11114.78
259.745	11098.2
259.815	11060.61
259.885	11033.43
259.955	11045.05
260.025	11016.09
260.095	10994.84
260.165	10982.26
260.235	10981.05
260.305	10959.13
260.375	10926.74
260.445	10936.86
260.515	10940.48
260.585	10936.43
260.655	10915.32
260.725	10906.6
260.795	10897.88
260.865	10906.65
260.934	10881.4
261.004	10873.73
261.074	10854.27
261.144	10852.92
261.214	10846.61
261.284	10835.52
261.354	10833.11
261.424	10807.04
261.494	10812.15
261.564	10798.7
261.634	10785.79
261.703	10751.24
261.773	10745.65
261.843	10742.9
261.913	10720.64
261.983	10681.13
262.053	10665.28
262.123	10646.82
262.192	10616.04
262.262	10611.65
262.332	10576.04
262.402	10565.39
262.472	10550.84
262.541	10520.68
262.611	10511.29
262.681	10483.34
262.751	10478.04
262.821	10464.26
262.89	10439.93
262.96	10432.99
263.03	10442
263.1	10430.24
263.169	10416.71
263.239	10405.67
263.309	10404.85
263.379	10395.6
263.448	10379.71
263.518	10369.2
263.588	10358.55
263.657	10367.8
263.727	10356
263.797	10337.02
263.867	10323.87
263.936	10295.25
264.006	10295.63
264.076	10278.97
264.145	10261.14
264.215	10233.15
264.285	10220.34
264.354	10182.33
264.424	10154.73
264.494	10120.23
264.563	10098.94
264.633	10106.65
264.702	10095.56
264.772	10057.12
264.842	10038.24
264.911	10033.9
264.981	10008.8
265.05	9994.3
265.12	9976.58
265.19	9966.22
265.259	9966.31
265.329	9959.28
265.398	9948.97
265.468	9965.11
265.537	9953.69
265.607	9950.9
265.676	9947.29
265.746	9944.45
265.815	9947.09
265.885	9939.2
265.955	9920.89
266.024	9906.06
266.094	9866.56
266.163	9866.75
266.232	9871.57
266.302	9855.96
266.371	9846.72
266.441	9831.02
266.51	9822.73
266.58	9803.61
266.649	9780.2
266.719	9781.93
266.788	9772.97
266.858	9772.06
266.927	9732.61
266.996	9719.13
267.066	9708.87
267.135	9686.14
267.205	9684.02
267.274	9674.91
267.343	9674.05
267.413	9661.96
267.482	9662.15
267.552	9663.36
267.621	9632.39
267.69	9603.39
267.76	9592.75
267.829	9582.4
267.898	9570.98
267.968	9555.19
268.037	9554.42
268.106	9553.84
268.176	9522.97
268.245	9509
268.314	9493.59
268.384	9489.4
268.453	9479.19
268.522	9471.97
268.592	9478.71
268.661	9453.47
268.73	9449.33
268.799	9432.91
268.869	9433.34
268.938	9409.89
269.007	9394.82
269.076	9381.39
269.146	9380.28
269.215	9380.18
269.284	9387.26
269.353	9369.88
269.422	9358.28
269.492	9339.98
269.561	9303.62
269.63	9301.41
269.699	9279.74
269.768	9270.88
269.838	9262.7
269.907	9262.5
269.976	9238.67
270.045	9200.44
270.114	9200.44
270.183	9185.03
270.253	9175.02
270.322	9151.48
270.391	9140.64
270.46	9148.88
270.529	9150.37
270.598	9151.43
270.667	9138.14
270.736	9113.82
270.806	9114.35
270.875	9113.34
270.944	9100.78
271.013	9121.87
271.082	9115.41
271.151	9117.34
271.22	9088.22
271.289	9079.41
271.358	9060.24
271.427	9054.56
271.496	9052.83
271.565	9035.26
271.634	9023.13
271.703	9052.98
271.772	9058.52
271.841	9047.49
271.91	9022.65
271.979	9015.09
272.048	8985.92
272.117	8983.13
272.186	8969.12
272.255	8974.85
272.324	8975.91
272.393	8969.94
272.462	8953.23
272.531	8937.92
272.6	8923.86
272.669	8932.48
272.738	8920.69
272.807	8922.9
272.876	8901.72
272.945	8931.33
273.013	8931.81
273.082	8936.91
273.151	8880.68
273.22	8874.33
273.289	8862.82
273.358	8872.45
273.427	8865.13
273.496	8866.34
273.564	8861.67
273.633	8861.38
273.702	8838.23
273.771	8822.82
273.84	8821.04
273.909	8818.73
273.977	8823.83
274.046	8817.67
274.115	8823.06
274.184	8808.91
274.253	8796.78
274.322	8810.11
274.39	8769.49
274.459	8755.19
274.528	8725.98
274.597	8725.69
274.665	8721.02
274.734	8729.49
274.803	8714.33
274.872	8705.23
274.94	8689.59
275.009	8720.6
275.078	8707.56
275.147	8702.45
275.215	8699.13
275.284	8703.51
275.353	8692.01
275.421	8660.58
275.49	8672.28
275.559	8661.21
275.627	8657.65
275.696	8646.77
275.765	8640.42
275.833	8635.85
275.902	8642.34
275.971	8653.56
276.039	8662.31
276.108	8663.76
276.177	8668.38
276.245	8659.81
276.314	8653.03
276.383	8665.68
276.451	8631.59
276.52	8631.59
276.588	8645.65
276.657	8652.53
276.725	8642.57
276.794	8641.32
276.863	8658.69
276.931	8636.6
277	8641.17
277.068	8652.48
277.137	8667.98
277.205	8667.21
277.274	8686.7
277.342	8693.72
277.411	8674
277.48	8663.36
277.548	8655.51
277.617	8650.36
277.685	8645.65
277.754	8649.84
277.822	8643.67
277.89	8655.23
277.959	8650.51
278.027	8630.25
278.096	8618.94
278.164	8648.59
278.233	8638.58
278.301	8624.91
278.37	8630.69
278.438	8617.65
278.507	8616.83
278.575	8590.17
278.643	8579.49
278.712	8562.26
278.78	8545.65
278.849	8562.59
278.917	8574.04
278.985	8573.9
279.054	8576.35
279.122	8588.58
279.191	8581.89
279.259	8574.81
279.327	8546.8
279.396	8564.94
279.464	8563.6
279.532	8566.29
279.601	8556.81
279.669	8552.28
279.737	8564.41
279.806	8562.25
279.874	8574.23
279.942	8571.29
280.011	8568.22
280.079	8580.68
280.147	8593.43
280.215	8594.63
280.284	8588.72
280.352	8573.56
280.42	8579.48
280.488	8575.58
280.557	8562.92
280.625	8571.82
280.693	8573.7
280.761	8574.28
280.83	8556.42
280.898	8566
280.966	8549.45
281.034	8517.54
281.102	8502.53
281.171	8494.01
281.239	8501.04
281.307	8491.17
281.375	8482.65
281.443	8511.19
281.512	8509.98
281.58	8520.19
281.648	8505.56
281.716	8501.81
281.784	8506.48
281.852	8501.57
281.92	8495.6
281.989	8513.98
282.057	8496.03
282.125	8536.18
282.193	8537
282.261	8537.43
282.329	8534.93
282.397	8543.01
282.465	8551
282.533	8575.39
282.601	8567.79
282.67	8548.97
282.738	8541.76
282.806	8543.29
282.874	8530.16
282.942	8532.27
283.01	8524.09
283.078	8533.91
283.146	8535.01
283.214	8541.61
283.282	8541.13
283.35	8555.18
283.418	8543.39
283.486	8551.33
283.554	8507.43
283.622	8505.79
283.69	8504.01
283.758	8496.79
283.826	8499.34
283.894	8508.58
283.962	8526.73
284.03	8542.85
284.098	8543.96
284.165	8537.22
284.233	8543.09
284.301	8538.18
284.369	8531.59
284.437	8520.57
284.505	8510.13
284.573	8525.82
284.641	8513.06
284.709	8518.89
284.777	8499.68
284.845	8507.58
284.912	8508.83
284.98	8516.77
285.048	8511.86
285.116	8518.5
285.184	8530.24
285.252	8531.83
285.319	8511.43
285.387	8498.24
285.455	8482.79
285.523	8490.83
285.591	8482.07
285.659	8481.54
285.726	8493.91
285.794	8477.12
285.862	8475.15
285.93	8475.15
285.997	8465.33
286.065	8463.69
286.133	8454.36
286.201	8450.03
286.269	8431.59
286.336	8423.9
286.404	8412.88
286.472	8419.76
286.539	8399.55
286.607	8386.8
286.675	8385.3
286.743	8400.51
286.81	8392.91
286.878	8402.87
286.946	8393.15
287.013	8403.83
287.081	8400.31
287.149	8385.64
287.216	8404.4
287.284	8398.39
287.352	8404.83
287.419	8400.65
287.487	8414.7
287.555	8416.67
287.622	8418.31
287.69	8427.12
287.758	8441.17
287.825	8438.71
287.893	8435.54
287.96	8439.19
288.028	8450.69
288.096	8446.89
288.163	8446.41
288.231	8433.61
288.298	8433.32
288.366	8449.49
288.433	8446.27
288.501	8441.65
288.569	8444.34
288.636	8438.52
288.704	8451.8
288.771	8453.39
288.839	8445.84
288.906	8435.78
288.974	8446.32
289.041	8443.67
289.109	8427.41
289.176	8432.22
289.244	8434.15
289.311	8443.67
289.379	8452.53
289.446	8450.17
289.514	8454.64
289.581	8448.34
289.649	8455.46
289.716	8456.76
289.783	8445.98
289.851	8469.08
289.918	8466.14
289.986	8476.01
290.053	8482.27
290.121	8486.02
290.188	8494.25
290.255	8524.66
290.323	8524.04
290.39	8515.66
290.458	8521.97
290.525	8541.26
290.592	8532.98
290.66	8539.14
290.727	8529.52
290.794	8543.14
290.862	8544.05
290.929	8551.41
290.996	8552.95
291.064	8560.03
291.131	8569.41
291.198	8584.19
291.266	8574.37
291.333	8581.06
291.4	8588.57
291.468	8608.59
291.535	8602.43
291.602	8605.56
291.669	8600.89
291.737	8612.1
291.804	8611.19
291.871	8626.3
291.938	8636.89
292.006	8666.49
292.073	8678.57
292.14	8688.72
292.207	8678.23
292.275	8681.36
292.342	8685.74
292.409	8716.83
292.476	8742.92
292.543	8734.74
292.611	8735.03
292.678	8756.02
292.745	8784.03
292.812	8791.1
292.879	8787.78
292.946	8794.37
293.014	8809.25
293.081	8817.91
293.148	8827.01
293.215	8844.05
293.282	8835.29
293.349	8843.62
293.416	8827.3
293.484	8842.6
293.551	8857.86
293.618	8880.58
293.685	8905.61
293.752	8898.87
293.819	8894.3
293.886	8874.8
293.953	8887.61
294.02	8898.2
294.087	8903.3
294.154	8898.01
294.221	8916.69
294.288	8911.92
294.356	8932.38
294.423	8936.09
294.49	8928.48
294.557	8940.66
294.624	8927.42
294.691	8952.93
294.758	8952.89
294.825	8960.78
294.892	8954.19
294.959	8955.87
295.026	8966.46
295.093	8957.41
295.16	8962.27
295.226	8961.45
295.293	8994.38
295.36	9001.65
295.427	9015.57
295.494	9028.71
295.561	9036.41
295.628	9055.15
295.695	9070.41
295.762	9077.24
295.829	9085.24
295.896	9099.2
295.963	9102.04
296.03	9123.46
296.096	9129.28
296.163	9138.33
296.23	9151
296.297	9163.99
296.364	9159.85
296.431	9161.88
296.498	9163.9
296.564	9190.91
296.631	9191.19
296.698	9177.38
296.765	9194.9
296.832	9184.5
296.899	9167.94
296.965	9179.45
297.032	9157.82
297.099	9173.62
297.166	9177.66
297.233	9173.86
297.299	9165.96
297.366	9168.08
297.433	9169.24
297.5	9176.7
297.566	9179.11
297.633	9181.8
297.7	9184.12
297.767	9184.74
297.833	9191.67
297.9	9191.24
297.967	9177.13
298.033	9199.38
298.1	9230.63
298.167	9219.46
298.234	9221.24
298.3	9236.31
298.367	9227.36
298.434	9233.71
298.5	9225.53
298.567	9216.14
298.634	9218.11
298.7	9236.74
298.767	9238.09
298.834	9248.3
298.9	9242.14
298.967	9236.5
299.033	9249.07
299.1	9262.12
299.167	9279.16
299.233	9274.49
299.3	9289.76
299.366	9303.62
299.433	9310.89
299.5	9281.76
299.566	9284.65
299.633	9305.88
299.699	9311.57
299.766	9320.52
299.832	9327.99
299.899	9337.66
299.965	9357.41
300.032	9354.57
300.099	9360.97
300.165	9373.15
300.232	9368.87
300.298	9370.55
300.365	9384.95
300.431	9380.86
300.498	9376.76
300.564	9380.9
300.631	9386.73
300.697	9397.42
300.763	9400.94
300.83	9398.82
300.896	9412.97
300.963	9425.49
301.029	9429.83
301.096	9435.85
301.162	9444.23
301.229	9438.21
301.295	9428.48
301.361	9421.64
301.428	9423.47
301.494	9414.9
301.561	9414.51
301.627	9421.64
301.693	9427.32
301.76	9434.02
301.826	9424.15
301.892	9439.51
301.959	9445.19
302.025	9450.25
302.092	9448.22
302.158	9451.26
302.224	9453.42
302.291	9445.24
302.357	9442.4
302.423	9431.27
302.49	9426.41
302.556	9442.83
302.622	9443.41
302.688	9455.98
302.755	9474.23
302.821	9488
302.887	9497.44
302.954	9497.15
303.02	9502.59
303.086	9512.37
303.152	9509.58
303.219	9508.81
303.285	9514.34
303.351	9527.4
303.417	9524.7
303.483	9513.24
303.55	9508.76
303.616	9510.45
303.682	9512.66
303.748	9506.16
303.815	9520.7
303.881	9526.34
303.947	9509.1
304.013	9509.87
304.079	9504.52
304.145	9485.11
304.212	9481.17
304.278	9471.05
304.344	9465.23
304.41	9453.67
304.476	9439.9
304.542	9439.03
304.608	9448.18
304.674	9426.84
304.741	9418.18
304.807	9423.28
304.873	9429.97
304.939	9445
305.005	9429.88
305.071	9429.59
305.137	9434.74
305.203	9409.6
305.269	9406.52
305.335	9416.63
305.401	9415.82
305.467	9413.26
305.533	9419.86
305.599	9421.88
305.666	9432.67
305.732	9435.94
305.798	9454.53
305.864	9479.62
305.93	9479.82
305.996	9482.13
306.062	9484.1
306.128	9480.1
306.194	9467.39
306.259	9468.98
306.325	9460.31
306.391	9471.63
306.457	9476.4
306.523	9473.22
306.589	9500.28
306.655	9497.3
306.721	9483.62
306.787	9468.74
306.853	9480.35
306.919	9465.52
306.985	9466.38
307.051	9458.44
307.117	9449.29
307.183	9436.67
307.248	9406.72
307.314	9407.05
307.38	9408.06
307.446	9412.45
307.512	9404.26
307.578	9411.96
307.644	9403.68
307.709	9404.02
307.775	9397.33
307.841	9395.98
307.907	9396.99
307.973	9377.34
308.039	9376.38
308.104	9380.23
308.17	9385.96
308.236	9368.33
308.302	9372.72
308.368	9357.07
308.433	9358.9
308.499	9360.05
308.565	9347.92
308.631	9354.95
308.696	9332.27
308.762	9317.44
308.828	9314.26
308.894	9298.47
308.959	9272.13
309.025	9267.32
309.091	9264.91
309.156	9259.66
309.222	9257.3
309.288	9250.27
309.354	9227.07
309.419	9223.31
309.485	9209.01
309.551	9206.94
309.616	9198.46
309.682	9193.89
309.748	9188.26
309.813	9183.3
309.879	9171.26
309.945	9163.9
310.01	9156.34
310.076	9158.89
310.141	9151.14
310.207	9139
310.273	9136.59
310.338	9147.72
310.404	9128.56
310.469	9108.33
310.535	9094.9
310.601	9072.75
310.666	9075.93
310.732	9088.59
310.797	9077.08
310.863	9065.19
310.928	9062.06
310.994	9060.19
311.059	9056.77
311.125	9052.77
311.191	9061.97
311.256	9050.51
311.322	9049.84
311.387	9029.62
311.453	9479.22
311.518	9452.65
311.584	9445.09
311.649	9453.08
311.715	9438.16
311.78	9441.14
311.846	9435.75
311.911	9448.13
311.976	9456.69
312.042	9442.54
312.107	9432.05
312.173	9422.27
312.238	9417.27
312.304	9419.05
312.369	9412.98
312.434	9401.14
312.5	9395.22
312.565	9357.86
312.631	9363.54
312.696	9362.19
312.761	9364.79
312.827	8906.43
312.892	8948.99
312.958	8950.82
313.023	8948.84
313.088	8947.88
313.154	8930.94
313.219	8923.33
313.284	8906.48
313.35	8899.07
313.415	8884.82
313.48	8874.57
313.546	8877.22
313.611	8890.5
313.676	8878.71
313.741	8870.33
313.807	8881.89
313.872	8888.77
313.937	8895.99
314.003	8911.35
314.068	8916.11
314.133	8926.41
314.198	8920.35
314.264	8896.66
314.329	8883.13
314.394	8879.43
314.459	8877.69
314.525	8905.32
314.59	8906.24
314.655	8895.74
314.72	8899.79
314.785	8905.08
314.851	8903.64
314.916	8886.84
314.981	8868.6
315.046	8859.84
315.111	8847.08
315.176	8831.29
315.242	8830.81
315.307	8827.92
315.372	8803.66
315.437	8786.04
315.502	8772.47
315.567	8782.96
315.632	8766.79
315.698	8771.6
315.763	8764.67
315.828	8754.9
315.893	8743.92
315.958	8735.79
316.023	8730.16
316.088	8713.89
316.153	8689.78
316.218	8680.3
316.283	8663.22
316.348	8644.4
316.413	8635.6
316.479	8631.17
316.544	8600.85
316.609	8568.95
316.674	8537.77
316.739	8504.28
316.804	8473.05
316.869	8437.2
316.934	8399.33
316.999	8375.8
317.064	8321.43
317.129	8273.46
317.194	8239.69
317.259	8196.19
317.324	8147.75
317.389	8099.99
317.454	8062.8
317.518	8030.57
317.583	8005.8
317.648	7986.22
317.713	7948.71
317.778	7894.45
317.843	7859.87
317.908	7822.41
317.973	7786.87
318.038	7757.92
318.103	7724.26
318.168	7694.83
318.233	7663.14
318.297	7617.32
318.362	7573.81
318.427	7539.82
318.492	7522.03
318.557	7472.72
318.622	7444.59
318.687	7427
318.751	7390.67
318.816	7356.3
318.881	7325.06
318.946	7274.92
319.011	7230.17
319.075	7198.6
319.14	7167.13
319.205	7119.55
319.27	7084
319.335	7041.1
319.399	7002.51
319.464	6979.4
319.529	6925.07
319.594	6885.68
319.658	6851.14
319.723	6816.27
319.788	6790.24
319.853	6732.35
319.917	6707.15
319.982	6650.71
320.047	6608.69
320.112	6582.38
320.176	6536.61
320.241	6502.9
320.306	6476.06
320.37	6428.34
320.435	6392.24
320.5	6364.68
320.564	6332.72
320.629	6294.85
320.694	6264.23
320.758	6226.07
320.823	6173.85
320.888	6155
320.952	6111.09
321.017	6076.21
321.082	6037.78
321.146	6006.11
321.211	5972.67
321.275	5932.34
321.34	5888.94
321.405	5846.87
321.469	5801.36
321.534	5756.76
321.598	5708.91
321.663	5674.22
321.727	5650.06
321.792	5605.8
321.857	5560.87
321.921	5521.27
321.986	5479.48
322.05	5422.84
322.115	5382.14
322.179	5339.02
322.244	5276.88
322.308	5246.64
322.373	5196.91
322.437	5153.36
322.502	5121.68
322.566	5079.81
322.631	5046.81
322.695	5010.8
322.76	4968.04
322.824	4935.71
322.889	4893.82
322.953	4851.55
323.018	4783.33
323.082	4719.81
323.146	4669.94
323.211	4616.39
323.275	4571.73
323.34	4529.29
323.404	4495.09
323.468	4452.89
323.533	4416.29
323.597	4375.46
323.662	4320.98
323.726	4287.5
323.79	4244.18
323.855	4181.7
323.919	4137.08
323.983	4092.42
324.048	4029.46
324.112	4186.16
324.177	4057.97
324.241	3850.01
324.305	3644.06
324.37	3446.14
324.434	3253.23
324.498	3210.18
324.562	3162.5
324.627	3103.49
324.691	3048.76
324.755	2986.13
324.82	2909.51
324.884	2828.63
324.948	2760.69
325.012	2671.99
325.077	2548.45
