Data from 20250703_urea_0.1M_MAYP1162681_14-01-04-922.txt Node
Date: Thu Jul 03 14:01:04 BST 2025
User: adleo
Spectrometer: MAYP116268
Trigger mode: 0
Integration Time (sec): 1.000000E0
Scans to average: 1
Electric dark correction enabled: true
Nonlinearity correction enabled: true
Boxcar width: 10
XAxis mode: Wavelengths
Number of Pixels in Spectrum: 2068
>>>>>Begin Spectral Data<<<<<
179.565	1237.23
179.642	1297.38
179.718	1341.67
179.795	1382.99
179.871	1415.41
179.948	1433.73
180.024	1453.83
180.101	1475.9
180.177	1491.93
180.254	1514.39
180.33	1536.09
180.407	1592.07
180.483	1690.32
180.56	1783.73
180.636	1870.66
180.712	1858.15
180.789	1870.37
180.865	1884.15
180.942	1892.42
181.018	1902.4
181.095	1917.05
181.171	1922.19
181.248	1923.71
181.324	1940.78
181.4	1947.25
181.477	1957.76
181.553	1972.02
181.63	1995.46
181.706	2011.72
181.782	2018.62
181.859	2018.43
181.935	2022.66
182.011	2021.37
182.088	2038.88
182.164	2056.53
182.24	2068.8
182.317	2080.45
182.393	2075.79
182.469	2090.86
182.546	2104.28
182.622	2111.65
182.698	2107.79
182.775	2119.16
182.851	2130.91
182.927	2122.21
183.003	2121.07
183.08	2116.79
183.156	2126.87
183.232	2120.4
183.308	2110.17
183.385	2119.73
183.461	2138
183.537	2141.76
183.613	2153.65
183.69	2143.99
183.766	2133.52
183.842	2142.37
183.918	2146.37
183.995	2160.4
184.071	2160.59
184.147	2154.98
184.223	2142.33
184.299	2152.46
184.375	2143.42
184.452	2150.56
184.528	2199.57
184.604	2205.61
184.68	2216.12
184.756	2224.31
184.832	2230.3
184.908	2233.11
184.985	2230.2
185.061	2216.08
185.137	2225.92
185.213	2215.13
185.289	2216.84
185.365	2208.85
185.441	2207.85
185.517	2221.51
185.593	2218.75
185.669	2218.94
185.745	2232.64
185.822	2250.05
185.898	2242.34
185.974	2250.86
186.05	2244.57
186.126	2212.32
186.202	2208.8
186.278	2207.89
186.354	2194.43
186.43	2202.19
186.506	2204.61
186.582	2206.04
186.658	2211.36
186.734	2190.96
186.81	2192.72
186.886	2193.91
186.962	2208.18
187.038	2203.28
187.114	2194.47
187.19	2203.46
187.266	2192.71
187.341	2192.38
187.417	2183.53
187.493	2186.01
187.569	2186.53
187.645	2179.92
187.721	2169.4
187.797	2177.68
187.873	2182.2
187.949	2180.06
188.025	2172.77
188.101	2174.15
188.176	2179.72
188.252	2174.87
188.328	2183.95
188.404	2187.09
188.48	2181.19
188.556	2172.58
188.632	2175.72
188.707	2174.34
188.783	2170.1
188.859	2165.54
188.935	2154.31
189.011	2162.68
189.086	2155.83
189.162	2148.79
189.238	2145.99
189.314	2138.85
189.39	2130.19
189.465	2120.3
189.541	2135.52
189.617	2117.88
189.693	2111.98
189.768	2114.55
189.844	2139.3
189.92	2129.74
189.996	2134.02
190.071	2145.44
190.147	2144.15
190.223	2151.05
190.298	2145.58
190.374	2132.45
190.45	2144.1
190.526	2149.81
190.601	2145.39
190.677	2147.19
190.753	2176.42
190.828	2180.85
190.904	2200.88
190.98	2216.82
191.055	2232.43
191.131	2222.91
191.207	2246.31
191.282	2253.83
191.358	2244.89
191.433	2230.84
191.509	2243.68
191.585	2239.4
191.66	2240.73
191.736	2251.29
191.811	2243.01
191.887	2262.48
191.963	2285.47
192.038	2290.65
192.114	2291.41
192.189	2295.27
192.265	2291.61
192.34	2267.94
192.416	2268.66
192.491	2263.47
192.567	2264.37
192.642	2264.09
192.718	2268.08
192.793	2255.47
192.869	2254.28
192.944	2256.81
193.02	2263.75
193.095	2270.65
193.171	2276.55
193.246	2279.03
193.322	2276.36
193.397	2276.51
193.473	2259.94
193.548	2242.95
193.624	2247.85
193.699	2249.09
193.775	2263.85
193.85	2264.47
193.925	2275.03
194.001	2273.46
194.076	2266.7
194.152	2259.28
194.227	2248.48
194.302	2233.73
194.378	2239.91
194.453	2237.82
194.529	2249.19
194.604	2232.78
194.679	2225.5
194.755	2207
194.83	2218.14
194.905	2215.28
194.981	2223.99
195.056	2215.85
195.131	2221.09
195.207	2220.23
195.282	2212.81
195.357	2194.96
195.433	2209.71
195.508	2195.53
195.583	2201.86
195.659	2215.04
195.734	2222.99
195.809	2222.32
195.884	2231.41
195.96	2232.12
196.035	2246.16
196.11	2242.68
196.185	2255.34
196.261	2258.1
196.336	2292.07
196.411	2280.03
196.486	2283.07
196.561	2277.84
196.637	2288.35
196.712	2306.4
196.787	2308.63
196.862	2321.91
196.937	2330.33
197.013	2336.19
197.088	2348.32
197.163	2369.32
197.238	2385.23
197.313	2385.37
197.388	2403.32
197.464	2435.17
197.539	2443.36
197.614	2438.22
197.689	2454.89
197.764	2474.79
197.839	2493.55
197.914	2486.45
197.989	2509.55
198.065	2527.93
198.14	2578.01
198.215	2604.3
198.29	2615.02
198.365	2630.69
198.44	2642.92
198.515	2669.74
198.59	2686.94
198.665	2713.04
198.74	2723.81
198.815	2726.15
198.89	2745.49
198.965	2778.04
199.04	2773.42
199.115	2791.09
199.19	2838.41
199.265	2839.03
199.34	2847.61
199.415	2885.04
199.49	2908.81
199.565	2915.15
199.64	2937.98
199.715	2935.88
199.79	2944.27
199.865	2952.09
199.94	2951.33
200.015	2982.32
200.09	2990.66
200.165	2996.72
200.24	3003.68
200.315	3046.44
200.39	3061.17
200.464	3067.7
200.539	3065.32
200.614	3085.15
200.689	3106.41
200.764	3108.61
200.839	3128.72
200.914	3134.92
200.989	3123.47
201.063	3134.82
201.138	3120.24
201.213	3121.62
201.288	3101.64
201.363	3106.65
201.438	3106.84
201.512	3124
201.587	3105.26
201.662	3107.5
201.737	3120.61
201.812	3129.91
201.886	3093.26
201.961	3105.71
202.036	3101.13
202.111	3100.99
202.186	3070.01
202.26	3054.66
202.335	3036.44
202.41	3029.1
202.485	3013.22
202.559	2995.87
202.634	2972.51
202.709	2985.71
202.784	2973.03
202.858	2976.55
202.933	2959.87
203.008	2957.91
203.082	2944.95
203.157	2952.29
203.232	2920.6
203.306	2907.53
203.381	2885.41
203.456	2873.06
203.53	2862.23
203.605	2848.7
203.68	2835.58
203.754	2846.73
203.829	2849.73
203.904	2847.25
203.978	2856.84
204.053	2881.87
204.127	2892.78
204.202	2918.05
204.277	2926.44
204.351	2944.04
204.426	2967.22
204.5	2995.88
204.575	2996.5
204.65	3046.37
204.724	3082.74
204.799	3129.7
204.873	3173.42
204.948	3220.94
205.022	3259.67
205.097	3303.23
205.171	3375.96
205.246	3443.43
205.32	3507.9
205.395	3573.71
205.469	3631.61
205.544	3706.3
205.618	3765.5
205.693	3855.43
205.767	3927.02
205.842	4035.75
205.916	4122.13
205.991	4206.68
206.065	4310.39
206.14	4430.26
206.214	4525.1
206.289	4626.08
206.363	4753.41
206.438	4869.13
206.512	4996.79
206.586	5142.78
206.661	5280.36
206.735	5388.12
206.81	5529.2
206.884	5676.62
206.958	5803.2
207.033	5965.33
207.107	6114.91
207.181	6294.56
207.256	6436.45
207.33	6604.66
207.405	6771.76
207.479	6945.82
207.553	7112.68
207.628	7254.79
207.702	7427.17
207.776	7590.51
207.851	7764.91
207.925	7945.21
207.999	8111.23
208.073	8279.98
208.148	8453.1
208.222	8611.19
208.296	8817.6
208.371	9003.91
208.445	9194.01
208.519	9404.91
208.593	9597.56
208.668	9783.45
208.742	9972.38
208.816	10161.75
208.89	10358.14
208.965	10539.74
209.039	10737.81
209.113	10943.68
209.187	11152.83
209.261	11341.24
209.336	11547.44
209.41	11744.56
209.484	11934.3
209.558	12147.81
209.632	12349.62
209.707	12555.05
209.781	12771.22
209.855	12977.63
209.929	13186.11
210.003	13373.67
210.077	13554.72
210.151	13786.19
210.226	14006.77
210.3	14208.7
210.374	14412.02
210.448	14593.37
210.522	14784.06
210.596	14978.22
210.67	15172.13
210.744	15398.97
210.818	15612.93
210.892	15805.4
210.966	15973.91
211.041	16159.04
211.115	16329.76
211.189	16533.63
211.263	16711.48
211.337	16881.42
211.411	17057.48
211.485	17218.25
211.559	17400.77
211.633	17571.28
211.707	17695.62
211.781	17853.2
211.855	17983.03
211.929	18134.02
212.003	18290.12
212.077	18460.66
212.151	18616.61
212.225	18772.56
212.299	18899.49
212.373	19024.69
212.447	19171.24
212.52	19342.94
212.594	19497.59
212.668	19638.64
212.742	19750.74
212.816	19885.38
212.89	20011.16
212.964	20141.09
213.038	20272.95
213.112	20407.41
213.186	20544.66
213.26	20661.53
213.333	20749.77
213.407	20882.98
213.481	21020.2
213.555	21141.89
213.629	21237.85
213.703	21348.04
213.777	21458.8
213.85	21564.65
213.924	21719.34
213.998	21832.57
214.072	21936.98
214.146	22025.53
214.219	22135.39
214.293	22238.94
214.367	22346.83
214.441	22466.24
214.515	22568.45
214.588	22654.7
214.662	22726.39
214.736	22808.15
214.81	22909.83
214.883	23011.41
214.957	23086.29
215.031	23161.27
215.105	23234.6
215.178	23313.39
215.252	23378.05
215.326	23441.9
215.4	23505.26
215.473	23531.54
215.547	23585.46
215.621	23650.81
215.694	23730.77
215.768	23775.04
215.842	23833.06
215.915	23880.13
215.989	23921.71
216.063	23972.65
216.136	24027.78
216.21	24088.02
216.284	24152.12
216.357	24210.58
216.431	24275.56
216.504	24338.27
216.578	24406.92
216.652	24469.77
216.725	24531.04
216.799	24604.56
216.873	24648.61
216.946	24707.12
217.02	24752.33
217.093	24802.74
217.167	24834.2
217.24	24863.97
217.314	24912.12
217.387	24954.24
217.461	24992.35
217.535	25052.48
217.608	25081.14
217.682	25118
217.755	25170.21
217.829	25209.25
217.902	25249.69
217.976	25274.98
218.049	25307.07
218.123	25328.93
218.196	25369.42
218.27	25383.32
218.343	25401.17
218.417	25442.39
218.49	25475.88
218.563	25522.64
218.637	25556.58
218.71	25609.23
218.784	25655.57
218.857	25698.28
218.931	25740.32
219.004	25789.36
219.077	25825.33
219.151	25862.15
219.224	25899.66
219.298	25922.78
219.371	25956.67
219.444	25969.12
219.518	25994.94
219.591	26023.09
219.665	26081.84
219.738	26108.44
219.811	26133.2
219.885	26166.8
219.958	26196.93
220.031	26211.12
220.105	26236.9
220.178	26263.7
220.251	26277.02
220.325	26294.84
220.398	26315.21
220.471	26328.58
220.544	26341.72
220.618	26340.08
220.691	26362.38
220.764	26370.78
220.838	26409.94
220.911	26422.4
220.984	26452.24
221.057	26475.65
221.131	26484.54
221.204	26461.79
221.277	26485.45
221.35	26529.54
221.424	26532.1
221.497	26543.68
221.57	26552.47
221.643	26574.93
221.716	26581.2
221.79	26572.75
221.863	26578.74
221.936	26578.4
222.009	26584.87
222.082	26589.8
222.155	26596.99
222.229	26604.82
222.302	26617.76
222.375	26594.19
222.448	26600.13
222.521	26602.74
222.594	26601.19
222.667	26583.72
222.74	26589.12
222.814	26583.09
222.887	26562.81
222.96	26568.12
223.033	26570.29
223.106	26572.71
223.179	26558.31
223.252	26550.64
223.325	26552.86
223.398	26545.52
223.471	26549.19
223.544	26541.61
223.617	26532.91
223.69	26511.62
223.763	26492.21
223.837	26485.11
223.91	26485.5
223.983	26460.73
224.056	26426.4
224.129	26410.13
224.202	26424.23
224.275	26402.89
224.348	26366.77
224.42	26347.27
224.493	26303.72
224.566	26282.14
224.639	26265.39
224.712	26245.98
224.785	26225.12
224.858	26208.08
224.931	26186.54
225.004	26140.35
225.077	26114.04
225.15	26070.35
225.223	26053.55
225.296	26054.18
225.369	26010.3
225.442	25978.05
225.514	25955.36
225.587	25945.22
225.66	25925
225.733	25902.6
225.806	25882.13
225.879	25864.56
225.952	25830
226.025	25835.02
226.097	25818.08
226.17	25793.61
226.243	25747.41
226.316	25720.05
226.389	25698.28
226.461	25676.22
226.534	25670.28
226.607	25649.72
226.68	25649.82
226.753	25623.76
226.825	25575.78
226.898	25566.41
226.971	25532
227.044	25511.98
227.117	25492.19
227.189	25469.36
227.262	25445.47
227.335	25427.81
227.407	25395.91
227.48	25369.61
227.553	25338.24
227.626	25304.75
227.698	25274.83
227.771	25250.41
227.844	25215.14
227.916	25187.87
227.989	25148.21
228.062	25109.41
228.134	25099.81
228.207	25062.94
228.28	25030.33
228.352	24995.3
228.425	24966.68
228.498	24948.78
228.57	24901.93
228.643	24875.88
228.716	24844.03
228.788	24803.99
228.861	24766.55
228.934	24754.34
229.006	24728.72
229.079	24697.36
229.151	24664.41
229.224	24618.53
229.296	24603.58
229.369	24593.06
229.442	24576.36
229.514	24535.89
229.587	24519.68
229.659	24473.42
229.732	24442.06
229.804	24419.25
229.877	24417.65
229.949	24396.67
230.022	24388.56
230.094	24369.41
230.167	24343.8
230.239	24307.33
230.312	24283.45
230.384	24278.63
230.457	24254.9
230.529	24231.31
230.602	24205.17
230.674	24170.82
230.747	24161.08
230.819	24133.73
230.892	24070.89
230.964	24030.9
231.037	24006.83
231.109	23968.01
231.181	23939.84
231.254	23898.56
231.326	23867.02
231.399	23826.65
231.471	23773.74
231.544	23711.96
231.616	23685
231.688	23647.62
231.761	23604.17
231.833	23564.24
231.905	23502.27
231.978	23458.29
232.05	23415.13
232.122	23377.7
232.195	23333.44
232.267	23306.05
232.339	23274.51
232.412	23257.54
232.484	23215.25
232.556	23176.96
232.629	23169.54
232.701	23143.01
232.773	23114.61
232.846	23071.61
232.918	23042.14
232.99	23010.13
233.062	22994.26
233.135	22963.07
233.207	22916.2
233.279	22892.43
233.351	22865.34
233.424	22818.76
233.496	22766.84
233.568	22756.33
233.64	22700.31
233.713	22666.95
233.785	22633.49
233.857	22587.83
233.929	22539.96
234.001	22526.94
234.074	22508.43
234.146	22451.39
234.218	22411.71
234.29	22372.04
234.362	22328.03
234.434	22263.96
234.507	22228.67
234.579	22175.02
234.651	22125.7
234.723	22095.52
234.795	22059.56
234.867	22018.4
234.939	22001.28
235.012	21976.56
235.084	21935.39
235.156	21911.04
235.228	21876.1
235.3	21828.86
235.372	21794.44
235.444	21776.27
235.516	21702.37
235.588	21664.05
235.66	21621.35
235.732	21573.15
235.804	21595.46
235.876	21566.02
235.948	21545.87
236.02	21499.21
236.092	21456.65
236.164	21420.41
236.236	21373.7
236.308	21329.07
236.38	21285.21
236.452	21246.61
236.524	21200
236.596	21177.06
236.668	21139.94
236.74	21099.12
236.812	21064.95
236.884	21029.19
236.956	20987.69
237.028	20941.14
237.1	20886.58
237.172	20866.87
237.244	20847.25
237.316	20767.77
237.388	20726.23
237.46	20678.42
237.532	20654.27
237.604	20609.45
237.675	20583.43
237.747	20557.6
237.819	20513.12
237.891	20474.56
237.963	20418.42
238.035	20382.61
238.107	20297.31
238.178	20263.77
238.25	20218.85
238.322	20201.5
238.394	20139.67
238.466	20095.24
238.538	20074.18
238.609	20041.7
238.681	19988.21
238.753	19928.69
238.825	19883.58
238.897	19847.25
238.968	19819.78
239.04	19770.48
239.112	19752.36
239.184	19699.88
239.255	19659.69
239.327	19626.44
239.399	19583.31
239.471	19553.28
239.542	19516.13
239.614	19495.46
239.686	19435.41
239.758	19406.84
239.829	19350.16
239.901	19323.9
239.973	19275.23
240.044	19240.77
240.116	19207.14
240.188	19160.15
240.259	19119.67
240.331	19078.23
240.403	19049.12
240.474	19003.05
240.546	18956.16
240.618	18903.4
240.689	18857.13
240.761	18816.17
240.833	18793.43
240.904	18764.99
240.976	18733.29
241.048	18702.68
241.119	18678.2
241.191	18651.46
241.262	18628.42
241.334	18582.79
241.405	18538.84
241.477	18492.38
241.549	18449.78
241.62	18400
241.692	18367.43
241.763	18346.17
241.835	18309.21
241.906	18267.14
241.978	18209.89
242.049	18192.01
242.121	18157.17
242.192	18135.53
242.264	18085.75
242.335	18026.04
242.407	17989.76
242.478	17946
242.55	17900.75
242.621	17845.13
242.693	17801.81
242.764	17752.99
242.836	17706.49
242.907	17671.16
242.979	17636.51
243.05	17602.34
243.122	17574.15
243.193	17536.42
243.264	17475.12
243.336	17429.81
243.407	17398.63
243.479	17384.75
243.55	17337.67
243.622	17294.3
243.693	17250.3
243.764	17223.31
243.836	17179.84
243.907	17135.93
243.978	17095.11
244.05	17067.01
244.121	17016.99
244.192	16990.67
244.264	16948.02
244.335	16914.09
244.407	16872.02
244.478	16852.45
244.549	16804.88
244.62	16752.35
244.692	16713.94
244.763	16686.51
244.834	16651.62
244.906	16604.73
244.977	16576.68
245.048	16558.07
245.119	16523.95
245.191	16485.73
245.262	16428.62
245.333	16413.14
245.405	16381.24
245.476	16348.37
245.547	16315.98
245.618	16295.4
245.689	16262
245.761	16231.44
245.832	16199.97
245.903	16170.76
245.974	16140.49
246.045	16111.38
246.117	16096.2
246.188	16055.23
246.259	16018.93
246.33	15982.5
246.401	15948.08
246.473	15892.03
246.544	15854.05
246.615	15836.21
246.686	15800.4
246.757	15785.55
246.828	15738.22
246.899	15722.36
246.97	15671.99
247.042	15623.74
247.113	15597.48
247.184	15588.56
247.255	15548.6
247.326	15516.69
247.397	15486.13
247.468	15457.36
247.539	15429.69
247.61	15388.28
247.681	15364.04
247.752	15343.45
247.823	15306.92
247.894	15279.73
247.965	15240.45
248.037	15201.6
248.108	15153.3
248.179	15126.45
248.25	15098.68
248.321	15079.93
248.392	15026.38
248.463	15021.22
248.534	14992.06
248.605	14972.1
248.675	14932.38
248.746	14910.16
248.817	14886.78
248.888	14867.89
248.959	14815.3
249.03	14795
249.101	14766.95
249.172	14730.46
249.243	14675.79
249.314	14661.14
249.385	14635.16
249.456	14616.94
249.527	14583.38
249.598	14557.02
249.669	14522.69
249.739	14492.47
249.81	14465.86
249.881	14427.87
249.952	14395.96
250.023	14366.27
250.094	14318.59
250.165	14286.63
250.235	14257.13
250.306	14234.48
250.377	14188.01
250.448	14169.3
250.519	14116.56
250.59	14101.43
250.66	14071.54
250.731	14062.62
250.802	14036.93
250.873	14015.19
250.944	13990.12
251.014	13954.64
251.085	13957.73
251.156	13939.5
251.227	13928.9
251.297	13913.13
251.368	13900.46
251.439	13888.26
251.51	13875.87
251.58	13845.4
251.651	13808.43
251.722	13795.75
251.792	13746
251.863	13726.62
251.934	13713.7
252.005	13721.95
252.075	13693.22
252.146	13679.86
252.217	13669.98
252.287	13649.78
252.358	13619.46
252.429	13620.62
252.499	13595.6
252.57	13570.72
252.641	13552.5
252.711	13519.82
252.782	13475.42
252.852	13472.82
252.923	13441.34
252.994	13421.86
253.064	13407.26
253.135	13371.44
253.205	13337.4
253.276	13343
253.347	13337.74
253.417	13303.18
253.488	13270.3
253.558	13250.01
253.629	13229.61
253.699	13208.31
253.77	13188.83
253.841	13169.4
253.911	13134.89
253.982	13118.79
254.052	13097.09
254.123	13076.17
254.193	13059.83
254.264	13083.55
254.334	13051.3
254.405	13017.89
254.475	12982.07
254.546	12957.88
254.616	12947.8
254.687	12936.42
254.757	12914.25
254.827	12884.22
254.898	12874.19
254.968	12845.7
255.039	12814.46
255.109	12798.94
255.18	12764.04
255.25	12719.07
255.321	12704.17
255.391	12675.44
255.461	12676.45
255.532	12629.93
255.602	12608.72
255.673	12568.95
255.743	12530.53
255.813	12485.03
255.884	12477.32
255.954	12472.88
256.024	12477.56
256.095	12469.22
256.165	12430.8
256.235	12413.01
256.306	12386.74
256.376	12370.4
256.446	12367.03
256.517	12356.57
256.587	12350.4
256.657	12330.68
256.728	12318.73
256.798	12300.27
256.868	12271.78
256.938	12242.32
257.009	12234.13
257.079	12214.95
257.149	12218.27
257.219	12181.54
257.29	12166.74
257.36	12126.83
257.43	12111.02
257.5	12060.8
257.571	12028.16
257.641	12017.61
257.711	11986.18
257.781	11978.95
257.852	11970.08
257.922	11925.01
257.992	11900.82
258.062	11871.8
258.132	11866.3
258.202	11844.85
258.273	11826.63
258.343	11834.39
258.413	11808.46
258.483	11791.16
258.553	11763.88
258.623	11735.59
258.693	11719.39
258.764	11718.52
258.834	11715.39
258.904	11701.6
258.974	11680.64
259.044	11663.34
259.114	11655.09
259.184	11640.01
259.254	11612.63
259.324	11567.04
259.394	11559.42
259.464	11559.81
259.535	11542.79
259.605	11520.14
259.675	11489.68
259.745	11468.48
259.815	11429.63
259.885	11402.11
259.955	11406.83
260.025	11385.58
260.095	11367.84
260.165	11350.59
260.235	11355.07
260.305	11334.16
260.375	11298.44
260.445	11306.78
260.515	11299.65
260.585	11281.91
260.655	11269.28
260.725	11262.59
260.795	11260.03
260.865	11257.53
260.934	11226.92
261.004	11216.66
261.074	11202.2
261.144	11209.43
261.214	11199.35
261.284	11181.04
261.354	11179.07
261.424	11160.56
261.494	11161.38
261.564	11146.25
261.634	11142.25
261.703	11101.91
261.773	11086.34
261.843	11075.79
261.913	11050.54
261.983	11021.58
262.053	11017.19
262.123	10994.64
262.192	10961.58
262.262	10956.57
262.332	10930.69
262.402	10932.81
262.472	10918.93
262.541	10881.01
262.611	10874.75
262.681	10853.25
262.751	10851.9
262.821	10834.75
262.89	10801.26
262.96	10793.6
263.03	10796.05
263.1	10783.23
263.169	10771.86
263.239	10764.44
263.309	10770.23
263.379	10763.58
263.448	10748.21
263.518	10736.59
263.588	10723.25
263.657	10731.73
263.727	10724.16
263.797	10711.87
263.867	10687.73
263.936	10653.76
264.006	10648.56
264.076	10629.24
264.145	10613.24
264.215	10587.32
264.285	10581.83
264.354	10548.97
264.424	10519
264.494	10485.51
264.563	10467.25
264.633	10476.84
264.702	10468.36
264.772	10431.31
264.842	10413.33
264.911	10408.28
264.981	10373.44
265.05	10361.93
265.12	10341.59
265.19	10325.45
265.259	10317.98
265.329	10313.12
265.398	10306.95
265.468	10320.59
265.537	10300.88
265.607	10296.35
265.676	10298.95
265.746	10283.44
265.815	10278.91
265.885	10268.03
265.955	10246.93
266.024	10225.15
266.094	10183.91
266.163	10181.84
266.232	10178.95
266.302	10161.8
266.371	10146.34
266.441	10142.92
266.51	10133.28
266.58	10116.04
266.649	10096.33
266.719	10092.29
266.788	10081.98
266.858	10087.42
266.927	10053.36
266.996	10045.65
267.066	10035.63
267.135	10006.01
267.205	10003.31
267.274	9995.65
267.343	9998.88
267.413	9989.97
267.482	9992.52
267.552	9994.98
267.621	9967.28
267.69	9944.78
267.76	9935.63
267.829	9932.41
267.898	9914.82
267.968	9895.37
268.037	9893.78
268.106	9891.32
268.176	9861.6
268.245	9846.76
268.314	9828.99
268.384	9824.41
268.453	9814.44
268.522	9805.24
268.592	9805.39
268.661	9784.87
268.73	9781.4
268.799	9751.63
268.869	9757.46
268.938	9731.93
269.007	9712.76
269.076	9700.68
269.146	9696.05
269.215	9687.05
269.284	9689.7
269.353	9672.7
269.422	9660.85
269.492	9641.63
269.561	9594.92
269.63	9586.59
269.699	9567.9
269.768	9555.96
269.838	9547.67
269.907	9545.99
269.976	9520.99
270.045	9492.49
270.114	9484.3
270.183	9465.47
270.253	9458.44
270.322	9429.83
270.391	9416.45
270.46	9419.82
270.529	9418.47
270.598	9419.92
270.667	9407.97
270.736	9386.73
270.806	9381.63
270.875	9381.87
270.944	9363.33
271.013	9389.91
271.082	9388.9
271.151	9383.75
271.22	9358.23
271.289	9350.14
271.358	9337.14
271.427	9329.82
271.496	9322.55
271.565	9313.45
271.634	9312.58
271.703	9340.61
271.772	9347.16
271.841	9341.19
271.91	9314.32
271.979	9304.64
272.048	9277
272.117	9276.42
272.186	9266.07
272.255	9265.59
272.324	9265.73
272.393	9258.9
272.462	9238.19
272.531	9228.66
272.6	9214.98
272.669	9221.92
272.738	9211.32
272.807	9198.18
272.876	9179.89
272.945	9208
273.013	9208.39
273.082	9210.65
273.151	9174.29
273.22	9169.67
273.289	9155.28
273.358	9162.6
273.427	9153.69
273.496	9152.77
273.564	9148.34
273.633	9141.8
273.702	9125.33
273.771	9111.75
273.84	9115.22
273.909	9117.48
273.977	9111.75
274.046	9105.49
274.115	9103.81
274.184	9087.06
274.253	9081.47
274.322	9085.47
274.39	9048.15
274.459	9037.9
274.528	9006.85
274.597	8994.91
274.665	8984.8
274.734	8998.04
274.803	8983.35
274.872	8974.11
274.94	8961.98
275.009	8995.55
275.078	8985.82
275.147	8982.79
275.215	8977.21
275.284	8983.99
275.353	8969.74
275.421	8946.3
275.49	8960.41
275.559	8945.39
275.627	8931.38
275.696	8924.84
275.765	8930.81
275.833	8926.76
275.902	8921.56
275.971	8933.4
276.039	8945.63
276.108	8949.15
276.177	8938.7
276.245	8934.08
276.314	8931.82
276.383	8940.38
276.451	8897.91
276.52	8899.36
276.588	8909.27
276.657	8912.26
276.725	8899.79
276.794	8900.37
276.863	8913.8
276.931	8886.4
277	8896.37
277.068	8908.93
277.137	8922.84
277.205	8919.52
277.274	8937.33
277.342	8942.34
277.411	8920.58
277.48	8908.11
277.548	8895.55
277.617	8893.34
277.685	8889.1
277.754	8891.99
277.822	8883.37
277.89	8900.27
277.959	8888.82
278.027	8872.4
278.096	8865.52
278.164	8890.89
278.233	8886.22
278.301	8873.85
278.37	8879.92
278.438	8863.98
278.507	8873.22
278.575	8848.24
278.643	8843.43
278.712	8826
278.78	8809.01
278.849	8821.28
278.917	8822.44
278.985	8819.69
279.054	8831.1
279.122	8841.11
279.191	8839.04
279.259	8835.34
279.327	8806.93
279.396	8831.68
279.464	8828.41
279.532	8837.26
279.601	8832.5
279.669	8826.91
279.737	8840.63
279.806	8844.96
279.874	8856.27
279.942	8845.25
280.011	8834.52
280.079	8838.03
280.147	8854.26
280.215	8866.29
280.284	8856.38
280.352	8850.12
280.42	8857.29
280.488	8843.72
280.557	8837.46
280.625	8840.49
280.693	8839.91
280.761	8844.49
280.83	8818.3
280.898	8828.55
280.966	8801.21
281.034	8764.43
281.102	8752.26
281.171	8746
281.239	8751.01
281.307	8745.91
281.375	8736.28
281.443	8769.2
281.512	8769.01
281.58	8773.53
281.648	8755.58
281.716	8761.98
281.784	8766.12
281.852	8753.41
281.92	8756.49
281.989	8769.64
282.057	8749.04
282.125	8797.66
282.193	8798.1
282.261	8800.65
282.329	8797.09
282.397	8805.51
282.465	8815.13
282.533	8829.48
282.601	8816.05
282.67	8793.38
282.738	8779.95
282.806	8794.24
282.874	8774.89
282.942	8773.54
283.01	8765.41
283.078	8772.19
283.146	8774.07
283.214	8781.97
283.282	8790.97
283.35	8803.05
283.418	8793.28
283.486	8800.45
283.554	8757.84
283.622	8752.25
283.69	8754.32
283.758	8740.03
283.826	8746
283.894	8749.75
283.962	8767.85
284.03	8786.67
284.098	8789.22
284.165	8785.18
284.233	8786.43
284.301	8788.31
284.369	8782.05
284.437	8776.85
284.505	8773.1
284.573	8780.75
284.641	8767.42
284.709	8772.57
284.777	8746.91
284.845	8753.12
284.912	8757.64
284.98	8754.23
285.048	8752.45
285.116	8750.38
285.184	8773.62
285.252	8768.81
285.319	8758.27
285.387	8747.68
285.455	8726.74
285.523	8732.9
285.591	8732.42
285.659	8729.34
285.726	8733.14
285.794	8715.15
285.862	8709.85
285.93	8711.01
285.997	8701.19
286.065	8695.08
286.133	8685.83
286.201	8690.79
286.269	8675.24
286.336	8666
286.404	8662.1
286.472	8672.45
286.539	8657.1
286.607	8632.94
286.675	8636.94
286.743	8641.89
286.81	8637.17
286.878	8653.1
286.946	8639.68
287.013	8636.55
287.081	8635.15
287.149	8627.21
287.216	8648.58
287.284	8640.06
287.352	8636.93
287.419	8641.36
287.487	8657.1
287.555	8666.49
287.622	8659.08
287.69	8659.7
287.758	8673.8
287.825	8674.86
287.893	8656.67
287.96	8661.38
288.028	8676.69
288.096	8677.27
288.163	8685.02
288.231	8671.97
288.298	8668.31
288.366	8690.98
288.433	8693.25
288.501	8691.03
288.569	8691.03
288.636	8686.41
288.704	8701.67
288.771	8709.71
288.839	8702.58
288.906	8686.55
288.974	8693.2
289.041	8691.42
289.109	8689.97
289.176	8694.98
289.244	8690.79
289.311	8707.69
289.379	8718.95
289.446	8721.88
289.514	8719.33
289.581	8711.78
289.649	8720.54
289.716	8726.46
289.783	8715.96
289.851	8735.94
289.918	8733.72
289.986	8744.46
290.053	8745.13
290.121	8742.34
290.188	8741.95
290.255	8768.14
290.323	8773.82
290.39	8764.62
290.458	8766.64
290.525	8775.55
290.592	8765.63
290.66	8771.84
290.727	8762.55
290.794	8774.44
290.862	8773.62
290.929	8778.24
290.996	8784.31
291.064	8789.36
291.131	8799.18
291.198	8814.58
291.266	8812.03
291.333	8816.17
291.4	8820.84
291.468	8844.24
291.535	8844.19
291.602	8844.09
291.669	8837.55
291.737	8837.16
291.804	8838.12
291.871	8867.2
291.938	8879.95
292.006	8910.28
292.073	8918.8
292.14	8932.09
292.207	8922.32
292.275	8925.78
292.342	8943.11
292.409	8971.18
292.476	8996.36
292.543	8987.65
292.611	8984.62
292.678	8998.09
292.745	9019.37
292.812	9030.64
292.879	9026.11
292.946	9028.33
293.014	9050.95
293.081	9055.91
293.148	9072.57
293.215	9093.17
293.282	9083.78
293.349	9090.67
293.416	9078.39
293.484	9097.17
293.551	9102.41
293.618	9127.64
293.685	9149.26
293.752	9132.41
293.819	9122.49
293.886	9109.68
293.953	9117.91
294.02	9126.63
294.087	9135.53
294.154	9124.08
294.221	9140.88
294.288	9144.4
294.356	9163.56
294.423	9164.95
294.49	9161.97
294.557	9176.65
294.624	9163.37
294.691	9188.11
294.758	9186.19
294.825	9194.37
294.892	9181.9
294.959	9189.46
295.026	9197.84
295.093	9193.75
295.16	9199.86
295.226	9208.38
295.293	9233.42
295.36	9238.67
295.427	9256.29
295.494	9268.91
295.561	9282.87
295.628	9302.38
295.695	9307.48
295.762	9312.83
295.829	9325.11
295.896	9342.68
295.963	9351.35
296.03	9362.61
296.096	9363.14
296.163	9373.98
296.23	9383.51
296.297	9404.12
296.364	9402.05
296.431	9401.95
296.498	9397.96
296.564	9423.14
296.631	9424.54
296.698	9416.73
296.765	9440.38
296.832	9428.87
296.899	9415.77
296.965	9437.49
297.032	9416.68
297.099	9437.29
297.166	9439.12
297.233	9435.95
297.299	9425.3
297.366	9424
297.433	9423.52
297.5	9430.36
297.566	9432.29
297.633	9432.24
297.7	9435.13
297.767	9441.29
297.833	9449.29
297.9	9450.44
297.967	9428.2
298.033	9437.25
298.1	9464.56
298.167	9454.69
298.234	9457.53
298.3	9473.27
298.367	9464.36
298.434	9470.72
298.5	9459.21
298.567	9455.26
298.634	9452.42
298.7	9467.69
298.767	9468.46
298.834	9486.18
298.9	9476.83
298.967	9471.49
299.033	9485.36
299.1	9497.74
299.167	9509.87
299.233	9505.73
299.3	9520.8
299.366	9545.65
299.433	9559.95
299.5	9529.08
299.566	9530.33
299.633	9547.67
299.699	9551.33
299.766	9548.39
299.832	9550.66
299.899	9563.95
299.965	9578.06
300.032	9577.58
300.099	9589.71
300.165	9600.79
300.232	9597.32
300.298	9602.57
300.365	9620.05
300.431	9613.41
300.498	9610.37
300.564	9613.6
300.631	9620.53
300.697	9632.19
300.763	9633.68
300.83	9629.97
300.896	9644.95
300.963	9657.28
301.029	9664.94
301.096	9669.18
301.162	9677.6
301.229	9672.4
301.295	9666
301.361	9674.71
301.428	9683.38
301.494	9667.1
301.561	9668.98
301.627	9672.84
301.693	9676.83
301.76	9681.36
301.826	9679.53
301.892	9688.3
301.959	9702.31
302.025	9700.48
302.092	9697.54
302.158	9703.76
302.224	9707.76
302.291	9700.1
302.357	9697.45
302.423	9692.68
302.49	9685.7
302.556	9704.58
302.622	9709.2
302.688	9716.57
302.755	9726.3
302.821	9727.55
302.887	9741.42
302.954	9740.27
303.02	9751.58
303.086	9760.74
303.152	9754.96
303.219	9751.3
303.285	9755.15
303.351	9757.12
303.417	9762.13
303.483	9759.34
303.55	9751.97
303.616	9755.44
303.682	9756.4
303.748	9750.29
303.815	9758.76
303.881	9769.5
303.947	9758.18
304.013	9760.35
304.079	9747.16
304.145	9730.25
304.212	9730.63
304.278	9722.25
304.344	9712.81
304.41	9695.24
304.476	9683.63
304.542	9673.23
304.608	9681.89
304.674	9660.46
304.741	9650.25
304.807	9660.9
304.873	9660.32
304.939	9680.93
305.005	9657.52
305.071	9656.8
305.137	9656.08
305.203	9637.78
305.269	9631.32
305.335	9638.11
305.401	9634.5
305.467	9639.32
305.533	9647.07
305.599	9656.61
305.666	9667.3
305.732	9672.84
305.798	9688.73
305.864	9712.86
305.93	9726.78
305.996	9718.45
306.062	9725.34
306.128	9724.47
306.194	9698.41
306.259	9697.21
306.325	9685.02
306.391	9697.69
306.457	9706.55
306.523	9711.03
306.589	9729
306.655	9723.02
306.721	9706.36
306.787	9695.67
306.853	9711.71
306.919	9692.44
306.985	9680.88
307.051	9672.02
307.117	9666.48
307.183	9655.12
307.248	9625.59
307.314	9625.4
307.38	9633.15
307.446	9634.98
307.512	9626.07
307.578	9640.18
307.644	9635.95
307.709	9631.27
307.775	9625.3
307.841	9619.52
307.907	9620.25
307.973	9602.18
308.039	9601.22
308.104	9605.84
308.17	9607.1
308.236	9592.41
308.302	9598.71
308.368	9592.17
308.433	9588.12
308.499	9584.56
308.565	9573.09
308.631	9582.87
308.696	9558.74
308.762	9546.8
308.828	9546.8
308.894	9526.82
308.959	9502.88
309.025	9493.25
309.091	9486.51
309.156	9481.02
309.222	9483.28
309.288	9467.83
309.354	9452.75
309.419	9452.42
309.485	9437.39
309.551	9436.67
309.616	9420.83
309.682	9416.4
309.748	9408.21
309.813	9408.5
309.879	9388.23
309.945	9381.63
310.01	9371.32
310.076	9379.85
310.141	9374.07
310.207	9353.55
310.273	9358.75
310.338	9359.62
310.404	9343.73
310.469	9337.71
310.535	9319.99
310.601	9293.51
310.666	9304.05
310.732	9311.23
310.797	9294.71
310.863	9284.84
310.928	9282.96
310.994	9290.62
311.059	9286.82
311.125	9284.6
311.191	9287.59
311.256	9286.19
311.322	9291.15
311.387	9267.17
311.453	9691.29
311.518	9663.56
311.584	9661.54
311.649	9666.5
311.715	9661.64
311.78	9668.23
311.846	9651.09
311.911	9665.68
311.976	9667.85
312.042	9647.82
312.107	9628.66
312.173	9621
312.238	9618.21
312.304	9611.32
312.369	9596.35
312.434	9584.02
312.5	9573.72
312.565	9536.02
312.631	9538.91
312.696	9527.84
312.761	9538.43
312.827	9101.4
312.892	9144.45
312.958	9141.46
313.023	9139.29
313.088	9136.26
313.154	9116.04
313.219	9108.29
313.284	9096.83
313.35	9093.94
313.415	9080.8
313.48	9077.91
313.546	9086.15
313.611	9091.97
313.676	9079.16
313.741	9071.85
313.807	9078.78
313.872	9083.83
313.937	9104.87
314.003	9111.47
314.068	9109.4
314.133	9113.44
314.198	9102.85
314.264	9082.29
314.329	9080.27
314.394	9072.37
314.459	9067.22
314.525	9087.2
314.59	9082.05
314.655	9068.28
314.72	9074.54
314.785	9083.01
314.851	9075.26
314.916	9053.26
314.981	9035.69
315.046	9023.56
315.111	9009.65
315.176	8994.24
315.242	8997.66
315.307	8987.55
315.372	8971.47
315.437	8967.38
315.502	8953.75
315.567	8959.53
315.632	8935.79
315.698	8931.03
315.763	8930.11
315.828	8922.56
315.893	8922.22
315.958	8920.1
316.023	8909.51
316.088	8892.81
316.153	8868.5
316.218	8861.57
316.283	8842.37
316.348	8829.23
316.413	8836.88
316.479	8817.15
316.544	8784.62
316.609	8756.32
316.674	8719.6
316.739	8683.46
316.804	8652.56
316.869	8617.28
316.934	8580.37
316.999	8563.33
317.064	8513.29
317.129	8465.5
317.194	8430.8
317.259	8378.01
317.324	8327.93
317.389	8284.87
317.454	8245.56
317.518	8215.44
317.583	8194.13
317.648	8177.29
317.713	8142.03
317.778	8079.05
317.843	8060.96
317.908	8024.13
317.973	7980.93
318.038	7957.79
318.103	7921.25
318.168	7887.39
318.233	7855.88
318.297	7804.82
318.362	7758.84
318.427	7718.74
318.492	7694.26
318.557	7641.09
318.622	7613.64
318.687	7597.58
318.751	7560.33
318.816	7520.57
318.881	7486.39
318.946	7434.65
319.011	7386.72
319.075	7344.04
319.14	7306.22
319.205	7255.65
319.27	7225.28
319.335	7179.44
319.399	7136.38
319.464	7106.3
319.529	7054.12
319.594	7014.95
319.658	6985.94
319.723	6942.17
319.788	6914.46
319.853	6857.76
319.917	6831.26
319.982	6773.18
320.047	6733.69
320.112	6703.44
320.176	6650.71
320.241	6618
320.306	6581.79
320.37	6539.44
320.435	6507.99
320.5	6482.35
320.564	6444.47
320.629	6398.96
320.694	6371.46
320.758	6328.3
320.823	6282.04
320.888	6253.1
320.952	6201.46
321.017	6158.37
321.082	6126.84
321.146	6091.57
321.211	6059.33
321.275	6017.35
321.34	5975.77
321.405	5926.02
321.469	5876.48
321.534	5840.18
321.598	5781.28
321.663	5749.66
321.727	5719.54
321.792	5670.39
321.857	5629.86
321.921	5592.13
321.986	5553.25
322.05	5494.49
322.115	5455.37
322.179	5413.01
322.244	5355.6
322.308	5326.8
322.373	5281.62
322.437	5232.79
322.502	5205.47
322.566	5159.28
322.631	5121.86
322.695	5084.89
322.76	5044.52
322.824	5010.95
322.889	4969.53
322.953	4928.41
323.018	4863.9
323.082	4799.7
323.146	4749.16
323.211	4693.3
323.275	4646.57
323.34	4595.48
323.404	4559.69
323.468	4515.52
323.533	4472.56
323.597	4427.23
323.662	4374.41
323.726	4341.55
323.79	4298.07
323.855	4232.38
323.919	4183.42
323.983	4139.42
324.048	4073.34
324.112	4218.09
324.177	4093.75
324.241	3880.68
324.305	3673.19
324.37	3468.29
324.434	3270.66
324.498	3226.34
324.562	3174.71
324.627	3113.72
324.691	3062.57
324.755	2995.98
324.82	2917.91
324.884	2842.24
324.948	2772.36
325.012	2677.72
325.077	2551.09
