Data from 20250703_urea_0.1M_MAYP1162681_14-51-05-670.txt Node
Date: Thu Jul 03 14:51:05 BST 2025
User: adleo
Spectrometer: MAYP116268
Trigger mode: 0
Integration Time (sec): 1.000000E0
Scans to average: 1
Electric dark correction enabled: true
Nonlinearity correction enabled: true
Boxcar width: 10
XAxis mode: Wavelengths
Number of Pixels in Spectrum: 2068
>>>>>Begin Spectral Data<<<<<
179.565	1264.02
179.642	1322.42
179.718	1370
179.795	1412.42
179.871	1447.79
179.948	1466.38
180.024	1488.01
180.101	1514.28
180.177	1531.22
180.254	1554.4
180.33	1575.61
180.407	1632.83
180.483	1731.65
180.56	1829.91
180.636	1918.69
180.712	1906.28
180.789	1918.45
180.865	1929.91
180.942	1939.98
181.018	1950.97
181.095	1963.86
181.171	1968.18
181.248	1969.94
181.324	1986.83
181.4	1994.73
181.477	2005.71
181.553	2018.55
181.63	2039.9
181.706	2053.17
181.782	2059.07
181.859	2058.54
181.935	2067.06
182.011	2066.53
182.088	2084.04
182.164	2097.55
182.24	2109.39
182.317	2118.85
182.393	2114.05
182.469	2130.65
182.546	2142.45
182.622	2149.06
182.698	2143.59
182.775	2156.96
182.851	2173.51
182.927	2163
183.003	2156.01
183.08	2149.3
183.156	2158.62
183.232	2153.77
183.308	2143.12
183.385	2153.39
183.461	2170.8
183.537	2170.75
183.613	2182.6
183.69	2172.75
183.766	2165.66
183.842	2173.61
183.918	2180.74
183.995	2194.35
184.071	2196.87
184.147	2194.16
184.223	2178.32
184.299	2194.45
184.375	2183.75
184.452	2189.98
184.528	2241.9
184.604	2253.75
184.68	2266.54
184.756	2274.49
184.832	2281.63
184.908	2287.43
184.985	2285.1
185.061	2270.4
185.137	2279.2
185.213	2270.02
185.289	2272.87
185.365	2267.45
185.441	2267.83
185.517	2278.54
185.593	2277.54
185.669	2275.45
185.745	2284.16
185.822	2301.56
185.898	2290.62
185.974	2299.61
186.05	2288.42
186.126	2253.06
186.202	2246.78
186.278	2241.07
186.354	2231.79
186.43	2238.74
186.506	2234.56
186.582	2233.75
186.658	2242.5
186.734	2223.76
186.81	2224.71
186.886	2228.28
186.962	2237.79
187.038	2233.08
187.114	2225.61
187.19	2233.84
187.266	2226.14
187.341	2226.66
187.417	2220.47
187.493	2220.95
187.569	2221.62
187.645	2217.62
187.721	2206.67
187.797	2213.81
187.873	2222.33
187.949	2215.67
188.025	2207.86
188.101	2214.09
188.176	2220.18
188.252	2214.62
188.328	2222.04
188.404	2220.8
188.48	2214.47
188.556	2208.76
188.632	2210
188.707	2214.14
188.783	2209.52
188.859	2201.3
188.935	2190.92
189.011	2199.96
189.086	2193.87
189.162	2186.26
189.238	2181.69
189.314	2177.17
189.39	2171.75
189.465	2160.95
189.541	2178.84
189.617	2165.71
189.693	2159.86
189.768	2164.81
189.844	2187.56
189.92	2179.24
189.996	2188.04
190.071	2201.84
190.147	2202.36
190.223	2209.36
190.298	2200.79
190.374	2187.9
190.45	2199.93
190.526	2209.68
190.601	2203.5
190.677	2204.64
190.753	2233.59
190.828	2236.87
190.904	2253.9
190.98	2268.61
191.055	2280.13
191.131	2269.66
191.207	2287.36
191.282	2296.16
191.358	2286.69
191.433	2273.69
191.509	2287.44
191.585	2285.29
191.66	2285.1
191.736	2292.62
191.811	2284.87
191.887	2300.48
191.963	2324.89
192.038	2330.7
192.114	2330.27
192.189	2334.93
192.265	2332.51
192.34	2309.89
192.416	2311.08
192.491	2305.75
192.567	2311.13
192.642	2314.18
192.718	2318.13
192.793	2307.8
192.869	2304.23
192.944	2303.94
193.02	2309.42
193.095	2313.32
193.171	2317.89
193.246	2316.65
193.322	2312.23
193.397	2313.32
193.473	2298.66
193.548	2279.52
193.624	2284.9
193.699	2284.33
193.775	2298.52
193.85	2299.47
193.925	2307.8
194.001	2307.18
194.076	2300.23
194.152	2287.81
194.227	2281.14
194.302	2270.3
194.378	2274.15
194.453	2270.49
194.529	2285.76
194.604	2271.96
194.679	2265.82
194.755	2248.27
194.83	2260.79
194.905	2257.98
194.981	2265.93
195.056	2260.13
195.131	2266.46
195.207	2267.41
195.282	2255.85
195.357	2236.23
195.433	2252.37
195.508	2240.75
195.583	2247.89
195.659	2263.12
195.734	2269.12
195.809	2269.64
195.884	2278.82
195.96	2278.82
196.035	2294.81
196.11	2291.15
196.185	2301.52
196.261	2303.71
196.336	2335.07
196.411	2323.46
196.486	2328.79
196.561	2324.03
196.637	2333.5
196.712	2351.35
196.787	2354.45
196.862	2370.05
196.937	2382.67
197.013	2387.14
197.088	2396.14
197.163	2417.28
197.238	2435.24
197.313	2436.48
197.388	2450.1
197.464	2481.67
197.539	2494.57
197.614	2491.57
197.689	2504.57
197.764	2525.24
197.839	2546.72
197.914	2541
197.989	2564.82
198.065	2579.05
198.14	2632.62
198.215	2658.87
198.29	2668.16
198.365	2679.88
198.44	2692.97
198.515	2722.61
198.59	2739.71
198.665	2768.39
198.74	2780.16
198.815	2779.88
198.89	2802.51
198.965	2834.97
199.04	2832.06
199.115	2845.5
199.19	2887.72
199.265	2888.15
199.34	2896.78
199.415	2932.54
199.49	2954.46
199.565	2962.09
199.64	2988.31
199.715	2979.72
199.79	2988.87
199.865	2996.45
199.94	2996.45
200.015	3031.45
200.09	3034.98
200.165	3043.28
200.24	3049.62
200.315	3093.72
200.39	3109.94
200.464	3118.76
200.539	3118.52
200.614	3134.25
200.689	3161.2
200.764	3169.98
200.839	3191.05
200.914	3196.43
200.989	3185.7
201.063	3200.05
201.138	3185.33
201.213	3186.28
201.288	3171.78
201.363	3178.7
201.438	3178.46
201.512	3195.48
201.587	3174.44
201.662	3180.31
201.737	3191.71
201.812	3203.73
201.886	3167.02
201.961	3177.61
202.036	3164.12
202.111	3160.88
202.186	3134.38
202.26	3114.39
202.335	3091.54
202.41	3086.77
202.485	3073.42
202.559	3054.11
202.634	3029.41
202.709	3041.76
202.784	3025.07
202.858	3027.12
202.933	3010.52
203.008	3013.86
203.082	2998.37
203.157	3007.38
203.232	2969.92
203.306	2955.51
203.381	2930.57
203.456	2916.89
203.53	2902.53
203.605	2894.23
203.68	2884.22
203.754	2889.98
203.829	2893.18
203.904	2885.36
203.978	2894.14
204.053	2917.93
204.127	2929.99
204.202	2954.02
204.277	2959.56
204.351	2981.54
204.426	3003.2
204.5	3027.47
204.575	3027
204.65	3077
204.724	3104.26
204.799	3158.71
204.873	3200.14
204.948	3243.85
205.022	3284.12
205.097	3331.39
205.171	3400.69
205.246	3466.97
205.32	3527.1
205.395	3592.59
205.469	3651.39
205.544	3725.22
205.618	3781.41
205.693	3871.21
205.767	3939.64
205.842	4044.49
205.916	4127.1
205.991	4209.88
206.065	4309.28
206.14	4417.67
206.214	4514
206.289	4609.49
206.363	4726.35
206.438	4839.76
206.512	4961.4
206.586	5095.08
206.661	5220.22
206.735	5321.3
206.81	5449.18
206.884	5598.17
206.958	5717.84
207.033	5873.37
207.107	6023.01
207.181	6194.24
207.256	6327.52
207.33	6489.81
207.405	6653.52
207.479	6826.62
207.553	6989.05
207.628	7129.41
207.702	7301.23
207.776	7454.13
207.851	7619.14
207.925	7796.35
207.999	7958.75
208.073	8128.19
208.148	8301.28
208.222	8460.49
208.296	8666.83
208.371	8850.41
208.445	9029.86
208.519	9229.99
208.593	9424.11
208.668	9589.57
208.742	9775.39
208.816	9960.36
208.89	10155.92
208.965	10335.34
209.039	10518.9
209.113	10717
209.187	10923.68
209.261	11097.9
209.336	11302.85
209.41	11508.57
209.484	11702.6
209.558	11910.22
209.632	12104.94
209.707	12298.89
209.781	12507.06
209.855	12715.05
209.929	12921.35
210.003	13112.96
210.077	13294.06
210.151	13517.96
210.226	13740.23
210.3	13945.39
210.374	14150.64
210.448	14330.63
210.522	14514.58
210.596	14696.5
210.67	14881.65
210.744	15096.63
210.818	15312.96
210.892	15507.55
210.966	15674.28
211.041	15848.91
211.115	16010.14
211.189	16198.26
211.263	16376.74
211.337	16550.2
211.411	16716.43
211.485	16884.1
211.559	17047.29
211.633	17209.62
211.707	17337.95
211.781	17500.94
211.855	17618.15
211.929	17764.99
212.003	17907.45
212.077	18064.6
212.151	18229.18
212.225	18386.81
212.299	18530.81
212.373	18656.92
212.447	18786.22
212.52	18956.77
212.594	19100.66
212.668	19257.19
212.742	19374.63
212.816	19499.2
212.89	19623.87
212.964	19749.02
213.038	19865.55
213.112	20019.19
213.186	20164.39
213.26	20271.57
213.333	20346.03
213.407	20478.17
213.481	20594.12
213.555	20719.91
213.629	20825.31
213.703	20928.93
213.777	21050.58
213.85	21137
213.924	21289.17
213.998	21402.2
214.072	21501.73
214.146	21601.94
214.219	21703.7
214.293	21808.01
214.367	21922.44
214.441	22030.8
214.515	22113.52
214.588	22196.05
214.662	22253.51
214.736	22326.88
214.81	22411.96
214.883	22518.79
214.957	22595.1
215.031	22672.09
215.105	22737.17
215.178	22813.34
215.252	22888.8
215.326	22932.72
215.4	23003.26
215.473	23029.59
215.547	23092.08
215.621	23161.57
215.694	23232.41
215.768	23270.21
215.842	23330.49
215.915	23376.25
215.989	23421.78
216.063	23489.39
216.136	23548.08
216.21	23607.63
216.284	23676.64
216.357	23739.96
216.431	23792.77
216.504	23858.46
216.578	23947.45
216.652	24004.21
216.725	24052.93
216.799	24111.92
216.873	24155.57
216.946	24206.12
217.02	24255.41
217.093	24292.7
217.167	24313.63
217.24	24352.71
217.314	24410.59
217.387	24455.94
217.461	24503.45
217.535	24564.05
217.608	24598.88
217.682	24647.8
217.755	24711.92
217.829	24754.91
217.902	24815.07
217.976	24857.14
218.049	24879.91
218.123	24893.62
218.196	24939.35
218.27	24983.89
218.343	25001.65
218.417	25053.13
218.49	25087.58
218.563	25132.55
218.637	25184.47
218.71	25239.77
218.784	25276.45
218.857	25315.1
218.931	25347
219.004	25376.82
219.077	25401.24
219.151	25438.06
219.224	25460.7
219.298	25478.12
219.371	25506.4
219.444	25510.02
219.518	25534.68
219.591	25569.38
219.665	25626.97
219.738	25661.48
219.811	25669.87
219.885	25718.09
219.958	25749.75
220.031	25770.36
220.105	25803.09
220.178	25825.01
220.251	25848.18
220.325	25885.88
220.398	25914.7
220.471	25943.13
220.544	25972.33
220.618	25987.63
220.691	26004.53
220.764	26026.11
220.838	26049.91
220.911	26060.91
220.984	26116.96
221.057	26133.47
221.131	26169.05
221.204	26149.69
221.277	26174.79
221.35	26217.8
221.424	26208.24
221.497	26222.68
221.57	26233.44
221.643	26250.92
221.716	26257.59
221.79	26246.87
221.863	26241.65
221.936	26236.87
222.009	26238.8
222.082	26246.58
222.155	26249.91
222.229	26272.21
222.302	26282.79
222.375	26274.63
222.448	26282.4
222.521	26271.54
222.594	26267.43
222.667	26235.62
222.74	26249.67
222.814	26244.94
222.887	26239.92
222.96	26261.06
223.033	26258.41
223.106	26262.17
223.179	26259.47
223.252	26260.14
223.325	26269.17
223.398	26255.7
223.471	26252.61
223.544	26242.86
223.617	26240.01
223.69	26231.03
223.763	26207.66
223.837	26194.87
223.91	26199.55
223.983	26175.66
224.056	26153.31
224.129	26150.17
224.202	26155.57
224.275	26137.71
224.348	26111.79
224.42	26091.85
224.493	26050.91
224.566	26040.44
224.639	26031.89
224.712	26002.44
224.785	25985.4
224.858	25953.25
224.931	25936.65
225.004	25905.03
225.077	25889.35
225.15	25825.73
225.223	25809.61
225.296	25818.3
225.369	25787.12
225.442	25756.03
225.514	25743.2
225.587	25713.17
225.66	25687.21
225.733	25666.69
225.806	25643.48
225.879	25626.59
225.952	25583.05
226.025	25582.43
226.097	25571.71
226.17	25546.76
226.243	25500.23
226.316	25466.83
226.389	25456.89
226.461	25441.5
226.534	25414.04
226.607	25387.84
226.68	25411.63
226.753	25384.7
226.825	25331.36
226.898	25323.79
226.971	25300.43
227.044	25279
227.117	25261.15
227.189	25253.77
227.262	25241.32
227.335	25228.72
227.407	25187.32
227.48	25176.56
227.553	25149.34
227.626	25124.25
227.698	25098.14
227.771	25084.29
227.844	25050.71
227.916	25021.04
227.989	24975.34
228.062	24965.26
228.134	24962.08
228.207	24922.12
228.28	24892.31
228.352	24862.11
228.425	24825.1
228.498	24808.84
228.57	24774.54
228.643	24755.43
228.716	24725.66
228.788	24687.16
228.861	24646.78
228.934	24632.3
229.006	24599.69
229.079	24571.13
229.151	24521.49
229.224	24474.02
229.296	24442.57
229.369	24449.8
229.442	24436.68
229.514	24409.62
229.587	24385.16
229.659	24340.01
229.732	24315.02
229.804	24298.53
229.877	24294.43
229.949	24280.15
230.022	24265.24
230.094	24239.05
230.167	24205.82
230.239	24157.92
230.312	24124.78
230.384	24123.96
230.457	24114.36
230.529	24093.38
230.602	24070.04
230.674	24046.79
230.747	24026.92
230.819	24013.9
230.892	23948.06
230.964	23918.83
231.037	23896.36
231.109	23858.64
231.181	23826.23
231.254	23792.28
231.326	23758.43
231.399	23726.35
231.471	23684.92
231.544	23629.31
231.616	23607.08
231.688	23585.53
231.761	23546.47
231.833	23514.69
231.905	23435.94
231.978	23386.94
232.05	23344.65
232.122	23307.67
232.195	23268.41
232.267	23259.54
232.339	23221.64
232.412	23200.37
232.484	23159.63
232.556	23109.29
232.629	23109.92
232.701	23098.05
232.773	23058.9
232.846	23019.56
232.918	22989.61
232.99	22966.08
233.062	22949.25
233.135	22919.94
233.207	22871.97
233.279	22855.86
233.351	22827.71
233.424	22806.11
233.496	22770.14
233.568	22764.26
233.64	22713.69
233.713	22680.85
233.785	22637.51
233.857	22606.41
233.929	22550.78
234.001	22532.75
234.074	22517.37
234.146	22448.82
234.218	22403.98
234.29	22373.03
234.362	22329.02
234.434	22271.94
234.507	22209.61
234.579	22153.11
234.651	22107.46
234.723	22081.62
234.795	22048.69
234.867	22004.63
234.939	21980.87
235.012	21945.59
235.084	21901.52
235.156	21871.98
235.228	21821.94
235.3	21779.04
235.372	21743.71
235.444	21724.91
235.516	21656.46
235.588	21621.85
235.66	21589.22
235.732	21545.02
235.804	21562.71
235.876	21542.23
235.948	21522.75
236.02	21496.29
236.092	21453.25
236.164	21413.49
236.236	21370.01
236.308	21320.42
236.38	21292.03
236.452	21231.98
236.524	21188.6
236.596	21171.97
236.668	21145.66
236.74	21113.7
236.812	21077.89
236.884	21044.25
236.956	21012.49
237.028	20963.48
237.1	20903.18
237.172	20880.63
237.244	20858.07
237.316	20779.27
237.388	20731.84
237.46	20675.94
237.532	20650.35
237.604	20605.67
237.675	20587.36
237.747	20553.33
237.819	20500.9
237.891	20455.98
237.963	20420.13
238.035	20385.48
238.107	20299.94
238.178	20272.18
238.25	20230.78
238.322	20220.95
238.394	20164.13
238.466	20115.6
238.538	20092.57
238.609	20065.15
238.681	20003.32
238.753	19948.91
238.825	19905.82
238.897	19867.7
238.968	19852.28
239.04	19803.85
239.112	19792.67
239.184	19729.64
239.255	19694.7
239.327	19668.44
239.399	19632.15
239.471	19613.31
239.542	19576.83
239.614	19559.24
239.686	19492.64
239.758	19463.19
239.829	19405.94
239.901	19375.58
239.973	19340.79
240.044	19300.5
240.116	19268.46
240.188	19239.74
240.259	19195.31
240.331	19146.49
240.403	19111.6
240.474	19047.7
240.546	18990.35
240.618	18932.72
240.689	18889.64
240.761	18845.11
240.833	18824.82
240.904	18789.31
240.976	18747.33
241.048	18701.74
241.119	18674.23
241.191	18645.89
241.262	18628.01
241.334	18580.07
241.405	18537.9
241.477	18483.78
241.549	18445.61
241.62	18405.23
241.692	18370.39
241.763	18355.07
241.835	18317.72
241.906	18276.27
241.978	18225.43
242.049	18203.79
242.121	18175.07
242.192	18153.15
242.264	18102.93
242.335	18051.46
242.407	18012.19
242.478	17952.53
242.55	17926.79
242.621	17867.52
242.693	17814.46
242.764	17760.87
242.836	17721.45
242.907	17698.32
242.979	17683.23
243.05	17652.1
243.122	17624.25
243.193	17575.91
243.264	17505.65
243.336	17474.75
243.407	17451.33
243.479	17442.22
243.55	17408.01
243.622	17379.28
243.693	17345.5
243.764	17323.14
243.836	17267.72
243.907	17225.93
243.978	17201.55
244.05	17166.46
244.121	17120.24
244.192	17100.48
244.264	17052.96
244.335	17011.52
244.407	16954.6
244.478	16912.57
244.549	16869.97
244.62	16811.75
244.692	16776.08
244.763	16750.11
244.834	16702.15
244.906	16653.91
244.977	16611.74
245.048	16590.39
245.119	16539.93
245.191	16494.57
245.262	16434.04
245.333	16425.99
245.405	16387.67
245.476	16360.06
245.547	16327.52
245.618	16299.95
245.689	16267.57
245.761	16240.86
245.832	16209.3
245.903	16179.41
245.974	16150.3
246.045	16119.16
246.117	16116.22
246.188	16072.36
246.259	16034.09
246.33	15998.76
246.401	15963.43
246.473	15916.78
246.544	15875.81
246.615	15852.53
246.686	15808.28
246.757	15789.29
246.828	15738.82
246.899	15729.62
246.97	15676.64
247.042	15632.64
247.113	15612.06
247.184	15595.86
247.255	15554.17
247.326	15525.73
247.397	15485.24
247.468	15451.55
247.539	15417.42
247.61	15361.27
247.681	15342.95
247.752	15321.5
247.823	15283.13
247.894	15252.81
247.965	15214.3
248.037	15180.02
248.108	15136.11
248.179	15100.35
248.25	15075.28
248.321	15053.54
248.392	15003.41
248.463	14999.75
248.534	14967.79
248.605	14940.55
248.675	14914.91
248.746	14895.48
248.817	14874.13
248.888	14858.75
248.959	14811.75
249.03	14792.04
249.101	14767.84
249.172	14731.2
249.243	14676.49
249.314	14665.07
249.385	14637.3
249.456	14614.69
249.527	14582.97
249.598	14558.87
249.669	14540.22
249.739	14518.67
249.81	14502.18
249.881	14461.45
249.952	14434.74
250.023	14407.31
250.094	14369.76
250.165	14320.64
250.235	14285.6
250.306	14256.24
250.377	14218.06
250.448	14200.66
250.519	14153.27
250.59	14144.02
250.66	14111.91
250.731	14109.79
250.802	14087.09
250.873	14068.05
250.944	14047.56
251.014	14019.84
251.085	14019.69
251.156	13999.64
251.227	13986.14
251.297	13968.89
251.368	13958.18
251.439	13937.98
251.51	13930.18
251.58	13888.28
251.651	13859.22
251.722	13843.21
251.792	13800.64
251.863	13775.96
251.934	13758.56
252.005	13759.91
252.075	13726.26
252.146	13716.19
252.217	13705.77
252.287	13685.58
252.358	13658.92
252.429	13649.52
252.499	13616.83
252.57	13590.08
252.641	13576.29
252.711	13541.39
252.782	13497.43
252.852	13501.81
252.923	13477.18
252.994	13456.98
253.064	13452.88
253.135	13423.96
253.205	13398.12
253.276	13396.48
253.347	13390.21
253.417	13360.42
253.488	13332.9
253.558	13306.82
253.629	13286.76
253.699	13265.36
253.77	13246.75
253.841	13221.93
253.911	13206.4
253.982	13186.01
254.052	13168.27
254.123	13145.9
254.193	13127.1
254.264	13142.14
254.334	13098.47
254.405	13064.15
254.475	13022.83
254.546	12992.66
254.616	12984.56
254.687	12972.6
254.757	12947.01
254.827	12919.72
254.898	12903.14
254.968	12878.94
255.039	12854.98
255.109	12838.64
255.18	12795.4
255.25	12755
255.321	12736.93
255.391	12704.24
255.461	12709.45
255.532	12667.51
255.602	12643.07
255.673	12603.45
255.743	12572.54
255.813	12530.85
255.884	12520.92
255.954	12513.64
256.024	12519.09
256.095	12500.05
256.165	12457.96
256.235	12442.59
256.306	12413.57
256.376	12406.19
256.446	12393.8
256.517	12379.78
256.587	12370.09
256.657	12365.56
256.728	12348.69
256.798	12327.86
256.868	12297.83
256.938	12266.31
257.009	12257.2
257.079	12245.29
257.149	12247.7
257.219	12208.12
257.29	12196.75
257.36	12155.63
257.43	12145.37
257.5	12099
257.571	12071.23
257.641	12061.49
257.711	12032.19
257.781	12021.68
257.852	12003.89
257.922	11973.33
257.992	11951.06
258.062	11930.24
258.132	11922.72
258.202	11901.9
258.273	11896.21
258.343	11895.44
258.413	11864.3
258.483	11841.46
258.553	11813.31
258.623	11785.74
258.693	11763.76
258.764	11763.66
258.834	11761.59
258.904	11743.13
258.974	11717.01
259.044	11699.17
259.114	11688.95
259.184	11673.87
259.254	11655.94
259.324	11614.25
259.394	11600.8
259.464	11603.89
259.535	11582.63
259.605	11552.89
259.675	11526.77
259.745	11510.09
259.815	11483.1
259.885	11460.6
259.955	11467.83
260.025	11437.46
260.095	11418.28
260.165	11413.32
260.235	11408.59
260.305	11376.59
260.375	11344.06
260.445	11356.3
260.515	11349.6
260.585	11340.35
260.655	11318.42
260.725	11311.43
260.795	11305.89
260.865	11307.77
260.934	11276.68
261.004	11265.55
261.074	11253.98
261.144	11255.53
261.214	11242.18
261.284	11226.95
261.354	11227.67
261.424	11205.55
261.494	11212.68
261.564	11200.44
261.634	11187.14
261.703	11148.87
261.773	11152.58
261.843	11141.4
261.913	11122.22
261.983	11094.85
262.053	11091.09
262.123	11080.3
262.192	11043.96
262.262	11039.72
262.332	11004.64
262.402	10994.18
262.472	10981.27
262.541	10939.92
262.611	10938.33
262.681	10911.83
262.751	10903.92
262.821	10879.35
262.89	10849.33
262.96	10829.86
263.03	10835.11
263.1	10825.71
263.169	10809.14
263.239	10798.01
263.309	10804.8
263.379	10792.47
263.448	10774.83
263.518	10756.37
263.588	10741.24
263.657	10754.16
263.727	10740.33
263.797	10720.62
263.867	10708.33
263.936	10670.56
264.006	10666.41
264.076	10634.95
264.145	10617.17
264.215	10591.49
264.285	10592.26
264.354	10558.82
264.424	10542.54
264.494	10508.42
264.563	10482.07
264.633	10498.64
264.702	10484.57
264.772	10448.34
264.842	10428.34
264.911	10424.15
264.981	10397.5
265.05	10382.09
265.12	10356.17
265.19	10350.67
265.259	10352.55
265.329	10340.46
265.398	10334.05
265.468	10357.08
265.537	10343.35
265.607	10336.08
265.676	10333.67
265.746	10325.33
265.815	10332.99
265.885	10316.71
265.955	10296.04
266.024	10287.13
266.094	10242.47
266.163	10241.75
266.232	10244.35
266.302	10236.83
266.371	10223.44
266.441	10209.23
266.51	10206
266.58	10192.85
266.649	10169.34
266.719	10168.81
266.788	10163.56
266.858	10166.74
266.927	10118.8
266.996	10118.52
267.066	10108.54
267.135	10076.75
267.205	10063.5
267.274	10042.36
267.343	10042.36
267.413	10023.81
267.482	10019.48
267.552	10022.51
267.621	9989.32
267.69	9960.71
267.76	9944.57
267.829	9938.79
267.898	9925.06
267.968	9901.99
268.037	9900.21
268.106	9894.67
268.176	9860.85
268.245	9840.04
268.314	9819.04
268.384	9819.81
268.453	9805.99
268.522	9794.81
268.592	9800.98
268.661	9783.01
268.73	9780.46
268.799	9755.32
268.869	9766.68
268.938	9738.84
269.007	9719.15
269.076	9709.51
269.146	9710.19
269.215	9700.99
269.284	9705.08
269.353	9691.98
269.422	9678.88
269.492	9653.07
269.561	9614.54
269.63	9615.99
269.699	9596.05
269.768	9589.98
269.838	9584.35
269.907	9575.58
269.976	9552.61
270.045	9520.3
270.114	9522.47
270.183	9509.61
270.253	9504.65
270.322	9472.96
270.391	9467.13
270.46	9472.29
270.529	9471.13
270.598	9463.57
270.667	9449.12
270.736	9424.42
270.806	9417.43
270.875	9413.87
270.944	9406.89
271.013	9428.61
271.082	9416.9
271.151	9420.76
271.22	9394.08
271.289	9381.03
271.358	9366.82
271.427	9363.79
271.496	9358.01
271.565	9337.88
271.634	9322.72
271.703	9326.67
271.772	9336.58
271.841	9324.21
271.91	9297.68
271.979	9289.25
272.048	9270.13
272.117	9271.77
272.186	9256.99
272.255	9257.71
272.324	9260.7
272.393	9256.65
272.462	9239.27
272.531	9231.42
272.6	9213.6
272.669	9217.6
272.738	9205.61
272.807	9201.18
272.876	9179.71
272.945	9203.45
273.013	9203.59
273.082	9211.78
273.151	9191.07
273.22	9186.35
273.289	9180.63
273.358	9196.76
273.427	9186.69
273.496	9182.84
273.564	9177.35
273.633	9177.4
273.702	9159.3
273.771	9145.81
273.84	9137.29
273.909	9136.76
273.977	9131.66
274.046	9128.58
274.115	9133.44
274.184	9117.6
274.253	9108.46
274.322	9120.54
274.39	9088.91
274.459	9076.68
274.528	9049.86
274.597	9043.75
274.665	9033.3
274.734	9041.25
274.803	9027.14
274.872	9017.85
274.94	9003.74
275.009	9060.19
275.078	9047.92
275.147	9043.97
275.215	9042.57
275.284	9049.46
275.353	9037.23
275.421	9011.33
275.49	9016.92
275.559	9002.76
275.627	9000.26
275.696	8994.63
275.765	8993.76
275.833	8985.24
275.902	8977.3
275.971	8987.74
276.039	9004.26
276.108	9012.54
276.177	9008.44
276.245	8994.53
276.314	8991.4
276.383	8996.41
276.451	8936.16
276.52	8941.16
276.588	8950.31
276.657	8953.49
276.725	8943.72
276.794	8944.29
276.863	8959.7
276.931	8942.7
277	8948.86
277.068	8957.24
277.137	8975.72
277.205	8972.21
277.274	8991.37
277.342	9003.6
277.411	8984.1
277.48	8965.28
277.548	8949.63
277.617	8945.78
277.685	8938.95
277.754	8943.81
277.822	8936.3
277.89	8952
277.959	8943.43
278.027	8926.87
278.096	8914.4
278.164	8942.66
278.233	8936.65
278.301	8927.74
278.37	8934.53
278.438	8919.75
278.507	8919.75
278.575	8899.05
278.643	8892.65
278.712	8869.69
278.78	8853.42
278.849	8862.71
278.917	8880.61
278.985	8878.64
279.054	8883.6
279.122	8898.62
279.191	8895.1
279.259	8890.24
279.327	8856.16
279.396	8869.11
279.464	8867.18
279.532	8878.4
279.601	8875.56
279.669	8873.87
279.737	8883.98
279.806	8885.47
279.874	8897.46
279.942	8895.2
280.011	8883.69
280.079	8890.14
280.147	8912.28
280.215	8920.9
280.284	8918.16
280.352	8900.01
280.42	8909.2
280.488	8901.4
280.557	8890.81
280.625	8893.32
280.693	8893.17
280.761	8899.96
280.83	8881.67
280.898	8893.6
280.966	8867.42
281.034	8830.35
281.102	8811.63
281.171	8804.41
281.239	8811.63
281.307	8804.07
281.375	8793.39
281.443	8812.21
281.512	8813.31
281.58	8818.75
281.648	8803.54
281.716	8801.28
281.784	8797.86
281.852	8787.71
281.92	8783.71
281.989	8792.14
282.057	8770.09
282.125	8819.2
282.193	8812.7
282.261	8813.38
282.329	8803.56
282.397	8814
282.465	8818.09
282.533	8835.61
282.601	8824.11
282.67	8798.07
282.738	8789.79
282.806	8798.79
282.874	8797.01
282.942	8796.81
283.01	8788.58
283.078	8789.69
283.146	8784.88
283.214	8794.5
283.282	8800.04
283.35	8814.38
283.418	8809.95
283.486	8821.12
283.554	8768.83
283.622	8778.37
283.69	8781.59
283.758	8777.45
283.826	8779.67
283.894	8785.34
283.962	8803.98
284.03	8818.41
284.098	8818.27
284.165	8809.99
284.233	8814.08
284.301	8801.81
284.369	8792.66
284.437	8788.04
284.505	8783.33
284.573	8799.74
284.641	8790.26
284.709	8797.91
284.777	8769.94
284.845	8774.52
284.912	8779.91
284.98	8787.18
285.048	8777.26
285.116	8779.96
285.184	8793.43
285.252	8788.62
285.319	8775.29
285.387	8764.21
285.455	8751.6
285.523	8766.04
285.591	8768.79
285.659	8764.26
285.726	8781.25
285.794	8766.58
285.862	8760.27
285.93	8764.75
285.997	8760.13
286.065	8751.13
286.133	8735.63
286.201	8734.52
286.269	8721.28
286.336	8708.77
286.404	8704.24
286.472	8713.05
286.539	8689.09
286.607	8673.2
286.675	8675.66
286.743	8684.46
286.81	8673.49
286.878	8688.65
286.946	8673.73
287.013	8671.18
287.081	8672.96
287.149	8646.97
287.216	8668.96
287.284	8665.35
287.352	8664.49
287.419	8659.39
287.487	8678.74
287.555	8685.28
287.622	8687.74
287.69	8690.82
287.758	8703.91
287.825	8702.22
287.893	8689.28
287.96	8701.35
288.028	8713.87
288.096	8713.34
288.163	8718.34
288.231	8710.55
288.298	8703.9
288.366	8722.92
288.433	8722.39
288.501	8714.45
288.569	8727.68
288.636	8721.57
288.704	8732.3
288.771	8741.93
288.839	8733.41
288.906	8725.47
288.974	8735.77
289.041	8732.16
289.109	8724.22
289.176	8734.23
289.244	8733.89
289.311	8742.17
289.379	8748.24
289.446	8747.18
289.514	8749.06
289.581	8744.05
289.649	8744.68
289.716	8746.99
289.783	8738.13
289.851	8757.57
289.918	8756.56
289.986	8761.09
290.053	8767.49
290.121	8764.74
290.188	8766.53
290.255	8794.73
290.323	8790.21
290.39	8784.72
290.458	8792.71
290.525	8808.98
290.592	8803.73
290.66	8805.8
290.727	8806.14
290.794	8817.78
290.862	8821.73
290.929	8825.97
290.996	8826.11
291.064	8836.22
291.131	8847.63
291.198	8860.72
291.266	8857.69
291.333	8862.45
291.4	8867.75
291.468	8880.84
291.535	8883.11
291.602	8884.65
291.669	8874.44
291.737	8874.92
291.804	8877.14
291.871	8897.64
291.938	8902.5
292.006	8927.06
292.073	8943.14
292.14	8955.12
292.207	8950.45
292.275	8948.96
292.342	8955.65
292.409	8981.26
292.476	9007.74
292.543	8998.55
292.611	8997.01
292.678	9016.12
292.745	9042.79
292.812	9054.73
292.879	9051.36
292.946	9052.32
293.014	9066.48
293.081	9076.73
293.148	9093.39
293.215	9101.43
293.282	9095.5
293.349	9110
293.416	9096.8
293.484	9110.24
293.551	9117.36
293.618	9136.95
293.685	9162.18
293.752	9157.08
293.819	9157.42
293.886	9142.11
293.953	9146.25
294.02	9155.64
294.087	9161.51
294.154	9149.47
294.221	9163.58
294.288	9166.42
294.356	9183.27
294.423	9185.82
294.49	9179.18
294.557	9188.47
294.624	9186.31
294.691	9205.76
294.758	9198.58
294.825	9203.69
294.892	9192.66
294.959	9193.82
295.026	9198.92
295.093	9191.22
295.16	9191.89
295.226	9188.28
295.293	9219.96
295.36	9233.45
295.427	9250.49
295.494	9261.33
295.561	9274.52
295.628	9300
295.695	9312.85
295.762	9320.51
295.829	9333.56
295.896	9358.26
295.963	9373.77
296.03	9387.73
296.096	9389.37
296.163	9406.8
296.23	9422.35
296.297	9439.2
296.364	9435.35
296.431	9443.39
296.498	9445.08
296.564	9474.74
296.631	9480.85
296.698	9460.63
296.765	9478.49
296.832	9469.2
296.899	9455.57
296.965	9473.05
297.032	9448.44
297.099	9464.77
297.166	9466.31
297.233	9458.75
297.299	9443.82
297.366	9446.52
297.433	9448.35
297.5	9456.97
297.566	9453.45
297.633	9452.54
297.7	9453.6
297.767	9458.31
297.833	9461.16
297.9	9464.43
297.967	9444.69
298.033	9460.05
298.1	9492.17
298.167	9482.59
298.234	9482.25
298.3	9495.01
298.367	9489.09
298.434	9497.47
298.5	9481.05
298.567	9479.51
298.634	9476.81
298.7	9498.43
298.767	9491.5
298.834	9501.71
298.9	9499.11
298.967	9492.32
299.033	9503.92
299.1	9519.14
299.167	9528.72
299.233	9524.58
299.3	9538.5
299.366	9560.75
299.433	9572.69
299.5	9543.55
299.566	9546.92
299.633	9565.66
299.699	9575.48
299.766	9573.75
299.832	9580.35
299.899	9596.63
299.965	9615.46
300.032	9617
300.099	9627.26
300.165	9636.55
300.232	9641.61
300.298	9646.09
300.365	9670.22
300.431	9665.74
300.498	9660.25
300.564	9674.84
300.631	9686.73
300.697	9698.15
300.763	9698.82
300.83	9697.47
300.896	9719.72
300.963	9733.69
301.029	9736.68
301.096	9738.84
301.162	9755.32
301.229	9749.2
301.295	9740.43
301.361	9740.92
301.428	9748.96
301.494	9732.53
301.561	9739.9
301.627	9736.97
301.693	9739.71
301.76	9736.1
301.826	9729.55
301.892	9740.38
301.959	9748.14
302.025	9750.07
302.092	9746.16
302.158	9748.96
302.224	9752.52
302.291	9737.45
302.357	9731.72
302.423	9727.43
302.49	9714.81
302.556	9721.84
302.622	9723.48
302.688	9733.55
302.755	9742.27
302.821	9751.56
302.887	9761.87
302.954	9763.22
303.02	9773.09
303.086	9777.76
303.152	9773.86
303.219	9776.32
303.285	9780.94
303.351	9785.66
303.417	9786.34
303.483	9771.5
303.55	9762.11
303.616	9757.63
303.682	9758.5
303.748	9752.77
303.815	9767.41
303.881	9782.77
303.947	9771.36
304.013	9774.73
304.079	9765.63
304.145	9745.78
304.212	9743.47
304.278	9734.9
304.344	9729.79
304.41	9709.32
304.476	9698.44
304.542	9694.54
304.608	9694.3
304.674	9678.5
304.741	9670.02
304.807	9672.05
304.873	9685.48
304.939	9707.3
305.005	9688.81
305.071	9683.99
305.137	9682.45
305.203	9656.01
305.269	9651.43
305.335	9661.74
305.401	9656.15
305.467	9652.39
305.533	9663.81
305.599	9667.81
305.666	9675.51
305.732	9669.73
305.798	9686.88
305.864	9717.51
305.93	9721.13
305.996	9719.68
306.062	9720.74
306.128	9713.95
306.194	9703.26
306.259	9693.58
306.325	9682.45
306.391	9695.02
306.457	9709.23
306.523	9721.46
306.589	9741.25
306.655	9738.03
306.721	9720.64
306.787	9704.75
306.853	9724.01
306.919	9706.48
306.985	9699.69
307.051	9695.16
307.117	9687.75
307.183	9684.09
307.248	9645.65
307.314	9655.77
307.38	9661.21
307.446	9673.35
307.512	9663.14
307.578	9666.51
307.644	9661.07
307.709	9667.18
307.775	9665.69
307.841	9661.11
307.907	9656.49
307.973	9640.74
308.039	9635.92
308.104	9638.38
308.17	9647
308.236	9633.61
308.302	9638.38
308.368	9628.84
308.433	9626.63
308.499	9626.34
308.565	9607.12
308.631	9614.54
308.696	9585.5
308.762	9577.31
308.828	9568.5
308.894	9551.74
308.959	9530.21
309.025	9522.56
309.091	9504.16
309.156	9491.78
309.222	9491.49
309.288	9475.36
309.354	9454.7
309.419	9458.22
309.485	9448.01
309.551	9452.63
309.616	9431.3
309.682	9427.88
309.748	9421.53
309.813	9417.09
309.879	9405.54
309.945	9399.13
310.01	9392.54
310.076	9398.22
310.141	9391.91
310.207	9374.28
310.273	9378.86
310.338	9377.51
310.404	9364.94
310.469	9361.19
310.535	9349.39
310.601	9325.6
310.666	9329.36
310.732	9335.86
310.797	9314
310.863	9302.87
310.928	9290.5
310.994	9299.4
311.059	9298.44
311.125	9293.63
311.191	9301.19
311.256	9287.71
311.322	9292.47
311.387	9271.63
311.453	9718.88
311.518	9690.37
311.584	9695.09
311.649	9703.18
311.715	9692.11
311.78	9689.75
311.846	9680.79
311.911	9688.84
311.976	9688.69
312.042	9675.88
312.107	9662.69
312.173	9656.86
312.238	9648.34
312.304	9636.88
312.369	9623.69
312.434	9608.96
312.5	9602.79
312.565	9570.1
312.631	9576.7
312.696	9568.65
312.761	9574.29
312.827	9117.65
312.892	9153.09
312.958	9145.62
313.023	9140.81
313.088	9142.15
313.154	9130.07
313.219	9122.37
313.284	9109.32
313.35	9114.52
313.415	9105.47
313.48	9105.81
313.546	9113.94
313.611	9129.3
313.676	9127.57
313.741	9122.42
313.807	9130.6
313.872	9137.73
313.937	9145.14
314.003	9151.35
314.068	9147.69
314.133	9154.68
314.198	9139.85
314.264	9117.22
314.329	9100.9
314.394	9094.2
314.459	9087.75
314.525	9111.15
314.59	9098.87
314.655	9090.16
314.72	9095.46
314.785	9098.73
314.851	9088.19
314.916	9064.84
314.981	9045.53
315.046	9032.92
315.111	9020.6
315.176	9005.33
315.242	9006.35
315.307	9006.2
315.372	8989.45
315.437	8985.07
315.502	8972.5
315.567	8985.93
315.632	8977.36
315.698	8981.41
315.763	8976.88
315.828	8973.17
315.893	8967.3
315.958	8967.78
316.023	8955.94
316.088	8931.53
316.153	8909.34
316.218	8899.86
316.283	8885.66
316.348	8863.81
316.413	8869.78
316.479	8853.95
316.544	8818.24
316.609	8783.34
316.674	8741.76
316.739	8708.99
316.804	8675.44
316.869	8643.92
316.934	8605.89
316.999	8578.27
317.064	8524.81
317.129	8482.07
317.194	8446.47
317.259	8394.88
317.324	8349.36
317.389	8306.88
317.454	8264.88
317.518	8231.44
317.583	8205.94
317.648	8182.37
317.713	8150.33
317.778	8085.62
317.843	8055.31
317.908	8020.49
317.973	7980.9
318.038	7953.2
318.103	7919.3
318.168	7885.29
318.233	7850.95
318.297	7800.31
318.362	7758.71
318.427	7722.99
318.492	7693.75
318.557	7644.47
318.622	7617.4
318.687	7593.84
318.751	7555.44
318.816	7523.99
318.881	7489.38
318.946	7438.56
319.011	7394.62
319.075	7349.15
319.14	7316.81
319.205	7275.42
319.27	7242.75
319.335	7197.96
319.399	7158.65
319.464	7125.59
319.529	7072.21
319.594	7032.18
319.658	7004.79
319.723	6959.44
319.788	6932.06
319.853	6878.78
319.917	6851.5
319.982	6797.51
320.047	6758.59
320.112	6732.95
320.176	6682.42
320.241	6651.01
320.306	6619.89
320.37	6578.59
320.435	6553.77
320.5	6525.39
320.564	6481.41
320.629	6437.58
320.694	6409.45
320.758	6366.87
320.823	6323.53
320.888	6298.62
320.952	6248.76
321.017	6203.6
321.082	6165.11
321.146	6132.14
321.211	6100.28
321.275	6059.5
321.34	6020.45
321.405	5975.88
321.469	5927.05
321.534	5885.04
321.598	5828.2
321.663	5796.87
321.727	5768.24
321.792	5716.73
321.857	5669.25
321.921	5629.64
321.986	5589.05
322.05	5530.04
322.115	5491.45
322.179	5448.89
322.244	5391.96
322.308	5360.42
322.373	5316.34
322.437	5274.65
322.502	5243.44
322.566	5195.43
322.631	5157.53
322.695	5114.14
322.76	5069.64
322.824	5037.84
322.889	5000.06
322.953	4960.56
323.018	4892.46
323.082	4823.61
323.146	4772.63
323.211	4721.65
323.275	4682.06
323.34	4639.23
323.404	4603.92
323.468	4558.79
323.533	4514.63
323.597	4471.97
323.662	4420.35
323.726	4384.37
323.79	4342.43
323.855	4276.88
323.919	4230.16
323.983	4188.31
324.048	4121.17
324.112	4271.08
324.177	4138.05
324.241	3921.86
324.305	3710.65
324.37	3506.51
324.434	3309.16
324.498	3265.73
324.562	3213.43
324.627	3151.15
324.691	3092.93
324.755	3027.12
324.82	2952.28
324.884	2874.05
324.948	2799.62
325.012	2703.16
325.077	2577.66
