Data from 20250703_urea_0.1M_MAYP1162681_03-01-05-160.txt Node
Date: Fri Jul 04 03:01:05 BST 2025
User: adleo
Spectrometer: MAYP116268
Trigger mode: 0
Integration Time (sec): 1.000000E0
Scans to average: 1
Electric dark correction enabled: true
Nonlinearity correction enabled: true
Boxcar width: 10
XAxis mode: Wavelengths
Number of Pixels in Spectrum: 2068
>>>>>Begin Spectral Data<<<<<
179.565	1304.94
179.642	1370.6
179.718	1420.63
179.795	1463.08
179.871	1499.21
179.948	1518.84
180.024	1539.98
180.101	1563.15
180.177	1579.05
180.254	1604.89
180.33	1627.94
180.407	1691.43
180.483	1794.1
180.56	1891.84
180.636	1984.33
180.712	1970.59
180.789	1980.62
180.865	1995.64
180.942	2002.54
181.018	2014.43
181.095	2027.7
181.171	2036.45
181.248	2035.45
181.324	2049.06
181.4	2057.29
181.477	2068.32
181.553	2083.54
181.63	2102.37
181.706	2120.21
181.782	2127.91
181.859	2125.34
181.935	2131.01
182.011	2127.68
182.088	2147.23
182.164	2167.98
182.24	2182.01
182.317	2193.62
182.393	2190.95
182.469	2203.94
182.546	2219.78
182.622	2225.64
182.698	2219.31
182.775	2232.58
182.851	2249
182.927	2240.48
183.003	2234.77
183.08	2229.11
183.156	2237.92
183.232	2238.63
183.308	2227.54
183.385	2239.25
183.461	2261.04
183.537	2260.85
183.613	2271.51
183.69	2261.33
183.766	2249.85
183.842	2257.09
183.918	2262.85
183.995	2280.21
184.071	2284.07
184.147	2277.55
184.223	2266.85
184.299	2281.84
184.375	2267.09
184.452	2273.23
184.528	2325.3
184.604	2341.05
184.68	2352.99
184.756	2360.9
184.832	2366.04
184.908	2373.27
184.985	2370.13
185.061	2352.38
185.137	2364.13
185.213	2355.14
185.289	2355.14
185.365	2348.14
185.441	2345.05
185.517	2360.33
185.593	2353.1
185.669	2351.39
185.745	2361.71
185.822	2377.84
185.898	2369.04
185.974	2381.6
186.05	2372.03
186.126	2337.66
186.202	2326.38
186.278	2320.1
186.354	2309.06
186.43	2315.44
186.506	2312.44
186.582	2313.77
186.658	2320.1
186.734	2297.83
186.81	2298.98
186.886	2302.78
186.962	2316.2
187.038	2311.82
187.114	2302.68
187.19	2307.77
187.266	2295.5
187.341	2297.26
187.417	2291.21
187.493	2292.74
187.569	2294.12
187.645	2290.07
187.721	2278.08
187.797	2284.74
187.873	2291.59
187.949	2286.93
188.025	2279.55
188.101	2282.88
188.176	2288.69
188.252	2283.02
188.328	2290.25
188.404	2288.92
188.48	2283.31
188.556	2274.98
188.632	2278.88
188.707	2278.5
188.783	2280.93
188.859	2274.79
188.935	2262.89
189.011	2268.65
189.086	2260.08
189.162	2251.09
189.238	2248.05
189.314	2245.76
189.39	2242
189.465	2234.34
189.541	2248.9
189.617	2234.91
189.693	2229.82
189.768	2231.11
189.844	2259.05
189.92	2252.4
189.996	2261.34
190.071	2273.48
190.147	2277.19
190.223	2284.81
190.298	2277.9
190.374	2263.2
190.45	2275.71
190.526	2287.13
190.601	2281.99
190.677	2283.75
190.753	2310.89
190.828	2311.27
190.904	2328.07
190.98	2343.55
191.055	2356.97
191.131	2349.92
191.207	2370.82
191.282	2379.95
191.358	2371.86
191.433	2356.34
191.509	2371.75
191.585	2369.18
191.66	2370.75
191.736	2376.8
191.811	2366.61
191.887	2382.8
191.963	2405.65
192.038	2413.36
192.114	2411.31
192.189	2414.45
192.265	2412.07
192.34	2393.69
192.416	2395.4
192.491	2388.36
192.567	2390.59
192.642	2394.36
192.718	2394.93
192.793	2381.98
192.869	2378.41
192.944	2379.41
193.02	2385.17
193.095	2390.5
193.171	2399.02
193.246	2399.88
193.322	2394.17
193.397	2395.69
193.473	2380.98
193.548	2363.89
193.624	2368.88
193.699	2368.55
193.775	2384.22
193.85	2386.17
193.925	2392.36
194.001	2390.5
194.076	2385.07
194.152	2376.03
194.227	2363.08
194.302	2353.47
194.378	2359.51
194.453	2354.66
194.529	2368.94
194.604	2354.04
194.679	2346.9
194.755	2325.44
194.83	2333.68
194.905	2334.2
194.981	2343.34
195.056	2336.15
195.131	2338.68
195.207	2339.72
195.282	2328.68
195.357	2312.4
195.433	2328.58
195.508	2320.92
195.583	2327.48
195.659	2340.86
195.734	2346.72
195.809	2349.53
195.884	2358.09
195.96	2357
196.035	2372.89
196.11	2367.13
196.185	2380.41
196.261	2385.65
196.336	2417.4
196.411	2407.3
196.486	2411.16
196.561	2405.25
196.637	2416.06
196.712	2435.68
196.787	2437.77
196.862	2455.62
196.937	2463.43
197.013	2468.33
197.088	2474.81
197.163	2502.1
197.238	2522.55
197.313	2523.16
197.388	2537.12
197.464	2570.65
197.539	2583.41
197.614	2577.56
197.689	2593.75
197.764	2611.71
197.839	2630
197.914	2626.05
197.989	2646.48
198.065	2664.49
198.14	2717.78
198.215	2747.32
198.29	2758.09
198.365	2769.91
198.44	2779.62
198.515	2810.12
198.59	2825.99
198.665	2855.82
198.74	2862.83
198.815	2862.35
198.89	2885.27
198.965	2915.59
199.04	2910.35
199.115	2925.6
199.19	2970.92
199.265	2971.54
199.34	2982.84
199.415	3019.19
199.49	3041.16
199.565	3057.52
199.64	3077.25
199.715	3073.82
199.79	3080.64
199.865	3090.37
199.94	3088.65
200.015	3123.04
200.09	3128.57
200.165	3136.82
200.24	3143.26
200.315	3183.36
200.39	3198.29
200.464	3206.77
200.539	3207.59
200.614	3224.61
200.689	3251.23
200.764	3260.11
200.839	3281.13
200.914	3288.62
200.989	3277.17
201.063	3290.91
201.138	3268.83
201.213	3271.03
201.288	3256.86
201.363	3260.15
201.438	3258.58
201.512	3281.27
201.587	3264.05
201.662	3266.72
201.737	3279.89
201.812	3289.96
201.886	3257.87
201.961	3270.52
202.036	3257.36
202.111	3258.6
202.186	3230.28
202.26	3212.44
202.335	3186.91
202.41	3180.43
202.485	3159.78
202.559	3143.61
202.634	3117.29
202.709	3130.01
202.784	3114.61
202.858	3111.41
202.933	3093.01
203.008	3090.53
203.082	3069.69
203.157	3072.98
203.232	3035.09
203.306	3018.05
203.381	2991.06
203.456	2972.75
203.53	2955.9
203.605	2941.6
203.68	2923.91
203.754	2925.19
203.829	2918.04
203.904	2909.7
203.978	2908.22
204.053	2928.11
204.127	2927.63
204.202	2938.97
204.277	2933.25
204.351	2942.12
204.426	2953.95
204.5	2965.68
204.575	2951.05
204.65	2984.44
204.724	2998.7
204.799	3032.07
204.873	3050.58
204.948	3077.43
205.022	3093.02
205.097	3114.6
205.171	3164.96
205.246	3207.3
205.32	3240.96
205.395	3280.05
205.469	3310.38
205.544	3355.88
205.618	3378.6
205.693	3440.05
205.767	3480.1
205.842	3553.59
205.916	3599.81
205.991	3642.99
206.065	3704.37
206.14	3778.03
206.214	3833.87
206.289	3892.24
206.363	3973.87
206.438	4045.44
206.512	4118.89
206.586	4207.99
206.661	4289.66
206.735	4340.06
206.81	4414.86
206.884	4516.03
206.958	4583.59
207.033	4681.99
207.107	4774.8
207.181	4897.3
207.256	4973.98
207.33	5087.44
207.405	5191.41
207.479	5299.21
207.553	5398.33
207.628	5477.96
207.702	5586.09
207.776	5674.21
207.851	5774.2
207.925	5884.59
207.999	5983.94
208.073	6082.72
208.148	6194.78
208.222	6287.37
208.296	6428.98
208.371	6550.05
208.445	6667.28
208.519	6801.43
208.593	6930.69
208.668	7032.68
208.742	7142.18
208.816	7256.62
208.89	7376.71
208.965	7488.17
209.039	7608.41
209.113	7740.87
209.187	7876.85
209.261	7988.65
209.336	8125.1
209.41	8259.17
209.484	8379.22
209.558	8516.93
209.632	8647.71
209.707	8772.69
209.781	8906.68
209.855	9035.45
209.929	9168.25
210.003	9288.13
210.077	9400.17
210.151	9560.12
210.226	9718.03
210.3	9860.42
210.374	9994.59
210.448	10116.51
210.522	10239.69
210.596	10369.08
210.67	10494.24
210.744	10654.97
210.818	10798.97
210.892	10938.03
210.966	11046.06
211.041	11173.38
211.115	11282.52
211.189	11424.45
211.263	11548.4
211.337	11664.3
211.411	11792.12
211.485	11896.18
211.559	12012.1
211.633	12129.94
211.707	12207.98
211.781	12322.66
211.855	12390.86
211.929	12495.65
212.003	12570.08
212.077	12686.2
212.151	12806.38
212.225	12912.09
212.299	13004.69
212.373	13088.28
212.447	13181.03
212.52	13310.6
212.594	13411.16
212.668	13521.26
212.742	13592.8
212.816	13677.84
212.89	13771.4
212.964	13859.38
213.038	13954.49
213.112	14060.93
213.186	14166.74
213.26	14231.91
213.333	14264.07
213.407	14355.66
213.481	14433.03
213.555	14531.8
213.629	14606.37
213.703	14668.7
213.777	14755.61
213.85	14821.75
213.924	14948.91
213.998	15036.2
214.072	15103.4
214.146	15163.55
214.219	15239.57
214.293	15315.1
214.367	15395.98
214.441	15481.93
214.515	15552.2
214.588	15605.8
214.662	15647.45
214.736	15697.53
214.81	15771.71
214.883	15856.26
214.957	15916.84
215.031	15977.43
215.105	16029.35
215.178	16080.1
215.252	16141.41
215.326	16181.6
215.4	16217.27
215.473	16225.37
215.547	16258.53
215.621	16305.86
215.694	16372.46
215.768	16407.41
215.842	16459.22
215.915	16511.32
215.989	16543.42
216.063	16582.12
216.136	16637.78
216.21	16692.78
216.284	16763.33
216.357	16825.36
216.431	16880.16
216.504	16944.74
216.578	17034.48
216.652	17107.2
216.725	17162.58
216.799	17227.21
216.873	17280.51
216.946	17352.85
217.02	17401.62
217.093	17451.84
217.167	17484.03
217.24	17518.92
217.314	17569.81
217.387	17611.6
217.461	17654
217.535	17716.8
217.608	17758.87
217.682	17808.85
217.755	17871.83
217.829	17909.08
217.902	17959.49
217.976	18007.88
218.049	18045.42
218.123	18074.14
218.196	18115.1
218.27	18156.01
218.343	18178.28
218.417	18234.52
218.49	18278.56
218.563	18349.31
218.637	18404.15
218.71	18474.6
218.784	18535.46
218.857	18593
218.931	18639.84
219.004	18681.05
219.077	18735.89
219.151	18786.73
219.224	18831.98
219.298	18870
219.371	18920.07
219.444	18951.05
219.518	18988.69
219.591	19041.31
219.665	19108.3
219.738	19158.66
219.811	19189.84
219.885	19244.92
219.958	19292.91
220.031	19324.82
220.105	19369.58
220.178	19411.08
220.251	19439.27
220.325	19483.41
220.398	19526.97
220.471	19585.09
220.544	19646.48
220.618	19677.18
220.691	19724.51
220.764	19764.55
220.838	19815.2
220.911	19851.15
220.984	19917.65
221.057	19973.6
221.131	20014.52
221.204	20021.26
221.277	20075.58
221.35	20155.24
221.424	20192.1
221.497	20227.19
221.57	20276.05
221.643	20310.85
221.716	20357.21
221.79	20393.16
221.863	20422.51
221.936	20455.28
222.009	20487.33
222.082	20512.2
222.155	20542.9
222.229	20584.87
222.302	20628.44
222.375	20653.55
222.448	20695.09
222.521	20714.95
222.594	20739.19
222.667	20752.68
222.74	20795.67
222.814	20814.9
222.887	20822.18
222.96	20858.95
223.033	20893.56
223.106	20921.7
223.179	20951.34
223.252	20968.45
223.325	20997.85
223.398	21020.6
223.471	21049.9
223.544	21077.62
223.617	21115.74
223.69	21143.36
223.763	21155.7
223.837	21173.38
223.91	21190.64
223.983	21198.83
224.056	21200.81
224.129	21230.45
224.202	21270.36
224.275	21277.68
224.348	21290.98
224.42	21292.62
224.493	21295.03
224.566	21306.65
224.639	21322.17
224.712	21328.97
224.785	21345.79
224.858	21356.97
224.931	21362.41
225.004	21355.52
225.077	21364.87
225.15	21340.48
225.223	21344.39
225.296	21376.59
225.369	21369.89
225.442	21386.61
225.514	21394.57
225.587	21414.42
225.66	21423.24
225.733	21433.46
225.806	21441.37
225.879	21447.97
225.952	21456.55
226.025	21475.78
226.097	21489.86
226.17	21491.3
226.243	21467.64
226.316	21471.54
226.389	21478.72
226.461	21496.27
226.534	21508.65
226.607	21503.74
226.68	21527.4
226.753	21535.5
226.825	21513.47
226.898	21536.46
226.971	21526.68
227.044	21534.44
227.117	21536.61
227.189	21541.52
227.262	21547.89
227.335	21569.63
227.407	21563.99
227.48	21573.63
227.553	21565.77
227.626	21552.32
227.698	21550.2
227.771	21564.56
227.844	21554.34
227.916	21551.65
227.989	21541.04
228.062	21536.08
228.134	21556.42
228.207	21561.62
228.28	21547.74
228.352	21550.1
228.425	21552.71
228.498	21564.03
228.57	21559.21
228.643	21581.29
228.716	21573.96
228.788	21553.04
228.861	21538.05
228.934	21544.08
229.006	21538.58
229.079	21546.44
229.151	21549.09
229.224	21532.08
229.296	21540.85
229.369	21561.19
229.442	21578.06
229.514	21567.26
229.587	21582.16
229.659	21559.99
229.732	21556.03
229.804	21569.92
229.877	21589
229.949	21586.11
230.022	21605.25
230.094	21604.96
230.167	21591.27
230.239	21577.63
230.312	21582.11
230.384	21598.84
230.457	21596.43
230.529	21582.74
230.602	21569.48
230.674	21563.03
230.747	21579.7
230.819	21578.88
230.892	21544.42
230.964	21528.99
231.037	21530.68
231.109	21513.96
231.181	21513.38
231.254	21493.76
231.326	21477.13
231.399	21455.68
231.471	21435
231.544	21398.71
231.616	21395.14
231.688	21384.68
231.761	21366.13
231.833	21346.51
231.905	21308.58
231.978	21300.19
232.05	21298.46
232.122	21292.91
232.195	21268.81
232.267	21260.19
232.339	21242.93
232.412	21241.49
232.484	21224.76
232.556	21202.06
232.629	21216.09
232.701	21207.99
232.773	21196.47
232.846	21174.49
232.918	21152.37
232.99	21141.82
233.062	21136.03
233.135	21123.55
233.207	21090.2
233.279	21087.83
233.351	21082.97
233.424	21061.91
233.496	21039.35
233.568	21044.17
233.64	21002.82
233.713	20988.41
233.785	20967.25
233.857	20946.86
233.929	20907.05
234.001	20904.6
234.074	20902.19
234.146	20852.25
234.218	20827.29
234.29	20802.95
234.362	20780.93
234.434	20755.67
234.507	20718.8
234.579	20670.76
234.651	20634.71
234.723	20622.8
234.795	20595.14
234.867	20565.74
234.939	20555.43
235.012	20527.28
235.084	20503.76
235.156	20495.14
235.228	20463.33
235.3	20433.64
235.372	20414.7
235.444	20419.76
235.516	20378.46
235.588	20350.12
235.66	20334.89
235.732	20302.89
235.804	20343.67
235.876	20322.08
235.948	20315.04
236.02	20296.34
236.092	20279.28
236.164	20246.47
236.236	20221.12
236.308	20183.19
236.38	20164.25
236.452	20127.53
236.524	20106.81
236.596	20089.12
236.668	20065.75
236.74	20039.82
236.812	20018.76
236.884	20001.27
236.956	19965.41
237.028	19917.51
237.1	19878.86
237.172	19861.51
237.244	19852.36
237.316	19777.56
237.388	19753.27
237.46	19704.46
237.532	19693.71
237.604	19658.92
237.675	19652.03
237.747	19629.18
237.819	19597.38
237.891	19561.96
237.963	19532.27
238.035	19496.56
238.107	19427.32
238.178	19411.17
238.25	19384.19
238.322	19379.37
238.394	19330.21
238.466	19297.3
238.538	19278.89
238.609	19253.59
238.681	19198.61
238.753	19155.81
238.825	19121.5
238.897	19087.58
238.968	19075.91
239.04	19025.94
239.112	19024.45
239.184	18979.54
239.255	18936.12
239.327	18916.07
239.399	18884.22
239.471	18862.48
239.542	18832.56
239.614	18817.76
239.686	18765.43
239.758	18744.95
239.829	18685.48
239.901	18663.55
239.973	18632.28
240.044	18609.1
240.116	18581.82
240.188	18548.72
240.259	18512.77
240.331	18472.19
240.403	18441.25
240.474	18385.06
240.546	18342.46
240.618	18284.06
240.689	18255.91
240.761	18229.6
240.833	18214.13
240.904	18179.87
240.976	18139.1
241.048	18108.26
241.119	18085.27
241.191	18057.95
241.262	18033.66
241.334	18002.24
241.405	17969.61
241.477	17928.07
241.549	17889.81
241.62	17855.69
241.692	17830.24
241.763	17808.61
241.835	17772.27
241.906	17740.51
241.978	17700.08
242.049	17682.05
242.121	17659.64
242.192	17631.31
242.264	17582.2
242.335	17532.66
242.407	17508.66
242.478	17464.99
242.55	17432.22
242.621	17381.43
242.693	17343.26
242.764	17304.56
242.836	17275.98
242.907	17238.92
242.979	17208.85
243.05	17176.27
243.122	17148.17
243.193	17106.44
243.264	17048.85
243.336	17026.1
243.407	16999.93
243.479	16987.64
243.55	16964.65
243.622	16933.13
243.693	16895.06
243.764	16882.48
243.836	16836.4
243.907	16795
243.978	16768.54
244.05	16741.22
244.121	16697.55
244.192	16665.74
244.264	16617.79
244.335	16578.56
244.407	16527.27
244.478	16496.86
244.549	16466.26
244.62	16420.66
244.692	16393.53
244.763	16375.26
244.834	16327.88
244.906	16286.05
244.977	16264.6
245.048	16237.47
245.119	16198.04
245.191	16160.49
245.262	16105.93
245.333	16094.56
245.405	16067.66
245.476	16042.75
245.547	16017.59
245.618	15993.1
245.689	15968.62
245.761	15940.37
245.832	15909.09
245.903	15897.38
245.974	15872.99
246.045	15833.66
246.117	15815.29
246.188	15769.36
246.259	15724.15
246.33	15690.07
246.401	15653.39
246.473	15590.53
246.544	15544.6
246.615	15523.92
246.686	15488.93
246.757	15476.54
246.828	15431.47
246.899	15406.12
246.97	15355.07
247.042	15312.08
247.113	15292.51
247.184	15274.91
247.255	15244.4
247.326	15210.51
247.397	15175.04
247.468	15145.63
247.539	15118.3
247.61	15070.49
247.681	15057.52
247.752	15049.61
247.823	15013.75
247.894	14990.27
247.965	14959.42
248.037	14925.59
248.108	14876.27
248.179	14845.71
248.25	14812.93
248.321	14788.78
248.392	14752.44
248.463	14750.32
248.534	14717.88
248.605	14699.22
248.675	14665.14
248.746	14642.63
248.817	14620.7
248.888	14595.92
248.959	14547.23
249.03	14516.14
249.101	14493.15
249.172	14451.54
249.243	14394.71
249.314	14386.03
249.385	14364.44
249.456	14346.84
249.527	14325.73
249.598	14310.5
249.669	14277.38
249.739	14243.73
249.81	14217.94
249.881	14176.63
249.952	14147.61
250.023	14117.53
250.094	14074.05
250.165	14038.76
250.235	14002.27
250.306	13973.44
250.377	13935.02
250.448	13912.41
250.519	13874.09
250.59	13865.17
250.66	13833.16
250.731	13825.59
250.802	13793.44
250.873	13761.72
250.944	13739.49
251.014	13706.47
251.085	13708.26
251.156	13687.91
251.227	13682.8
251.297	13673.84
251.368	13662.7
251.439	13642.46
251.51	13639.85
251.58	13601.82
251.651	13575.3
251.722	13568.84
251.792	13529.27
251.863	13507.43
251.934	13505.31
252.005	13518.27
252.075	13494.12
252.146	13484.39
252.217	13472.33
252.287	13460.62
252.358	13445.82
252.429	13435.89
252.499	13407.4
252.57	13381.13
252.641	13368.26
252.711	13341.02
252.782	13298.79
252.852	13298.98
252.923	13274.01
252.994	13247.6
253.064	13240.22
253.135	13202.96
253.205	13168.92
253.276	13165.74
253.347	13161.55
253.417	13125.63
253.488	13092.18
253.558	13059.3
253.629	13048.89
253.699	13027
253.77	13017.02
253.841	12984.15
253.911	12962.21
253.982	12944.04
254.052	12922.2
254.123	12905.48
254.193	12887.11
254.264	12906.78
254.334	12870.38
254.405	12833.7
254.475	12803.52
254.546	12780.57
254.616	12782.84
254.687	12771.08
254.757	12752.23
254.827	12723.36
254.898	12710.73
254.968	12684.55
255.039	12654.37
255.109	12630.13
255.18	12599.47
255.25	12547.02
255.321	12535.36
255.391	12505.18
255.461	12515.11
255.532	12471.2
255.602	12440.59
255.673	12397.78
255.743	12364.71
255.813	12312.99
255.884	12310.44
255.954	12290.05
256.024	12292.55
256.095	12263.73
256.165	12231.09
256.235	12216.54
256.306	12186.84
256.376	12175.56
256.446	12164.77
256.517	12151.13
256.587	12145.39
256.657	12126.69
256.728	12116.28
256.798	12095.41
256.868	12071.45
256.938	12032.93
257.009	12023.39
257.079	12015.53
257.149	12026.52
257.219	11983.96
257.29	11976.92
257.36	11933.21
257.43	11930.94
257.5	11882.02
257.571	11865.49
257.641	11852.66
257.711	11819.7
257.781	11810.68
257.852	11795.35
257.922	11755.16
257.992	11748.65
258.062	11720.45
258.132	11715.29
258.202	11696.55
258.273	11682.91
258.343	11680.11
258.413	11651.14
258.483	11628.97
258.553	11595.19
258.623	11562.51
258.693	11548.72
258.764	11547.03
258.834	11548
258.904	11519.75
258.974	11494.65
259.044	11471.41
259.114	11453.29
259.184	11440.04
259.254	11424.47
259.324	11383.75
259.394	11372.42
259.464	11361.58
259.535	11341.77
259.605	11314.54
259.675	11284.61
259.745	11269.09
259.815	11239.35
259.885	11213.67
259.955	11231.65
260.025	11210.35
260.095	11188.32
260.165	11176.13
260.235	11180.52
260.305	11154.11
260.375	11124.52
260.445	11139.5
260.515	11137
260.585	11137.14
260.655	11117.34
260.725	11107.6
260.795	11099.94
260.865	11106.25
260.934	11078.11
261.004	11070.4
261.074	11062.3
261.144	11070.59
261.214	11070.06
261.284	11053
261.354	11053.1
261.424	11021.48
261.494	11029.67
261.564	11011.84
261.634	11012.71
261.703	10969.05
261.773	10962.25
261.843	10959.6
261.913	10934.02
261.983	10901.88
262.053	10888.53
262.123	10878.7
262.192	10844.34
262.262	10839.67
262.332	10807.09
262.402	10806.08
262.472	10797.16
262.541	10753.17
262.611	10743.34
262.681	10716.6
262.751	10705.76
262.821	10684.85
262.89	10657.04
262.96	10643.11
263.03	10652.7
263.1	10634.78
263.169	10628.22
263.239	10626.35
263.309	10631.12
263.379	10622.35
263.448	10609.96
263.518	10595.75
263.588	10578.31
263.657	10590.21
263.727	10584.09
263.797	10574.36
263.867	10548.96
263.936	10513.17
264.006	10515.14
264.076	10495.48
264.145	10469.85
264.215	10449.95
264.285	10448.85
264.354	10410.4
264.424	10385.69
264.494	10355.33
264.563	10335.09
264.633	10332.49
264.702	10312.45
264.772	10279.49
264.842	10256.71
264.911	10253.53
264.981	10221.73
265.05	10207.42
265.12	10181.21
265.19	10165.36
265.259	10158.04
265.329	10158.23
265.398	10147.54
265.468	10164.3
265.537	10148.21
265.607	10145.32
265.676	10143.64
265.746	10136.55
265.815	10135.01
265.885	10123.93
265.955	10101.2
266.024	10078.75
266.094	10046.09
266.163	10052.35
266.232	10055.19
266.302	10041.23
266.371	10031.3
266.441	10023.98
266.51	10017.96
266.58	9998.6
266.649	9977.11
266.719	9972.92
266.788	9962.51
266.858	9970.27
266.927	9924.65
266.996	9909.86
267.066	9904.42
267.135	9881.11
267.205	9875.23
267.274	9870.75
267.343	9873.16
267.413	9856.06
267.482	9862.04
267.552	9867.05
267.621	9837.08
267.69	9803.85
267.76	9799.9
267.829	9788.05
267.898	9778.66
267.968	9759.39
268.037	9760.26
268.106	9755.88
268.176	9738.1
268.245	9723.32
268.314	9704.77
268.384	9713.39
268.453	9701.4
268.522	9690.37
268.592	9693.79
268.661	9673.08
268.73	9662.87
268.799	9638.11
268.869	9650.49
268.938	9613.12
269.007	9588.41
269.076	9574.06
269.146	9578.11
269.215	9571.27
269.284	9577.29
269.353	9561.88
269.422	9550.51
269.492	9531.93
269.561	9495.43
269.63	9483.19
269.699	9462.87
269.768	9452.32
269.838	9439.85
269.907	9444.38
269.976	9415.63
270.045	9376.82
270.114	9368.44
270.183	9355.39
270.253	9349.76
270.322	9320
270.391	9319.52
270.46	9328.57
270.529	9329.1
270.598	9320.05
270.667	9304.74
270.736	9278.83
270.806	9274.06
270.875	9278.39
270.944	9268.91
271.013	9296.79
271.082	9288.46
271.151	9284.46
271.22	9251.43
271.289	9235.5
271.358	9219.32
271.427	9218.93
271.496	9219.51
271.565	9208.34
271.634	9205.31
271.703	9208.53
271.772	9212.72
271.841	9198.04
271.91	9169.39
271.979	9158.7
272.048	9135.01
272.117	9131.4
272.186	9119.8
272.255	9113.49
272.324	9108.48
272.393	9104
272.462	9082.1
272.531	9078.63
272.6	9068.13
272.669	9081.47
272.738	9074.73
272.807	9073.33
272.876	9048.44
272.945	9074.35
273.013	9075.93
273.082	9078.87
273.151	9057.59
273.22	9059.04
273.289	9055.09
273.358	9069.15
273.427	9056.15
273.496	9061.44
273.564	9063.32
273.633	9063.85
273.702	9045.41
273.771	9031.45
273.84	9023.85
273.909	9017.92
273.977	9009.74
274.046	9000.88
274.115	8999.49
274.184	8983.65
274.253	8971.66
274.322	8982.68
274.39	8947.98
274.459	8930.31
274.528	8899.36
274.597	8889.58
274.665	8881.45
274.734	8889.39
274.803	8875.81
274.872	8873.89
274.94	8859.54
275.009	8919.32
275.078	8905.55
275.147	8908.68
275.215	8906.46
275.284	8915.32
275.353	8903
275.421	8881.91
275.49	8896.74
275.559	8887.26
275.627	8881.48
275.696	8871.95
275.765	8866.23
275.833	8860.98
275.902	8864.4
275.971	8878.45
276.039	8894.96
276.108	8898.67
276.177	8894.87
276.245	8887.79
276.314	8879.99
276.383	8882.88
276.451	8810.78
276.52	8813.29
276.588	8819.98
276.657	8830.43
276.725	8820.12
276.794	8818.87
276.863	8827.44
276.931	8802.02
277	8811.65
277.068	8822.29
277.137	8842.26
277.205	8846.6
277.274	8868.06
277.342	8874.71
277.411	8857.86
277.48	8840.29
277.548	8821.76
277.617	8826.62
277.685	8817
277.754	8824.5
277.822	8816.23
277.89	8829.66
277.959	8820.61
278.027	8812.04
278.096	8792.55
278.164	8815.46
278.233	8812.33
278.301	8802.23
278.37	8809.35
278.438	8797.03
278.507	8796.01
278.575	8768.24
278.643	8761.6
278.712	8742.73
278.78	8726.32
278.849	8732.48
278.917	8746.05
278.985	8743.26
279.054	8741.53
279.122	8756.11
279.191	8750
279.259	8747.3
279.327	8724.53
279.396	8742.44
279.464	8734.54
279.532	8745.13
279.601	8743.59
279.669	8745.18
279.737	8758.32
279.806	8767.61
279.874	8773.48
279.942	8771.65
280.011	8767.85
280.079	8779.74
280.147	8790.81
280.215	8803.52
280.284	8795.82
280.352	8781.14
280.42	8788.65
280.488	8774.54
280.557	8767.37
280.625	8776.13
280.693	8777.72
280.761	8780.9
280.83	8754.28
280.898	8770.12
280.966	8747.54
281.034	8709.81
281.102	8685.89
281.171	8681.27
281.239	8684.4
281.307	8678.86
281.375	8668.47
281.443	8698.89
281.512	8698.6
281.58	8703.85
281.648	8681.27
281.716	8683.34
281.784	8682.38
281.852	8681.03
281.92	8686.62
281.989	8693.45
282.057	8670.44
282.125	8713.1
282.193	8709.92
282.261	8718.58
282.329	8710.79
282.397	8714.35
282.465	8720.41
282.533	8738.5
282.601	8726.57
282.67	8701.63
282.738	8688.4
282.806	8693.55
282.874	8675.11
282.942	8671.89
283.01	8669.34
283.078	8677.9
283.146	8677.42
283.214	8683.82
283.282	8683.34
283.35	8693.93
283.418	8695.81
283.486	8700.81
283.554	8656.96
283.622	8655.85
283.69	8657.29
283.758	8647.57
283.826	8657.24
283.894	8666.68
283.962	8688.05
284.03	8704.99
284.098	8706.63
284.165	8705.23
284.233	8710.57
284.301	8703.35
284.369	8692.62
284.437	8680.06
284.505	8671.54
284.573	8688.34
284.641	8677.03
284.709	8682.9
284.777	8660.04
284.845	8652.72
284.912	8658.5
284.98	8661.53
285.048	8650.8
285.116	8653.92
285.184	8671.73
285.252	8670.48
285.319	8652.58
285.387	8643.91
285.455	8625.19
285.523	8634.24
285.591	8632.65
285.659	8630.58
285.726	8644.97
285.794	8627.94
285.862	8628.85
285.93	8632.99
285.997	8625.24
286.065	8622.31
286.133	8617.06
286.201	8618.99
286.269	8606.18
286.336	8599.3
286.404	8588.57
286.472	8607.97
286.539	8580.3
286.607	8561.24
286.675	8561.72
286.743	8573.37
286.81	8569.85
286.878	8587.9
286.946	8576.78
287.013	8578.76
287.081	8579.91
287.149	8565.62
287.216	8592.03
287.284	8587.17
287.352	8584.09
287.419	8575.38
287.487	8597.67
287.555	8598.34
287.622	8594.92
287.69	8609.56
287.758	8618.94
287.825	8625.73
287.893	8608.74
287.96	8628.27
288.028	8642.23
288.096	8647.09
288.163	8651.13
288.231	8638.91
288.298	8636.6
288.366	8651.23
288.433	8642.33
288.501	8637.27
288.569	8637.13
288.636	8627.12
288.704	8641.51
288.771	8649.98
288.839	8648.73
288.906	8632.8
288.974	8639.82
289.041	8640.11
289.109	8627.41
289.176	8634.77
289.244	8636.46
289.311	8649.83
289.379	8652.39
289.446	8652.77
289.514	8645.07
289.581	8645.79
289.649	8646.95
289.716	8646.47
289.783	8638.23
289.851	8666.68
289.918	8663.55
289.986	8682.56
290.053	8692.62
290.121	8684.1
290.188	8689.11
290.255	8719.96
290.323	8716.98
290.39	8712.64
290.458	8717.22
290.525	8728.19
290.592	8724.92
290.66	8725.73
290.727	8716.54
290.794	8731.65
290.862	8726.99
290.929	8734.69
290.996	8726.55
291.064	8736.66
291.131	8751.63
291.198	8764.19
291.266	8754.18
291.333	8758.27
291.4	8751.15
291.468	8765.83
291.535	8765.64
291.602	8764.39
291.669	8747.97
291.737	8750.81
291.804	8751.58
291.871	8773.58
291.938	8780.03
292.006	8809.59
292.073	8828.5
292.14	8839.62
292.207	8834.81
292.275	8841.45
292.342	8844.58
292.409	8879.29
292.476	8905.33
292.543	8892.09
292.611	8898.26
292.678	8921.46
292.745	8946.06
292.812	8960.21
292.879	8949.91
292.946	8958.28
293.014	8974.21
293.081	8986.49
293.148	9004.44
293.215	9023.51
293.282	9012.39
293.349	9028.56
293.416	9004.59
293.484	9009.59
293.551	9023.31
293.618	9039.49
293.685	9063.51
293.752	9064.04
293.819	9058.6
293.886	9042.47
293.953	9050.75
294.02	9059.85
294.087	9067.46
294.154	9061.2
294.221	9080.89
294.288	9088.65
294.356	9106.26
294.423	9110.89
294.49	9100.06
294.557	9117.1
294.624	9105.35
294.691	9132.36
294.758	9132.12
294.825	9143.87
294.892	9135.25
294.959	9137.56
295.026	9142.47
295.093	9132.55
295.16	9128.22
295.226	9130.44
295.293	9157.3
295.36	9163.71
295.427	9173.14
295.494	9184.36
295.561	9188.41
295.628	9203.82
295.695	9218.36
295.762	9219.76
295.829	9231.26
295.896	9252.88
295.963	9259.14
296.03	9276.91
296.096	9277
296.163	9286.78
296.23	9300.55
296.297	9324.14
296.364	9327.03
296.431	9330.45
296.498	9327.17
296.564	9353.94
296.631	9354.66
296.698	9336.99
296.765	9360.54
296.832	9349.18
296.899	9333.04
296.965	9359.34
297.032	9335.21
297.099	9351.53
297.166	9359.81
297.233	9353.84
297.299	9345.13
297.366	9344.6
297.433	9338.77
297.5	9349.56
297.566	9341.18
297.633	9338.05
297.7	9336.51
297.767	9328.9
297.833	9336.51
297.9	9343.45
297.967	9329.68
298.033	9346.05
298.1	9380.77
298.167	9366.52
298.234	9372.82
298.3	9384.72
298.367	9374.75
298.434	9384.96
298.5	9373.69
298.567	9371.23
298.634	9373.21
298.7	9392.27
298.767	9393.72
298.834	9413.12
298.9	9408.6
298.967	9408.84
299.033	9425.89
299.1	9438.31
299.167	9461.71
299.233	9452.42
299.3	9463.21
299.366	9485.88
299.433	9500.62
299.5	9468.55
299.566	9476.59
299.633	9492.63
299.699	9510.16
299.766	9512.08
299.832	9512.57
299.899	9525.66
299.965	9539.49
300.032	9538.76
300.099	9546.37
300.165	9545.65
300.232	9537.51
300.298	9536.55
300.365	9557.4
300.431	9556.29
300.498	9547.67
300.564	9549.5
300.631	9570.02
300.697	9586.15
300.763	9586.15
300.83	9582.92
300.896	9604.45
300.963	9609.89
301.029	9619.19
301.096	9616.59
301.162	9625.49
301.229	9624.24
301.295	9607
301.361	9605.89
301.428	9609.07
301.494	9591.54
301.561	9602.96
301.627	9608.35
301.693	9614.8
301.76	9611.43
301.826	9598.14
301.892	9618.9
301.959	9630.02
302.025	9621.02
302.092	9617.6
302.158	9618.51
302.224	9623.67
302.291	9613.27
302.357	9615.87
302.423	9598.43
302.49	9588.46
302.556	9601.8
302.622	9610.67
302.688	9629.16
302.755	9650.06
302.821	9663.11
302.887	9677.66
302.954	9673.9
303.02	9682.52
303.086	9683.92
303.152	9679.25
303.219	9676.4
303.285	9677.37
303.351	9679.68
303.417	9685.46
303.483	9678.19
303.55	9673.23
303.616	9667.98
303.682	9665.67
303.748	9655.02
303.815	9678.57
303.881	9690.71
303.947	9678.33
304.013	9680.4
304.079	9673.08
304.145	9643.17
304.212	9634.89
304.278	9628
304.344	9626.08
304.41	9608.98
304.476	9600.55
304.542	9602.33
304.608	9616.16
304.674	9597.85
304.741	9595.3
304.807	9601.51
304.873	9605.7
304.939	9623.33
305.005	9602.14
305.071	9604.26
305.137	9609.65
305.203	9586.44
305.269	9581.81
305.335	9597.18
305.401	9593.71
305.467	9586.97
305.533	9600.84
305.599	9614.52
305.666	9623.57
305.732	9620.73
305.798	9637.68
305.864	9665.76
305.93	9670.63
305.996	9670.63
306.062	9667.78
306.128	9660.75
306.194	9645.58
306.259	9644.09
306.325	9638.07
306.391	9653.19
306.457	9663.74
306.523	9658.82
306.589	9680.11
306.655	9671.11
306.721	9646.01
306.787	9631.71
306.853	9649.48
306.919	9627.28
306.985	9615.1
307.051	9606.28
307.117	9602.48
307.183	9602.24
307.248	9571.27
307.314	9578.4
307.38	9578.35
307.446	9588.99
307.512	9579.02
307.578	9585.48
307.644	9577.77
307.709	9576.18
307.775	9569.68
307.841	9559.81
307.907	9568.33
307.973	9546.51
308.039	9545.12
308.104	9554.56
308.17	9555.62
308.236	9543.24
308.302	9551.71
308.368	9538.86
308.433	9538.61
308.499	9534.57
308.565	9515.55
308.631	9520.94
308.696	9493.83
308.762	9480.49
308.828	9470.42
308.894	9454.92
308.959	9428.96
309.025	9418.42
309.091	9408.21
309.156	9402.29
309.222	9409.75
309.288	9393.71
309.354	9373.11
309.419	9373.44
309.485	9357.36
309.551	9364.29
309.616	9345.18
309.682	9341.23
309.748	9336.03
309.813	9335.55
309.879	9324.91
309.945	9316.77
310.01	9307.81
310.076	9307.62
310.141	9302.03
310.207	9293.46
310.273	9291.3
310.338	9297.41
310.404	9278.3
310.469	9271.22
310.535	9260.43
310.601	9238.62
310.666	9244.59
310.732	9254.41
310.797	9241.84
310.863	9235.01
310.928	9226.19
310.994	9230.77
311.059	9230.43
311.125	9228.17
311.191	9237.27
311.256	9228.89
311.322	9235.1
311.387	9210.5
311.453	9551.48
311.518	9530.73
311.584	9525.77
311.649	9538.1
311.715	9525.15
311.78	9532.51
311.846	9521.29
311.911	9527.07
311.976	9528.23
312.042	9514.65
312.107	9501.99
312.173	9498.52
312.238	9483.36
312.304	9475.32
312.369	9462.17
312.434	9451.53
312.5	9446.33
312.565	9409.11
312.631	9415.37
312.696	9405.26
312.761	9414.21
312.827	9067.99
312.892	9107.95
312.958	9109.2
313.023	9097.94
313.088	9104.58
313.154	9089.23
313.219	9078.92
313.284	9069.05
313.35	9061.01
313.415	9052.73
313.48	9050.33
313.546	9056.34
313.611	9067.46
313.676	9058.7
313.741	9052.97
313.807	9054.61
313.872	9054.03
313.937	9061.4
314.003	9070.21
314.068	9068.28
314.133	9070.74
314.198	9062.07
314.264	9032.55
314.329	9018.21
314.394	9016.86
314.459	9009.69
314.525	9036.12
314.59	9030.72
314.655	9020.76
314.72	9031.3
314.785	9033.42
314.851	9024.13
314.916	8996.88
314.981	8987.3
315.046	8981.82
315.111	8969.01
315.176	8960.11
315.242	8971.42
315.307	8968.48
315.372	8947.11
315.437	8939.07
315.502	8930.64
315.567	8940.95
315.632	8927.85
315.698	8928.19
315.763	8920.92
315.828	8913.36
315.893	8904.22
315.958	8908.36
316.023	8896.37
316.088	8874.75
316.153	8850.3
316.218	8843.61
316.283	8834.28
316.348	8815.17
316.413	8812.62
316.479	8801.55
316.544	8768.92
316.609	8734.79
316.674	8698.99
316.739	8662.27
316.804	8632.58
316.869	8602.02
316.934	8562.17
316.999	8535.8
317.064	8486.77
317.129	8446.68
317.194	8410.55
317.259	8363.53
317.324	8305.75
317.389	8265.87
317.454	8226.12
317.518	8191.82
317.583	8170.22
317.648	8144.63
317.713	8111.72
317.778	8046.92
317.843	8019.6
317.908	7979.39
317.973	7941.05
318.038	7918.45
318.103	7884.12
318.168	7855.11
318.233	7822.7
318.297	7769.95
318.362	7733.64
318.427	7698.54
318.492	7675.75
318.557	7628.92
318.622	7604.93
318.687	7582.96
318.751	7538.59
318.816	7510.95
318.881	7479.13
318.946	7421.1
319.011	7372.59
319.075	7333.42
319.14	7303.43
319.205	7257
319.27	7227.26
319.335	7181.03
319.399	7140.71
319.464	7124.08
319.529	7065.22
319.594	7025.29
319.658	7003.96
319.723	6958.8
319.788	6927.77
319.853	6872.27
319.917	6845.86
319.982	6787.97
320.047	6753.82
320.112	6731.29
320.176	6674.19
320.241	6640.76
320.306	6615.64
320.37	6574.54
320.435	6546.88
320.5	6517.69
320.564	6484.42
320.629	6444.62
320.694	6416.97
320.758	6369.45
320.823	6315.97
320.888	6295.14
320.952	6248.63
321.017	6204.29
321.082	6167.38
321.146	6131.63
321.211	6101.16
321.275	6058.94
321.34	6017.79
321.405	5974.95
321.469	5926.74
321.534	5884.54
321.598	5836.48
321.663	5798.77
321.727	5768.94
321.792	5717.76
321.857	5677.43
321.921	5633.7
321.986	5591.41
322.05	5530.82
322.115	5499.37
322.179	5459.4
322.244	5403.14
322.308	5372.94
322.373	5326.46
322.437	5286.63
322.502	5264.92
322.566	5217.52
322.631	5183.6
322.695	5149.45
322.76	5106.44
322.824	5075.25
322.889	5039.77
322.953	4995.15
323.018	4930.79
323.082	4867.26
323.146	4812.03
323.211	4758.69
323.275	4713.84
323.34	4668.91
323.404	4634.65
323.468	4587.5
323.533	4541.85
323.597	4495.08
323.662	4441.87
323.726	4411.11
323.79	4365.52
323.855	4300.34
323.919	4251.94
323.983	4205.45
324.048	4132.76
324.112	4287.86
324.177	4157.77
324.241	3941.54
324.305	3730.47
324.37	3527.91
324.434	3331.09
324.498	3291.25
324.562	3239.49
324.627	3182.11
324.691	3125.41
324.755	3060.93
324.82	2984.24
324.884	2906.85
324.948	2837.55
325.012	2741.06
325.077	2608.05
