Data from 20250703_urea_0.1M_MAYP1162681_16-31-05-162.txt Node
Date: Thu Jul 03 16:31:05 BST 2025
User: adleo
Spectrometer: MAYP116268
Trigger mode: 0
Integration Time (sec): 1.000000E0
Scans to average: 1
Electric dark correction enabled: true
Nonlinearity correction enabled: true
Boxcar width: 10
XAxis mode: Wavelengths
Number of Pixels in Spectrum: 2068
>>>>>Begin Spectral Data<<<<<
179.565	1296.28
179.642	1357.53
179.718	1406.36
179.795	1450.07
179.871	1487.89
179.948	1508.69
180.024	1531.79
180.101	1555.55
180.177	1572.07
180.254	1597.78
180.33	1622.66
180.407	1685.35
180.483	1788.82
180.56	1886.99
180.636	1977.77
180.712	1965.21
180.789	1977.44
180.865	1989.7
180.942	1995.97
181.018	2007.86
181.095	2026.8
181.171	2031.65
181.248	2030.98
181.324	2047.68
181.4	2054.58
181.477	2064.42
181.553	2078.07
181.63	2099.09
181.706	2119.46
181.782	2129.54
181.859	2125.73
181.935	2129.73
182.011	2121.83
182.088	2138.67
182.164	2158.62
182.24	2173.31
182.317	2186.87
182.393	2184.2
182.469	2200.04
182.546	2215.41
182.622	2220.88
182.698	2212.94
182.775	2224.69
182.851	2242.24
182.927	2233.87
183.003	2228.73
183.08	2224.26
183.156	2233.97
183.232	2232.06
183.308	2216.79
183.385	2223.45
183.461	2246.24
183.537	2245.86
183.613	2260.56
183.69	2251.47
183.766	2241.48
183.842	2250.52
183.918	2254.37
183.995	2268.27
184.071	2273.5
184.147	2265.84
184.223	2253.38
184.299	2268.47
184.375	2258.19
184.452	2262.62
184.528	2315.84
184.604	2328.35
184.68	2338.44
184.756	2345.67
184.832	2350.58
184.908	2356.19
184.985	2355.52
185.061	2335.68
185.137	2345.34
185.213	2335.73
185.289	2336.73
185.365	2328.21
185.441	2325.73
185.517	2339.78
185.593	2336.69
185.669	2333.31
185.745	2346.44
185.822	2364.33
185.898	2354.48
185.974	2364.71
186.05	2355.76
186.126	2318.91
186.202	2310.68
186.278	2305.35
186.354	2295.69
186.43	2302.21
186.506	2300.4
186.582	2298.93
186.658	2308.25
186.734	2289.79
186.81	2292.79
186.886	2296.26
186.962	2309.54
187.038	2306.21
187.114	2295.45
187.19	2302.92
187.266	2291.59
187.341	2290.4
187.417	2282.69
187.493	2281.31
187.569	2286.65
187.645	2283.55
187.721	2269.89
187.797	2278.89
187.873	2285.74
187.949	2277.79
188.025	2271.13
188.101	2274.08
188.176	2280.5
188.252	2273.89
188.328	2283.5
188.404	2281.78
188.48	2275.46
188.556	2268.36
188.632	2268.22
188.707	2270.51
188.783	2265.51
188.859	2260.61
188.935	2250.42
189.011	2258.99
189.086	2255.28
189.162	2244
189.238	2238.76
189.314	2239.43
189.39	2233.1
189.465	2224.58
189.541	2243.57
189.617	2224.97
189.693	2223.02
189.768	2226.25
189.844	2257.01
189.92	2247.54
189.996	2258.01
190.071	2268.67
190.147	2268.29
190.223	2276.1
190.298	2269.53
190.374	2257.59
190.45	2271.05
190.526	2279.38
190.601	2273.95
190.677	2274.9
190.753	2305.48
190.828	2309.61
190.904	2325.28
190.98	2340.37
191.055	2351.98
191.131	2342.22
191.207	2366.58
191.282	2375.44
191.358	2367.77
191.433	2346.3
191.509	2358.33
191.585	2355.47
191.66	2358.05
191.736	2365.85
191.811	2357
191.887	2373.71
191.963	2400.65
192.038	2406.7
192.114	2405.75
192.189	2410.22
192.265	2405.46
192.34	2383.17
192.416	2383.55
192.491	2376.6
192.567	2375.74
192.642	2378.6
192.718	2378.84
192.793	2363.56
192.869	2357.42
192.944	2359.37
193.02	2369.08
193.095	2375.75
193.171	2380.41
193.246	2379.94
193.322	2378.7
193.397	2379.08
193.473	2364.98
193.548	2342.46
193.624	2349.84
193.699	2350.18
193.775	2367.46
193.85	2369.61
193.925	2377.65
194.001	2374.75
194.076	2368.51
194.152	2360.85
194.227	2355.09
194.302	2346.05
194.378	2350.95
194.453	2349.67
194.529	2362.28
194.604	2348.33
194.679	2339.77
194.755	2318.07
194.83	2330.83
194.905	2327.26
194.981	2337.59
195.056	2330.31
195.131	2338.83
195.207	2333.54
195.282	2322.41
195.357	2298.98
195.433	2316.83
195.508	2304.83
195.583	2312.92
195.659	2328.87
195.734	2336.3
195.809	2335.16
195.884	2343.67
195.96	2345.82
196.035	2362
196.11	2356.67
196.185	2368.47
196.261	2373.37
196.336	2410.07
196.411	2395.69
196.486	2400.31
196.561	2394.45
196.637	2403.21
196.712	2420.69
196.787	2423.78
196.862	2442.97
196.937	2455.15
197.013	2461.49
197.088	2469.91
197.163	2498.59
197.238	2515.12
197.313	2518.22
197.388	2532.6
197.464	2565.04
197.539	2576.41
197.614	2568.7
197.689	2585.47
197.764	2603.9
197.839	2624.71
197.914	2616.38
197.989	2642.48
198.065	2659.25
198.14	2711.01
198.215	2738.69
198.29	2749.46
198.365	2767.71
198.44	2777.9
198.515	2808.55
198.59	2824.18
198.665	2852.72
198.74	2857.39
198.815	2856.82
198.89	2876.07
198.965	2905.96
199.04	2901.15
199.115	2918.11
199.19	2963.2
199.265	2965.53
199.34	2973.45
199.415	3009.27
199.49	3034.24
199.565	3044.35
199.64	3070
199.715	3066.42
199.79	3074.15
199.865	3080.06
199.94	3077.01
200.015	3112.02
200.09	3112.59
200.165	3117.88
200.24	3125.9
200.315	3172.49
200.39	3193.33
200.464	3204.59
200.539	3208.36
200.614	3229.68
200.689	3253.19
200.764	3260.69
200.839	3280.76
200.914	3288.58
200.989	3277.84
201.063	3292.11
201.138	3273.9
201.213	3272.18
201.288	3256.3
201.363	3261.3
201.438	3262.97
201.512	3281
201.587	3259.62
201.662	3268.83
201.737	3282.24
201.812	3291.97
201.886	3256.16
201.961	3263.46
202.036	3248.53
202.111	3243.43
202.186	3212.92
202.26	3196.93
202.335	3176.37
202.41	3169.5
202.485	3153.96
202.559	3134.74
202.634	3108.12
202.709	3119.94
202.784	3104.49
202.858	3106.64
202.933	3092.04
203.008	3093.86
203.082	3077.45
203.157	3085.32
203.232	3049.52
203.306	3035.26
203.381	3010.93
203.456	2995.1
203.53	2982.83
203.605	2974.01
203.68	2962.23
203.754	2968.76
203.829	2967.24
203.904	2960.8
203.978	2964.28
204.053	2986.08
204.127	2995.04
204.202	3018.74
204.277	3028.8
204.351	3045.16
204.426	3065.44
204.5	3086
204.575	3076.75
204.65	3121.41
204.724	3148.1
204.799	3194.4
204.873	3231.3
204.948	3273.15
205.022	3303.16
205.097	3340.98
205.171	3406.75
205.246	3468.21
205.32	3521.56
205.395	3586.62
205.469	3641.46
205.544	3713.86
205.618	3766.99
205.693	3855.31
205.767	3914.85
205.842	4011.29
205.916	4084.61
205.991	4156.53
206.065	4247.25
206.14	4352.65
206.214	4440.24
206.289	4529.94
206.363	4643.57
206.438	4749.83
206.512	4858.19
206.586	4992.88
206.661	5118.39
206.735	5208.77
206.81	5327.55
206.884	5467.72
206.958	5574.67
207.033	5719.11
207.107	5850.42
207.181	6018.8
207.256	6145.3
207.33	6304.38
207.405	6455.67
207.479	6622.65
207.553	6774.42
207.628	6905.46
207.702	7071.32
207.776	7213.88
207.851	7366.21
207.925	7535.83
207.999	7688.29
208.073	7849.75
208.148	8010.39
208.222	8153.5
208.296	8356.18
208.371	8538.75
208.445	8713.59
208.519	8902.94
208.593	9079.2
208.668	9247.56
208.742	9411.82
208.816	9579.9
208.89	9761.8
208.965	9933.58
209.039	10116.92
209.113	10308.53
209.187	10506.54
209.261	10670.67
209.336	10862.43
209.41	11058.48
209.484	11237.8
209.558	11435.33
209.632	11620.09
209.707	11803.81
209.781	12000.2
209.855	12193.05
209.929	12391.88
210.003	12568.73
210.077	12743.22
210.151	12965.96
210.226	13176.51
210.3	13378.24
210.374	13568.55
210.448	13737.46
210.522	13905.84
210.596	14070.99
210.67	14240.33
210.744	14447.13
210.818	14651.56
210.892	14832.37
210.966	14986.43
211.041	15157.64
211.115	15316.86
211.189	15500.84
211.263	15678.46
211.337	15831.55
211.411	15991.91
211.485	16125.7
211.559	16289.58
211.633	16432.73
211.707	16549.94
211.781	16705.03
211.855	16811.45
211.929	16953.44
212.003	17074.84
212.077	17230.61
212.151	17392.88
212.225	17550.08
212.299	17679.96
212.373	17802.46
212.447	17941.11
212.52	18105.64
212.594	18241.64
212.668	18374.98
212.742	18482.64
212.816	18594.15
212.89	18720.22
212.964	18838.43
213.038	18964.11
213.112	19115.14
213.186	19266.08
213.26	19358.26
213.333	19423.03
213.407	19551.03
213.481	19669.57
213.555	19804.46
213.629	19909.37
213.703	20006.43
213.777	20115.93
213.85	20207.83
213.924	20350.24
213.998	20456.9
214.072	20551.21
214.146	20645
214.219	20741.87
214.293	20842.4
214.367	20953.54
214.441	21074.27
214.515	21163.15
214.588	21237.71
214.662	21282.44
214.736	21352.03
214.81	21455.99
214.883	21555.71
214.957	21630.13
215.031	21702
215.105	21756.65
215.178	21821.1
215.252	21892.34
215.326	21948.4
215.4	22006.34
215.473	22031.07
215.547	22084.87
215.621	22152.17
215.694	22225.69
215.768	22277.42
215.842	22337.48
215.915	22391.62
215.989	22417.85
216.063	22477.39
216.136	22537.61
216.21	22598.83
216.284	22669.08
216.357	22736.19
216.431	22797.52
216.504	22859.71
216.578	22938.69
216.652	23014.09
216.725	23066.12
216.799	23126.83
216.873	23178.71
216.946	23239.22
217.02	23286.19
217.093	23334.98
217.167	23363.58
217.24	23396.23
217.314	23444.69
217.387	23479.26
217.461	23519.34
217.535	23587.09
217.608	23623.99
217.682	23669.22
217.755	23728.25
217.829	23759.26
217.902	23800.07
217.976	23839.85
218.049	23875.54
218.123	23904.24
218.196	23952.57
218.27	24005.19
218.343	24025.79
218.417	24062.78
218.49	24098.43
218.563	24152.64
218.637	24193.21
218.71	24243.18
218.784	24278.73
218.857	24328.22
218.931	24373.66
219.004	24404.29
219.077	24446.36
219.151	24483.02
219.224	24518.67
219.298	24542.26
219.371	24589.44
219.444	24602.71
219.518	24633.44
219.591	24672.32
219.665	24730.03
219.738	24768.67
219.811	24776.68
219.885	24821.17
219.958	24854.31
220.031	24886.01
220.105	24916.12
220.178	24943.38
220.251	24967.26
220.325	25012.09
220.398	25042.01
220.471	25070.91
220.544	25102.13
220.618	25114.91
220.691	25138.22
220.764	25163.74
220.838	25190.77
220.911	25205.73
220.984	25252.77
221.057	25286.75
221.131	25306.72
221.204	25293.5
221.277	25324.15
221.35	25369.75
221.424	25374.04
221.497	25385.58
221.57	25400.39
221.643	25425.92
221.716	25441.17
221.79	25453.91
221.863	25459.61
221.936	25468.3
222.009	25485.28
222.082	25504.83
222.155	25508.25
222.229	25541.8
222.302	25555.36
222.375	25561.2
222.448	25576.21
222.521	25582.73
222.594	25577.8
222.667	25569.07
222.74	25579.64
222.814	25575.77
222.887	25583.06
222.96	25604.73
223.033	25630.99
223.106	25634.08
223.179	25627.76
223.252	25636.78
223.325	25636.2
223.398	25628.72
223.471	25624.33
223.544	25619.45
223.617	25618.25
223.69	25625.44
223.763	25599.76
223.837	25592.23
223.91	25590.2
223.983	25562.84
224.056	25537.02
224.129	25535.04
224.202	25541.75
224.275	25534.32
224.348	25509.13
224.42	25475.49
224.493	25449.81
224.566	25424.09
224.639	25414.72
224.712	25398.85
224.785	25380.27
224.858	25359.76
224.931	25349.96
225.004	25324.48
225.077	25312.8
225.15	25272.8
225.223	25258.9
225.296	25266.04
225.369	25236.51
225.442	25209.25
225.514	25202.25
225.587	25199.5
225.66	25180
225.733	25170.06
225.806	25148.78
225.879	25131.12
225.952	25107.05
226.025	25103.72
226.097	25105.69
226.17	25094.98
226.243	25063.33
226.316	25039.49
226.389	25031.72
226.461	25014.06
226.534	25001.42
226.607	24977.63
226.68	24980.43
226.753	24945.98
226.825	24905.35
226.898	24906.12
226.971	24882.68
227.044	24874.09
227.117	24846.06
227.189	24832.93
227.262	24812.76
227.335	24796.7
227.407	24772.19
227.48	24763.7
227.553	24731.57
227.626	24699.53
227.698	24668.31
227.771	24655.24
227.844	24626.78
227.916	24599.04
227.989	24569.9
228.062	24540.9
228.134	24541.73
228.207	24515.58
228.28	24494.06
228.352	24465.94
228.425	24444.66
228.498	24440.66
228.57	24394.83
228.643	24389.29
228.716	24364.88
228.788	24333.23
228.861	24306.75
228.934	24294.74
229.006	24263.43
229.079	24239.12
229.151	24198.12
229.224	24156.11
229.296	24136.38
229.369	24137.44
229.442	24139.03
229.514	24098.23
229.587	24093.21
229.659	24045.03
229.732	24018.31
229.804	24011.41
229.877	24022.6
229.949	24008.52
230.022	24006.44
230.094	23987.92
230.167	23966.02
230.239	23921.85
230.312	23901.06
230.384	23907.14
230.457	23884.13
230.529	23860.07
230.602	23840.73
230.674	23832.38
230.747	23822.59
230.819	23804.03
230.892	23746.83
230.964	23712.68
231.037	23697.2
231.109	23664.46
231.181	23638.95
231.254	23610.74
231.326	23567.53
231.399	23517.27
231.471	23475.56
231.544	23416.48
231.616	23400.04
231.688	23363.43
231.761	23332.14
231.833	23294.29
231.905	23234.73
231.978	23202.18
232.05	23177.01
232.122	23142.2
232.195	23104.44
232.267	23089.3
232.339	23045.23
232.412	23037.75
232.484	22998.84
232.556	22964.61
232.629	22953.47
232.701	22940.11
232.773	22903.95
232.846	22880.67
232.918	22851.4
232.99	22815.05
233.062	22797.69
233.135	22767.41
233.207	22725.13
233.279	22711.24
233.351	22681.16
233.424	22641.87
233.496	22603.93
233.568	22591.73
233.64	22548.15
233.713	22511.89
233.785	22470.1
233.857	22449.51
233.929	22395.9
234.001	22390.36
234.074	22364.13
234.146	22310.24
234.218	22271.81
234.29	22242.94
234.362	22194.44
234.434	22142.77
234.507	22103.43
234.579	22043.03
234.651	22000.18
234.723	21970.82
234.795	21935.05
234.867	21901.5
234.939	21889.98
235.012	21856.24
235.084	21826.4
235.156	21800.85
235.228	21751.88
235.3	21715.97
235.372	21673.7
235.444	21650.03
235.516	21572.71
235.588	21545.58
235.66	21513.38
235.732	21468.17
235.804	21487.16
235.876	21469.23
235.948	21452.07
236.02	21414.48
236.092	21385.51
236.164	21347.82
236.236	21304.97
236.308	21267.67
236.38	21239.62
236.452	21185.92
236.524	21147.85
236.596	21120.76
236.668	21092.18
236.74	21055.45
236.812	21025.91
236.884	20997.62
236.956	20962.1
237.028	20929.04
237.1	20882.63
237.172	20858.53
237.244	20836.21
237.316	20757.41
237.388	20705.26
237.46	20661.07
237.532	20639.38
237.604	20595.24
237.675	20574.22
237.747	20547.33
237.819	20500.3
237.891	20451.24
237.963	20404.1
238.035	20364.88
238.107	20276.06
238.178	20243.77
238.25	20209.79
238.322	20186.56
238.394	20133.41
238.466	20096.83
238.538	20062.28
238.609	20033.22
238.681	19976.59
238.753	19922.86
238.825	19888.3
238.897	19852.93
238.968	19830.33
239.04	19786.96
239.112	19774.67
239.184	19723.73
239.255	19690.58
239.327	19659.3
239.399	19622.53
239.471	19594.49
239.542	19556.75
239.614	19548.13
239.686	19492.66
239.758	19471.75
239.829	19419.27
239.901	19394.06
239.973	19351.85
240.044	19317.59
240.116	19278.36
240.188	19237.3
240.259	19205.74
240.331	19154.99
240.403	19119.72
240.474	19065.31
240.546	19014.38
240.618	18955.58
240.689	18914.91
240.761	18865.18
240.833	18833.76
240.904	18790.87
240.976	18760.22
241.048	18731.55
241.119	18698.88
241.191	18668.9
241.262	18652.9
241.334	18613.63
241.405	18566.16
241.477	18527.51
241.549	18493.97
241.62	18452
241.692	18420.72
241.763	18394.56
241.835	18362.7
241.906	18331.62
241.978	18283.33
242.049	18261.07
242.121	18236.97
242.192	18204.78
242.264	18158.04
242.335	18101.8
242.407	18077.51
242.478	18031.68
242.55	17997.9
242.621	17949.37
242.693	17905.61
242.764	17856.17
242.836	17810.82
242.907	17780.22
242.979	17745.76
243.05	17701.47
243.122	17669.52
243.193	17622.44
243.264	17552.7
243.336	17508.8
243.407	17479.79
243.479	17462.68
243.55	17438.34
243.622	17400.95
243.693	17370.83
243.764	17349.91
243.836	17312.85
243.907	17266.68
243.978	17228.99
244.05	17192.65
244.121	17136.27
244.192	17115.93
244.264	17058.63
244.335	17022
244.407	16975.78
244.478	16941.18
244.549	16903.73
244.62	16856.5
244.692	16836.55
244.763	16824.83
244.834	16788.11
244.906	16737.6
244.977	16701.21
245.048	16669.41
245.119	16622.17
245.191	16577.06
245.262	16522.94
245.333	16504.43
245.405	16473.87
245.476	16439.41
245.547	16407.17
245.618	16389.14
245.689	16354.54
245.761	16322.05
245.832	16289.04
245.903	16268.79
245.974	16239.78
246.045	16207.97
246.117	16192.79
246.188	16137.6
246.259	16091.96
246.33	16055.47
246.401	16027.42
246.473	15979.17
246.544	15937.67
246.615	15916.13
246.686	15876.99
246.757	15858.53
246.828	15809.22
246.899	15791.1
246.97	15749.88
247.042	15709.78
247.113	15693.39
247.184	15674.74
247.255	15635.41
247.326	15614.2
247.397	15577.28
247.468	15544.36
247.539	15510.33
247.61	15459.77
247.681	15440.92
247.752	15425.3
247.823	15387.75
247.894	15355.36
247.965	15316.7
248.037	15276.12
248.108	15232.16
248.179	15207.23
248.25	15179.57
248.321	15160.72
248.392	15123.8
248.463	15115.6
248.534	15078.97
248.605	15046.14
248.675	15009.85
248.746	14985.46
248.817	14955.38
248.888	14932.14
248.959	14887.89
249.03	14869
249.101	14839.06
249.172	14799.68
249.243	14747.96
249.314	14740.92
249.385	14710.26
249.456	14691.84
249.527	14659.16
249.598	14639.21
249.669	14601.17
249.739	14566.95
249.81	14538.41
249.881	14496.42
249.952	14465.96
250.023	14444.55
250.094	14400.21
250.165	14364.97
250.235	14344.1
250.306	14314.98
250.377	14280.27
250.448	14261.09
250.519	14218.04
250.59	14213.6
250.66	14197.12
250.731	14184.87
250.802	14149.3
250.873	14126.45
250.944	14101.09
251.014	14076.79
251.085	14073.95
251.156	14061.56
251.227	14053.32
251.297	14041.89
251.368	14015.09
251.439	13999.18
251.51	13978.98
251.58	13942.73
251.651	13908.84
251.722	13893.27
251.792	13854.61
251.863	13822.12
251.934	13807.85
252.005	13809.92
252.075	13773.96
252.146	13756.99
252.217	13746.53
252.287	13733.04
252.358	13706.91
252.429	13706.14
252.499	13669.45
252.57	13643.03
252.641	13628.81
252.711	13601.62
252.782	13558.29
252.852	13567.78
252.923	13537.85
252.994	13519
253.064	13518.27
253.135	13489.16
253.205	13463.66
253.276	13459.17
253.347	13448.86
253.417	13423.65
253.488	13391.88
253.558	13370.52
253.629	13342.03
253.699	13312.48
253.77	13300.91
253.841	13278.74
253.911	13251.31
253.982	13238.87
254.052	13225.81
254.123	13201.7
254.193	13175.67
254.264	13201.12
254.334	13158.51
254.405	13124.77
254.475	13091.94
254.546	13066.1
254.616	13059.4
254.687	13033.32
254.757	13006.9
254.827	12987.33
254.898	12964.05
254.968	12941.49
255.039	12910.2
255.109	12903.93
255.18	12880.55
255.25	12832.97
255.321	12819.62
255.391	12780.14
255.461	12783.71
255.532	12731.12
255.602	12706.58
255.673	12669.61
255.743	12632.83
255.813	12596.53
255.884	12593.83
255.954	12574.84
256.024	12569.15
256.095	12549.67
256.165	12511.45
256.235	12501.9
256.306	12465.46
256.376	12453.46
256.446	12440.88
256.517	12431.14
256.587	12412.92
256.657	12388.67
256.728	12368.38
256.798	12342.44
256.868	12318.49
256.938	12284.21
257.009	12283.44
257.079	12274.19
257.149	12290.58
257.219	12252.59
257.29	12238.52
257.36	12192.24
257.43	12190.85
257.5	12149.05
257.571	12114.11
257.641	12118.49
257.711	12089.67
257.781	12085.43
257.852	12071.4
257.922	12032.55
257.992	12008.93
258.062	11995.05
258.132	11992.64
258.202	11970.27
258.273	11956.25
258.343	11961.69
258.413	11932.68
258.483	11915.42
258.553	11879.37
258.623	11845.14
258.693	11831.79
258.764	11835.79
258.834	11841.24
258.904	11821.43
258.974	11795.59
259.044	11783.45
259.114	11765.86
259.184	11752.65
259.254	11727.83
259.324	11691.1
259.394	11683.97
259.464	11681.89
259.535	11656.3
259.605	11630.37
259.675	11605.64
259.745	11594.17
259.815	11559.86
259.885	11535.71
259.955	11542.03
260.025	11520.1
260.095	11495.95
260.165	11482.36
260.235	11471.51
260.305	11441.1
260.375	11408.09
260.445	11412.28
260.515	11410.35
260.585	11398.93
260.655	11376.71
260.725	11374.88
260.795	11367.75
260.865	11368.37
260.934	11347.02
261.004	11338.78
261.074	11316.23
261.144	11316.56
261.214	11307.45
261.284	11293.24
261.354	11291.17
261.424	11260.61
261.494	11266.15
261.564	11251.98
261.634	11248.37
261.703	11209.52
261.773	11205.28
261.843	11194.97
261.913	11183.98
261.983	11152.61
262.053	11143.4
262.123	11124.71
262.192	11091.36
262.262	11082.44
262.332	11047.65
262.402	11032.13
262.472	11013.38
262.541	10985.72
262.611	10985.24
262.681	10959.12
262.751	10951.85
262.821	10933.2
262.89	10896.38
262.96	10881.92
263.03	10886.12
263.1	10872.04
263.169	10864.38
263.239	10851.61
263.309	10857.88
263.379	10843.42
263.448	10836.58
263.518	10822.65
263.588	10811.71
263.657	10815.09
263.727	10808.63
263.797	10795.19
263.867	10778.08
263.936	10744.3
264.006	10741.75
264.076	10724.06
264.145	10707.15
264.215	10686.05
264.285	10676.8
264.354	10654.01
264.424	10628.42
264.494	10597.58
264.563	10574.21
264.633	10581.05
264.702	10569.01
264.772	10537.78
264.842	10519.38
264.911	10503.09
264.981	10471.58
265.05	10452.21
265.12	10429.42
265.19	10416.08
265.259	10415.5
265.329	10407.26
265.398	10395.84
265.468	10410.34
265.537	10386.16
265.607	10376.62
265.676	10372.72
265.746	10368.04
265.815	10368.72
265.885	10358.94
265.955	10338.22
266.024	10317.36
266.094	10280.26
266.163	10280.94
266.232	10279.01
266.302	10261.57
266.371	10253.62
266.441	10247.12
266.51	10247.26
266.58	10228.38
266.649	10209.83
266.719	10202.22
266.788	10194.7
266.858	10202.75
266.927	10161.03
266.996	10152.55
267.066	10144.89
267.135	10120.27
267.205	10116.08
267.274	10103.51
267.343	10104.86
267.413	10089.35
267.482	10092.62
267.552	10092
267.621	10060.49
267.69	10028.79
267.76	10023.3
267.829	10012.18
267.898	9999.22
267.968	9975.28
268.037	9974.22
268.106	9968.63
268.176	9942.47
268.245	9927.83
268.314	9917.04
268.384	9917.81
268.453	9905.14
268.522	9900.8
268.592	9895.99
268.661	9868.15
268.73	9862.51
268.799	9835.54
268.869	9842.62
268.938	9813.86
269.007	9791.66
269.076	9779.95
269.146	9778.46
269.215	9769.98
269.284	9776.54
269.353	9760.59
269.422	9751.49
269.492	9736.08
269.561	9692.88
269.63	9685.08
269.699	9668.51
269.768	9651.65
269.838	9643.37
269.907	9642.79
269.976	9612.06
270.045	9581.68
270.114	9585.67
270.183	9570.89
270.253	9563.86
270.322	9535.06
270.391	9529.23
270.46	9535.64
270.529	9536.7
270.598	9534.58
270.667	9523.36
270.736	9498.79
270.806	9494.02
270.875	9492.34
270.944	9484.83
271.013	9513.14
271.082	9514.01
271.151	9514.73
271.22	9484.49
271.289	9471.83
271.358	9459.6
271.427	9454.06
271.496	9448.91
271.565	9427.48
271.634	9411.97
271.703	9444.34
271.772	9445.49
271.841	9430.66
271.91	9408.66
271.979	9395.89
272.048	9374.32
272.117	9369.46
272.186	9351.79
272.255	9348.99
272.324	9351.88
272.393	9340.66
272.462	9322.6
272.531	9308.59
272.6	9287.69
272.669	9296.65
272.738	9286.87
272.807	9281.82
272.876	9265.59
272.945	9294.48
273.013	9296.26
273.082	9307.15
273.151	9258.94
273.22	9259.66
273.289	9254.32
273.358	9261.54
273.427	9252.73
273.496	9245.75
273.564	9240.64
273.633	9243.58
273.702	9224.22
273.771	9205.49
273.84	9202.56
273.909	9195.77
273.977	9193.79
274.046	9191.68
274.115	9194.08
274.184	9174.54
274.253	9165.53
274.322	9175.84
274.39	9145.6
274.459	9132.55
274.528	9101.06
274.597	9090.67
274.665	9085.8
274.734	9091.72
274.803	9083.11
274.872	9072.23
274.94	9060.09
275.009	9121.6
275.078	9108.8
275.147	9102.01
275.215	9099.89
275.284	9106.73
275.353	9101.05
275.421	9076.93
275.49	9091.23
275.559	9079.29
275.627	9073.9
275.696	9062.68
275.765	9056.28
275.833	9047.37
275.902	9045.64
275.971	9062.34
276.039	9079.48
276.108	9076.02
276.177	9074.09
276.245	9061.96
276.314	9060.22
276.383	9065.38
276.451	8993.23
276.52	8989.71
276.588	9006.61
276.657	9012.53
276.725	9000.16
276.794	8994.86
276.863	9005.12
276.931	8979.79
277	8988.31
277.068	8997.27
277.137	9015.85
277.205	9014.07
277.274	9025.48
277.342	9036.6
277.411	9012
277.48	8998.18
277.548	8988.89
277.617	8987.79
277.685	8984.99
277.754	8987.55
277.822	8980.57
277.89	8994.96
277.959	8996.31
278.027	8978.26
278.096	8965.5
278.164	8995.25
278.233	8987.6
278.301	8974.12
278.37	8980.28
278.438	8961.89
278.507	8964.59
278.575	8939.75
278.643	8936.19
278.712	8918.42
278.78	8903.64
278.849	8921.98
278.917	8931.52
278.985	8933.06
279.054	8936.14
279.122	8947.06
279.191	8946.49
279.259	8945.28
279.327	8921.5
279.396	8933.73
279.464	8930.46
279.532	8938.21
279.601	8931.95
279.669	8931.8
279.737	8948.6
279.806	8949.04
279.874	8964.34
279.942	8963.77
280.011	8957.75
280.079	8970.89
280.147	8991.35
280.215	8989.52
280.284	8974.7
280.352	8960.49
280.42	8966.08
280.488	8950.67
280.557	8941.14
280.625	8937.87
280.693	8937.24
280.761	8938.59
280.83	8922.51
280.898	8934.4
280.966	8911.97
281.034	8878.08
281.102	8860.94
281.171	8854.2
281.239	8863.64
281.307	8848.91
281.375	8831
281.443	8859.89
281.512	8848.43
281.58	8847.9
281.648	8832.55
281.716	8839.77
281.784	8831.25
281.852	8821.38
281.92	8819.65
281.989	8828.89
282.057	8821.52
282.125	8878.87
282.193	8883.73
282.261	8884.02
282.329	8879.84
282.397	8882
282.465	8889.51
282.533	8907.99
282.601	8891.53
282.67	8864.24
282.738	8860.43
282.806	8881.8
282.874	8864.23
282.942	8868.42
283.01	8863.99
283.078	8872.75
283.146	8865.19
283.214	8878.48
283.282	8883.48
283.35	8902.02
283.418	8889.31
283.486	8889.5
283.554	8833.55
283.622	8827.44
283.69	8821.08
283.758	8811.6
283.826	8816.94
283.894	8824.07
283.962	8840.58
284.03	8859.45
284.098	8870.37
284.165	8867.63
284.233	8864.65
284.301	8857.96
284.369	8851.55
284.437	8848.91
284.505	8846.45
284.573	8863.11
284.641	8853.19
284.709	8855.21
284.777	8831.29
284.845	8844.33
284.912	8851.65
284.98	8858.1
285.048	8852.13
285.116	8858.87
285.184	8875.57
285.252	8877.59
285.319	8852.47
285.387	8839.52
285.455	8822.96
285.523	8826.72
285.591	8826.14
285.659	8825.95
285.726	8840.39
285.794	8821.18
285.862	8812.13
285.93	8813.05
285.997	8805.83
286.065	8802.51
286.133	8796.3
286.201	8796.39
286.269	8780.85
286.336	8767.9
286.404	8761.01
286.472	8768.28
286.539	8747.44
286.607	8730.74
286.675	8728.43
286.743	8745.56
286.81	8739.98
286.878	8753.65
286.946	8742.87
287.013	8738.58
287.081	8738.54
287.149	8720.68
287.216	8741.47
287.284	8736.9
287.352	8739.06
287.419	8736.94
287.487	8755.28
287.555	8759.23
287.622	8756.78
287.69	8762.79
287.758	8783.59
287.825	8776.9
287.893	8771.07
287.96	8776.99
288.028	8788.21
288.096	8792.73
288.163	8796.2
288.231	8789.56
288.298	8784.6
288.366	8792.78
288.433	8789.51
288.501	8779.02
288.569	8785.56
288.636	8783.2
288.704	8799.47
288.771	8802.55
288.839	8795.77
288.906	8788.4
288.974	8798.61
289.041	8792.83
289.109	8780.9
289.176	8784.36
289.244	8787.73
289.311	8800.25
289.379	8810.79
289.446	8809.44
289.514	8807.61
289.581	8803.81
289.649	8808.62
289.716	8814.01
289.783	8815.02
289.851	8834.95
289.918	8834.37
289.986	8837.21
290.053	8839.95
290.121	8838.85
290.188	8841.16
290.255	8869.37
290.323	8861.47
290.39	8853.43
290.458	8864.16
290.525	8877.93
290.592	8868.01
290.66	8876.44
290.727	8870.8
290.794	8887.03
290.862	8887.03
290.929	8889
290.996	8887.46
291.064	8895.74
291.131	8906.38
291.198	8916.97
291.266	8918.22
291.333	8926.6
291.4	8936.66
291.468	8953.75
291.535	8949.27
291.602	8954.18
291.669	8947.2
291.737	8951.68
291.804	8951.15
291.871	8968.67
291.938	8979.41
292.006	9011.71
292.073	9021.63
292.14	9027.65
292.207	9021.77
292.275	9023.46
292.342	9037.52
292.409	9063.13
292.476	9087.06
292.543	9073.53
292.611	9070.79
292.678	9081.43
292.745	9102.99
292.812	9113.68
292.879	9106.32
292.946	9111.9
293.014	9118.59
293.081	9127.36
293.148	9142.38
293.215	9158.36
293.282	9152.87
293.349	9159.13
293.416	9136.84
293.484	9151.62
293.551	9166.78
293.618	9187.68
293.685	9216.52
293.752	9208.48
293.819	9210.94
293.886	9194.71
293.953	9205.06
294.02	9219.26
294.087	9229.09
294.154	9221.72
294.221	9239.59
294.288	9245.12
294.356	9263.18
294.423	9274.11
294.49	9260.96
294.557	9274.06
294.624	9265.68
294.691	9291.73
294.758	9294.48
294.825	9307.14
294.892	9297.89
294.959	9296.5
295.026	9297.75
295.093	9286.24
295.16	9293.51
295.226	9289.51
295.293	9319.27
295.36	9323.94
295.427	9331.36
295.494	9343.5
295.561	9347.35
295.628	9366.08
295.695	9385.64
295.762	9392.14
295.829	9403.89
295.896	9421.32
295.963	9428.83
296.03	9440.67
296.096	9437.88
296.163	9447.22
296.23	9458.3
296.297	9469.66
296.364	9475.1
296.431	9482.66
296.498	9480.21
296.564	9506.45
296.631	9514.69
296.698	9494.36
296.765	9520.8
296.832	9505.05
296.899	9493.21
296.965	9519.79
297.032	9496.43
297.099	9506.11
297.166	9511.55
297.233	9507.84
297.299	9503.94
297.366	9506.45
297.433	9509.92
297.5	9522.97
297.566	9526.19
297.633	9524.94
297.7	9528.65
297.767	9526.92
297.833	9533.95
297.9	9538.38
297.967	9509.87
298.033	9519.41
298.1	9554.42
298.167	9542.04
298.234	9556.15
298.3	9566.36
298.367	9560.73
298.434	9572.82
298.5	9563.04
298.567	9555.81
298.634	9557.79
298.7	9577.63
298.767	9585.19
298.834	9597.28
298.9	9592.32
298.967	9580.95
299.033	9591.07
299.1	9610.04
299.167	9625.26
299.233	9622.08
299.3	9637.4
299.366	9666.24
299.433	9687.19
299.5	9658.97
299.566	9662.2
299.633	9682.38
299.699	9694.47
299.766	9686.9
299.832	9693.12
299.899	9703.43
299.965	9718.07
300.032	9716.67
300.099	9721.39
300.165	9725.53
300.232	9725.19
300.298	9718.98
300.365	9737.86
300.431	9740.75
300.498	9734.34
300.564	9735.55
300.631	9745.86
300.697	9759.29
300.763	9753.51
300.83	9739.5
300.896	9748.02
300.963	9762.52
301.029	9764.83
301.096	9767.96
301.162	9786.26
301.229	9779.13
301.295	9767.86
301.361	9770.42
301.428	9772.78
301.494	9759.29
301.561	9759
301.627	9757.94
301.693	9767.14
301.76	9770.27
301.826	9763.77
301.892	9776.1
301.959	9790.36
302.025	9786.07
302.092	9782.7
302.158	9794.02
302.224	9803.51
302.291	9802.83
302.357	9798.5
302.423	9786.46
302.49	9775.96
302.556	9786.94
302.622	9782.99
302.688	9796.91
302.755	9814.68
302.821	9822.68
302.887	9835.97
302.954	9835.83
303.02	9846.9
303.086	9851.38
303.152	9846.86
303.219	9841.03
303.285	9845.99
303.351	9848.69
303.417	9845.61
303.483	9834.96
303.55	9827.21
303.616	9831.06
303.682	9825.81
303.748	9821.72
303.815	9835.73
303.881	9845.99
303.947	9833.66
304.013	9841.42
304.079	9834.14
304.145	9812.71
304.212	9808.57
304.278	9798.69
304.344	9789.73
304.41	9778.85
304.476	9773.41
304.542	9773.5
304.608	9782.08
304.674	9764.69
304.741	9762.13
304.807	9771.04
304.873	9778.51
304.939	9798.69
305.005	9769.89
305.071	9773.4
305.137	9771.04
305.203	9746.96
305.269	9744.12
305.335	9748.46
305.401	9740.8
305.467	9740.51
305.533	9748.84
305.599	9760.16
305.666	9765.79
305.732	9767.43
305.798	9779.04
305.864	9801.49
305.93	9803.22
305.996	9805.68
306.062	9801
306.128	9790.26
306.194	9776.25
306.259	9772.78
306.325	9758.23
306.391	9778.32
306.457	9785.64
306.523	9790.07
306.589	9819.26
306.655	9809.43
306.721	9794.98
306.787	9785.06
306.853	9797.82
306.919	9780.92
306.985	9768.78
307.051	9771.38
307.117	9763.92
307.183	9761.51
307.248	9729.53
307.314	9736.61
307.38	9738.2
307.446	9742.72
307.512	9733.19
307.578	9734.25
307.644	9729.67
307.709	9730.68
307.775	9721.1
307.841	9714.69
307.907	9711.13
307.973	9690.66
308.039	9690.37
308.104	9694.27
308.17	9697.35
308.236	9685.5
308.302	9690.94
308.368	9680.35
308.433	9672.6
308.499	9670.72
308.565	9651.79
308.631	9662.58
308.696	9633.63
308.762	9616.97
308.828	9620.87
308.894	9604.31
308.959	9584.9
309.025	9577.1
309.091	9571.22
309.156	9562.79
309.222	9565.06
309.288	9554.99
309.354	9535.54
309.419	9534
309.485	9521.67
309.551	9523.59
309.616	9508.28
309.682	9502.4
309.748	9497.25
309.813	9492.19
309.879	9479.63
309.945	9471.78
310.01	9463.97
310.076	9469.03
310.141	9467.3
310.207	9451.55
310.273	9458.39
310.338	9465.17
310.404	9445.43
310.469	9438.06
310.535	9427.66
310.601	9406.19
310.666	9413.46
310.732	9418.42
310.797	9404.79
310.863	9389.33
310.928	9378.4
310.994	9378.59
311.059	9383.84
311.125	9382.25
311.191	9396.27
311.256	9393.09
311.322	9398.77
311.387	9374.89
311.453	9698.62
311.518	9671.42
311.584	9666.03
311.649	9659
311.715	9646.52
311.78	9650.14
311.846	9632.27
311.911	9639.78
311.976	9642.29
312.042	9620.47
312.107	9602.95
312.173	9596.88
312.238	9594.38
312.304	9591.25
312.369	9580.8
312.434	9558.17
312.5	9556.72
312.565	9515.36
312.631	9515.26
312.696	9508.71
312.761	9517.28
312.827	9188.3
312.892	9227.74
312.958	9228.51
313.023	9231.98
313.088	9232.6
313.154	9213.73
313.219	9206.51
313.284	9194.86
313.35	9185.28
313.415	9183.49
313.48	9187.49
313.546	9189.22
313.611	9201.5
313.676	9194.13
313.741	9187.3
313.807	9194.71
313.872	9191.92
313.937	9201.16
314.003	9206.89
314.068	9205.16
314.133	9209.2
314.198	9195.39
314.264	9173.52
314.329	9161.53
314.394	9157.68
314.459	9154.26
314.525	9180.6
314.59	9176.7
314.655	9172.46
314.72	9180.74
314.785	9184.06
314.851	9171.26
314.916	9159.61
314.981	9143.91
315.046	9129.71
315.111	9112.86
315.176	9101.74
315.242	9101.55
315.307	9096.93
315.372	9080.99
315.437	9070.73
315.502	9059.32
315.567	9072.03
315.632	9056.72
315.698	9058.17
315.763	9053.74
315.828	9043.73
315.893	9037.42
315.958	9038.91
316.023	9027.93
316.088	9006.61
316.153	8982.59
316.218	8980.9
316.283	8958.47
316.348	8936.48
316.413	8938.3
316.479	8932.63
316.544	8889.94
316.609	8860.53
316.674	8827.51
316.739	8791.22
316.804	8759.02
316.869	8722.74
316.934	8681.24
316.999	8657.51
317.064	8605.83
317.129	8558.18
317.194	8523.53
317.259	8472.81
317.324	8416.08
317.389	8367.53
317.454	8331.73
317.518	8293.29
317.583	8264.22
317.648	8242.38
317.713	8212.74
317.778	8154.14
317.843	8119.55
317.908	8090.46
317.973	8054.04
318.038	8025.03
318.103	7990.89
318.168	7957.31
318.233	7929.95
318.297	7881.42
318.362	7836.4
318.427	7791.73
318.492	7771.43
318.557	7723.31
318.622	7697.82
318.687	7678.78
318.751	7640.95
318.816	7607.82
318.881	7575.22
318.946	7522.33
319.011	7476.61
319.075	7432.29
319.14	7398.79
319.205	7356.92
319.27	7324.34
319.335	7277.33
319.399	7239.12
319.464	7210.62
319.529	7157.38
319.594	7113.84
319.658	7082.7
319.723	7039.36
319.788	7015.82
319.853	6952.69
319.917	6923.3
319.982	6873.23
320.047	6834.65
320.112	6804.39
320.176	6752.62
320.241	6718.18
320.306	6691.28
320.37	6646.33
320.435	6618.14
320.5	6590.48
320.564	6552.5
320.629	6508.66
320.694	6474.53
320.758	6436.79
320.823	6393.01
320.888	6366.95
320.952	6320.2
321.017	6281.17
321.082	6244.6
321.146	6207.93
321.211	6182.07
321.275	6140.04
321.34	6092.59
321.405	6045.23
321.469	5999.18
321.534	5954.77
321.598	5904.79
321.663	5866.59
321.727	5839.25
321.792	5785.77
321.857	5737.75
321.921	5701.21
321.986	5658.83
322.05	5600.3
322.115	5561.99
322.179	5518.13
322.244	5463.59
322.308	5429.51
322.373	5381
322.437	5338.49
322.502	5308.62
322.566	5263.33
322.631	5226.16
322.695	5183.33
322.76	5142
322.824	5107.84
322.889	5068.96
322.953	5024.19
323.018	4959.05
323.082	4891.11
323.146	4839.42
323.211	4784.5
323.275	4736.57
323.34	4692.5
323.404	4664.07
323.468	4612.33
323.533	4565.72
323.597	4519.28
323.662	4466.55
323.726	4431.33
323.79	4386.41
323.855	4320.61
323.919	4268.05
323.983	4225.48
324.048	4163.74
324.112	4330.2
324.177	4198.53
324.241	3983.02
324.305	3771.46
324.37	3564.98
324.434	3366.78
324.498	3325.14
324.562	3277.01
324.627	3214.15
324.691	3158.55
324.755	3088.59
324.82	3012.79
324.884	2938.28
324.948	2866.97
325.012	2771.48
325.077	2644.49
