Data from 20250703_urea_0.1M_MAYP1162681_21-21-04-806.txt Node
Date: Thu Jul 03 21:21:04 BST 2025
User: adleo
Spectrometer: MAYP116268
Trigger mode: 0
Integration Time (sec): 1.000000E0
Scans to average: 1
Electric dark correction enabled: true
Nonlinearity correction enabled: true
Boxcar width: 10
XAxis mode: Wavelengths
Number of Pixels in Spectrum: 2068
>>>>>Begin Spectral Data<<<<<
179.565	1387.15
179.642	1454.49
179.718	1504.25
179.795	1549.69
179.871	1586.93
179.948	1612.16
180.024	1635.47
180.101	1661.69
180.177	1678.26
180.254	1707.66
180.33	1732.26
180.407	1801.51
180.483	1910.6
180.56	2014.66
180.636	2112.39
180.712	2094.92
180.789	2105.53
180.865	2114.52
180.942	2124.65
181.018	2135.92
181.095	2155.39
181.171	2163.05
181.248	2165.47
181.324	2183.37
181.4	2191.46
181.477	2203.83
181.553	2217.48
181.63	2242.75
181.706	2261.98
181.782	2273.82
181.859	2269.54
181.935	2277.15
182.011	2274.25
182.088	2293.53
182.164	2315.28
182.24	2330.79
182.317	2341.88
182.393	2341.4
182.469	2357.77
182.546	2372.86
182.622	2377.62
182.698	2370.81
182.775	2381.67
182.851	2395.95
182.927	2386
183.003	2381.1
183.08	2373.53
183.156	2383.91
183.232	2376.24
183.308	2361.58
183.385	2369.72
183.461	2390.67
183.537	2390.76
183.613	2401.04
183.69	2392.09
183.766	2381.05
183.842	2387.04
183.918	2394.8
183.995	2409.04
184.071	2414.23
184.147	2406.75
184.223	2394.76
184.299	2407.09
184.375	2394.76
184.452	2399.81
184.528	2454.72
184.604	2468.71
184.68	2485.09
184.756	2493.09
184.832	2502.13
184.908	2509.51
184.985	2509.08
185.061	2492.28
185.137	2502.89
185.213	2493.61
185.289	2494.75
185.365	2485.19
185.441	2483.38
185.517	2495
185.593	2492.43
185.669	2493.29
185.745	2507.09
185.822	2524.08
185.898	2514.51
185.974	2527.41
186.05	2518.79
186.126	2482.74
186.202	2473.7
186.278	2467.03
186.354	2455.32
186.43	2461.08
186.506	2457.7
186.582	2454.75
186.658	2461.08
186.734	2437.57
186.81	2439.14
186.886	2441.85
186.962	2457.03
187.038	2454.84
187.114	2449.7
187.19	2458.51
187.266	2443.42
187.341	2445.56
187.417	2440.14
187.493	2443.52
187.569	2445.75
187.645	2441.18
187.721	2427.09
187.797	2433.37
187.873	2441.28
187.949	2435.8
188.025	2428.32
188.101	2430.09
188.176	2438.13
188.252	2432.8
188.328	2440.46
188.404	2439.03
188.48	2435.08
188.556	2425.7
188.632	2427.08
188.707	2428.23
188.783	2423.84
188.859	2418.75
188.935	2404.94
189.011	2413.18
189.086	2404.52
189.162	2395.95
189.238	2389.95
189.314	2387.71
189.39	2380.33
189.465	2369.19
189.541	2391.81
189.617	2376.82
189.693	2372.87
189.768	2375.11
189.844	2403.06
189.92	2397.35
189.996	2405.97
190.071	2416.59
190.147	2416.49
190.223	2422.4
190.298	2414.78
190.374	2399.54
190.45	2413.58
190.526	2423.58
190.601	2417.87
190.677	2420.39
190.753	2450.36
190.828	2458.02
190.904	2470.06
190.98	2488.25
191.055	2501.87
191.131	2486.96
191.207	2511.48
191.282	2523.57
191.358	2514.77
191.433	2497.57
191.509	2510.94
191.585	2509.37
191.66	2511.23
191.736	2518.61
191.811	2510.8
191.887	2525.28
191.963	2549.37
192.038	2553.51
192.114	2552.18
192.189	2553.42
192.265	2547.71
192.34	2523.41
192.416	2520.36
192.491	2521.84
192.567	2529.03
192.642	2529.7
192.718	2528.94
192.793	2511.65
192.869	2504.32
192.944	2507.32
193.02	2517.22
193.095	2521.84
193.171	2527.94
193.246	2527.65
193.322	2526.7
193.397	2529.51
193.473	2518.17
193.548	2500.22
193.624	2508.08
193.699	2509.55
193.775	2530.66
193.85	2531.85
193.925	2541.28
194.001	2543.04
194.076	2533.89
194.152	2517.17
194.227	2511.08
194.302	2500.32
194.378	2508.42
194.453	2504.75
194.529	2514.75
194.604	2496.99
194.679	2490.04
194.755	2471.23
194.83	2481.43
194.905	2479
194.981	2485.52
195.056	2477.72
195.131	2487
195.207	2485
195.282	2472.15
195.357	2449.42
195.433	2470.18
195.508	2457.56
195.583	2464.13
195.659	2479.85
195.734	2491.52
195.809	2490.9
195.884	2501.56
195.96	2500.85
196.035	2523.61
196.11	2521.94
196.185	2538.7
196.261	2544.51
196.336	2580.52
196.411	2568.51
196.486	2573.66
196.561	2570.23
196.637	2577.37
196.712	2593
196.787	2595.62
196.862	2613.62
196.937	2624.42
197.013	2625.9
197.088	2637.66
197.163	2661.97
197.238	2682.61
197.313	2680.75
197.388	2695.57
197.464	2728.4
197.539	2736.16
197.614	2727.73
197.689	2739.36
197.764	2756.99
197.839	2780.06
197.914	2770.43
197.989	2793.92
198.065	2811.6
198.14	2866.06
198.215	2896.75
198.29	2912.06
198.365	2928.03
198.44	2938.37
198.515	2970.69
198.59	2989.86
198.665	3019.46
198.74	3029.1
198.815	3031.29
198.89	3055.51
198.965	3090.28
199.04	3083.99
199.115	3104.82
199.19	3150.98
199.265	3156.41
199.34	3165.19
199.415	3202.7
199.49	3227.92
199.565	3240.47
199.64	3265.13
199.715	3263.93
199.79	3269.99
199.865	3275.67
199.94	3274.19
200.015	3311.74
200.09	3317.8
200.165	3326.25
200.24	3333.74
200.315	3379.93
200.39	3395.58
200.464	3404.55
200.539	3403.55
200.614	3425.21
200.689	3448.26
200.764	3456.23
200.839	3475.36
200.914	3483.09
200.989	3471.1
201.063	3486.76
201.138	3467.3
201.213	3469.45
201.288	3444.01
201.363	3454.22
201.438	3456.75
201.512	3475.69
201.587	3451.92
201.662	3458.08
201.737	3473.31
201.812	3482.33
201.886	3444.02
201.961	3455.91
202.036	3443.65
202.111	3442.98
202.186	3413.41
202.26	3398.51
202.335	3374.36
202.41	3371.45
202.485	3352.32
202.559	3328.7
202.634	3301.12
202.709	3315.24
202.784	3297.16
202.858	3305.31
202.933	3282.6
203.008	3277.69
203.082	3260.66
203.157	3270.87
203.232	3226.28
203.306	3206.42
203.381	3179.41
203.456	3162.19
203.53	3144.38
203.605	3130.98
203.68	3115.33
203.754	3117.29
203.829	3114.8
203.904	3106.27
203.978	3106.46
204.053	3127.74
204.127	3133.12
204.202	3152.54
204.277	3151.68
204.351	3166.9
204.426	3178.64
204.5	3196.29
204.575	3183.42
204.65	3220.6
204.724	3241.42
204.799	3281.9
204.873	3311.31
204.948	3342.95
205.022	3365.57
205.097	3395.04
205.171	3447.58
205.246	3500.03
205.32	3545.36
205.395	3591.74
205.469	3632.26
205.544	3687.73
205.618	3727.58
205.693	3800.21
205.767	3845.46
205.842	3929.34
205.916	3986.22
205.991	4041.91
206.065	4117.5
206.14	4210.35
206.214	4281.13
206.289	4346.72
206.363	4443.99
206.438	4527.7
206.512	4622.57
206.586	4733.55
206.661	4832.5
206.735	4904.35
206.81	4999.36
206.884	5114.16
206.958	5200.14
207.033	5326.95
207.107	5443.03
207.181	5586.7
207.256	5685.48
207.33	5817.01
207.405	5945.49
207.479	6083.8
207.553	6206.85
207.628	6308.85
207.702	6439.59
207.776	6558.86
207.851	6687.92
207.925	6831.56
207.999	6962.61
208.073	7085.89
208.148	7214.43
208.222	7329.53
208.296	7500.55
208.371	7649.19
208.445	7794.88
208.519	7959.51
208.593	8101.97
208.668	8232
208.742	8373.07
208.816	8520.86
208.89	8676.6
208.965	8811.72
209.039	8964.28
209.113	9124.62
209.187	9299.92
209.261	9444.49
209.336	9613.08
209.41	9779.47
209.484	9919.97
209.558	10086.77
209.632	10241.05
209.707	10400.06
209.781	10573.63
209.855	10730.55
209.929	10898.63
210.003	11052.25
210.077	11196.81
210.151	11387.75
210.226	11573.63
210.3	11735.62
210.374	11888.68
210.448	12033.13
210.522	12190.5
210.596	12336.6
210.67	12492.39
210.744	12673.58
210.818	12838.77
210.892	12991.38
210.966	13121.58
211.041	13269.42
211.115	13400.35
211.189	13566.56
211.263	13721.68
211.337	13859.21
211.411	14007.92
211.485	14126.12
211.559	14261.43
211.633	14393.18
211.707	14490.5
211.781	14623.35
211.855	14713.88
211.929	14841.81
212.003	14947.77
212.077	15087.31
212.151	15226.57
212.225	15355.94
212.299	15455.28
212.373	15567.69
212.447	15685.25
212.52	15831.39
212.594	15949.91
212.668	16073.16
212.742	16173.99
212.816	16283.35
212.89	16379.46
212.964	16493.44
213.038	16604.53
213.112	16728.93
213.186	16852.02
213.26	16932.37
213.333	16987.74
213.407	17092.13
213.481	17200.43
213.555	17314.41
213.629	17389.49
213.703	17466.6
213.777	17570.31
213.85	17657.2
213.924	17787.95
213.998	17879.08
214.072	17971.8
214.146	18056.42
214.219	18146.73
214.293	18229.47
214.367	18315.74
214.441	18429.27
214.515	18500.59
214.588	18563.87
214.662	18608.06
214.736	18664.44
214.81	18761.35
214.883	18843.57
214.957	18921.01
215.031	18983.8
215.105	19031.41
215.178	19097.19
215.252	19163.02
215.326	19199.21
215.4	19248.17
215.473	19257.23
215.547	19306.33
215.621	19353.27
215.694	19433.12
215.768	19479.72
215.842	19529.65
215.915	19574.18
215.989	19604.68
216.063	19654.46
216.136	19723.62
216.21	19787.03
216.284	19866.36
216.357	19922.74
216.431	19983.61
216.504	20046.88
216.578	20130.78
216.652	20200.13
216.725	20247.46
216.799	20309.77
216.873	20374.78
216.946	20436.03
217.02	20493.52
217.093	20542.68
217.167	20578.1
217.24	20604.37
217.314	20652.03
217.387	20695.21
217.461	20742.88
217.535	20809.92
217.608	20853.2
217.682	20890.69
217.755	20946.17
217.829	20979.52
217.902	21022.85
217.976	21067.86
218.049	21100.01
218.123	21127.63
218.196	21185.99
218.27	21239.2
218.343	21270.19
218.417	21315.02
218.49	21363.99
218.563	21428.72
218.637	21478.27
218.71	21539.39
218.784	21596.8
218.857	21641.28
218.931	21694.5
219.004	21743.18
219.077	21782.61
219.151	21823
219.224	21867.93
219.298	21914.3
219.371	21976
219.444	22005.79
219.518	22046.52
219.591	22092.94
219.665	22159.08
219.738	22196.88
219.811	22223.82
219.885	22273.81
219.958	22313.78
220.031	22345.26
220.105	22380.79
220.178	22423.5
220.251	22455.03
220.325	22487.24
220.398	22528.84
220.471	22564.23
220.544	22603.28
220.618	22633.55
220.691	22669.91
220.764	22701.53
220.838	22726.65
220.911	22742.51
220.984	22800.61
221.057	22839.03
221.131	22873.17
221.204	22871.63
221.277	22916.18
221.35	22978.62
221.424	23001.33
221.497	23027.56
221.57	23054.75
221.643	23087.15
221.716	23114.69
221.79	23134.02
221.863	23159.96
221.936	23180.46
222.009	23199.89
222.082	23219.61
222.155	23234.75
222.229	23277.62
222.302	23305.25
222.375	23330.71
222.448	23358.24
222.521	23372.81
222.594	23393.25
222.667	23393.83
222.74	23419.87
222.814	23428.07
222.887	23437.62
222.96	23470.41
223.033	23500.02
223.106	23519.65
223.179	23537.44
223.252	23553.84
223.325	23566.71
223.398	23582.19
223.471	23596.95
223.544	23618.27
223.617	23635.96
223.69	23654.48
223.763	23645.51
223.837	23656.31
223.91	23673.39
223.983	23666.25
224.056	23663.11
224.129	23676.67
224.202	23705.7
224.275	23709.89
224.348	23702.32
224.42	23685.2
224.493	23664.03
224.566	23657.28
224.639	23667.64
224.712	23658.58
224.785	23655.3
224.858	23660.31
224.931	23654.14
225.004	23648.26
225.077	23640.49
225.15	23623.18
225.223	23617.59
225.296	23642.57
225.369	23624
225.442	23608.28
225.514	23609.49
225.587	23607.99
225.66	23599.41
225.733	23594.58
225.806	23588.56
225.879	23582.72
225.952	23577.61
226.025	23590.78
226.097	23598.4
226.17	23592.51
226.243	23576.21
226.316	23561.99
226.389	23557.79
226.461	23568.79
226.534	23561.17
226.607	23562.42
226.68	23564.88
226.753	23561.5
226.825	23534.3
226.898	23546.02
226.971	23536.96
227.044	23535.46
227.117	23534.79
227.189	23531.02
227.262	23535.65
227.335	23537.29
227.407	23521.96
227.48	23526.59
227.553	23524.37
227.626	23506.72
227.698	23490.32
227.771	23490.52
227.844	23470.46
227.916	23462.07
227.989	23425.41
228.062	23411.24
228.134	23422.14
228.207	23422.62
228.28	23409.5
228.352	23399.86
228.425	23395.66
228.498	23398.75
228.57	23381.34
228.643	23382.93
228.716	23379.12
228.788	23358.63
228.861	23333.5
228.934	23335.43
229.006	23303.71
229.079	23272.65
229.151	23249.26
229.224	23215.42
229.296	23205.1
229.369	23225.35
229.442	23224
229.514	23208.76
229.587	23211.85
229.659	23171.92
229.732	23158.66
229.804	23153.21
229.877	23162.67
229.949	23147.91
230.022	23145.45
230.094	23121.97
230.167	23111.55
230.239	23068.88
230.312	23044.44
230.384	23054.85
230.457	23044.77
230.529	23035.71
230.602	23034.17
230.674	23026.69
230.747	23032.33
230.819	23016.23
230.892	22965.75
230.964	22943.66
231.037	22928.53
231.109	22901.28
231.181	22890.24
231.254	22853.26
231.326	22814.45
231.399	22774.09
231.471	22744.15
231.544	22705.24
231.616	22703.7
231.688	22679.78
231.761	22651.2
231.833	22628.49
231.905	22575.79
231.978	22549.33
232.05	22534.28
232.122	22509.45
232.195	22484.14
232.267	22482.55
232.339	22454.69
232.412	22458.21
232.484	22434.15
232.556	22406.86
232.629	22407.3
232.701	22400.16
232.773	22378.95
232.846	22361.69
232.918	22339.42
232.99	22319.22
233.062	22306.06
233.135	22286.3
233.207	22247.1
233.279	22245.42
233.351	22239.1
233.424	22217.02
233.496	22191.43
233.568	22181.25
233.64	22141.39
233.713	22111.84
233.785	22075.97
233.857	22057.7
233.929	22001.5
234.001	21991.37
234.074	21976.38
234.146	21933.38
234.218	21899.01
234.29	21867.73
234.362	21834.09
234.434	21797.84
234.507	21752.24
234.579	21702.35
234.651	21665.77
234.723	21647.45
234.795	21621.52
234.867	21577.17
234.939	21563
235.012	21534.28
235.084	21509.16
235.156	21487.52
235.228	21445.01
235.3	21400.38
235.372	21373.72
235.444	21364.95
235.516	21309.86
235.588	21278.77
235.66	21238.77
235.732	21194.81
235.804	21229.56
235.876	21207.87
235.948	21190.62
236.02	21166.33
236.092	21139.29
236.164	21101.12
236.236	21059.82
236.308	21025.26
236.38	20993.16
236.452	20950.36
236.524	20914.46
236.596	20891.95
236.668	20872.48
236.74	20846.41
236.812	20819.37
236.884	20788.43
236.956	20758.59
237.028	20713.44
237.1	20673.2
237.172	20675.32
237.244	20665.97
237.316	20587.26
237.388	20547.16
237.46	20504.17
237.532	20484.37
237.604	20438.83
237.675	20432.9
237.747	20413.33
237.819	20366.25
237.891	20335.45
237.963	20296.61
238.035	20255.99
238.107	20184.95
238.178	20164.8
238.25	20123.89
238.322	20124.76
238.394	20070.98
238.466	20024.57
238.538	20005.63
238.609	19972.57
238.681	19906.16
238.753	19859.13
238.825	19826.02
238.897	19795.61
238.968	19778.41
239.04	19738.02
239.112	19738.46
239.184	19686.99
239.255	19648.58
239.327	19621.88
239.399	19593.64
239.471	19568.15
239.542	19549.36
239.614	19530.08
239.686	19460.21
239.758	19448.3
239.829	19390.86
239.901	19369.8
239.973	19333.13
240.044	19300.94
240.116	19267.83
240.188	19233.86
240.259	19191.64
240.331	19144.46
240.403	19124.76
240.474	19069.19
240.546	19024.71
240.618	18965.78
240.689	18914.12
240.761	18874.17
240.833	18852.24
240.904	18805.21
240.976	18764.01
241.048	18723.33
241.119	18703.53
241.191	18669.89
241.262	18646.37
241.334	18603.82
241.405	18571.73
241.477	18535.35
241.549	18492.12
241.62	18466.58
241.692	18436.75
241.763	18412.94
241.835	18378.63
241.906	18337.67
241.978	18294.39
242.049	18277.33
242.121	18257.43
242.192	18237.19
242.264	18179.94
242.335	18127.32
242.407	18102.98
242.478	18065.87
242.55	18032.77
242.621	17983.71
242.693	17942.79
242.764	17904.82
242.836	17869.06
242.907	17831.38
242.979	17801.59
243.05	17772.44
243.122	17740.53
243.193	17707.28
243.264	17651.09
243.336	17617.98
243.407	17582.95
243.479	17564.3
243.55	17523.48
243.622	17483.38
243.693	17448.88
243.764	17439.14
243.836	17394.51
243.907	17362.46
243.978	17326.03
244.05	17298.85
244.121	17238.99
244.192	17218.99
244.264	17159.57
244.335	17126.89
244.407	17078.84
244.478	17056.1
244.549	17016.1
244.62	16960.96
244.692	16919.27
244.763	16898.45
244.834	16852.33
244.906	16816.23
244.977	16777.05
245.048	16761.63
245.119	16721.34
245.191	16675.55
245.262	16615.64
245.333	16597.81
245.405	16562.34
245.476	16539.83
245.547	16503.01
245.618	16492.07
245.689	16459.34
245.761	16427.58
245.832	16382.85
245.903	16359.14
245.974	16321.35
246.045	16284.72
246.117	16268.53
246.188	16225.01
246.259	16165.43
246.33	16136.75
246.401	16097.62
246.473	16053.66
246.544	16004.31
246.615	15983.48
246.686	15952.59
246.757	15939.86
246.828	15903.52
246.899	15884.53
246.97	15833.29
247.042	15791.94
247.113	15769.67
247.184	15766.11
247.255	15733.33
247.326	15709.9
247.397	15668.11
247.468	15639.53
247.539	15615.05
247.61	15571.81
247.681	15547.27
247.752	15539.95
247.823	15495.79
247.894	15471.26
247.965	15435.06
248.037	15401.22
248.108	15354.32
248.179	15316.72
248.25	15281.39
248.321	15256.71
248.392	15204.27
248.463	15199.21
248.534	15170.62
248.605	15141.37
248.675	15104.73
248.746	15087.86
248.817	15067.18
248.888	15048.82
248.959	14996.28
249.03	14974.73
249.101	14942.67
249.172	14910.96
249.243	14858.61
249.314	14852.1
249.385	14820.96
249.456	14794.93
249.527	14764.08
249.598	14737.23
249.669	14712.69
249.739	14687.29
249.81	14662.41
249.881	14618.93
249.952	14588.71
250.023	14552.75
250.094	14507.48
250.165	14461.21
250.235	14425.34
250.306	14398.93
250.377	14362.97
250.448	14342.09
250.519	14291.43
250.59	14288.88
250.66	14259.71
250.731	14262.22
250.802	14233.78
250.873	14211.36
250.944	14193.04
251.014	14162.72
251.085	14170.68
251.156	14146.86
251.227	14136.45
251.297	14125.55
251.368	14127.24
251.439	14107.43
251.51	14103.96
251.58	14067.42
251.651	14044.81
251.722	14032.95
251.792	13984.26
251.863	13951.96
251.934	13951
252.005	13964.45
252.075	13930.95
252.146	13926.03
252.217	13906.6
252.287	13892.53
252.358	13866.49
252.429	13865.29
252.499	13840.66
252.57	13816.79
252.641	13801.32
252.711	13779.24
252.782	13736.34
252.852	13731.76
252.923	13709.68
252.994	13691.22
253.064	13686.2
253.135	13647.3
253.205	13619.82
253.276	13621.94
253.347	13621.12
253.417	13589.93
253.488	13550.16
253.558	13527.41
253.629	13498.97
253.699	13480.55
253.77	13463.63
253.841	13437.84
253.911	13414.12
253.982	13392.14
254.052	13374.74
254.123	13363.12
254.193	13337.72
254.264	13358.16
254.334	13321.42
254.405	13281.8
254.475	13243.91
254.546	13213.39
254.616	13205.05
254.687	13190.69
254.757	13175.7
254.827	13145.61
254.898	13122.81
254.968	13105.07
255.039	13074.51
255.109	13062.84
255.18	13032.86
255.25	12986.92
255.321	12973.66
255.391	12931.48
255.461	12936.79
255.532	12881.45
255.602	12849.73
255.673	12807.74
255.743	12765.51
255.813	12709.83
255.884	12704.44
255.954	12689.93
256.024	12695.66
256.095	12672.96
256.165	12627.84
256.235	12612.41
256.306	12585.51
256.376	12576.07
256.446	12561.7
256.517	12550.57
256.587	12542.9
256.657	12519.57
256.728	12505.11
256.798	12486.69
256.868	12477.54
256.938	12440.56
257.009	12436.8
257.079	12427.6
257.149	12432.27
257.219	12394.67
257.29	12392.55
257.36	12341.7
257.43	12326.71
257.5	12277.88
257.571	12253.1
257.641	12251.22
257.711	12214.44
257.781	12210.58
257.852	12202.73
257.922	12165.8
257.992	12142.43
258.062	12111.72
258.132	12105.74
258.202	12083.14
258.273	12057.93
258.343	12051.37
258.413	12029.1
258.483	12007.6
258.553	11975.94
258.623	11953.86
258.693	11940.51
258.764	11935.54
258.834	11955.59
258.904	11942.63
258.974	11920.6
259.044	11904.84
259.114	11887.54
259.184	11873.08
259.254	11848.25
259.324	11798.9
259.394	11788.2
259.464	11788.15
259.535	11772.48
259.605	11743.13
259.675	11714.07
259.745	11706.26
259.815	11670.59
259.885	11647.31
259.955	11662.16
260.025	11634.64
260.095	11610.49
260.165	11595.89
260.235	11594.54
260.305	11556.7
260.375	11528.6
260.445	11532.65
260.515	11528.51
260.585	11527.3
260.655	11509.81
260.725	11506.87
260.795	11498.91
260.865	11502.72
260.934	11473.51
261.004	11461.03
261.074	11443.87
261.144	11451.01
261.214	11450.57
261.284	11438.14
261.354	11431.73
261.424	11399.82
261.494	11409.41
261.564	11400.44
261.634	11400.64
261.703	11358.85
261.773	11353.02
261.843	11340.06
261.913	11325.84
261.983	11292.83
262.053	11274.37
262.123	11250.85
262.192	11219.53
262.262	11217.36
262.332	11176.34
262.402	11172.54
262.472	11161.74
262.541	11128.49
262.611	11126.32
262.681	11094.47
262.751	11091.14
262.821	11074.13
262.89	11043.48
262.96	11024.83
263.03	11025.12
263.1	11002.04
263.169	10989.31
263.239	10982.9
263.309	10991.05
263.379	10977.99
263.448	10973.75
263.518	10964.54
263.588	10949.9
263.657	10944.69
263.727	10932.88
263.797	10918.62
263.867	10902
263.936	10866.72
264.006	10869.85
264.076	10846.24
264.145	10833.13
264.215	10800.03
264.285	10793.53
264.354	10761.87
264.424	10744.76
264.494	10708.53
264.563	10696.91
264.633	10708.04
264.702	10691.08
264.772	10659.62
264.842	10644.97
264.911	10629.98
264.981	10603.53
265.05	10595.34
265.12	10580.69
265.19	10573.27
265.259	10572.5
265.329	10567.63
265.398	10557.61
265.468	10575.1
265.537	10555.35
265.607	10539.4
265.676	10542.14
265.746	10531.74
265.815	10531.4
265.885	10518.25
265.955	10497.63
266.024	10473.49
266.094	10434.75
266.163	10434.32
266.232	10429.26
266.302	10408.49
266.371	10401.17
266.441	10386.67
266.51	10380.36
266.58	10360.36
266.649	10337.24
266.719	10334.78
266.788	10319.07
266.858	10326.3
266.927	10278.5
266.996	10266.99
267.066	10262.7
267.135	10233.32
267.205	10231.63
267.274	10227.05
267.343	10229.46
267.413	10218.53
267.482	10227.73
267.552	10235.24
267.621	10203.06
267.69	10175.89
267.76	10165.05
267.829	10157.83
267.898	10140.63
267.968	10118.62
268.037	10118.57
268.106	10115.87
268.176	10083.5
268.245	10071.16
268.314	10053.48
268.384	10057.87
268.453	10049.58
268.522	10032.87
268.592	10036.67
268.661	10005.94
268.73	9991.29
268.799	9964.08
268.869	9972.75
268.938	9933.97
269.007	9905.07
269.076	9895.24
269.146	9891.39
269.215	9887.25
269.284	9891.15
269.353	9880.5
269.422	9867.89
269.492	9849.49
269.561	9798.63
269.63	9802.09
269.699	9784.03
269.768	9767.61
269.838	9757.92
269.907	9749.11
269.976	9728.4
270.045	9696.23
270.114	9701.86
270.183	9688.04
270.253	9684.09
270.322	9651.25
270.391	9640.12
270.46	9647.97
270.529	9650.81
270.598	9647.54
270.667	9632.9
270.736	9604.86
270.806	9600.82
270.875	9599.28
270.944	9588.83
271.013	9622.49
271.082	9614.59
271.151	9611.46
271.22	9583.48
271.289	9575.15
271.358	9565.04
271.427	9567.44
271.496	9558.97
271.565	9532.24
271.634	9523.91
271.703	9544.24
271.772	9548.86
271.841	9544.14
271.91	9523.72
271.979	9510.14
272.048	9487.89
272.117	9483.85
272.186	9463.62
272.255	9464.68
272.324	9467.91
272.393	9465.5
272.462	9448.4
272.531	9431.35
272.6	9418.45
272.669	9428.7
272.738	9416.95
272.807	9416.71
272.876	9391.1
272.945	9420.95
273.013	9430.92
273.082	9435.54
273.151	9391.91
273.22	9394.37
273.289	9387.05
273.358	9399.09
273.427	9396.54
273.496	9402.22
273.564	9399.95
273.633	9408.91
273.702	9388.64
273.771	9376.69
273.84	9365.52
273.909	9358.35
273.977	9361.38
274.046	9352.57
274.115	9358.78
274.184	9343.66
274.253	9332.16
274.322	9344.19
274.39	9310.77
274.459	9293
274.528	9262.05
274.597	9256.46
274.665	9247.7
274.734	9255.31
274.803	9236.19
274.872	9226.51
274.94	9209.42
275.009	9276.04
275.078	9257.65
275.147	9256.06
275.215	9246.28
275.284	9256.92
275.353	9245.18
275.421	9219.76
275.49	9230.93
275.559	9214.27
275.627	9201.08
275.696	9194.38
275.765	9194.38
275.833	9181.63
275.902	9180.42
275.971	9196.02
276.039	9213.02
276.108	9211.72
276.177	9203.97
276.245	9193.23
276.314	9184.71
276.383	9191.26
276.451	9123.72
276.52	9131.66
276.588	9143.6
276.657	9156.51
276.725	9145.48
276.794	9143.89
276.863	9151.74
276.931	9126.7
277	9133.01
277.068	9148.13
277.137	9165.7
277.205	9162.57
277.274	9177.69
277.342	9185.78
277.411	9167.53
277.48	9145.24
277.548	9133.64
277.617	9137.34
277.685	9133.4
277.754	9137.39
277.822	9125.4
277.89	9134.22
277.959	9119.97
278.027	9095.7
278.096	9077.5
278.164	9106.59
278.233	9100.91
278.301	9097.49
278.37	9109.91
278.438	9094.94
278.507	9094.41
278.575	9063.74
278.643	9057.96
278.712	9046.31
278.78	9036.78
278.849	9047.8
278.917	9066.34
278.985	9068.55
279.054	9064.8
279.122	9081.55
279.191	9080.06
279.259	9080.68
279.327	9055.55
279.396	9078.66
279.464	9073.75
279.532	9080.92
279.601	9074.66
279.669	9067.63
279.737	9074.71
279.806	9073.41
279.874	9081.88
279.942	9078.46
280.011	9077.98
280.079	9084.82
280.147	9098.83
280.215	9100.66
280.284	9096.81
280.352	9080.1
280.42	9082.03
280.488	9077.21
280.557	9060.94
280.625	9059.4
280.693	9052.8
280.761	9060.17
280.83	9042.55
280.898	9062.77
280.966	9049.24
281.034	9009.86
281.102	8994.98
281.171	8994.98
281.239	9002.4
281.307	8991.9
281.375	8980.59
281.443	9007.36
281.512	9000.28
281.58	9005.43
281.648	8988.63
281.716	8985.65
281.784	8983.58
281.852	8974.53
281.92	8971.64
281.989	8984.54
282.057	8966.15
282.125	9014.11
282.193	9004.53
282.261	9000.68
282.329	8992.45
282.397	8985.42
282.465	8990.23
282.533	9010.26
282.601	8990.95
282.67	8966.88
282.738	8957.74
282.806	8971.6
282.874	8954.22
282.942	8957.44
283.01	8959.95
283.078	8965.1
283.146	8964.91
283.214	8973.33
283.282	8975.93
283.35	8990.04
283.418	8982.48
283.486	8987.48
283.554	8945.78
283.622	8952.86
283.69	8952.48
283.758	8946.17
283.826	8958.15
283.894	8971.15
283.962	8993.59
284.03	9013.09
284.098	9016.17
284.165	9012.22
284.233	9010.44
284.301	9005.67
284.369	9000.62
284.437	8981.84
284.505	8977.65
284.573	8988.39
284.641	8978.23
284.709	8988.2
284.777	8972.98
284.845	8980.44
284.912	8988.15
284.98	8987.67
285.048	8976.35
285.116	8984.25
285.184	9001.19
285.252	9000.76
285.319	8983
285.387	8970.04
285.455	8952.81
285.523	8962.92
285.591	8965.71
285.659	8962.92
285.726	8972.31
285.794	8952.33
285.862	8949.59
285.93	8947.23
285.997	8946.22
286.065	8938.52
286.133	8929.42
286.201	8922.29
286.269	8909.68
286.336	8906.46
286.404	8901.83
286.472	8909.87
286.539	8885.81
286.607	8863.66
286.675	8864.05
286.743	8874.83
286.81	8867.46
286.878	8877.04
286.946	8861.45
287.013	8863.18
287.081	8865.3
287.149	8852.73
287.216	8875.6
287.284	8874.92
287.352	8875.45
287.419	8863.22
287.487	8886.04
287.555	8889.46
287.622	8887.29
287.69	8889.99
287.758	8904.1
287.825	8893.07
287.893	8877.57
287.96	8888.21
288.028	8899.33
288.096	8900.58
288.163	8905.64
288.231	8901.5
288.298	8902.56
288.366	8918.59
288.433	8911.22
288.501	8903.09
288.569	8909.87
288.636	8897.31
288.704	8912.76
288.771	8926.34
288.839	8926.1
288.906	8919.26
288.974	8935.2
289.041	8934.14
289.109	8930.38
289.176	8934.53
289.244	8949.98
289.311	8970.1
289.379	8981.79
289.446	8985.02
289.514	8984.73
289.581	8981.84
289.649	8981.65
289.716	8986.27
289.783	8984.68
289.851	9007.16
289.918	9007.4
289.986	9012.31
290.053	9024.44
290.121	9020.45
290.188	9020.06
290.255	9048.52
290.323	9037.59
290.39	9025.26
290.458	9033.2
290.525	9043.36
290.592	9038.11
290.66	9032.58
290.727	9028.24
290.794	9038.5
290.862	9034.84
290.929	9033.54
290.996	9030.89
291.064	9036.81
291.131	9046.97
291.198	9057.28
291.266	9053.57
291.333	9055.69
291.4	9059.49
291.468	9076.49
291.535	9070.71
291.602	9070.18
291.669	9054.82
291.737	9062.28
291.804	9059.59
291.871	9075.33
291.938	9084.19
292.006	9116.07
292.073	9129.98
292.14	9137.35
292.207	9128.87
292.275	9130.27
292.342	9147.6
292.409	9176.73
292.476	9207.36
292.543	9203.51
292.611	9196.33
292.678	9219.92
292.745	9249.49
292.812	9260.99
292.879	9253.77
292.946	9255.36
293.014	9277.41
293.081	9294.07
293.148	9303.56
293.215	9327.78
293.282	9325.47
293.349	9334.95
293.416	9315.59
293.484	9331.92
293.551	9345.06
293.618	9360.81
293.685	9392.25
293.752	9383.44
293.819	9377.32
293.886	9358.16
293.953	9362.68
294.02	9379.58
294.087	9382.28
294.154	9374.82
294.221	9393.16
294.288	9394.08
294.356	9418.39
294.423	9421.77
294.49	9411.65
294.557	9435.97
294.624	9421.38
294.691	9444.4
294.758	9446.28
294.825	9446.37
294.892	9440.31
294.959	9437.51
295.026	9447.24
295.093	9438.48
295.16	9437.51
295.226	9438.52
295.293	9469.59
295.36	9473.2
295.427	9485.72
295.494	9500.36
295.561	9507.1
295.628	9530.08
295.695	9549.44
295.762	9552.81
295.829	9562.68
295.896	9585.27
295.963	9583.78
296.03	9591.67
296.096	9590.66
296.163	9603.23
296.23	9620.04
296.297	9634.87
296.364	9638.48
296.431	9646.91
296.498	9640.99
296.564	9667.71
296.631	9668.77
296.698	9651.43
296.765	9669.45
296.832	9656.59
296.899	9637.9
296.965	9655.14
297.032	9626.1
297.099	9642.52
297.166	9647.96
297.233	9645.12
297.299	9632.36
297.366	9637.51
297.433	9641.99
297.5	9651.38
297.566	9644.26
297.633	9646.33
297.7	9648.4
297.767	9646.9
297.833	9649.79
297.9	9653.84
297.967	9638.72
298.033	9657.65
298.1	9691.32
298.167	9688.04
298.234	9691.12
298.3	9704.03
298.367	9697.62
298.434	9713.9
298.5	9704.46
298.567	9704.22
298.634	9704.46
298.7	9722.09
298.767	9723.05
298.834	9743.23
298.9	9742.32
298.967	9738.71
299.033	9751.13
299.1	9771.6
299.167	9779.55
299.233	9778.97
299.3	9800.02
299.366	9820.05
299.433	9832.1
299.5	9797.03
299.566	9798.23
299.633	9817.69
299.699	9827.42
299.766	9830.17
299.832	9833.59
299.899	9841.05
299.965	9850.49
300.032	9841.78
300.099	9850.64
300.165	9856.32
300.232	9849.1
300.298	9845.82
300.365	9865.96
300.431	9865.57
300.498	9853.58
300.564	9866.44
300.631	9875.49
300.697	9883.25
300.763	9882.14
300.83	9884.5
300.896	9909.5
300.963	9925.83
301.029	9934.35
301.096	9946.98
301.162	9954.49
301.229	9950.15
301.295	9935.27
301.361	9939.65
301.428	9948.03
301.494	9937.92
301.561	9940.91
301.627	9940.95
301.693	9949.24
301.76	9946.83
301.826	9939.51
301.892	9954.63
301.959	9970.29
302.025	9967.21
302.092	9961.47
302.158	9965.13
302.224	9964.32
302.291	9948.13
302.357	9940.62
302.423	9929.78
302.49	9915.37
302.556	9928.96
302.622	9931.66
302.688	9946.15
302.755	9966.1
302.821	9979.87
302.887	9987.49
302.954	9986.62
303.02	9999.48
303.086	10006.7
303.152	10009.55
303.219	10007.04
303.285	10010.03
303.351	10013.31
303.417	10014.22
303.483	10009.6
303.55	10002.66
303.616	10003.82
303.682	10011.19
303.748	10009.26
303.815	10022.99
303.881	10034.6
303.947	10020.87
304.013	10018.07
304.079	10008.63
304.145	9980.26
304.212	9967.83
304.278	9963.93
304.344	9960.66
304.41	9947.12
304.476	9932.67
304.542	9929.49
304.608	9938.31
304.674	9920.92
304.741	9911.62
304.807	9923.61
304.873	9921.78
304.939	9941.05
305.005	9920.24
305.071	9911.57
305.137	9912.24
305.203	9892.3
305.269	9888.4
305.335	9902.95
305.401	9901.36
305.467	9902.08
305.533	9913.06
305.599	9924.43
305.666	9928.33
305.732	9932.04
305.798	9947.74
305.864	9976.5
305.93	9974.91
305.996	9971.4
306.062	9970.58
306.128	9965.95
306.194	9946.83
306.259	9957.14
306.325	9951.7
306.391	9959.59
306.457	9970.43
306.523	9971.97
306.589	9996.01
306.655	9985.17
306.721	9963.11
306.787	9943.89
306.853	9956.51
306.919	9935.71
306.985	9933.59
307.051	9926.94
307.117	9915.52
307.183	9909.89
307.248	9878.91
307.314	9884.16
307.38	9883.83
307.446	9893.61
307.512	9881.52
307.578	9887.73
307.644	9875.69
307.709	9871.78
307.775	9866.78
307.841	9858.11
307.907	9860.22
307.973	9838.35
308.039	9840.86
308.104	9848.18
308.17	9855.4
308.236	9846.49
308.302	9854.44
308.368	9838.59
308.433	9844.47
308.499	9841.58
308.565	9829.2
308.631	9832.33
308.696	9809.79
308.762	9801.36
308.828	9795.44
308.894	9778.34
308.959	9756.62
309.025	9751.75
309.091	9741.93
309.156	9734.99
309.222	9748.72
309.288	9739.91
309.354	9719.58
309.419	9716.26
309.485	9703.64
309.551	9712.36
309.616	9692.85
309.682	9687.22
309.748	9683.36
309.813	9674.07
309.879	9663.09
309.945	9644.64
310.01	9637.9
310.076	9638.91
310.141	9628.08
310.207	9613.1
310.273	9618.1
310.338	9618.39
310.404	9600.58
310.469	9592.44
310.535	9586.08
310.601	9553.42
310.666	9549.86
310.732	9564.93
310.797	9550.73
310.863	9536.57
310.928	9521.25
310.994	9529.44
311.059	9522.36
311.125	9516.82
311.191	9526.31
311.256	9523.71
311.322	9530.12
311.387	9509.94
311.453	9966.3
311.518	9938.47
311.584	9935.15
311.649	9939.15
311.715	9932.4
311.78	9934.81
311.846	9927.59
311.911	9929.95
311.976	9930.19
312.042	9915.45
312.107	9895.52
312.173	9888.87
312.238	9882.56
312.304	9880.06
312.369	9867.06
312.434	9857.62
312.5	9849.38
312.565	9815.53
312.631	9818.22
312.696	9811.53
312.761	9813.07
312.827	9346.55
312.892	9391.96
312.958	9389.36
313.023	9379.39
313.088	9378.28
313.154	9366.44
313.219	9354.64
313.284	9346.74
313.35	9347.27
313.415	9339.81
313.48	9332.1
313.546	9336.78
313.611	9353.87
313.676	9343.71
313.741	9332.35
313.807	9341.98
313.872	9348.57
313.937	9353.49
314.003	9357.63
314.068	9361.96
314.133	9369.28
314.198	9361.19
314.264	9340
314.329	9332.92
314.394	9329.89
314.459	9326.76
314.525	9344.72
314.59	9341.54
314.655	9328.01
314.72	9331.72
314.785	9333.21
314.851	9327.1
314.916	9307.4
314.981	9280.44
315.046	9269.22
315.111	9260.07
315.176	9245.87
315.242	9248.61
315.307	9248.37
315.372	9227.38
315.437	9213.46
315.502	9206.82
315.567	9216.69
315.632	9197.14
315.698	9197
315.763	9196.61
315.828	9190.4
315.893	9183.13
315.958	9179.28
316.023	9175.62
316.088	9159.1
316.153	9135.95
316.218	9133.92
316.283	9113.9
316.348	9103.65
316.413	9108.27
316.479	9093.06
316.544	9065.48
316.609	9027.25
316.674	8994.37
316.739	8961.26
316.804	8929.06
316.869	8888.33
316.934	8847.51
316.999	8818.25
317.064	8765.02
317.129	8722.61
317.194	8681.17
317.259	8636.31
317.324	8583.81
317.389	8531.5
317.454	8489.58
317.518	8460.42
317.583	8433.76
317.648	8417.97
317.713	8384.29
317.778	8319.33
317.843	8297.44
317.908	8255.77
317.973	8214.4
318.038	8180.96
318.103	8148.21
318.168	8118
318.233	8094.14
318.297	8049.64
318.362	8015.05
318.427	7975.19
318.492	7946.42
318.557	7899.54
318.622	7865.43
318.687	7846.54
318.751	7809.52
318.816	7777.77
318.881	7740.17
318.946	7684.29
319.011	7635.34
319.075	7591.44
319.14	7557.65
319.205	7506.87
319.27	7475.1
319.335	7439.58
319.399	7397.04
319.464	7364.93
319.529	7310.52
319.594	7267.79
319.658	7239.77
319.723	7195.6
319.788	7166.43
319.853	7113.71
319.917	7084.74
319.982	7036.02
320.047	6996.66
320.112	6975
320.176	6922.34
320.241	6887.51
320.306	6862.77
320.37	6823.57
320.435	6793.64
320.5	6768.86
320.564	6734.33
320.629	6691.69
320.694	6662.29
320.758	6625.32
320.823	6581.43
320.888	6561.55
320.952	6509.99
321.017	6458.96
321.082	6418.63
321.146	6386.42
321.211	6356.95
321.275	6317.3
321.34	6272.05
321.405	6224.69
321.469	6178.23
321.534	6138.26
321.598	6084.62
321.663	6051.79
321.727	6021.03
321.792	5964.81
321.857	5917.74
321.921	5875.14
321.986	5829.78
322.05	5766.34
322.115	5726.15
322.179	5683.71
322.244	5622.25
322.308	5592.18
322.373	5548.23
322.437	5507.58
322.502	5480.29
322.566	5428.47
322.631	5394.1
322.695	5355.76
322.76	5315.52
322.824	5272.96
322.889	5231.05
322.953	5188.9
323.018	5117.26
323.082	5046.43
323.146	5000.13
323.211	4945.77
323.275	4902.33
323.34	4860.02
323.404	4828.14
323.468	4780.78
323.533	4737.18
323.597	4689.48
323.662	4635.34
323.726	4600.64
323.79	4555.27
323.855	4485.91
323.919	4439.07
323.983	4391.84
324.048	4321.08
324.112	4479.45
324.177	4350.9
324.241	4125.53
324.305	3905.99
324.37	3690.66
324.434	3485.75
324.498	3441.37
324.562	3389.72
324.627	3325.47
324.691	3266.01
324.755	3195.29
324.82	3115.94
324.884	3032.07
324.948	2958.4
325.012	2857.46
325.077	2727.41
