Data from 20250703_urea_0.1M_MAYP1162681_19-51-05-229.txt Node
Date: Thu Jul 03 19:51:05 BST 2025
User: adleo
Spectrometer: MAYP116268
Trigger mode: 0
Integration Time (sec): 1.000000E0
Scans to average: 1
Electric dark correction enabled: true
Nonlinearity correction enabled: true
Boxcar width: 10
XAxis mode: Wavelengths
Number of Pixels in Spectrum: 2068
>>>>>Begin Spectral Data<<<<<
179.565	1377.68
179.642	1441.17
179.718	1498.88
179.795	1545.21
179.871	1583.23
179.948	1605.7
180.024	1631.58
180.101	1658.74
180.177	1673.43
180.254	1698.68
180.33	1722.91
180.407	1789.54
180.483	1897.11
180.56	2001.7
180.636	2099.04
180.712	2083.25
180.789	2091.9
180.865	2106.93
180.942	2116.44
181.018	2128
181.095	2142.99
181.171	2151.93
181.248	2151.22
181.324	2162.69
181.4	2168.54
181.477	2183.68
181.553	2200.75
181.63	2220.45
181.706	2235.97
181.782	2246.29
181.859	2247.43
181.935	2253.76
182.011	2250
182.088	2268.94
182.164	2288.08
182.24	2301.16
182.317	2314.58
182.393	2312.58
182.469	2325.29
182.546	2340.19
182.622	2348.75
182.698	2341.8
182.775	2352.13
182.851	2369.08
182.927	2363.17
183.003	2359.32
183.08	2348.61
183.156	2353.04
183.232	2349.51
183.308	2336.33
183.385	2345.42
183.461	2364.13
183.537	2366.46
183.613	2381.12
183.69	2371.36
183.766	2360.41
183.842	2371.07
183.918	2373.5
183.995	2388.59
184.071	2393.02
184.147	2387.78
184.223	2371.03
184.299	2388.65
184.375	2377.46
184.452	2385.84
184.528	2437.65
184.604	2449.22
184.68	2463.4
184.756	2474.78
184.832	2479.54
184.908	2487.11
184.985	2487.35
185.061	2467.73
185.137	2478.07
185.213	2465.83
185.289	2466.98
185.365	2458.88
185.441	2456.55
185.517	2474.94
185.593	2475.27
185.669	2474.36
185.745	2483.65
185.822	2504.06
185.898	2491.97
185.974	2502.58
186.05	2495.58
186.126	2457.2
186.202	2451.16
186.278	2447.58
186.354	2435.2
186.43	2445.25
186.506	2443.11
186.582	2441.59
186.658	2449.82
186.734	2426.07
186.81	2427.83
186.886	2429.26
186.962	2443.11
187.038	2438.35
187.114	2427.11
187.19	2431.92
187.266	2418.49
187.341	2421.11
187.417	2413.31
187.493	2415.35
187.569	2418.78
187.645	2410.83
187.721	2399.83
187.797	2406.93
187.873	2411.4
187.949	2405.83
188.025	2395.78
188.101	2398.59
188.176	2404.49
188.252	2399.73
188.328	2408.3
188.404	2412.34
188.48	2411.25
188.556	2404.87
188.632	2407.92
188.707	2409.25
188.783	2402.82
188.859	2399.06
188.935	2386.68
189.011	2395.3
189.086	2387.97
189.162	2378.45
189.238	2375.59
189.314	2374.83
189.39	2369.36
189.465	2362.12
189.541	2379.97
189.617	2368.83
189.693	2363.88
189.768	2366.36
189.844	2392.22
189.92	2385.32
189.996	2392.27
190.071	2402.13
190.147	2400.98
190.223	2405.65
190.298	2395.98
190.374	2386.42
190.45	2399.36
190.526	2409.36
190.601	2401.98
190.677	2405.31
190.753	2435.18
190.828	2437.7
190.904	2454.22
190.98	2472.08
191.055	2483.37
191.131	2474.41
191.207	2493.84
191.282	2506.6
191.358	2497.93
191.433	2483.26
191.509	2498.78
191.585	2497.3
191.66	2499.59
191.736	2507.39
191.811	2499.44
191.887	2519.07
191.963	2546.45
192.038	2555.12
192.114	2552.45
192.189	2558.97
192.265	2555.69
192.34	2532.06
192.416	2535.1
192.491	2527.96
192.567	2528.34
192.642	2531.15
192.718	2530.15
192.793	2517.2
192.869	2511.91
192.944	2514.58
193.02	2522.29
193.095	2523.63
193.171	2527.53
193.246	2526.82
193.322	2523.86
193.397	2523.34
193.473	2506.29
193.548	2481.81
193.624	2484.76
193.699	2483.38
193.775	2504.72
193.85	2506.15
193.925	2516.11
194.001	2513.01
194.076	2505.35
194.152	2496.39
194.227	2487.39
194.302	2479.2
194.378	2483.39
194.453	2479.49
194.529	2495.68
194.604	2480.06
194.679	2473.64
194.755	2455.45
194.83	2470.03
194.905	2467.56
194.981	2479.55
195.056	2474.51
195.131	2482.27
195.207	2479.7
195.282	2471.18
195.357	2444.26
195.433	2460.31
195.508	2445.4
195.583	2454.3
195.659	2470.78
195.734	2477.55
195.809	2479.88
195.884	2490.73
195.96	2490.3
196.035	2504.25
196.11	2496.59
196.185	2511.92
196.261	2515.82
196.336	2548.3
196.411	2531.29
196.486	2539.05
196.561	2531.77
196.637	2537.62
196.712	2555.53
196.787	2560.54
196.862	2578.2
196.937	2590.82
197.013	2595.73
197.088	2608.3
197.163	2630.55
197.238	2650.76
197.313	2650.67
197.388	2662.15
197.464	2694.6
197.539	2707.89
197.614	2705.89
197.689	2720.61
197.764	2735.86
197.839	2760.25
197.914	2751.01
197.989	2773.6
198.065	2789.89
198.14	2845.59
198.215	2875.51
198.29	2890.01
198.365	2903.4
198.44	2917.98
198.515	2948.83
198.59	2966.23
198.665	2995.88
198.74	3008.99
198.815	3008.28
198.89	3032.54
198.965	3066.98
199.04	3063.31
199.115	3077.08
199.19	3120.23
199.265	3123.47
199.34	3136.3
199.415	3171.95
199.49	3198.31
199.565	3210.43
199.64	3233.85
199.715	3229.74
199.79	3240.85
199.865	3249.78
199.94	3248.63
200.015	3281.13
200.09	3285.95
200.165	3292.63
200.24	3302.69
200.315	3344.96
200.39	3360.61
200.464	3367.63
200.539	3367.39
200.614	3386.19
200.689	3412.72
200.764	3422.27
200.839	3440.53
200.914	3445.97
200.989	3436.61
201.063	3451.79
201.138	3433.19
201.213	3435.25
201.288	3416.54
201.363	3419.88
201.438	3415.87
201.512	3435.14
201.587	3417.29
201.662	3426.36
201.737	3440.77
201.812	3447.5
201.886	3410.1
201.961	3427.34
202.036	3417.23
202.111	3416.56
202.186	3384.32
202.26	3368.57
202.335	3342.7
202.41	3339.5
202.485	3322.43
202.559	3301.29
202.634	3275.48
202.709	3288.73
202.784	3271.84
202.858	3274.18
202.933	3255.91
203.008	3256.05
203.082	3238.54
203.157	3243.22
203.232	3197.11
203.306	3179.54
203.381	3152.49
203.456	3136.89
203.53	3116.83
203.605	3103.44
203.68	3089.22
203.754	3092.84
203.829	3090.26
203.904	3084.64
203.978	3089.5
204.053	3112.21
204.127	3119.89
204.202	3137.54
204.277	3139.64
204.351	3152.76
204.426	3165.31
204.5	3186.97
204.575	3178.33
204.65	3218.14
204.724	3241.97
204.799	3283.36
204.873	3314.91
204.948	3349.18
205.022	3378.48
205.097	3413.78
205.171	3473.11
205.246	3527.61
205.32	3576.48
205.395	3630.08
205.469	3674.76
205.544	3734.35
205.618	3771.71
205.693	3845.31
205.767	3894.05
205.842	3986.93
205.916	4049.02
205.991	4113.8
206.065	4193.32
206.14	4287.63
206.214	4363.01
206.289	4435.13
206.363	4535.5
206.438	4623.73
206.512	4726.61
206.586	4838.92
206.661	4938.66
206.735	5015.32
206.81	5117.11
206.884	5241.81
206.958	5334.19
207.033	5462.27
207.107	5581.45
207.181	5734.39
207.256	5843.13
207.33	5985.15
207.405	6112.98
207.479	6253.67
207.553	6386.5
207.628	6492.51
207.702	6632.41
207.776	6758.09
207.851	6893
207.925	7050.14
207.999	7187.7
208.073	7315.72
208.148	7455.46
208.222	7584.59
208.296	7761.1
208.371	7928.69
208.445	8079.53
208.519	8259.37
208.593	8417.35
208.668	8560.9
208.742	8713.45
208.816	8863.45
208.89	9025.05
208.965	9170.7
209.039	9329.53
209.113	9497.28
209.187	9679.4
209.261	9828.97
209.336	10007.03
209.41	10181.97
209.484	10324.33
209.558	10497.76
209.632	10664.87
209.707	10826.9
209.781	11008.46
209.855	11176.88
209.929	11335.44
210.003	11498.28
210.077	11646.62
210.151	11846.74
210.226	12027.53
210.3	12209.05
210.374	12380.16
210.448	12535.22
210.522	12698.72
210.596	12852.54
210.67	13008.67
210.744	13198.01
210.818	13376.27
210.892	13535.92
210.966	13671.14
211.041	13843.23
211.115	13980.04
211.189	14148.8
211.263	14313.08
211.337	14459.09
211.411	14614.79
211.485	14752.7
211.559	14897.07
211.633	15029.44
211.707	15138.33
211.781	15284.38
211.855	15367.86
211.929	15500.47
212.003	15614.42
212.077	15756.03
212.151	15905.21
212.225	16043.83
212.299	16159.12
212.373	16270.36
212.447	16387.96
212.52	16544.6
212.594	16655.6
212.668	16795.75
212.742	16900.53
212.816	17011.43
212.89	17109.21
212.964	17219.24
213.038	17337.5
213.112	17470.18
213.186	17595.05
213.26	17672.16
213.333	17727.2
213.407	17849.12
213.481	17951.58
213.555	18068.74
213.629	18156.97
213.703	18245.84
213.777	18343.47
213.85	18426.12
213.924	18566.64
213.998	18670.64
214.072	18763.98
214.146	18852.84
214.219	18941.71
214.293	19036.16
214.367	19137.12
214.441	19253.59
214.515	19330.84
214.588	19396.48
214.662	19443.46
214.736	19519.02
214.81	19619.65
214.883	19723.93
214.957	19793.66
215.031	19856.6
215.105	19908.11
215.178	19966.95
215.252	20034.57
215.326	20089.07
215.4	20141.6
215.473	20163.19
215.547	20213.07
215.621	20259.04
215.694	20340.1
215.768	20383.04
215.842	20432.06
215.915	20478.71
215.989	20513.41
216.063	20568.83
216.136	20623.1
216.21	20687.34
216.284	20760.69
216.357	20819.88
216.431	20871.93
216.504	20936.66
216.578	21030.06
216.652	21098.35
216.725	21160.86
216.799	21229.31
216.873	21284.06
216.946	21354.81
217.02	21403.59
217.093	21447.06
217.167	21487.88
217.24	21512.85
217.314	21563.75
217.387	21604.14
217.461	21647.96
217.535	21703.92
217.608	21740.07
217.682	21803.17
217.755	21862.65
217.829	21895.77
217.902	21935.97
217.976	21980.12
218.049	22010.49
218.123	22031.75
218.196	22075.76
218.27	22124.5
218.343	22154.96
218.417	22204.71
218.49	22226.69
218.563	22281.22
218.637	22337.33
218.71	22398.99
218.784	22445.75
218.857	22492.71
218.931	22551.52
219.004	22594.05
219.077	22655.04
219.151	22693.07
219.224	22717.76
219.298	22746.5
219.371	22797.41
219.444	22837.96
219.518	22879.13
219.591	22926.67
219.665	22992.87
219.738	23043.45
219.811	23058.78
219.885	23098.81
219.958	23138.06
220.031	23186.08
220.105	23223.83
220.178	23254.6
220.251	23292.12
220.325	23340.96
220.398	23392.76
220.471	23421.59
220.544	23454.24
220.618	23464.75
220.691	23505.4
220.764	23538.77
220.838	23576.15
220.911	23592.93
220.984	23641.11
221.057	23676.02
221.131	23714.75
221.204	23710.36
221.277	23744.7
221.35	23810.82
221.424	23829.53
221.497	23855.14
221.57	23879.15
221.643	23901.63
221.716	23932.35
221.79	23942.09
221.863	23954.2
221.936	23960.91
222.009	23978.99
222.082	23998.14
222.155	24008.7
222.229	24046.56
222.302	24071.26
222.375	24087.08
222.448	24118.38
222.521	24127.36
222.594	24134.01
222.667	24118.14
222.74	24152.87
222.814	24164.45
222.887	24170.09
222.96	24207.48
223.033	24227.84
223.106	24239.07
223.179	24254.85
223.252	24262.85
223.325	24264.45
223.398	24265.02
223.471	24270.81
223.544	24279.93
223.617	24294.83
223.69	24313.79
223.763	24299.03
223.837	24310.61
223.91	24320.35
223.983	24295.56
224.056	24286.97
224.129	24297.25
224.202	24327.34
224.275	24317.36
224.348	24305.49
224.42	24288.95
224.493	24252.91
224.566	24239.6
224.639	24248.91
224.712	24243.02
224.785	24232.31
224.858	24237.96
224.931	24238.1
225.004	24223.39
225.077	24224.93
225.15	24195.22
225.223	24183.07
225.296	24205.35
225.369	24182.1
225.442	24166.57
225.514	24177.04
225.587	24177.95
225.66	24179.64
225.733	24169.66
225.806	24171.68
225.879	24166.57
225.952	24147.76
226.025	24154.71
226.097	24163.48
226.17	24143.85
226.243	24112.12
226.316	24111.25
226.389	24093.93
226.461	24091.04
226.534	24098.23
226.607	24082.41
226.68	24104.3
226.753	24107.92
226.825	24074.97
226.898	24070.2
226.971	24061.18
227.044	24043.77
227.117	24033.3
227.189	24020.66
227.262	24015.79
227.335	23996.45
227.407	23978.61
227.48	23978.75
227.553	23971.66
227.626	23948.89
227.698	23936.69
227.771	23936.88
227.844	23902.64
227.916	23887.55
227.989	23861.21
228.062	23839.8
228.134	23844.24
228.207	23816.94
228.28	23781.15
228.352	23762.82
228.425	23753.03
228.498	23750.28
228.57	23731.96
228.643	23729.74
228.716	23706.45
228.788	23683.05
228.861	23666.85
228.934	23666.75
229.006	23645.68
229.079	23631.07
229.151	23610.52
229.224	23577.15
229.296	23567.07
229.369	23591.48
229.442	23597.89
229.514	23577.25
229.587	23570.69
229.659	23542.53
229.732	23527.29
229.804	23521.21
229.877	23529.7
229.949	23522.81
230.022	23521.5
230.094	23494.89
230.167	23468.36
230.239	23444.49
230.312	23431.09
230.384	23431.33
230.457	23420.67
230.529	23407.12
230.602	23386.05
230.674	23376.65
230.747	23372.5
230.819	23365.89
230.892	23315.5
230.964	23297.66
231.037	23288.11
231.109	23252.28
231.181	23239.17
231.254	23204.4
231.326	23186.37
231.399	23153.1
231.471	23123.54
231.544	23065.53
231.616	23061.82
231.688	23035.06
231.761	23003.96
231.833	22968.57
231.905	22913.41
231.978	22884.38
232.05	22856.37
232.122	22837.61
232.195	22800.15
232.267	22792.53
232.339	22757.72
232.412	22740.27
232.484	22699.38
232.556	22655.94
232.629	22664.86
232.701	22649.15
232.773	22632.95
232.846	22594.67
232.918	22573.84
232.99	22553.11
233.062	22544.86
233.135	22512.85
233.207	22478.91
233.279	22467.39
233.351	22449.03
233.424	22425.16
233.496	22384.33
233.568	22377.58
233.64	22334.63
233.713	22316.79
233.785	22286.81
233.857	22257.3
233.929	22212.86
234.001	22206.35
234.074	22206.98
234.146	22151.59
234.218	22119.38
234.29	22082.99
234.362	22050.74
234.434	21997.67
234.507	21952.6
234.579	21899.43
234.651	21872.58
234.723	21850.45
234.795	21820.13
234.867	21781.04
234.939	21760.85
235.012	21731.39
235.084	21700.45
235.156	21677.36
235.228	21633.3
235.3	21602.74
235.372	21583.27
235.444	21562.5
235.516	21500.46
235.588	21471.59
235.66	21446.33
235.732	21396.54
235.804	21437.18
235.876	21421.03
235.948	21402.18
236.02	21368.59
236.092	21339.96
236.164	21306.37
236.236	21263.71
236.308	21233.21
236.38	21212.1
236.452	21173.63
236.524	21142.21
236.596	21133.15
236.668	21104.23
236.74	21071.84
236.812	21038.06
236.884	21010.92
236.956	20984.99
237.028	20944.46
237.1	20886.29
237.172	20872.41
237.244	20858.43
237.316	20775.67
237.388	20728.97
237.46	20688.3
237.532	20674.61
237.604	20636.68
237.675	20620.88
237.747	20604.54
237.819	20545.55
237.891	20504.73
237.963	20449.99
238.035	20408.49
238.107	20326.61
238.178	20300.68
238.25	20262.23
238.322	20244.92
238.394	20179.38
238.466	20132.88
238.538	20102.42
238.609	20075.48
238.681	20016.06
238.753	19967.1
238.825	19931.1
238.897	19901.03
238.968	19889.8
239.04	19836.45
239.112	19820.6
239.184	19766.82
239.255	19719.69
239.327	19695.73
239.399	19662.53
239.471	19649.57
239.542	19624.46
239.614	19604.66
239.686	19544.32
239.758	19523.65
239.829	19477.63
239.901	19460.52
239.973	19427.27
240.044	19395.37
240.116	19360.33
240.188	19325.2
240.259	19287.13
240.331	19235.95
240.403	19196.68
240.474	19137.02
240.546	19093.21
240.618	19038.52
240.689	18991.92
240.761	18959.39
240.833	18949.9
240.904	18912.45
240.976	18873.13
241.048	18837.62
241.119	18812.56
241.191	18776.9
241.262	18751.84
241.334	18705.87
241.405	18671.46
241.477	18631.27
241.549	18591.8
241.62	18556.81
241.692	18516.91
241.763	18495.9
241.835	18465.78
241.906	18437.93
241.978	18394.56
242.049	18368.34
242.121	18350.9
242.192	18334.95
242.264	18290.76
242.335	18217.02
242.407	18190.42
242.478	18151.39
242.55	18118.71
242.621	18068.79
242.693	18027.1
242.764	17984.98
242.836	17944.65
242.907	17903.83
242.979	17878.96
243.05	17846.87
243.122	17814.44
243.193	17776.94
243.264	17711.98
243.336	17671.93
243.407	17651.45
243.479	17635.84
243.55	17604.99
243.622	17573.81
243.693	17530.97
243.764	17508.13
243.836	17467.4
243.907	17421.24
243.978	17378.58
244.05	17351.5
244.121	17298.1
244.192	17282
244.264	17223.26
244.335	17186
244.407	17129.23
244.478	17091.93
244.549	17057.9
244.62	17013.18
244.692	16974.09
244.763	16951.97
244.834	16912.64
244.906	16862.96
244.977	16828.88
245.048	16813.51
245.119	16761.65
245.191	16723.19
245.262	16667.04
245.333	16657.98
245.405	16631.52
245.476	16609.84
245.547	16565.69
245.618	16553.01
245.689	16517.73
245.761	16487.27
245.832	16454.84
245.903	16437.63
245.974	16410.25
246.045	16381.24
246.117	16366.73
246.188	16330.73
246.259	16282.48
246.33	16250.19
246.401	16208.88
246.473	16160.3
246.544	16114.85
246.615	16093.4
246.686	16056.29
246.757	16031.76
246.828	15984.57
246.899	15975.46
246.97	15920.32
247.042	15882.58
247.113	15853.37
247.184	15843.78
247.255	15809.51
247.326	15779.38
247.397	15753.64
247.468	15723.71
247.539	15692.67
247.61	15645.92
247.681	15620.32
247.752	15605.96
247.823	15565.66
247.894	15544.12
247.965	15502.81
248.037	15457.88
248.108	15409.3
248.179	15377.92
248.25	15342.83
248.321	15323.83
248.392	15268.5
248.463	15266.67
248.534	15233.46
248.605	15203.62
248.675	15165.01
248.746	15153.11
248.817	15137.92
248.888	15104.57
248.959	15057.33
249.03	15034.77
249.101	15009.9
249.172	14970.8
249.243	14916.43
249.314	14909.87
249.385	14871.55
249.456	14848.99
249.527	14823.97
249.598	14806.33
249.669	14779.77
249.739	14762.37
249.81	14737.45
249.881	14691.02
249.952	14658.92
250.023	14637.04
250.094	14594.9
250.165	14554.17
250.235	14521.83
250.306	14492.57
250.377	14456.8
250.448	14431.88
250.519	14384.68
250.59	14368.49
250.66	14344.48
250.731	14340.38
250.802	14307.56
250.873	14295.41
250.944	14271.5
251.014	14241.37
251.085	14233.75
251.156	14214.33
251.227	14207.96
251.297	14201.46
251.368	14194.51
251.439	14184.1
251.51	14180.29
251.58	14149.2
251.651	14124.76
251.722	14113
251.792	14061.08
251.863	14029.5
251.934	14028.73
252.005	14031.87
252.075	14000.1
252.146	13991.57
252.217	13981.88
252.287	13963.7
252.358	13928.9
252.429	13929.14
252.499	13902.72
252.57	13878.28
252.641	13859.19
252.711	13828.63
252.782	13784.66
252.852	13776.28
252.923	13748.17
252.994	13712.98
253.064	13700.93
253.135	13664.1
253.205	13632.77
253.276	13632.96
253.347	13632.91
253.417	13585.33
253.488	13553.61
253.558	13523.38
253.629	13495.28
253.699	13475.27
253.77	13466.84
253.841	13442.45
253.911	13417.86
253.982	13398.48
254.052	13384.6
254.123	13362.47
254.193	13335.33
254.264	13355.77
254.334	13322.51
254.405	13289.53
254.475	13259.55
254.546	13236.07
254.616	13225.76
254.687	13204.98
254.757	13185.75
254.827	13155.71
254.898	13152
254.968	13130.41
255.039	13112.76
255.109	13101.48
255.18	13064.8
255.25	13009.31
255.321	13002.08
255.391	12963.76
255.461	12961.35
255.532	12906.97
255.602	12881.08
255.673	12840.78
255.743	12802.6
255.813	12754.01
255.884	12744.47
255.954	12729.86
256.024	12725.19
256.095	12708.12
256.165	12672.45
256.235	12654.42
256.306	12629.21
256.376	12617.93
256.446	12610.6
256.517	12586.21
256.587	12574.35
256.657	12562.98
256.728	12546.06
256.798	12523.06
256.868	12502.67
256.938	12473.08
257.009	12476.21
257.079	12464.78
257.149	12477.75
257.219	12434.95
257.29	12422.41
257.36	12377.97
257.43	12364.86
257.5	12325.57
257.571	12299.3
257.641	12289.85
257.711	12256.93
257.781	12245.99
257.852	12234.71
257.922	12189.98
257.992	12174.6
258.062	12151.22
258.132	12141.53
258.202	12117.77
258.273	12098.15
258.343	12096.42
258.413	12068.56
258.483	12049.85
258.553	12016.26
258.623	11984.88
258.693	11971
258.764	11974.18
258.834	11977.89
258.904	11963.91
258.974	11933.35
259.044	11914.12
259.114	11901.01
259.184	11890.16
259.254	11868.96
259.324	11815.84
259.394	11803.16
259.464	11805.91
259.535	11782.39
259.605	11752.79
259.675	11730.09
259.745	11725.13
259.815	11690.14
259.885	11667.53
259.955	11668.06
260.025	11644.21
260.095	11626.42
260.165	11616.78
260.235	11613.65
260.305	11583.38
260.375	11548.58
260.445	11556.24
260.515	11562.22
260.585	11553.83
260.655	11535.42
260.725	11535.47
260.795	11535.81
260.865	11543.62
260.934	11510.46
261.004	11505.44
261.074	11489.92
261.144	11496.33
261.214	11482.07
261.284	11468.96
261.354	11464.28
261.424	11443.07
261.494	11454.45
261.564	11436.66
261.634	11431.46
261.703	11393.96
261.773	11382.93
261.843	11381.58
261.913	11365.96
261.983	11322.49
262.053	11313.29
262.123	11293.19
262.192	11254.44
262.262	11246.39
262.332	11213.43
262.402	11205.81
262.472	11189.38
262.541	11152.32
262.611	11138.93
262.681	11117.19
262.751	11113.58
262.821	11090.4
262.89	11060.23
262.96	11048.56
263.03	11054.73
263.1	11031.79
263.169	11018.01
263.239	11008.23
263.309	11010.06
263.379	10997.24
263.448	10988.62
263.518	10974.01
263.588	10962.83
263.657	10974.11
263.727	10966.06
263.797	10952.67
263.867	10938.26
263.936	10907.71
264.006	10904.72
264.076	10890.02
264.145	10866.02
264.215	10837.06
264.285	10839.47
264.354	10805.84
264.424	10775.19
264.494	10741.65
264.563	10723.3
264.633	10729.22
264.702	10725.9
264.772	10681.71
264.842	10660.6
264.911	10650.29
264.981	10626.63
265.05	10611.46
265.12	10586.83
265.19	10571.85
265.259	10563.7
265.329	10558.31
265.398	10546.26
265.468	10559.7
265.537	10539.42
265.607	10542.7
265.676	10538.12
265.746	10521.3
265.815	10517.64
265.885	10507.81
265.955	10481.75
266.024	10466.14
266.094	10426.44
266.163	10426.34
266.232	10428.56
266.302	10420.51
266.371	10411.02
266.441	10393.97
266.51	10392.76
266.58	10375.03
266.649	10345.74
266.719	10346.46
266.788	10337.79
266.858	10345.88
266.927	10299.49
266.996	10289.32
267.066	10272.08
267.135	10250.83
267.205	10250.69
267.274	10239.9
267.343	10236.72
267.413	10230.98
267.482	10230.07
267.552	10238.59
267.621	10204.82
267.69	10181.5
267.76	10165.46
267.829	10154.82
267.898	10150.87
267.968	10121.39
268.037	10126.11
268.106	10135.4
268.176	10103.22
268.245	10091.27
268.314	10070.03
268.384	10081.25
268.453	10071.96
268.522	10056.88
268.592	10060.78
268.661	10042.09
268.73	10041.7
268.799	10025.56
268.869	10034.48
268.938	10000.32
269.007	9973.01
269.076	9967.67
269.146	9962.56
269.215	9958.18
269.284	9971.09
269.353	9950.62
269.422	9944.88
269.492	9917.91
269.561	9871.77
269.63	9867.86
269.699	9846.19
269.768	9835.4
269.838	9823.36
269.907	9821.53
269.976	9798.5
270.045	9763.54
270.114	9761.85
270.183	9742.68
270.253	9733.82
270.322	9696.01
270.391	9686.81
270.46	9696.3
270.529	9693.61
270.598	9694.04
270.667	9680.17
270.736	9654.73
270.806	9650.35
270.875	9649.39
270.944	9638.6
271.013	9664.37
271.082	9660.27
271.151	9653.48
271.22	9629.79
271.289	9622.47
271.358	9608.79
271.427	9602.72
271.496	9596.27
271.565	9570.46
271.634	9566.55
271.703	9592.18
271.772	9601.23
271.841	9597
271.91	9572.1
271.979	9559.67
272.048	9533.28
272.117	9538.29
272.186	9519.27
272.255	9515.85
272.324	9514.16
272.393	9511.51
272.462	9493.26
272.531	9481.36
272.6	9469.85
272.669	9478.71
272.738	9463.5
272.807	9455.26
272.876	9439.61
272.945	9468.22
273.013	9470.63
273.082	9471.49
273.151	9421.26
273.22	9414.66
273.289	9406.67
273.358	9427.28
273.427	9412.84
273.496	9416.74
273.564	9407.44
273.633	9409.03
273.702	9387.84
273.771	9377.3
273.84	9370.94
273.909	9362.8
273.977	9364.59
274.046	9347.54
274.115	9343.93
274.184	9330.26
274.253	9329.34
274.322	9338.68
274.39	9301.6
274.459	9288.94
274.528	9258.61
274.597	9253.55
274.665	9251.14
274.734	9263.61
274.803	9236.36
274.872	9229.14
274.94	9213.39
275.009	9275.05
275.078	9261.04
275.147	9260.99
275.215	9253.38
275.284	9255.74
275.353	9246.88
275.421	9216.31
275.49	9234.41
275.559	9225.94
275.627	9219.44
275.696	9207.26
275.765	9205.91
275.833	9200.86
275.902	9200.71
275.971	9213.18
276.039	9230.37
276.108	9234.7
276.177	9225.17
276.245	9220.36
276.314	9218.77
276.383	9219.2
276.451	9151.76
276.52	9150.32
276.588	9159.95
276.657	9165.73
276.725	9153.35
276.794	9157.44
276.863	9168.04
276.931	9145.02
277	9150.94
277.068	9154.07
277.137	9175.11
277.205	9170.73
277.274	9189.46
277.342	9202.36
277.411	9181.52
277.48	9168.57
277.548	9156.39
277.617	9158.55
277.685	9154.89
277.754	9157.01
277.822	9154.32
277.89	9164.09
277.959	9157.88
278.027	9138.62
278.096	9123.94
278.164	9156.06
278.233	9148.06
278.301	9136.08
278.37	9143.35
278.438	9129.05
278.507	9141.61
278.575	9109.02
278.643	9109.35
278.712	9091.97
278.78	9072.38
278.849	9084.7
278.917	9090.33
278.985	9081.48
279.054	9084.22
279.122	9093.22
279.191	9088.55
279.259	9081.24
279.327	9057.11
279.396	9075.5
279.464	9076.61
279.532	9085.9
279.601	9081.71
279.669	9075.65
279.737	9098.61
279.806	9100.3
279.874	9105.64
279.942	9098.71
280.011	9096.21
280.079	9102.22
280.147	9118.3
280.215	9120.57
280.284	9117.34
280.352	9104
280.42	9117.1
280.488	9105.21
280.557	9095.24
280.625	9101.07
280.693	9100.63
280.761	9102.42
280.83	9085.18
280.898	9095.1
280.966	9072.71
281.034	9039.59
281.102	9024.95
281.171	9005.5
281.239	9019.66
281.307	9009.74
281.375	9001.61
281.443	9031.84
281.512	9029.38
281.58	9032.47
281.648	9017.3
281.716	9013.36
281.784	9014.56
281.852	9006.52
281.92	9005.03
281.989	9014.7
282.057	8994.2
282.125	9052.71
282.193	9048.81
282.261	9046.25
282.329	9042.07
282.397	9053.76
282.465	9053.18
282.533	9067.77
282.601	9065.31
282.67	9042.16
282.738	9033.83
282.806	9042.83
282.874	9025.69
282.942	9028.24
283.01	9024.77
283.078	9033.1
283.146	9030.02
283.214	9038.01
283.282	9041.14
283.35	9054.24
283.418	9045.33
283.486	9053.66
283.554	8994.43
283.622	8997.32
283.69	8997.94
283.758	8985.91
283.826	8984.75
283.894	8994.62
283.962	9015.95
284.03	9030.54
284.098	9024.95
284.165	9020.33
284.233	9015.66
284.301	9007.96
284.369	8994.29
284.437	8984.37
284.505	8984.71
284.573	9002.61
284.641	8988.65
284.709	9000.98
284.777	8979.07
284.845	8992.89
284.912	9001.08
284.98	9010.08
285.048	8999.01
285.116	9004.64
285.184	9015.76
285.252	9015.61
285.319	9001.08
285.387	8991.25
285.455	8972.62
285.523	8985.91
285.591	8987.02
285.659	8993.76
285.726	9006.18
285.794	8990.44
285.862	8988.17
285.93	8984.03
285.997	8980.38
286.065	8982.45
286.133	8962.71
286.201	8961.6
286.269	8938.3
286.336	8926.79
286.404	8923.04
286.472	8937.53
286.539	8917.12
286.607	8899.88
286.675	8899.21
286.743	8908.16
286.81	8904.17
286.878	8920.49
286.946	8908.5
287.013	8911.58
287.081	8908.84
287.149	8890.98
287.216	8914.27
287.284	8910.76
287.352	8904.45
287.419	8895.12
287.487	8903.68
287.555	8912.11
287.622	8912.21
287.69	8925.2
287.758	8938.15
287.825	8930.36
287.893	8915.67
287.96	8919.47
288.028	8936.23
288.096	8943.78
288.163	8944.27
288.231	8928.43
288.298	8927.51
288.366	8940.22
288.433	8938.01
288.501	8931.56
288.569	8935.7
288.636	8926.17
288.704	8934.25
288.771	8950.09
288.839	8945.76
288.906	8937.62
288.974	8947.73
289.041	8945.09
289.109	8936.71
289.176	8944.51
289.244	8949.71
289.311	8965.11
289.379	8977.19
289.446	8982.06
289.514	8984.71
289.581	8990.96
289.649	8996.55
289.716	8992.89
289.783	8986.25
289.851	9001.65
289.918	8996.93
289.986	9007.81
290.053	9012.53
290.121	9012.05
290.188	9011.61
290.255	9045.27
290.323	9039.59
290.39	9026.78
290.458	9034.34
290.525	9040.26
290.592	9033.13
290.66	9036.89
290.727	9030.29
290.794	9043.15
290.862	9037.22
290.929	9034.77
290.996	9025.96
291.064	9036.84
291.131	9046.85
291.198	9063.13
291.266	9064.43
291.333	9075.26
291.4	9080.79
291.468	9099.96
291.535	9098.32
291.602	9099.28
291.669	9085.17
291.737	9093.94
291.804	9087.77
291.871	9101.98
291.938	9116.42
292.006	9148.44
292.073	9158.55
292.14	9170.88
292.207	9169.29
292.275	9171.31
292.342	9178.82
292.409	9212.96
292.476	9238.72
292.543	9233.86
292.611	9233.43
292.678	9251
292.745	9267.42
292.812	9280.85
292.879	9278.45
292.946	9280.76
293.014	9299.34
293.081	9307.24
293.148	9322.31
293.215	9349.42
293.282	9345.95
293.349	9351.78
293.416	9324.81
293.484	9341.71
293.551	9357.46
293.618	9370.99
293.685	9402.34
293.752	9392.18
293.819	9386.45
293.886	9373.01
293.953	9383.46
294.02	9391.5
294.087	9395.98
294.154	9394.92
294.221	9406.77
294.288	9407.44
294.356	9424.78
294.423	9431.09
294.49	9424.3
294.557	9438.02
294.624	9426.8
294.691	9453.29
294.758	9449.87
294.825	9458.24
294.892	9450.68
294.959	9446.78
295.026	9456.08
295.093	9451.17
295.16	9467.63
295.226	9469.61
295.293	9495.08
295.36	9504.57
295.427	9520.56
295.494	9535.35
295.561	9542.95
295.628	9567.52
295.695	9586.3
295.762	9595.12
295.829	9605.52
295.896	9617.8
295.963	9629.69
296.03	9642.65
296.096	9645.2
296.163	9658.25
296.23	9676.5
296.297	9684.5
296.364	9681.08
296.431	9685.12
296.498	9678.19
296.564	9697.69
296.631	9697.12
296.698	9683.58
296.765	9698.75
296.832	9689.46
296.899	9674.24
296.965	9697.36
297.032	9671.73
297.099	9686.13
297.166	9692.15
297.233	9684.78
297.299	9686.23
297.366	9680.79
297.433	9679.34
297.5	9688.64
297.566	9695.77
297.633	9691.86
297.7	9703.86
297.767	9700
297.833	9707.52
297.9	9708.87
297.967	9691.48
298.033	9707.13
298.1	9735.31
298.167	9726.79
298.234	9728.52
298.3	9734.88
298.367	9719.66
298.434	9732.66
298.5	9725.15
298.567	9722.79
298.634	9720.91
298.7	9733.62
298.767	9734.54
298.834	9755.54
298.9	9748.03
298.967	9738.87
299.033	9751.21
299.1	9761.75
299.167	9783.38
299.233	9779.38
299.3	9790.75
299.366	9812.23
299.433	9830.96
299.5	9802.88
299.566	9811.74
299.633	9825.42
299.699	9846.04
299.766	9849.22
299.832	9853.99
299.899	9862.37
299.965	9873.83
300.032	9868.58
300.099	9884.62
300.165	9895.75
300.232	9890.5
300.298	9893.2
300.365	9909.86
300.431	9918.2
300.498	9913.33
300.564	9925.08
300.631	9933.46
300.697	9953.46
300.763	9953.12
300.83	9944.4
300.896	9963.47
300.963	9969.88
301.029	9978.74
301.096	9984.09
301.162	9993.43
301.229	9983.03
301.295	9970.94
301.361	9977.06
301.428	9986.4
301.494	9967.9
301.561	9969.97
301.627	9963.86
301.693	9966.6
301.76	9967.42
301.826	9958.32
301.892	9966.89
301.959	9972.58
302.025	9967.04
302.092	9957.69
302.158	9961.11
302.224	9969.98
302.291	9958.27
302.357	9953.31
302.423	9944.83
302.49	9928.07
302.556	9938.71
302.622	9942.33
302.688	9953.55
302.755	9966.56
302.821	9975.13
302.887	9991.99
302.954	9991.03
303.02	10005.04
303.086	10012.89
303.152	10010.15
303.219	10008.9
303.285	10016.17
303.351	10025.85
303.417	10033.03
303.483	10022.72
303.55	10021.86
303.616	10022.05
303.682	10021.13
303.748	10014.78
303.815	10030.14
303.881	10041.46
303.947	10031.15
304.013	10034
304.079	10021.42
304.145	9995.94
304.212	9998.3
304.278	9984.62
304.344	9974.65
304.41	9965.84
304.476	9951.58
304.542	9947.72
304.608	9949.75
304.674	9924.94
304.741	9913.81
304.807	9913.33
304.873	9919.01
304.939	9923.35
305.005	9894.78
305.071	9898.4
305.137	9902.83
305.203	9876.28
305.269	9872.19
305.335	9881.1
305.401	9873.15
305.467	9872.14
305.533	9883.46
305.599	9882.4
305.666	9892.33
305.732	9897.48
305.798	9902.39
305.864	9930.48
305.93	9936.74
305.996	9939.87
306.062	9946.23
306.128	9937.89
306.194	9922.53
306.259	9924.79
306.325	9926.77
306.391	9940.25
306.457	9948.2
306.523	9949.45
306.589	9984.33
306.655	9976.58
306.721	9963.18
306.787	9954.56
306.853	9974.6
306.919	9955.24
306.985	9954.52
307.051	9949.03
307.117	9944.55
307.183	9945.46
307.248	9915.98
307.314	9916.75
307.38	9915.84
307.446	9919.88
307.512	9917.28
307.578	9929.03
307.644	9926.05
307.709	9920.94
307.775	9915.74
307.841	9915.16
307.907	9910.78
307.973	9880.52
308.039	9880.57
308.104	9886.16
308.17	9893.53
308.236	9874.89
308.302	9886.06
308.368	9874.5
308.433	9873.44
308.499	9866.22
308.565	9854.95
308.631	9856.92
308.696	9834.72
308.762	9823.4
308.828	9825.08
308.894	9808.85
308.959	9784.58
309.025	9778.65
309.091	9780.97
309.156	9777.5
309.222	9770.03
309.288	9766.23
309.354	9740.8
309.419	9738.39
309.485	9716.14
309.551	9712.24
309.616	9704
309.682	9698.8
309.748	9693.12
309.813	9691.82
309.879	9684.98
309.945	9669.76
310.01	9662.39
310.076	9670.39
310.141	9664.17
310.207	9651.5
310.273	9647.89
310.338	9658.78
310.404	9638.74
310.469	9618.08
310.535	9609.07
310.601	9587.69
310.666	9593.37
310.732	9607.58
310.797	9596.89
310.863	9589.81
310.928	9584.17
310.994	9580.9
311.059	9571.51
311.125	9574.54
311.191	9578.88
311.256	9570.16
311.322	9581.29
311.387	9564.38
311.453	9944.56
311.518	9915.28
311.584	9906.13
311.649	9909.7
311.715	9895.97
311.78	9900.07
311.846	9893.13
311.911	9891.88
311.976	9892.36
312.042	9872.9
312.107	9857.45
312.173	9845.36
312.238	9841.41
312.304	9836.4
312.369	9824.22
312.434	9812.32
312.5	9797.16
312.565	9761.28
312.631	9762.87
312.696	9753.91
312.761	9755.31
312.827	9362.17
312.892	9405.99
312.958	9406.86
313.023	9407.73
313.088	9401.85
313.154	9386.11
313.219	9373.11
313.284	9368.2
313.35	9362.8
313.415	9346.82
313.48	9346.72
313.546	9354.96
313.611	9367.72
313.676	9361.94
313.741	9352.02
313.807	9363
313.872	9368.83
313.937	9379.03
314.003	9393.82
314.068	9389.24
314.133	9398.34
314.198	9388.67
314.264	9368.1
314.329	9353.61
314.394	9350.38
314.459	9348.84
314.525	9372.91
314.59	9371.81
314.655	9355.96
314.72	9364.2
314.785	9376.52
314.851	9370.51
314.916	9349.27
314.981	9330.3
315.046	9322.5
315.111	9319.18
315.176	9307.67
315.242	9304.78
315.307	9306.85
315.372	9279.11
315.437	9267.75
315.502	9256.48
315.567	9269.53
315.632	9250.03
315.698	9256.24
315.763	9249.21
315.828	9241.75
315.893	9229.66
315.958	9226.34
316.023	9218.45
316.088	9196.01
316.153	9173.43
316.218	9162.84
316.283	9145.56
316.348	9129.91
316.413	9129
316.479	9109.69
316.544	9073.4
316.609	9048.6
316.674	9006.14
316.739	8970.43
316.804	8942.18
316.869	8906.99
316.934	8866.21
316.999	8837.38
317.064	8781.5
317.129	8735.34
317.194	8699.77
317.259	8653.7
317.324	8601.44
317.389	8562.27
317.454	8529.69
317.518	8493.21
317.583	8471.46
317.648	8450.86
317.713	8415.06
317.778	8350.05
317.843	8323.54
317.908	8282.65
317.973	8238.53
318.038	8212.36
318.103	8182.49
318.168	8148.23
318.233	8115.33
318.297	8064.39
318.362	8025.61
318.427	7984.88
318.492	7960.3
318.557	7907.26
318.622	7880.66
318.687	7859.31
318.751	7817.91
318.816	7779.24
318.881	7743.23
318.946	7681.91
319.011	7635.6
319.075	7594.3
319.14	7558.73
319.205	7515.84
319.27	7483.45
319.335	7441
319.399	7400.09
319.464	7368.99
319.529	7316.79
319.594	7279.35
319.658	7253.35
319.723	7211.29
319.788	7190.39
319.853	7132.33
319.917	7107.5
319.982	7049.16
320.047	7004.76
320.112	6978
320.176	6929.81
320.241	6899.4
320.306	6870.77
320.37	6827.78
320.435	6796.56
320.5	6772.16
320.564	6731.76
320.629	6693.3
320.694	6659.01
320.758	6614.11
320.823	6568.98
320.888	6542.09
320.952	6489.95
321.017	6442.52
321.082	6401.57
321.146	6362.92
321.211	6331.48
321.275	6290.59
321.34	6243.9
321.405	6201.96
321.469	6149.42
321.534	6109.35
321.598	6054.17
321.663	6023.17
321.727	5992.36
321.792	5943.57
321.857	5896.12
321.921	5854.53
321.986	5807.15
322.05	5749.56
322.115	5714.7
322.179	5673.6
322.244	5615.02
322.308	5585.49
322.373	5538.22
322.437	5498.39
322.502	5468.8
322.566	5423.78
322.631	5385.87
322.695	5354.01
322.76	5311.13
322.824	5279.69
322.889	5232.17
322.953	5187.96
323.018	5118.64
323.082	5054.03
323.146	4999.77
323.211	4944.46
323.275	4903.89
323.34	4856.65
323.404	4826.68
323.468	4779.66
323.533	4733.18
323.597	4689.93
323.662	4631.25
323.726	4597.56
323.79	4553.24
323.855	4485.32
323.919	4431.4
323.983	4386.47
324.048	4314.61
324.112	4490.68
324.177	4357.96
324.241	4136.17
324.305	3916.06
324.37	3703.55
324.434	3495.35
324.498	3452.04
324.562	3401.42
324.627	3335.02
324.691	3283.49
324.755	3210.34
324.82	3128.7
324.884	3048.1
324.948	2974.1
325.012	2880.82
325.077	2749.68
