Data from 20250703_urea_0.1M_MAYP1162681_14-21-04-822.txt Node
Date: Thu Jul 03 14:21:04 BST 2025
User: adleo
Spectrometer: MAYP116268
Trigger mode: 0
Integration Time (sec): 1.000000E0
Scans to average: 1
Electric dark correction enabled: true
Nonlinearity correction enabled: true
Boxcar width: 10
XAxis mode: Wavelengths
Number of Pixels in Spectrum: 2068
>>>>>Begin Spectral Data<<<<<
179.565	1254.8
179.642	1313.94
179.718	1357.85
179.795	1398.33
179.871	1432.42
179.948	1450.95
180.024	1473.77
180.101	1499.15
180.177	1514.24
180.254	1537.2
180.33	1561.21
180.407	1619.76
180.483	1720.67
180.56	1815.32
180.636	1902.44
180.712	1887.5
180.789	1898.49
180.865	1915.12
180.942	1920.59
181.018	1930.57
181.095	1948.5
181.171	1953.5
181.248	1953.92
181.324	1970.33
181.4	1980.03
181.477	1991.59
181.553	2008.66
181.63	2027.78
181.706	2044.38
181.782	2055.07
181.859	2053.31
181.935	2058.31
182.011	2056.88
182.088	2072.15
182.164	2091.75
182.24	2105.35
182.317	2116.81
182.393	2115
182.469	2127.13
182.546	2144.16
182.622	2147.54
182.698	2140.64
182.775	2150.68
182.851	2165.52
182.927	2157.95
183.003	2151.68
183.08	2147.06
183.156	2155.63
183.232	2152.29
183.308	2138.17
183.385	2147.25
183.461	2168.56
183.537	2170.09
183.613	2180.84
183.69	2171.47
183.766	2162.33
183.842	2169.94
183.918	2175.75
183.995	2190.54
184.071	2194.01
184.147	2184.88
184.223	2176.42
184.299	2188.84
184.375	2180.75
184.452	2186.13
184.528	2237.81
184.604	2248.94
184.68	2259.88
184.756	2264.35
184.832	2270.49
184.908	2276.77
184.985	2272.73
185.061	2255.55
185.137	2264.64
185.213	2253.41
185.289	2256.69
185.365	2248.94
185.441	2247.75
185.517	2262.17
185.593	2257.37
185.669	2254.51
185.745	2268.07
185.822	2281.58
185.898	2272.58
185.974	2280.62
186.05	2275.48
186.126	2239.36
186.202	2232.56
186.278	2229.42
186.354	2222.19
186.43	2227.66
186.506	2225.33
186.582	2224.47
186.658	2232.37
186.734	2214.1
186.81	2216.29
186.886	2217.86
186.962	2230.13
187.038	2224.42
187.114	2213
187.19	2218.99
187.266	2207.96
187.341	2209.72
187.417	2205.58
187.493	2204.49
187.569	2207.48
187.645	2198.06
187.721	2187.5
187.797	2194.73
187.873	2198.68
187.949	2190.97
188.025	2186.17
188.101	2191.35
188.176	2197.39
188.252	2192.16
188.328	2196.34
188.404	2197.72
188.48	2197.15
188.556	2189.59
188.632	2194.44
188.707	2198.91
188.783	2197.11
188.859	2194.01
188.935	2180.07
189.011	2189.54
189.086	2185.74
189.162	2177.17
189.238	2175.7
189.314	2175.08
189.39	2168.8
189.465	2160.95
189.541	2178.89
189.617	2161.9
189.693	2156.05
189.768	2161.53
189.844	2186.99
189.92	2181.76
189.996	2189.8
190.071	2197.08
190.147	2196.94
190.223	2206.55
190.298	2195.8
190.374	2181.67
190.45	2194.42
190.526	2204.08
190.601	2193.94
190.677	2196.08
190.753	2221.21
190.828	2226.4
190.904	2238.96
190.98	2256.33
191.055	2267.56
191.131	2257.14
191.207	2279.69
191.282	2289.35
191.358	2279.26
191.433	2263.69
191.509	2276.25
191.585	2274.63
191.66	2276.39
191.736	2284.29
191.811	2275.15
191.887	2296.29
191.963	2321.23
192.038	2324.37
192.114	2324.27
192.189	2330.17
192.265	2326.65
192.34	2306.94
192.416	2305.28
192.491	2301.37
192.567	2303.85
192.642	2305.32
192.718	2307.37
192.793	2293.47
192.869	2290.67
192.944	2290.24
193.02	2297.66
193.095	2303.23
193.171	2307.47
193.246	2305.8
193.322	2301.71
193.397	2300.33
193.473	2279.96
193.548	2260.82
193.624	2267.87
193.699	2269.06
193.775	2285.91
193.85	2285.86
193.925	2295.95
194.001	2297.24
194.076	2288.77
194.152	2276.58
194.227	2268.97
194.302	2259.36
194.378	2266.35
194.453	2263.26
194.529	2276.01
194.604	2260.83
194.679	2252.03
194.755	2234.9
194.83	2248.9
194.905	2247.37
194.981	2257.08
195.056	2254.8
195.131	2263.32
195.207	2258.94
195.282	2252.27
195.357	2232.9
195.433	2251.74
195.508	2240.18
195.583	2245.51
195.659	2259.12
195.734	2266.73
195.809	2265.59
195.884	2273.77
195.96	2272.63
196.035	2287.43
196.11	2284.62
196.185	2296.05
196.261	2299.19
196.336	2328.03
196.411	2311.6
196.486	2318.64
196.561	2312.03
196.637	2317.5
196.712	2332.4
196.787	2338.21
196.862	2351.77
196.937	2362.39
197.013	2366.39
197.088	2377.19
197.163	2399.67
197.238	2421.25
197.313	2419.87
197.388	2435.86
197.464	2469.01
197.539	2481.77
197.614	2474.82
197.689	2489.2
197.764	2506.48
197.839	2528.62
197.914	2521.15
197.989	2546.82
198.065	2557.34
198.14	2606.71
198.215	2636.42
198.29	2647.72
198.365	2659.62
198.44	2671.82
198.515	2699.59
198.59	2716.17
198.665	2743.9
198.74	2752.81
198.815	2755.77
198.89	2781.11
198.965	2815.34
199.04	2810.53
199.115	2826.15
199.19	2870.66
199.265	2870.66
199.34	2881.81
199.415	2917.15
199.49	2941.63
199.565	2948.31
199.64	2975.81
199.715	2975.09
199.79	2979.67
199.865	2988.63
199.94	2989.3
200.015	3021.77
200.09	3026.68
200.165	3034.17
200.24	3042.94
200.315	3087.66
200.39	3097.2
200.464	3103.88
200.539	3102.92
200.614	3119.28
200.689	3143.93
200.764	3151.57
200.839	3174.02
200.914	3178.64
200.989	3167.05
201.063	3181.4
201.138	3167.25
201.213	3167.49
201.288	3148.46
201.363	3156.57
201.438	3156.42
201.512	3174.68
201.587	3155.7
201.662	3163.18
201.737	3171.96
201.812	3179.64
201.886	3143.17
201.961	3155.72
202.036	3143.33
202.111	3141.94
202.186	3114.01
202.26	3095.46
202.335	3072.47
202.41	3066.98
202.485	3052.59
202.559	3036.57
202.634	3012.49
202.709	3023.4
202.784	3010.24
202.858	3016.63
202.933	3002.28
203.008	2999.75
203.082	2986.26
203.157	2988.5
203.232	2949.94
203.306	2940.16
203.381	2914.6
203.456	2903.06
203.53	2890.89
203.605	2884.75
203.68	2874.59
203.754	2881.88
203.829	2885.45
203.904	2883.69
203.978	2890.08
204.053	2917.31
204.127	2925.89
204.202	2950.3
204.277	2959.17
204.351	2980.44
204.426	3003.82
204.5	3031.91
204.575	3033.2
204.65	3079.1
204.724	3113.75
204.799	3165.1
204.873	3205.34
204.948	3251.38
205.022	3289.65
205.097	3336.59
205.171	3407.13
205.246	3474.62
205.32	3536.52
205.395	3602.77
205.469	3662.87
205.544	3739.7
205.618	3792.79
205.693	3881.1
205.767	3949.82
205.842	4058.5
205.916	4136.18
205.991	4218.31
206.065	4314.36
206.14	4427.44
206.214	4525.29
206.289	4623.81
206.363	4745.16
206.438	4858.72
206.512	4983.58
206.586	5120.33
206.661	5249.7
206.735	5352.04
206.81	5481.47
206.884	5628.77
206.958	5748.74
207.033	5903.29
207.107	6056.44
207.181	6233.38
207.256	6376.85
207.33	6548.37
207.405	6721.73
207.479	6902.41
207.553	7065.2
207.628	7203.92
207.702	7374.88
207.776	7527.11
207.851	7693.2
207.925	7876.86
207.999	8047.79
208.073	8215.8
208.148	8392.18
208.222	8557.81
208.296	8769.12
208.371	8960.52
208.445	9150.9
208.519	9363.24
208.593	9555.59
208.668	9729.34
208.742	9914.98
208.816	10100.73
208.89	10296.03
208.965	10463.46
209.039	10651.17
209.113	10845.23
209.187	11064.73
209.261	11251.1
209.336	11461.1
209.41	11672.37
209.484	11857.64
209.558	12064.79
209.632	12265.14
209.707	12460.98
209.781	12666.16
209.855	12866.73
209.929	13068.42
210.003	13256.22
210.077	13432.4
210.151	13666.62
210.226	13880.5
210.3	14092.45
210.374	14301.27
210.448	14486.76
210.522	14678.95
210.596	14865.88
210.67	15063.08
210.744	15284.32
210.818	15496.65
210.892	15698.27
210.966	15862.01
211.041	16048.59
211.115	16214.64
211.189	16408.25
211.263	16599.59
211.337	16772.76
211.411	16945.84
211.485	17106.95
211.559	17285.95
211.633	17447.6
211.707	17578
211.781	17749.47
211.855	17865.42
211.929	18008.94
212.003	18141.52
212.077	18311.3
212.151	18476.93
212.225	18631.24
212.299	18763.33
212.373	18892.72
212.447	19021.29
212.52	19201.24
212.594	19346.34
212.668	19495.78
212.742	19622.28
212.816	19753.41
212.89	19881.65
212.964	20014.95
213.038	20146.71
213.112	20291.38
213.186	20436.68
213.26	20541.74
213.333	20617.41
213.407	20753.07
213.481	20870.95
213.555	21001.13
213.629	21110.39
213.703	21212.48
213.777	21320.73
213.85	21419.54
213.924	21565.49
213.998	21690.29
214.072	21787.23
214.146	21882.05
214.219	21995.86
214.293	22085.9
214.367	22185.16
214.441	22293.87
214.515	22391.92
214.588	22463.9
214.662	22516.11
214.736	22589.39
214.81	22682.48
214.883	22784.49
214.957	22865.19
215.031	22944.45
215.105	23013.78
215.178	23076.41
215.252	23155.3
215.326	23221.4
215.4	23279.65
215.473	23306.56
215.547	23347.84
215.621	23411.11
215.694	23486.87
215.768	23526.95
215.842	23589.25
215.915	23645.54
215.989	23690.73
216.063	23734.38
216.136	23795.77
216.21	23868.4
216.284	23949.24
216.357	24020.43
216.431	24079.46
216.504	24143.18
216.578	24226.82
216.652	24293.05
216.725	24351.27
216.799	24404.38
216.873	24459.38
216.946	24516.63
217.02	24563.09
217.093	24619.33
217.167	24651.71
217.24	24684.32
217.314	24723.4
217.387	24764.59
217.461	24806.67
217.535	24867.85
217.608	24898.96
217.682	24945.76
217.755	25003.43
217.829	25025.77
217.902	25064.03
217.976	25101.38
218.049	25134.05
218.123	25148.67
218.196	25194.13
218.27	25224.05
218.343	25253.19
218.417	25292.09
218.49	25317.18
218.563	25373.5
218.637	25411.96
218.71	25461.09
218.784	25509.89
218.857	25559.84
218.931	25595.69
219.004	25625.13
219.077	25659.26
219.151	25702.74
219.224	25736.05
219.298	25749.9
219.371	25796.38
219.444	25812.41
219.518	25840.11
219.591	25866.61
219.665	25929.32
219.738	25957.75
219.811	25964.17
219.885	25998.59
219.958	26022.1
220.031	26051.45
220.105	26071.19
220.178	26096.44
220.251	26100.25
220.325	26122.7
220.398	26145.59
220.471	26175.66
220.544	26201.01
220.618	26196.86
220.691	26207.14
220.764	26230.41
220.838	26256.04
220.911	26272.85
220.984	26300.12
221.057	26316.83
221.131	26323.1
221.204	26305.14
221.277	26327.45
221.35	26381.52
221.424	26380.32
221.497	26399.19
221.57	26411.75
221.643	26424.4
221.716	26429.32
221.79	26438.3
221.863	26444.05
221.936	26437.63
222.009	26429.85
222.082	26435.36
222.155	26445.11
222.229	26463.6
222.302	26457.81
222.375	26450.95
222.448	26443.61
222.521	26443.37
222.594	26442.31
222.667	26437.29
222.74	26440.62
222.814	26437.58
222.887	26425.31
222.96	26434.1
223.033	26436.8
223.106	26434.87
223.179	26436.75
223.252	26437.19
223.325	26436.27
223.398	26429.08
223.471	26427.63
223.544	26430.14
223.617	26416.81
223.69	26411.36
223.763	26393.25
223.837	26383.26
223.91	26382.87
223.983	26364.28
224.056	26344.06
224.129	26334.54
224.202	26344.34
224.275	26325.42
224.348	26292.88
224.42	26257.88
224.493	26223.02
224.566	26199.17
224.639	26194.49
224.712	26172.03
224.785	26147.03
224.858	26129.94
224.931	26097.11
225.004	26069.35
225.077	26061.19
225.15	26026.73
225.223	25991.54
225.296	26002.69
225.369	25966.01
225.442	25934.92
225.514	25915.37
225.587	25896.21
225.66	25874.73
225.733	25847.6
225.806	25837.22
225.879	25811.3
225.952	25784.9
226.025	25779.2
226.097	25760.23
226.17	25715.78
226.243	25667.51
226.316	25643.72
226.389	25615.48
226.461	25599.36
226.534	25576.92
226.607	25546.18
226.68	25546.08
226.753	25532.86
226.825	25466.83
226.898	25466.97
226.971	25439.85
227.044	25409.35
227.117	25391.88
227.189	25378.22
227.262	25352.88
227.335	25315.1
227.407	25278.04
227.48	25255.22
227.553	25229.69
227.626	25190.16
227.698	25163.63
227.771	25141.72
227.844	25106.69
227.916	25079.18
227.989	25034.84
228.062	25004.69
228.134	24992.09
228.207	24955.08
228.28	24919.38
228.352	24898.87
228.425	24867.12
228.498	24851.39
228.57	24823.46
228.643	24803.34
228.716	24754.75
228.788	24721.26
228.861	24695.69
228.934	24681.32
229.006	24656.91
229.079	24621.69
229.151	24600.7
229.224	24562.16
229.296	24540.64
229.369	24544.46
229.442	24528.39
229.514	24490.14
229.587	24474.94
229.659	24420.72
229.732	24394.86
229.804	24378.94
229.877	24379.04
229.949	24347.49
230.022	24336.59
230.094	24301.43
230.167	24274.46
230.239	24246.92
230.312	24216.24
230.384	24203.84
230.457	24183.39
230.529	24163.42
230.602	24139.74
230.674	24107.57
230.747	24099.08
230.819	24081.76
230.892	24009.07
230.964	23969.91
231.037	23949.7
231.109	23914.74
231.181	23895.45
231.254	23850.21
231.326	23816.79
231.399	23776.03
231.471	23738.84
231.544	23673.68
231.616	23655.26
231.688	23621.98
231.761	23576.46
231.833	23536.77
231.905	23483.15
231.978	23444.52
232.05	23400.59
232.122	23363.79
232.195	23314.17
232.267	23291.27
232.339	23248.88
232.412	23235.72
232.484	23200.23
232.556	23160.74
232.629	23152.4
232.701	23116.76
232.773	23084.65
232.846	23044.58
232.918	23003.93
232.99	22976.45
233.062	22950.22
233.135	22913.82
233.207	22860.44
233.279	22836.38
233.351	22810.4
233.424	22774.29
233.496	22733.55
233.568	22722.02
233.64	22687.79
233.713	22657.76
233.785	22612.39
233.857	22582.35
233.929	22524.26
234.001	22510.33
234.074	22488.44
234.146	22425.43
234.218	22400.45
234.29	22361.94
234.362	22320.1
234.434	22271.02
234.507	22222.86
234.579	22168.63
234.651	22134.45
234.723	22099.65
234.795	22072.99
234.867	22029.22
234.939	22009.46
235.012	21972.82
235.084	21929.87
235.156	21888.22
235.228	21844.69
235.3	21798.52
235.372	21757.25
235.444	21734.21
235.516	21672.71
235.588	21641.91
235.66	21612.07
235.732	21549.31
235.804	21569.51
235.876	21544.06
235.948	21521.21
236.02	21474.46
236.092	21437.25
236.164	21391.17
236.236	21351.94
236.308	21305.29
236.38	21276.66
236.452	21220.17
236.524	21190.96
236.596	21168.6
236.668	21134.57
236.74	21108.01
236.812	21078.95
236.884	21049.5
236.956	21010.32
237.028	20961.26
237.1	20907.09
237.172	20875.18
237.244	20865.15
237.316	20788.08
237.388	20734.69
237.46	20689.86
237.532	20665.48
237.604	20622.64
237.675	20600.95
237.747	20571.31
237.819	20519.45
237.891	20471.41
237.963	20425.43
238.035	20370.25
238.107	20285.33
238.178	20258.3
238.25	20204.27
238.322	20184.56
238.394	20121.87
238.466	20078.93
238.538	20039.89
238.609	20006.79
238.681	19948.38
238.753	19890.88
238.825	19844.09
238.897	19803.18
238.968	19773.92
239.04	19730.07
239.112	19725.69
239.184	19677.88
239.255	19639.81
239.327	19602.46
239.399	19561.36
239.471	19523.96
239.542	19495.63
239.614	19479.87
239.686	19414.62
239.758	19398.76
239.829	19345.22
239.901	19317.61
239.973	19279.01
240.044	19252.55
240.116	19223.54
240.188	19182.25
240.259	19137.86
240.331	19095.12
240.403	19070.54
240.474	19006.55
240.546	18959.46
240.618	18888.19
240.689	18840.44
240.761	18797.55
240.833	18782.32
240.904	18748.3
240.976	18717.45
241.048	18679.82
241.119	18643.82
241.191	18613.08
241.262	18582.38
241.334	18534.96
241.405	18500.36
241.477	18456.65
241.549	18414.63
241.62	18366.34
241.692	18336.46
241.763	18314.73
241.835	18277.43
241.906	18245.38
241.978	18208.61
242.049	18190.88
242.121	18165.24
242.192	18144.57
242.264	18091.27
242.335	18031.13
242.407	17998.89
242.478	17952.09
242.55	17917.59
242.621	17870.31
242.693	17824.39
242.764	17777.21
242.836	17743.91
242.907	17710.8
242.979	17679.28
243.05	17644.15
243.122	17617.98
243.193	17569.5
243.264	17505.64
243.336	17468.34
243.407	17426.42
243.479	17404.34
243.55	17366.85
243.622	17329.6
243.693	17284.83
243.764	17269.98
243.836	17218.08
243.907	17173.83
243.978	17136.34
244.05	17103.33
244.121	17058.75
244.192	17029.83
244.264	16974.41
244.335	16936.33
244.407	16883.99
244.478	16856.43
244.549	16819.41
244.62	16760.13
244.692	16729.24
244.763	16715.36
244.834	16674.87
244.906	16628.9
244.977	16596.12
245.048	16578.63
245.119	16544.26
245.191	16499.44
245.262	16437.32
245.333	16430.47
245.405	16394.76
245.476	16368.49
245.547	16334.8
245.618	16309.3
245.689	16281.69
245.761	16259.47
245.832	16220.28
245.903	16202.11
245.974	16161.82
246.045	16127.02
246.117	16122.83
246.188	16084.75
246.259	16031.63
246.33	16002.52
246.401	15971.24
246.473	15920.97
246.544	15874.31
246.615	15846.79
246.686	15810.69
246.757	15799.85
246.828	15750.54
246.899	15734.82
246.97	15680.79
247.042	15637.02
247.113	15605.21
247.184	15587.96
247.255	15546.36
247.326	15524.04
247.397	15480.08
247.468	15459.16
247.539	15428.8
247.61	15376.93
247.681	15355.96
247.752	15338.47
247.823	15289.3
247.894	15256.67
247.965	15217.24
248.037	15178.24
248.108	15130.62
248.179	15101.6
248.25	15063.37
248.321	15045.25
248.392	14995.94
248.463	14997.72
248.534	14965.18
248.605	14946.24
248.675	14910.57
248.746	14893.94
248.817	14867.72
248.888	14848.05
248.959	14793.24
249.03	14763.89
249.101	14736.22
249.172	14692.79
249.243	14641.25
249.314	14629.83
249.385	14606.07
249.456	14585.34
249.527	14552.22
249.598	14532.07
249.669	14497.89
249.739	14470.27
249.81	14449.64
249.881	14416.91
249.952	14387.6
250.023	14359.16
250.094	14313.17
250.165	14278.08
250.235	14235.61
250.306	14201.19
250.377	14158.58
250.448	14139.05
250.519	14092
250.59	14081.21
250.66	14051.27
250.731	14049.2
250.802	14020.71
250.873	13994.53
250.944	13974.38
251.014	13947.58
251.085	13947.48
251.156	13929.11
251.227	13919.47
251.297	13901.54
251.368	13887.42
251.439	13869.48
251.51	13858.44
251.58	13820.7
251.651	13791.58
251.722	13788.79
251.792	13745.26
251.863	13728.24
251.934	13719.95
252.005	13733.01
252.075	13704.09
252.146	13693.87
252.217	13670.15
252.287	13657.86
252.358	13634.43
252.429	13625.56
252.499	13591.04
252.57	13565.4
252.641	13555.56
252.711	13530.3
252.782	13488.36
252.852	13479.88
252.923	13452.06
252.994	13437.07
253.064	13430.61
253.135	13399.57
253.205	13365.92
253.276	13376.33
253.347	13365.19
253.417	13339.98
253.488	13301.56
253.558	13275.39
253.629	13249.88
253.699	13236.44
253.77	13224.38
253.841	13207.27
253.911	13185.96
253.982	13175.36
254.052	13159.88
254.123	13139.73
254.193	13112.54
254.264	13135.92
254.334	13105.6
254.405	13069.74
254.475	13032.91
254.546	13010.59
254.616	13006.49
254.687	12986.68
254.757	12960.74
254.827	12931.24
254.898	12903.62
254.968	12881.54
255.039	12852.91
255.109	12839.51
255.18	12811.89
255.25	12758.67
255.321	12744.4
255.391	12710.03
255.461	12709.16
255.532	12661.77
255.602	12631.6
255.673	12587.68
255.743	12549.26
255.813	12504.72
255.884	12498.12
255.954	12483.61
256.024	12481.05
256.095	12453.34
256.165	12421.76
256.235	12403.93
256.306	12370.91
256.376	12365.22
256.446	12363.05
256.517	12340.35
256.587	12332.68
256.657	12312.24
256.728	12298.8
256.798	12278.65
256.868	12253.73
256.938	12221.96
257.009	12209.33
257.079	12205.33
257.149	12220.22
257.219	12181.56
257.29	12174.19
257.36	12134.86
257.43	12127.48
257.5	12089.07
257.571	12065.83
257.641	12056.05
257.711	12026.35
257.781	12022.21
257.852	12003.75
257.922	11956.8
257.992	11936.17
258.062	11910.62
258.132	11899.49
258.202	11879.82
258.273	11857.8
258.343	11863.34
258.413	11834.42
258.483	11809.98
258.553	11768
258.623	11732.81
258.693	11720.09
258.764	11717.92
258.834	11719.85
258.904	11698.4
258.974	11670.59
259.044	11654.11
259.114	11637.04
259.184	11616.99
259.254	11594.82
259.324	11559.01
259.394	11556.12
259.464	11562.48
259.535	11540.89
259.605	11517.9
259.675	11495.06
259.745	11481.37
259.815	11444.54
259.885	11424.4
259.955	11440.93
260.025	11417.03
260.095	11403.58
260.165	11387.19
260.235	11381.99
260.305	11357.99
260.375	11323.38
260.445	11330.42
260.515	11323.38
260.585	11325.7
260.655	11311
260.725	11303.82
260.795	11299.33
260.865	11292.88
260.934	11265.07
261.004	11264.68
261.074	11252.44
261.144	11250.71
261.214	11239.91
261.284	11227.24
261.354	11220.59
261.424	11192.34
261.494	11198.41
261.564	11184.2
261.634	11171.81
261.703	11132.34
261.773	11119.19
261.843	11115.04
261.913	11095.52
261.983	11062.37
262.053	11046.9
262.123	11025.74
262.192	10992.3
262.262	10980.64
262.332	10955.77
262.402	10948.55
262.472	10928.45
262.541	10880.17
262.611	10873.9
262.681	10851.21
262.751	10838.05
262.821	10818.83
262.89	10789.09
262.96	10778.97
263.03	10784.03
263.1	10771.31
263.169	10758.83
263.239	10752.95
263.309	10754.64
263.379	10742.4
263.448	10732.23
263.518	10718.84
263.588	10713.83
263.657	10728.38
263.727	10728.09
263.797	10713.39
263.867	10691.27
263.936	10663.42
264.006	10675.32
264.076	10659.37
264.145	10641.07
264.215	10625.74
264.285	10620.3
264.354	10589.13
264.424	10563.69
264.494	10529.43
264.563	10509.87
264.633	10515.7
264.702	10499.7
264.772	10468.72
264.842	10453.83
264.911	10447.81
264.981	10417.69
265.05	10400.68
265.12	10376.79
265.19	10360.31
265.259	10354.67
265.329	10349.08
265.398	10334.34
265.468	10341.76
265.537	10324.27
265.607	10317.77
265.676	10310.01
265.746	10298.21
265.815	10297.29
265.885	10280.38
265.955	10253.84
266.024	10239.48
266.094	10202.2
266.163	10203.69
266.232	10203.54
266.302	10184.28
266.371	10168.91
266.441	10157.88
266.51	10153.15
266.58	10132.15
266.649	10106.04
266.719	10099.34
266.788	10091.88
266.858	10094
266.927	10055.17
266.996	10040.96
267.066	10035.03
267.135	10006.61
267.205	10007.09
267.274	9999.82
267.343	10006.32
267.413	10000.74
267.482	10010.08
267.552	10012.68
267.621	9982.91
267.69	9947.07
267.76	9941.87
267.829	9937.39
267.898	9928.43
267.968	9903.92
268.037	9904.73
268.106	9904.11
268.176	9883.97
268.245	9872.03
268.314	9859.98
268.384	9859.84
268.453	9856.95
268.522	9845.44
268.592	9852.42
268.661	9830.89
268.73	9825.4
268.799	9801.41
268.869	9803.43
268.938	9762.98
269.007	9744.58
269.076	9730.51
269.146	9735.09
269.215	9725.79
269.284	9728.49
269.353	9712.69
269.422	9699.31
269.492	9674.5
269.561	9634.58
269.63	9628.56
269.699	9611.22
269.768	9598.22
269.838	9592.73
269.907	9585.79
269.976	9557.96
270.045	9520.68
270.114	9517.7
270.183	9496.12
270.253	9491.4
270.322	9463.14
270.391	9456.68
270.46	9461.07
270.529	9458.13
270.598	9453.84
270.667	9438.53
270.736	9417.24
270.806	9407.51
270.875	9411.08
270.944	9408.33
271.013	9428.8
271.082	9417.43
271.151	9413.29
271.22	9388.45
271.289	9377.61
271.358	9362.83
271.427	9362.2
271.496	9357.19
271.565	9342.46
271.634	9338.99
271.703	9364.23
271.772	9370.1
271.841	9364.33
271.91	9342.9
271.979	9336.88
272.048	9314.15
272.117	9320.6
272.186	9303.08
272.255	9304.04
272.324	9294.22
272.393	9290.6
272.462	9275.19
272.531	9266.19
272.6	9252.76
272.669	9254.68
272.738	9238.46
272.807	9232.34
272.876	9208.99
272.945	9240.63
273.013	9235.91
273.082	9235.95
273.151	9186.79
273.22	9181.25
273.289	9167.63
273.358	9176.73
273.427	9167
273.496	9165.22
273.564	9155.45
273.633	9161.66
273.702	9140.18
273.771	9140.81
273.84	9132.87
273.909	9130.94
273.977	9127.09
274.046	9113.46
274.115	9120.93
274.184	9103.5
274.253	9093.05
274.322	9101.57
274.39	9063.97
274.459	9049.67
274.528	9022.76
274.597	9020.36
274.665	9017.42
274.734	9027.34
274.803	9010.29
274.872	8998.88
274.94	8978.57
275.009	9032.51
275.078	9010.85
275.147	9012.01
275.215	9005.12
275.284	9010.32
275.353	8994.29
275.421	8970.56
275.49	8995.45
275.559	8984.42
275.627	8978.02
275.696	8973.16
275.765	8975.18
275.833	8968.35
275.902	8968.97
275.971	8983.22
276.039	9002.82
276.108	9001.76
276.177	9000.89
276.245	8991.12
276.314	8990.54
276.383	8999.83
276.451	8937.08
276.52	8943.81
276.588	8957.44
276.657	8964.66
276.725	8950.17
276.794	8955.03
276.863	8965.33
276.931	8933.75
277	8940.39
277.068	8951.37
277.137	8964.41
277.205	8960.42
277.274	8982.18
277.342	8987.66
277.411	8966.15
277.48	8944.48
277.548	8932.26
277.617	8932.26
277.685	8930.38
277.754	8935.96
277.822	8931.44
277.89	8949.98
277.959	8944.59
278.027	8922.92
278.096	8907.23
278.164	8936.07
278.233	8925.24
278.301	8911.23
278.37	8911.95
278.438	8889.04
278.507	8891.83
278.575	8875.42
278.643	8869.78
278.712	8851.3
278.78	8839.41
278.849	8848.07
278.917	8860.73
278.985	8860.06
279.054	8859.58
279.122	8867.95
279.191	8865.35
279.259	8865.11
279.327	8834.3
279.396	8846.24
279.464	8840.17
279.532	8846.43
279.601	8837.57
279.669	8835.65
279.737	8852.49
279.806	8857.31
279.874	8868.91
279.942	8866.07
280.011	8854.23
280.079	8863.66
280.147	8879.21
280.215	8880.37
280.284	8882.19
280.352	8864.53
280.42	8869.58
280.488	8859.67
280.557	8853.31
280.625	8855.19
280.693	8855.33
280.761	8855.91
280.83	8840.84
280.898	8855.14
280.966	8839.06
281.034	8805.61
281.102	8790.88
281.171	8789.72
281.239	8799.16
281.307	8793
281.375	8777.89
281.443	8805.32
281.512	8799.64
281.58	8804.8
281.648	8789.78
281.716	8785.59
281.784	8788.48
281.852	8782.85
281.92	8780.3
281.989	8794.98
282.057	8773.56
282.125	8817.9
282.193	8816.8
282.261	8812.03
282.329	8809.05
282.397	8807.03
282.465	8816.27
282.533	8835.23
282.601	8822.18
282.67	8801.73
282.738	8797.78
282.806	8815.2
282.874	8801.15
282.942	8801.68
283.01	8792.48
283.078	8799.75
283.146	8799.7
283.214	8811.3
283.282	8818.62
283.35	8830.41
283.418	8817.65
283.486	8819.82
283.554	8769.84
283.622	8771.38
283.69	8773.45
283.758	8761.13
283.826	8765.37
283.894	8775.77
283.962	8793.48
284.03	8805.85
284.098	8808.64
284.165	8805.71
284.233	8800.32
284.301	8791.41
284.369	8785.15
284.437	8777.45
284.505	8774.81
284.573	8783.71
284.641	8765.95
284.709	8769.85
284.777	8753.58
284.845	8755.5
284.912	8763.4
284.98	8771.14
285.048	8771.19
285.116	8780.63
285.184	8800.36
285.252	8803.63
285.319	8784.38
285.387	8770.42
285.455	8755.16
285.523	8761.47
285.591	8752.85
285.659	8756.37
285.726	8772.11
285.794	8758.63
285.862	8751.08
285.93	8746.99
285.997	8744.63
286.065	8738.8
286.133	8729.75
286.201	8725.09
286.269	8717.62
286.336	8708.72
286.404	8702.37
286.472	8703.86
286.539	8673.83
286.607	8661.51
286.675	8665.79
286.743	8674.89
286.81	8670.41
286.878	8686.82
286.946	8682.54
287.013	8689.76
287.081	8685.91
287.149	8668.77
287.216	8689.27
287.284	8692.35
287.352	8696.64
287.419	8694.62
287.487	8710.11
287.555	8708.57
287.622	8708.14
287.69	8709.44
287.758	8722.15
287.825	8718.01
287.893	8706.46
287.96	8719.45
288.028	8724.89
288.096	8723.73
288.163	8727.78
288.231	8714.2
288.298	8705.39
288.366	8719.21
288.433	8709.87
288.501	8704.24
288.569	8707.32
288.636	8699.67
288.704	8708
288.771	8711.41
288.839	8701.16
288.906	8696.93
288.974	8711.18
289.041	8708.63
289.109	8702.8
289.176	8715.56
289.244	8721
289.311	8742.47
289.379	8754.4
289.446	8753.97
289.514	8751.61
289.581	8749.88
289.649	8760.66
289.716	8763.88
289.783	8750.31
289.851	8773.22
289.918	8775
289.986	8785.63
290.053	8790.25
290.121	8791.94
290.188	8798.1
290.255	8829.05
290.323	8823.13
290.39	8808.74
290.458	8813.89
290.525	8825.25
290.592	8815.71
290.66	8813.16
290.727	8801.66
290.794	8809.55
290.862	8814.7
290.929	8815.33
290.996	8816.73
291.064	8819.71
291.131	8834.39
291.198	8846.57
291.266	8848.01
291.333	8848.3
291.4	8850.47
291.468	8868.43
291.535	8864.38
291.602	8865.63
291.669	8855.86
291.737	8858.75
291.804	8866.6
291.871	8886.14
291.938	8896.1
292.006	8924.99
292.073	8944.68
292.14	8955.03
292.207	8947.9
292.275	8943.33
292.342	8958.11
292.409	8979.44
292.476	9004.42
292.543	8995.76
292.611	9000.09
292.678	9014.87
292.745	9038.46
292.812	9052.42
292.879	9046.69
292.946	9053.14
293.014	9067.15
293.081	9079.09
293.148	9096.85
293.215	9112.98
293.282	9105.95
293.349	9117.27
293.416	9096.9
293.484	9108.12
293.551	9120.25
293.618	9138.01
293.685	9162.33
293.752	9150.58
293.819	9151.64
293.886	9141.1
293.953	9144.9
294.02	9153.42
294.087	9158.38
294.154	9153.13
294.221	9168.3
294.288	9169.65
294.356	9189.49
294.423	9198.2
294.49	9190.83
294.557	9203.5
294.624	9195.17
294.691	9224.92
294.758	9223.38
294.825	9233.73
294.892	9226.17
294.959	9224.73
295.026	9234.26
295.093	9234.94
295.16	9242.93
295.226	9240.14
295.293	9267.01
295.36	9280.1
295.427	9293.49
295.494	9307.26
295.561	9314.39
295.628	9334.42
295.695	9346.7
295.762	9349.45
295.829	9360.43
295.896	9383.39
295.963	9389.27
296.03	9399.91
296.096	9398.22
296.163	9414.31
296.23	9427.79
296.297	9442.86
296.364	9443.83
296.431	9451.39
296.498	9445.66
296.564	9468.77
296.631	9478.21
296.698	9464.91
296.765	9487.11
296.832	9476.28
296.899	9464
296.965	9484.75
297.032	9461.97
297.099	9486.68
297.166	9492.6
297.233	9488.22
297.299	9478.83
297.366	9482.3
297.433	9485.52
297.5	9495.01
297.566	9490.77
297.633	9493.61
297.7	9495.88
297.767	9496.79
297.833	9498.09
297.9	9497.47
297.967	9480.95
298.033	9498.77
298.1	9530.46
298.167	9513.99
298.234	9511.92
298.3	9519.43
298.367	9513.32
298.434	9526.66
298.5	9510.96
298.567	9503.11
298.634	9502.53
298.7	9511.15
298.767	9512.88
298.834	9525.11
298.9	9516.4
298.967	9511.97
299.033	9515.72
299.1	9533.54
299.167	9548.76
299.233	9542.64
299.3	9562.2
299.366	9580.35
299.433	9585.7
299.5	9553.43
299.566	9562.96
299.633	9584.39
299.699	9593.88
299.766	9593.2
299.832	9591.62
299.899	9599.95
299.965	9615.65
300.032	9607.99
300.099	9619.84
300.165	9625.91
300.232	9628.56
300.298	9633.8
300.365	9646.57
300.431	9646.42
300.498	9637.9
300.564	9642.23
300.631	9653.16
300.697	9666.75
300.763	9666.36
300.83	9662.8
300.896	9681.15
300.963	9683.84
301.029	9687.12
301.096	9689.43
301.162	9702.24
301.229	9696.12
301.295	9689.77
301.361	9691.07
301.428	9700.75
301.494	9683.17
301.561	9688.37
301.627	9687.84
301.693	9689.24
301.76	9686.92
301.826	9680.52
301.892	9696.75
301.959	9708.36
302.025	9715.63
302.092	9708.6
302.158	9716.02
302.224	9718.62
302.291	9706.72
302.357	9703.54
302.423	9698.53
302.49	9693.52
302.556	9708.65
302.622	9711.3
302.688	9722.23
302.755	9737.55
302.821	9746.46
302.887	9761.87
302.954	9756.04
303.02	9765.43
303.086	9774.49
303.152	9777.57
303.219	9779.59
303.285	9775.64
303.351	9782.97
303.417	9782.92
303.483	9773.38
303.55	9770.78
303.616	9771.55
303.682	9775.26
303.748	9775.74
303.815	9793.76
303.881	9808.11
303.947	9788.36
304.013	9794.43
304.079	9786.29
304.145	9762.83
304.212	9755.9
304.278	9744.72
304.344	9743.38
304.41	9725.89
304.476	9711.15
304.542	9701.28
304.608	9707.78
304.674	9696.51
304.741	9687.12
304.807	9684.13
304.873	9694.05
304.939	9708.89
305.005	9686.49
305.071	9683.51
305.137	9679.08
305.203	9648.35
305.269	9639.05
305.335	9658.32
305.401	9655.14
305.467	9653.12
305.533	9664.87
305.599	9676.19
305.666	9685.58
305.732	9689
305.798	9702.39
305.864	9724.45
305.93	9734.51
305.996	9732.68
306.062	9726.42
306.128	9717.41
306.194	9707.49
306.259	9701.04
306.325	9684.23
306.391	9699.59
306.457	9709.13
306.523	9713.27
306.589	9747.85
306.655	9744.77
306.721	9722.37
306.787	9707.68
306.853	9723.92
306.919	9707.73
306.985	9698.54
307.051	9688.85
307.117	9680.52
307.183	9678.4
307.248	9652.06
307.314	9652.06
307.38	9648.35
307.446	9656.59
307.512	9651.58
307.578	9651.34
307.644	9645.51
307.709	9647.48
307.775	9644.35
307.841	9640.93
307.907	9643.68
307.973	9614.78
308.039	9608.08
308.104	9612.76
308.17	9613.81
308.236	9597.25
308.302	9603.89
308.368	9591.9
308.433	9590.7
308.499	9582.9
308.565	9565.41
308.631	9571.1
308.696	9546.92
308.762	9542.54
308.828	9547.26
308.894	9524.34
308.959	9510.42
309.025	9505.7
309.091	9495.4
309.156	9483.84
309.222	9480.95
309.288	9465.73
309.354	9445.32
309.419	9446.42
309.485	9432.36
309.551	9435.25
309.616	9417.24
309.682	9410.4
309.748	9402.41
309.813	9400.19
309.879	9392.2
309.945	9376.02
310.01	9372.17
310.076	9378.72
310.141	9369.09
310.207	9346.6
310.273	9353.1
310.338	9356.18
310.404	9337.01
310.469	9333.64
310.535	9321.85
310.601	9297.14
310.666	9303.84
310.732	9311.64
310.797	9297.96
310.863	9282.36
310.928	9279.23
310.994	9288.96
311.059	9286.07
311.125	9286.17
311.191	9297.53
311.256	9286.94
311.322	9301.38
311.387	9275.53
311.453	9636.75
311.518	9612.63
311.584	9608.97
311.649	9610.9
311.715	9596.5
311.78	9598.91
311.846	9587.93
311.911	9595.45
311.976	9600.74
312.042	9580.9
312.107	9570.5
312.173	9563.28
312.238	9563.14
312.304	9556.54
312.369	9541.66
312.434	9524.28
312.5	9518.02
312.565	9478.83
312.631	9483.98
312.696	9472.76
312.761	9478.25
312.827	9104.12
312.892	9141.29
312.958	9134.16
313.023	9133.59
313.088	9136.47
313.154	9129.2
313.219	9120.39
313.284	9113.85
313.35	9103.98
313.415	9100.22
313.48	9093.1
313.546	9094.25
313.611	9101.47
313.676	9088.67
313.741	9079.91
313.807	9085.06
313.872	9083.28
313.937	9095.94
314.003	9105.76
314.068	9106.1
314.133	9114.28
314.198	9110.81
314.264	9090.64
314.329	9084.76
314.394	9079.47
314.459	9079.56
314.525	9095.07
314.59	9092.47
314.655	9077.49
314.72	9089.87
314.785	9089.29
314.851	9083.13
314.916	9068.35
314.981	9051.84
315.046	9044.28
315.111	9033.88
315.176	9029.26
315.242	9038.7
315.307	9032.77
315.372	9007.69
315.437	8990.84
315.502	8978.37
315.567	8984.97
315.632	8967.49
315.698	8969.61
315.763	8966.92
315.828	8953
315.893	8952.04
315.958	8947.37
316.023	8936.69
316.088	8913.68
316.153	8887.88
316.218	8880.66
316.283	8863.28
316.348	8846.87
316.413	8846.97
316.479	8832
316.544	8794.56
316.609	8758.55
316.674	8722.99
316.739	8695.99
316.804	8670.2
316.869	8639.01
316.934	8601.57
316.999	8566.44
317.064	8514.18
317.129	8464.71
317.194	8425.49
317.259	8366.44
317.324	8315.11
317.389	8274.74
317.454	8236.68
317.518	8210.42
317.583	8187.13
317.648	8164.66
317.713	8130.65
317.778	8066.81
317.843	8037.13
317.908	7999.13
317.973	7958.58
318.038	7932.32
318.103	7897.55
318.168	7863.6
318.233	7827.24
318.297	7778.86
318.362	7745.82
318.427	7707.27
318.492	7682.74
318.557	7637.07
318.622	7610.48
318.687	7589.47
318.751	7549.81
318.816	7515.73
318.881	7478.13
318.946	7421.4
319.011	7369.63
319.075	7330.22
319.14	7297.01
319.205	7250.53
319.27	7218.72
319.335	7178.45
319.399	7135.49
319.464	7103.34
319.529	7054.28
319.594	7014.5
319.658	6986.44
319.723	6945.46
319.788	6918.36
319.853	6864.12
319.917	6838.24
319.982	6783.67
320.047	6743.41
320.112	6713.45
320.176	6661.15
320.241	6628.15
320.306	6598.76
320.37	6557.95
320.435	6523.47
320.5	6492.7
320.564	6456.31
320.629	6414.4
320.694	6383.87
320.758	6345.95
320.823	6301.83
320.888	6275.2
320.952	6229.46
321.017	6182.67
321.082	6147.01
321.146	6108.43
321.211	6076.28
321.275	6032.48
321.34	5993.34
321.405	5948.82
321.469	5899.89
321.534	5860.52
321.598	5808.24
321.663	5778.88
321.727	5748.19
321.792	5696.59
321.857	5654.06
321.921	5613.88
321.986	5573.42
322.05	5510.68
322.115	5473.67
322.179	5430.58
322.244	5371.68
322.308	5341.49
322.373	5297.74
322.437	5254.46
322.502	5232.7
322.566	5187.66
322.631	5152.26
322.695	5109.92
322.76	5072.17
322.824	5042.38
322.889	5000.87
322.953	4955.1
323.018	4883.65
323.082	4821.23
323.146	4773.8
323.211	4721.34
323.275	4676.73
323.34	4627.97
323.404	4594.48
323.468	4544.94
323.533	4498.68
323.597	4454.35
323.662	4395.98
323.726	4361.3
323.79	4310.12
323.855	4240.45
323.919	4189.48
323.983	4142.8
324.048	4079.87
324.112	4235.8
324.177	4103.87
324.241	3891.6
324.305	3686.22
324.37	3484.91
324.434	3289
324.498	3245.47
324.562	3194.98
324.627	3135.71
324.691	3082.27
324.755	3018.58
324.82	2941.85
324.884	2864.41
324.948	2793.96
325.012	2704.67
325.077	2576.24
