Data from 20250703_urea_0.1M_MAYP1162681_21-11-04-848.txt Node
Date: Thu Jul 03 21:11:04 BST 2025
User: adleo
Spectrometer: MAYP116268
Trigger mode: 0
Integration Time (sec): 1.000000E0
Scans to average: 1
Electric dark correction enabled: true
Nonlinearity correction enabled: true
Boxcar width: 10
XAxis mode: Wavelengths
Number of Pixels in Spectrum: 2068
>>>>>Begin Spectral Data<<<<<
179.565	1383.22
179.642	1447
179.718	1498.29
179.795	1543.39
179.871	1581.41
179.948	1604.5
180.024	1628.34
180.101	1654.75
180.177	1672.65
180.254	1698.8
180.33	1722.46
180.407	1791
180.483	1902.04
180.56	2006.39
180.636	2102.87
180.712	2090.93
180.789	2099.78
180.865	2113.99
180.942	2123.79
181.018	2135.11
181.095	2154.58
181.171	2163.38
181.248	2163.38
181.324	2180.04
181.4	2187.51
181.477	2198.59
181.553	2214.19
181.63	2237.04
181.706	2254.64
181.782	2263.4
181.859	2263.54
181.935	2271.44
182.011	2267.58
182.088	2286.53
182.164	2307.33
182.24	2321.89
182.317	2329.7
182.393	2329.31
182.469	2347.88
182.546	2363.73
182.622	2366.06
182.698	2357.77
182.775	2367.1
182.851	2385.67
182.927	2376.19
183.003	2371.86
183.08	2367.63
183.156	2376.43
183.232	2374.96
183.308	2361.87
183.385	2372.2
183.461	2390.67
183.537	2394.05
183.613	2411.66
183.69	2400.43
183.766	2390.66
183.842	2401.9
183.918	2406.37
183.995	2423.32
184.071	2425.08
184.147	2415.09
184.223	2403.24
184.299	2420.76
184.375	2409.67
184.452	2416.72
184.528	2472.25
184.604	2486.14
184.68	2495.85
184.756	2503.09
184.832	2507.23
184.908	2515.13
184.985	2512.18
185.061	2495.38
185.137	2504.9
185.213	2488.91
185.289	2489.67
185.365	2480.81
185.441	2478.62
185.517	2495.96
185.593	2489.91
185.669	2489.34
185.745	2503.2
185.822	2523.04
185.898	2512.23
185.974	2524.94
186.05	2515.46
186.126	2478.17
186.202	2469.03
186.278	2466.65
186.354	2457.56
186.43	2463.94
186.506	2461.94
186.582	2464.8
186.658	2472.32
186.734	2447.95
186.81	2450.47
186.886	2455.8
186.962	2471.22
187.038	2464.8
187.114	2452.6
187.19	2459.98
187.266	2446.89
187.341	2449.65
187.417	2441.89
187.493	2439.8
187.569	2440.85
187.645	2437.28
187.721	2424.7
187.797	2433.27
187.873	2440.8
187.949	2433.18
188.025	2423.47
188.101	2423.8
188.176	2426.8
188.252	2423.66
188.328	2436.08
188.404	2437.74
188.48	2432.89
188.556	2425.31
188.632	2428.84
188.707	2431.08
188.783	2429.55
188.859	2423.27
188.935	2410.32
189.011	2418.32
189.086	2413.46
189.162	2403.8
189.238	2398.37
189.314	2394.8
189.39	2388.42
189.465	2378.52
189.541	2398.85
189.617	2385.05
189.693	2382.76
189.768	2385.57
189.844	2409.15
189.92	2397.3
189.996	2407.87
190.071	2416.34
190.147	2414.06
190.223	2419.58
190.298	2412.34
190.374	2394.21
190.45	2409.67
190.526	2419.05
190.601	2410.1
190.677	2412.25
190.753	2441.68
190.828	2445.44
190.904	2464.97
190.98	2481.49
191.055	2493.44
191.131	2478.68
191.207	2503.06
191.282	2512.48
191.358	2504.72
191.433	2490.48
191.509	2506.18
191.585	2501.23
191.66	2506.47
191.736	2513.42
191.811	2507.66
191.887	2520.76
191.963	2548.18
192.038	2555.56
192.114	2554.28
192.189	2563.75
192.265	2560.56
192.34	2537.36
192.416	2537.74
192.491	2532.6
192.567	2532.98
192.642	2537.31
192.718	2543.6
192.793	2527.6
192.869	2523.07
192.944	2525.12
193.02	2533.79
193.095	2538.12
193.171	2545.12
193.246	2543.03
193.322	2542.22
193.397	2542.31
193.473	2530.69
193.548	2511.74
193.624	2515.98
193.699	2515.88
193.775	2531.55
193.85	2531.65
193.925	2541.98
194.001	2538.08
194.076	2530.27
194.152	2521.36
194.227	2511.08
194.302	2499.03
194.378	2506.7
194.453	2504.84
194.529	2517.65
194.604	2502.41
194.679	2494.79
194.755	2473.04
194.83	2488.38
194.905	2485.67
194.981	2494.14
195.056	2485.77
195.131	2492.05
195.207	2491.72
195.282	2482.43
195.357	2460.81
195.433	2480.76
195.508	2469.85
195.583	2478.9
195.659	2494.24
195.734	2504.05
195.809	2504.05
195.884	2514.04
195.96	2511.62
196.035	2526.28
196.11	2522.42
196.185	2537.28
196.261	2544.23
196.336	2578.38
196.411	2560.27
196.486	2564.99
196.561	2556.84
196.637	2566.55
196.712	2585.18
196.787	2586.37
196.862	2603.04
196.937	2615.85
197.013	2617.95
197.088	2626.8
197.163	2651.87
197.238	2672.61
197.313	2669.7
197.388	2684.18
197.464	2717.16
197.539	2732.59
197.614	2725.69
197.689	2740.55
197.764	2758.81
197.839	2779.78
197.914	2772.34
197.989	2796.12
198.065	2810.6
198.14	2870.5
198.215	2899.95
198.29	2914.83
198.365	2931.47
198.44	2943.33
198.515	2973.61
198.59	2992.87
198.665	3024.86
198.74	3035.54
198.815	3034.06
198.89	3062.24
198.965	3095.05
199.04	3092.28
199.115	3106.39
199.19	3155.55
199.265	3160.18
199.34	3167.48
199.415	3204.65
199.49	3230.02
199.565	3243.99
199.64	3271.32
199.715	3264.16
199.79	3272.37
199.865	3276.33
199.94	3276.42
200.015	3313.64
200.09	3320.75
200.165	3331.25
200.24	3337.26
200.315	3384.17
200.39	3401.82
200.464	3409.55
200.539	3415.86
200.614	3435.42
200.689	3463.39
200.764	3471.22
200.839	3490.58
200.914	3498.27
200.989	3487.71
201.063	3506.81
201.138	3487.44
201.213	3489.97
201.288	3472.6
201.363	3476.9
201.438	3481.48
201.512	3498.7
201.587	3477.93
201.662	3482.9
201.737	3494.4
201.812	3504.19
201.886	3466.64
201.961	3475.19
202.036	3459.4
202.111	3456.67
202.186	3424.71
202.26	3406.81
202.335	3382.23
202.41	3375.41
202.485	3356.57
202.559	3335.86
202.634	3306.79
202.709	3316.9
202.784	3297.91
202.858	3300.68
202.933	3285.79
203.008	3278.64
203.082	3260.94
203.157	3266.19
203.232	3225.31
203.306	3207.89
203.381	3179.02
203.456	3161.32
203.53	3147.19
203.605	3135.46
203.68	3115.66
203.754	3117.9
203.829	3114.42
203.904	3104.21
203.978	3103.97
204.053	3121
204.127	3121.33
204.202	3136.07
204.277	3138.22
204.351	3151.77
204.426	3163.41
204.5	3177.15
204.575	3166.09
204.65	3201.6
204.724	3221.51
204.799	3261.33
204.873	3289.12
204.948	3324.48
205.022	3348.92
205.097	3377.38
205.171	3430.93
205.246	3485.71
205.32	3530.57
205.395	3579.1
205.469	3621.62
205.544	3683.41
205.618	3725.78
205.693	3801.03
205.767	3848.38
205.842	3931.74
205.916	3991.48
205.991	4048.51
206.065	4127.97
206.14	4216.47
206.214	4291.74
206.289	4363.13
206.363	4461.55
206.438	4546.89
206.512	4635.39
206.586	4745.38
206.661	4846.69
206.735	4921.6
206.81	5021.65
206.884	5141.35
206.958	5231.08
207.033	5354.91
207.107	5465.19
207.181	5604.67
207.256	5702.4
207.33	5836.91
207.405	5967.45
207.479	6105.43
207.553	6227.42
207.628	6329.14
207.702	6466.98
207.776	6583.46
207.851	6710.95
207.925	6850.42
207.999	6974.6
208.073	7105.03
208.148	7240.22
208.222	7358.46
208.296	7525.35
208.371	7673.42
208.445	7816.15
208.519	7980.22
208.593	8127.53
208.668	8270.62
208.742	8416.87
208.816	8557.53
208.89	8713.76
208.965	8855.97
209.039	8998.94
209.113	9167.17
209.187	9331.59
209.261	9467.74
209.336	9635.03
209.41	9806.04
209.484	9945.82
209.558	10120.14
209.632	10278.32
209.707	10426.45
209.781	10594.97
209.855	10754.69
209.929	10918.39
210.003	11065.21
210.077	11207.27
210.151	11408.62
210.226	11586.99
210.3	11757.03
210.374	11930.77
210.448	12073.1
210.522	12216.2
210.596	12376.04
210.67	12523.1
210.744	12714.7
210.818	12887.31
210.892	13035.58
210.966	13161.3
211.041	13321.43
211.115	13451.64
211.189	13611.39
211.263	13765.55
211.337	13907.03
211.411	14054.63
211.485	14176.4
211.559	14326.17
211.633	14456.71
211.707	14545.7
211.781	14676.76
211.855	14767.38
211.929	14878.11
212.003	14984.84
212.077	15123.75
212.151	15258.38
212.225	15394.26
212.299	15506.62
212.373	15612.56
212.447	15738.99
212.52	15881.9
212.594	15993.82
212.668	16113.6
212.742	16218.77
212.816	16332.27
212.89	16432.81
212.964	16546.46
213.038	16656.44
213.112	16777.17
213.186	16902.91
213.26	16981.43
213.333	17034.01
213.407	17137.82
213.481	17249.97
213.555	17365.4
213.629	17455.61
213.703	17538.55
213.777	17629.06
213.85	17704.77
213.924	17846.93
213.998	17939.99
214.072	18032.85
214.146	18111.31
214.219	18210.05
214.293	18289.52
214.367	18374.72
214.441	18483.49
214.515	18557.31
214.588	18618.95
214.662	18669.5
214.736	18730.17
214.81	18827.13
214.883	18925.34
214.957	18986.55
215.031	19052.57
215.105	19103.98
215.178	19168.85
215.252	19239.06
215.326	19284.5
215.4	19334.19
215.473	19344.69
215.547	19390.57
215.621	19440.4
215.694	19519.09
215.768	19550.03
215.842	19602.42
215.915	19651.43
215.989	19687.52
216.063	19741.16
216.136	19807.71
216.21	19865.92
216.284	19940.57
216.357	20003.37
216.431	20058.21
216.504	20131.31
216.578	20212.18
216.652	20283.07
216.725	20331.31
216.799	20401.38
216.873	20465.67
216.946	20526.64
217.02	20580.56
217.093	20626.93
217.167	20662.83
217.24	20695.51
217.314	20749.87
217.387	20797.34
217.461	20841.05
217.535	20901.73
217.608	20935.85
217.682	20990.51
217.755	21062.18
217.829	21098.32
217.902	21148.3
217.976	21188.79
218.049	21227.73
218.123	21251.16
218.196	21302.58
218.27	21347.46
218.343	21367.17
218.417	21414.69
218.49	21460.97
218.563	21524.64
218.637	21574.24
218.71	21649.62
218.784	21693.54
218.857	21747.38
218.931	21795.77
219.004	21835.63
219.077	21879.64
219.151	21932.66
219.224	21968.77
219.298	21998.9
219.371	22057.81
219.444	22079.55
219.518	22122.93
219.591	22167.66
219.665	22250.15
219.738	22290.93
219.811	22317.93
219.885	22370.62
219.958	22416.08
220.031	22447.99
220.105	22487.19
220.178	22531.11
220.251	22548.9
220.325	22598.08
220.398	22630.71
220.471	22665.95
220.544	22714.36
220.618	22735.62
220.691	22762.09
220.764	22791.02
220.838	22823.03
220.911	22849.79
220.984	22911.79
221.057	22956.44
221.131	22993.81
221.204	22981.32
221.277	23028.19
221.35	23100.76
221.424	23117.25
221.497	23139.91
221.57	23166.62
221.643	23204.47
221.716	23236.4
221.79	23253.03
221.863	23281.53
221.936	23307.71
222.009	23340.69
222.082	23355.88
222.155	23372.47
222.229	23408.78
222.302	23432.55
222.375	23450.78
222.448	23467.61
222.521	23480.97
222.594	23486.9
222.667	23492.21
222.74	23517.33
222.814	23523.12
222.887	23521.86
222.96	23547.66
223.033	23576.7
223.106	23599.31
223.179	23618.12
223.252	23634.23
223.325	23652.94
223.398	23652.41
223.471	23663.89
223.544	23678.55
223.617	23692.68
223.69	23708.59
223.763	23709.8
223.837	23721.76
223.91	23736.51
223.983	23729.47
224.056	23720.55
224.129	23732.22
224.202	23755.32
224.275	23752.33
224.348	23745.87
224.42	23733.48
224.493	23730.97
224.566	23723.97
224.639	23726.82
224.712	23712.64
224.785	23702.46
224.858	23705.84
224.931	23702.7
225.004	23702.9
225.077	23694.46
225.15	23675.26
225.223	23673.29
225.296	23690.46
225.369	23671.26
225.442	23664.46
225.514	23665.38
225.587	23673.05
225.66	23673.43
225.733	23662.68
225.806	23664.85
225.879	23666.01
225.952	23652.31
226.025	23644.59
226.097	23652.46
226.17	23643.73
226.243	23616.58
226.316	23610.55
226.389	23607.8
226.461	23616.96
226.534	23606.69
226.607	23600.52
226.68	23625.26
226.753	23626.8
226.825	23605.24
226.898	23613.1
226.971	23591.45
227.044	23587.59
227.117	23578.96
227.189	23583.25
227.262	23589.76
227.335	23589.04
227.407	23570.42
227.48	23567.29
227.553	23564.88
227.626	23537.44
227.698	23527.89
227.771	23512.41
227.844	23493.12
227.916	23475.81
227.989	23430.87
228.062	23420.26
228.134	23426.72
228.207	23406.71
228.28	23388.19
228.352	23367.07
228.425	23358.44
228.498	23364.08
228.57	23350.29
228.643	23345.27
228.716	23314.26
228.788	23287.65
228.861	23277.23
228.934	23281.33
229.006	23270.29
229.079	23252.97
229.151	23239.04
229.224	23214.88
229.296	23218.5
229.369	23229.78
229.442	23237.93
229.514	23227.66
229.587	23224.96
229.659	23187.98
229.732	23176.26
229.804	23168.93
229.877	23176.16
229.949	23179.59
230.022	23182.24
230.094	23158.85
230.167	23145.74
230.239	23119.7
230.312	23097.96
230.384	23099.55
230.457	23086
230.529	23071.63
230.602	23053.12
230.674	23047.62
230.747	23047.72
230.819	23047.14
230.892	22999.16
230.964	22971.92
231.037	22964.88
231.109	22941.35
231.181	22943.28
231.254	22917.87
231.326	22895.74
231.399	22880.07
231.471	22835.85
231.544	22791.25
231.616	22789.61
231.688	22757.5
231.761	22735.71
231.833	22718.98
231.905	22668.55
231.978	22640.01
232.05	22626.37
232.122	22610.46
232.195	22576.95
232.267	22555.3
232.339	22527.44
232.412	22535.58
232.484	22520.54
232.556	22491.13
232.629	22500.87
232.701	22481.73
232.773	22450.5
232.846	22415.02
232.918	22373.51
232.99	22362.95
233.062	22352.44
233.135	22325.3
233.207	22294.59
233.279	22283.74
233.351	22262.39
233.424	22245.61
233.496	22208.74
233.568	22203.82
233.64	22162.6
233.713	22143.32
233.785	22121.29
233.857	22099.98
233.929	22047.15
234.001	22030.66
234.074	22026.37
234.146	21960.81
234.218	21928.66
234.29	21907.26
234.362	21883.21
234.434	21850.48
234.507	21805.12
234.579	21753.59
234.651	21718.16
234.723	21700.33
234.795	21671.26
234.867	21636.32
234.939	21607.54
235.012	21584.41
235.084	21554.13
235.156	21535.05
235.228	21495.67
235.3	21457.54
235.372	21413.97
235.444	21394.06
235.516	21333.47
235.588	21294.53
235.66	21265.61
235.732	21220.98
235.804	21245.71
235.876	21226.28
235.948	21211.73
236.02	21183.1
236.092	21152.74
236.164	21116.25
236.236	21084.63
236.308	21048.34
236.38	21028.39
236.452	20988.39
236.524	20959.66
236.596	20935.71
236.668	20912.67
236.74	20878.02
236.812	20846.31
236.884	20825.87
236.956	20791.17
237.028	20754.4
237.1	20710.93
237.172	20701.24
237.244	20691.41
237.316	20618.44
237.388	20570.78
237.46	20530.97
237.532	20524.13
237.604	20482.83
237.675	20469.62
237.747	20446.73
237.819	20406.15
237.891	20370.92
237.963	20328.32
238.035	20284.42
238.107	20209.38
238.178	20185.67
238.25	20154.06
238.322	20148.47
238.394	20095.31
238.466	20066.73
238.538	20032.86
238.609	20005.68
238.681	19947.94
238.753	19892.86
238.825	19858.79
238.897	19828.04
238.968	19816.38
239.04	19748.96
239.112	19758.46
239.184	19703.81
239.255	19652.44
239.327	19622.75
239.399	19579.91
239.471	19556.39
239.542	19528.54
239.614	19504.2
239.686	19435.44
239.758	19408.45
239.829	19356.11
239.901	19333.32
239.973	19290.62
240.044	19261.52
240.116	19233.13
240.188	19193.43
240.259	19163.26
240.331	19120.13
240.403	19096.28
240.474	19028.95
240.546	19000.67
240.618	18933.3
240.689	18897.64
240.761	18869.83
240.833	18849.88
240.904	18818.41
240.976	18781.07
241.048	18746.9
241.119	18725.65
241.191	18706.8
241.262	18694.23
241.334	18656.54
241.405	18615.82
241.477	18568.45
241.549	18528.41
241.62	18486.67
241.692	18460.36
241.763	18433.71
241.835	18391.55
241.906	18350.49
241.978	18297.67
242.049	18268.27
242.121	18241.34
242.192	18227.17
242.264	18169.63
242.335	18110.11
242.407	18082.35
242.478	18041.58
242.55	18005.3
242.621	17956.09
242.693	17908.87
242.764	17856.82
242.836	17813.98
242.907	17781.5
242.979	17755.14
243.05	17728.15
243.122	17709.98
243.193	17674.56
243.264	17619.72
243.336	17593.84
243.407	17571.14
243.479	17564.3
243.55	17537.6
243.622	17511.29
243.693	17461.26
243.764	17453.5
243.836	17415.09
243.907	17375.67
243.978	17342.32
244.05	17324.1
244.121	17274.66
244.192	17255.43
244.264	17206.27
244.335	17171.47
244.407	17120.92
244.478	17091.57
244.549	17052.58
244.62	16993.78
244.692	16955.08
244.763	16923.95
244.834	16876.86
244.906	16831.8
244.977	16797.24
245.048	16772.33
245.119	16720.61
245.191	16678.73
245.262	16623.07
245.333	16608.7
245.405	16568.75
245.476	16542
245.547	16501.85
245.618	16477.95
245.689	16445.37
245.761	16422.18
245.832	16382.37
245.903	16363.86
245.974	16334.32
246.045	16295.38
246.117	16277.88
246.188	16231.46
246.259	16186.45
246.33	16154.73
246.401	16112.8
246.473	16065.66
246.544	16027.59
246.615	16007.15
246.686	15980.59
246.757	15962.95
246.828	15921.16
246.899	15907.76
246.97	15852
247.042	15805.77
247.113	15781.67
247.184	15765.33
247.255	15719.3
247.326	15702.63
247.397	15668.93
247.468	15642.18
247.539	15614.27
247.61	15571.18
247.681	15556.38
247.752	15546.84
247.823	15501.48
247.894	15479.94
247.965	15442.68
248.037	15403.25
248.108	15358.61
248.179	15324.63
248.25	15283.03
248.321	15256.67
248.392	15212.03
248.463	15213.43
248.534	15190.24
248.605	15172.75
248.675	15138.19
248.746	15121.65
248.817	15103
248.888	15080.44
248.959	15033.3
249.03	15012.96
249.101	14986.59
249.172	14950.53
249.243	14896.01
249.314	14887.87
249.385	14859.57
249.456	14837.4
249.527	14805.44
249.598	14782.25
249.669	14748.89
249.739	14732.99
249.81	14705.56
249.881	14665.07
249.952	14633.11
250.023	14607.08
250.094	14555.93
250.165	14517.99
250.235	14479
250.306	14443.86
250.377	14397
250.448	14372.46
250.519	14320.31
250.59	14316.11
250.66	14282.75
250.731	14277.31
250.802	14252.91
250.873	14233.92
250.944	14209.29
251.014	14179.93
251.085	14179.01
251.156	14158.86
251.227	14147.63
251.297	14140.64
251.368	14130.18
251.439	14114.61
251.51	14103.57
251.58	14070.07
251.651	14036.61
251.722	14024.71
251.792	13972.98
251.863	13951.63
251.934	13936.35
252.005	13950.9
252.075	13913.83
252.146	13906.65
252.217	13899.66
252.287	13887.27
252.358	13854.78
252.429	13854.39
252.499	13821.32
252.57	13801.85
252.641	13789.56
252.711	13759.62
252.782	13713.92
252.852	13705.2
252.923	13675.6
252.994	13647.44
253.064	13643.4
253.135	13609.94
253.205	13583.04
253.276	13581.84
253.347	13572.05
253.417	13546.36
253.488	13508.03
253.558	13475.97
253.629	13448.93
253.699	13428.78
253.77	13417.45
253.841	13390.99
253.911	13369.44
253.982	13351.17
254.052	13336.61
254.123	13317.66
254.193	13294.43
254.264	13313.04
254.334	13279.63
254.405	13250.46
254.475	13219.71
254.546	13193.15
254.616	13190.4
254.687	13176.9
254.757	13165.38
254.827	13143.01
254.898	13134.05
254.968	13115.53
255.039	13095.67
255.109	13082.56
255.18	13043.47
255.25	12990.1
255.321	12981.28
255.391	12942.91
255.461	12947.34
255.532	12888.68
255.602	12861.2
255.673	12817.48
255.743	12786.29
255.813	12739.34
255.884	12736.39
255.954	12723.91
256.024	12721.93
256.095	12706.94
256.165	12669.82
256.235	12651.65
256.306	12625.09
256.376	12611.74
256.446	12598.53
256.517	12583.25
256.587	12581.61
256.657	12562.13
256.728	12548.59
256.798	12524.2
256.868	12506.8
256.938	12474.06
257.009	12470.93
257.079	12460.81
257.149	12472.71
257.219	12432.7
257.29	12421.76
257.36	12376.64
257.43	12366.81
257.5	12322.08
257.571	12289.01
257.641	12287.23
257.711	12257.39
257.781	12245.48
257.852	12233
257.922	12192.51
257.992	12177.42
258.062	12144.02
258.132	12139.05
258.202	12113.75
258.273	12101.5
258.343	12098.22
258.413	12066.17
258.483	12043.52
258.553	12009.34
258.623	11975.26
258.693	11960.03
258.764	11960.99
258.834	11960.13
258.904	11939.16
258.974	11915.01
259.044	11898.67
259.114	11879.01
259.184	11855.97
259.254	11835.77
259.324	11788.29
259.394	11776.97
259.464	11768
259.535	11751.28
259.605	11721.01
259.675	11698.11
259.745	11684.66
259.815	11659.5
259.885	11641.57
259.955	11655.89
260.025	11631.12
260.095	11618.44
260.165	11603.98
260.235	11597.96
260.305	11564.8
260.375	11534.14
260.445	11546
260.515	11546.29
260.585	11538.48
260.655	11530
260.725	11520.65
260.795	11520.26
260.865	11527.2
260.934	11500.45
261.004	11490.67
261.074	11481.71
261.144	11488.69
261.214	11480.84
261.284	11453.85
261.354	11453.9
261.424	11421.55
261.494	11425.99
261.564	11401.36
261.634	11394.03
261.703	11358.37
261.773	11353.7
261.843	11340.3
261.913	11318.9
261.983	11285.36
262.053	11276.63
262.123	11256.68
262.192	11226.51
262.262	11214.8
262.332	11183.57
262.402	11180.39
262.472	11163.48
262.541	11119.48
262.611	11107.72
262.681	11071.29
262.751	11072.11
262.821	11045.7
262.89	11013.41
262.96	11008.25
263.03	11022.28
263.1	11010.61
263.169	10997.22
263.239	10984.83
263.309	10994.38
263.379	10987.29
263.448	10975.44
263.518	10960.45
263.588	10945.32
263.657	10955.53
263.727	10945.65
263.797	10932.16
263.867	10908.69
263.936	10883.83
264.006	10885.13
264.076	10870.19
264.145	10857.66
264.215	10825.38
264.285	10825.09
264.354	10793.96
264.424	10762.26
264.494	10727.66
264.563	10705.35
264.633	10718.07
264.702	10705.97
264.772	10668.39
264.842	10648.29
264.911	10641.84
264.981	10613.65
265.05	10597.7
265.12	10568.6
265.19	10559.68
265.259	10550.72
265.329	10549.03
265.398	10531.83
265.468	10542.87
265.537	10521.81
265.607	10519.88
265.676	10525.47
265.746	10516.75
265.815	10517.43
265.885	10508.03
265.955	10485.43
266.024	10471.17
266.094	10423.23
266.163	10426.17
266.232	10430.65
266.302	10410.13
266.371	10394.66
266.441	10381.03
266.51	10371.92
266.58	10361.04
266.649	10334.68
266.719	10334.68
266.788	10322.64
266.858	10330.78
266.927	10295.66
266.996	10287.23
267.066	10278.07
267.135	10244.97
267.205	10236.88
267.274	10231.2
267.343	10234.09
267.413	10217.18
267.482	10214.91
267.552	10226.72
267.621	10197.09
267.69	10163.85
267.76	10157.68
267.829	10155.18
267.898	10148.14
267.968	10135.57
268.037	10133.4
268.106	10136.05
268.176	10104.69
268.245	10087.06
268.314	10063.16
268.384	10068.08
268.453	10052.76
268.522	10042.16
268.592	10043.89
268.661	10021.88
268.73	10014.03
268.799	9990.71
268.869	10004.83
268.938	9975.3
269.007	9948.52
269.076	9942.21
269.146	9941.29
269.215	9932.04
269.284	9935.41
269.353	9909.84
269.422	9892.26
269.492	9874.82
269.561	9826.56
269.63	9827.48
269.699	9815.96
269.768	9814.81
269.838	9801.85
269.907	9804.11
269.976	9780.18
270.045	9748.2
270.114	9747.96
270.183	9728.16
270.253	9718.53
270.322	9681.69
270.391	9674.03
270.46	9681.98
270.529	9679.13
270.598	9678.22
270.667	9668.78
270.736	9643.06
270.806	9645.08
270.875	9648.21
270.944	9629.52
271.013	9653.6
271.082	9641.71
271.151	9637.03
271.22	9602.94
271.289	9593.07
271.358	9581.7
271.427	9573.8
271.496	9565.91
271.565	9546.79
271.634	9541.15
271.703	9569.52
271.772	9579.15
271.841	9569.14
271.91	9539.52
271.979	9529.16
272.048	9503.21
272.117	9503.5
272.186	9481.87
272.255	9482.07
272.324	9481.15
272.393	9485.05
272.462	9473.11
272.531	9464.68
272.6	9450.04
272.669	9457.89
272.738	9440.94
272.807	9430.54
272.876	9413.73
272.945	9450.04
273.013	9450.04
273.082	9452.26
273.151	9406.12
273.22	9404.72
273.289	9396.25
273.358	9411.46
273.427	9401.49
273.496	9406.5
273.564	9395.38
273.633	9398.7
273.702	9378.52
273.771	9363.74
273.84	9357.87
273.909	9358.69
273.977	9359.31
274.046	9352.04
274.115	9360.8
274.184	9348.19
274.253	9344.1
274.322	9355.22
274.39	9314.34
274.459	9302.49
274.528	9273.12
274.597	9267.83
274.665	9256.32
274.734	9263.83
274.803	9251.93
274.872	9238.31
274.94	9222.13
275.009	9288.36
275.078	9276.23
275.147	9274.07
275.215	9273.58
275.284	9281.14
275.353	9262.12
275.421	9235.59
275.49	9250.57
275.559	9233.81
275.627	9229.1
275.696	9215.47
275.765	9207.86
275.833	9204.93
275.902	9202.66
275.971	9216.91
276.039	9230.11
276.108	9235.98
276.177	9231.94
276.245	9217.11
276.314	9218.79
276.383	9222.55
276.451	9149.86
276.52	9154.19
276.588	9166.18
276.657	9165.27
276.725	9149.96
276.794	9153.62
276.863	9167.48
276.931	9143.21
277	9151.11
277.068	9161.07
277.137	9180.29
277.205	9176.24
277.274	9189.96
277.342	9200.41
277.411	9181.78
277.48	9162.76
277.548	9145.19
277.617	9147.74
277.685	9144.08
277.754	9141.05
277.822	9129.69
277.89	9143.85
277.959	9138.79
278.027	9116.64
278.096	9112.55
278.164	9142.36
278.233	9131.43
278.301	9118.57
278.37	9126.37
278.438	9111.98
278.507	9110.05
278.575	9078.81
278.643	9073.94
278.712	9051.61
278.78	9038.75
278.849	9044.58
278.917	9057.38
278.985	9059.98
279.054	9061.91
279.122	9076.06
279.191	9077.27
279.259	9075.72
279.327	9054.88
279.396	9073.22
279.464	9073.36
279.532	9072.93
279.601	9064.65
279.669	9062.91
279.737	9076.44
279.806	9078.51
279.874	9087.9
279.942	9087.13
280.011	9083.91
280.079	9093.68
280.147	9114.91
280.215	9114.96
280.284	9111.83
280.352	9096.52
280.42	9103.93
280.488	9092.81
280.557	9084.72
280.625	9083.23
280.693	9083.9
280.761	9085.97
280.83	9065.7
280.898	9076.01
280.966	9057.95
281.034	9019.1
281.102	9005.77
281.171	8993.15
281.239	8999.56
281.307	8988.1
281.375	8979.77
281.443	9004.56
281.512	9004.13
281.58	9012.08
281.648	8999.61
281.716	9004.47
281.784	9005.29
281.852	8995.95
281.92	9000.71
281.989	9010.78
282.057	8997.59
282.125	9045.79
282.193	9039.48
282.261	9036.3
282.329	9028.41
282.397	9033.9
282.465	9040.83
282.533	9055.65
282.601	9050.41
282.67	9025.42
282.738	9021.47
282.806	9031.92
282.874	9018.34
282.942	9022.58
283.01	9014.68
283.078	9023.78
283.146	9014.54
283.214	9025.8
283.282	9025.85
283.35	9034.57
283.418	9023.78
283.486	9028.74
283.554	8976.45
283.622	8970.38
283.69	8970.91
283.758	8967.25
283.826	8972.79
283.894	8984.92
283.962	9005
284.03	9016.79
284.098	9020.07
284.165	9014.43
284.233	9007.45
284.301	9005.72
284.369	8989.59
284.437	8980.49
284.505	8966.15
284.573	8986.03
284.641	8970.09
284.709	8980.45
284.777	8955.27
284.845	8964.9
284.912	8975.1
284.98	8985.45
285.048	8983.53
285.116	8988.39
285.184	9002.01
285.252	8998.64
285.319	8978.57
285.387	8964.27
285.455	8947.61
285.523	8956.13
285.591	8954.02
285.659	8950.65
285.726	8956.38
285.794	8944.63
285.862	8940.3
285.93	8941.79
285.997	8936.74
286.065	8935
286.133	8926.19
286.201	8926.58
286.269	8911.32
286.336	8898.41
286.404	8888.4
286.472	8898.66
286.539	8873.87
286.607	8857.11
286.675	8856.92
286.743	8871.65
286.81	8871.75
286.878	8887.92
286.946	8874.44
287.013	8870.4
287.081	8871.89
287.149	8856.97
287.216	8876.8
287.284	8872.56
287.352	8873.96
287.419	8869.87
287.487	8885.32
287.555	8889.03
287.622	8890.52
287.69	8893.79
287.758	8908.81
287.825	8908.04
287.893	8898.46
287.96	8913.1
288.028	8921.28
288.096	8925.27
288.163	8925.85
288.231	8905.01
288.298	8902.7
288.366	8923.11
288.433	8922.68
288.501	8922.05
288.569	8927.39
288.636	8924.46
288.704	8935.48
288.771	8948.14
288.839	8937.5
288.906	8928.21
288.974	8936.44
289.041	8929.03
289.109	8923.02
289.176	8928.26
289.244	8935.44
289.311	8953.2
289.379	8955.41
289.446	8965.62
289.514	8968.56
289.581	8965.57
289.649	8976.31
289.716	8976.64
289.783	8967.11
289.851	8990.99
289.918	8991.66
289.986	9000.9
290.053	8998.16
290.121	8999.99
290.188	9002.49
290.255	9034.27
290.323	9027.67
290.39	9019.15
290.458	9028.97
290.525	9042.4
290.592	9031.71
290.66	9035.8
290.727	9027.04
290.794	9047.31
290.862	9037.34
290.929	9040.91
290.996	9041.48
291.064	9053.33
291.131	9065.36
291.198	9075.23
291.266	9073.5
291.333	9070.61
291.4	9075.81
291.468	9100.13
291.535	9095.31
291.602	9098.44
291.669	9088.19
291.737	9096.27
291.804	9102.44
291.871	9117.84
291.938	9119.62
292.006	9155.16
292.073	9166.28
292.14	9175.86
292.207	9163.73
292.275	9171.62
292.342	9176.87
292.409	9207.4
292.476	9230.95
292.543	9226.08
292.611	9226.47
292.678	9241.11
292.745	9269.8
292.812	9285.6
292.879	9277.36
292.946	9284.58
293.014	9294.79
293.081	9301.1
293.148	9312.8
293.215	9325.17
293.282	9324.21
293.349	9340.24
293.416	9313.42
293.484	9323.44
293.551	9334.61
293.618	9355.31
293.685	9384.49
293.752	9379.3
293.819	9373.37
293.886	9354.3
293.953	9363.31
294.02	9373.23
294.087	9381.27
294.154	9377.9
294.221	9391.19
294.288	9396.97
294.356	9417.67
294.423	9425.86
294.49	9418.69
294.557	9434.67
294.624	9426.78
294.691	9446.76
294.758	9451.33
294.825	9465.59
294.892	9462.12
294.959	9459.09
295.026	9461.49
295.093	9441.17
295.16	9441.46
295.226	9438.52
295.293	9471.56
295.36	9469.25
295.427	9480.23
295.494	9488.56
295.561	9498.67
295.628	9520.64
295.695	9530.27
295.762	9526.61
295.829	9537.06
295.896	9561.91
295.963	9573.52
296.03	9583
296.096	9585.12
296.163	9597.16
296.23	9612.24
296.297	9620.04
296.364	9622.16
296.431	9630.25
296.498	9634.63
296.564	9666.51
296.631	9674.94
296.698	9655.38
296.765	9678.55
296.832	9669.88
296.899	9658.27
296.965	9673.69
297.032	9652.39
297.099	9676.33
297.166	9690.2
297.233	9685.48
297.299	9670.89
297.366	9669.83
297.433	9673.92
297.5	9680.33
297.566	9674.31
297.633	9668.39
297.7	9675.66
297.767	9673.97
297.833	9681.68
297.9	9686.3
297.967	9661.84
298.033	9676.82
298.1	9710.2
298.167	9702.59
298.234	9710.77
298.3	9721.75
298.367	9713.9
298.434	9713.04
298.5	9704.32
298.567	9695.41
298.634	9692.37
298.7	9711.88
298.767	9713.18
298.834	9730.33
298.9	9732.54
298.967	9727.29
299.033	9742.37
299.1	9757.4
299.167	9772.04
299.233	9767.85
299.3	9780.22
299.366	9803.82
299.433	9821.5
299.5	9794.33
299.566	9798.76
299.633	9815.09
299.699	9829.54
299.766	9834.02
299.832	9845.73
299.899	9852.18
299.965	9869.67
300.032	9868.46
300.099	9885.32
300.165	9893.17
300.232	9883.25
300.298	9880.6
300.365	9893.17
300.431	9895.77
300.498	9889.37
300.564	9895.87
300.631	9908.78
300.697	9928
300.763	9929.3
300.83	9919.86
300.896	9935.37
300.963	9948.61
301.029	9950.54
301.096	9950.06
301.162	9956.85
301.229	9949.77
301.295	9941.68
301.361	9944.66
301.428	9954.53
301.494	9931.9
301.561	9929.82
301.627	9937.34
301.693	9942.97
301.76	9949.04
301.826	9938.3
301.892	9952.7
301.959	9970.34
302.025	9962.1
302.092	9948.61
302.158	9952.66
302.224	9956.9
302.291	9944.18
302.357	9932.91
302.423	9928.14
302.49	9921.01
302.556	9938.69
302.622	9943.07
302.688	9951.55
302.755	9964.37
302.821	9965.76
302.887	9979.59
302.954	9976.5
303.02	9983.39
303.086	9992.59
303.152	9986.72
303.219	9986.28
303.285	9991.82
303.351	9995.87
303.417	9998.81
303.483	9991.34
303.55	9986.43
303.616	9986.96
303.682	9991.58
303.748	9990.47
303.815	10010.8
303.881	10018.42
303.947	10000.06
304.013	10000.21
304.079	9992.55
304.145	9969.52
304.212	9967.21
304.278	9955.84
304.344	9959.84
304.41	9948.04
304.476	9934.45
304.542	9935.95
304.608	9943.85
304.674	9921.01
304.741	9910.51
304.807	9919.52
304.873	9929.2
304.939	9948.23
305.005	9928.09
305.071	9916.73
305.137	9919.71
305.203	9882.19
305.269	9881.13
305.335	9898.18
305.401	9897.6
305.467	9889.13
305.533	9899.77
305.599	9912.25
305.666	9919.95
305.732	9920.24
305.798	9935.95
305.864	9967.69
305.93	9975.3
305.996	9973.14
306.062	9972.9
306.128	9967.45
306.194	9950.26
306.259	9946.06
306.325	9932.87
306.391	9947.46
306.457	9960.9
306.523	9966.05
306.589	10001.75
306.655	9999.58
306.721	9977.71
306.787	9964.99
306.853	9984.16
306.919	9962.97
306.985	9959.79
307.051	9955.02
307.117	9947.89
307.183	9944.09
307.248	9898.18
307.314	9897.89
307.38	9896.83
307.446	9907.91
307.512	9898.52
307.578	9903.24
307.644	9897.7
307.709	9903.34
307.775	9900.74
307.841	9904.01
307.907	9903.53
307.973	9878.62
308.039	9874
308.104	9874.05
308.17	9868.85
308.236	9853.34
308.302	9862.34
308.368	9848.13
308.433	9843.7
308.499	9836.38
308.565	9822.51
308.631	9838.64
308.696	9813.65
308.762	9810.8
308.828	9802.13
308.894	9784.94
308.959	9760.38
309.025	9752.86
309.091	9743.47
309.156	9727.58
309.222	9725.51
309.288	9713.13
309.354	9695.84
309.419	9695.89
309.485	9689.38
309.551	9699.21
309.616	9691.12
309.682	9685.87
309.748	9683.41
309.813	9685.39
309.879	9675.61
309.945	9662.37
310.01	9652.59
310.076	9657.5
310.141	9642.09
310.207	9630.24
310.273	9640.74
310.338	9645.46
310.404	9629.71
310.469	9617.77
310.535	9608.18
310.601	9582.03
310.666	9593.78
310.732	9596.72
310.797	9582.37
310.863	9564.6
310.928	9557.66
310.994	9560.79
311.059	9561.32
311.125	9550.68
311.191	9558
311.256	9547.74
311.322	9546.83
311.387	9525.11
311.453	9824.51
311.518	9800.97
311.584	9796.39
311.649	9794.42
311.715	9786.42
311.78	9794.75
311.846	9790.9
311.911	9794.8
311.976	9797.84
312.042	9775.39
312.107	9761.96
312.173	9755.99
312.238	9752.47
312.304	9746.5
312.369	9730.7
312.434	9713.7
312.5	9709.85
312.565	9673.01
312.631	9680.91
312.696	9673.25
312.761	9676.57
312.827	9367.49
312.892	9414.06
312.958	9410.74
313.023	9404.09
313.088	9403.23
313.154	9384.21
313.219	9368.9
313.284	9358.93
313.35	9354.26
313.415	9341.59
313.48	9338.08
313.546	9335.48
313.611	9347.32
313.676	9335.04
313.741	9329.03
313.807	9339.52
313.872	9344.1
313.937	9351.56
314.003	9358.93
314.068	9365.04
314.133	9369.28
314.198	9353.87
314.264	9331.33
314.329	9326.04
314.394	9333.16
314.459	9336.77
314.525	9358.39
314.59	9352.57
314.655	9343.61
314.72	9350.26
314.785	9355.84
314.851	9348.24
314.916	9330.95
314.981	9315.78
315.046	9313.42
315.111	9299.08
315.176	9286.89
315.242	9287.62
315.307	9288.1
315.372	9268.02
315.437	9251.89
315.502	9250.54
315.567	9266.38
315.632	9242.35
315.698	9242.79
315.763	9233.59
315.828	9221.5
315.893	9218.95
315.958	9219.48
316.023	9209.51
316.088	9194.78
316.153	9170.57
316.218	9165.41
316.283	9150.44
316.348	9132.34
316.413	9125.94
316.479	9113.95
316.544	9081.36
316.609	9047.95
316.674	9010.17
316.739	8978.64
316.804	8954.52
316.869	8907.69
316.934	8867.25
316.999	8842.56
317.064	8788.99
317.129	8744.17
317.194	8702.49
317.259	8649.73
317.324	8596.08
317.389	8555.03
317.454	8512.1
317.518	8475.91
317.583	8449.78
317.648	8426.15
317.713	8391.8
317.778	8325.3
317.843	8296.82
317.908	8261.02
317.973	8224.98
318.038	8196.6
318.103	8156.67
318.168	8125.98
318.233	8099.33
318.297	8052.28
318.362	8013.8
318.427	7973.65
318.492	7945.74
318.557	7902.76
318.622	7871.97
318.687	7852.45
318.751	7809.65
318.816	7773.49
318.881	7745.5
318.946	7690.88
319.011	7644.14
319.075	7602.88
319.14	7575.2
319.205	7529.71
319.27	7490.73
319.335	7440.45
319.399	7394.78
319.464	7369.5
319.529	7311.96
319.594	7275.58
319.658	7240.16
319.723	7195.65
319.788	7167.64
319.853	7110.93
319.917	7081.14
319.982	7026.75
320.047	6983.31
320.112	6956.89
320.176	6910.38
320.241	6871.9
320.306	6845.38
320.37	6803.11
320.435	6769.77
320.5	6742.68
320.564	6705.94
320.629	6669.11
320.694	6645.34
320.758	6612.73
320.823	6565.39
320.888	6540.76
320.952	6492.12
321.017	6455.58
321.082	6417.95
321.146	6384.34
321.211	6354.44
321.275	6312.06
321.34	6265.81
321.405	6226.89
321.469	6178.95
321.534	6136.01
321.598	6088.6
321.663	6056.58
321.727	6023.86
321.792	5972.77
321.857	5930.98
321.921	5889.2
321.986	5841.24
322.05	5775.93
322.115	5734.58
322.179	5690.66
322.244	5633.03
322.308	5598.42
322.373	5549.08
322.437	5504.98
322.502	5472.56
322.566	5425.2
322.631	5391.84
322.695	5357.87
322.76	5306.41
322.824	5274.64
322.889	5232.15
322.953	5181.52
323.018	5110.04
323.082	5044.19
323.146	4989.8
323.211	4933.33
323.275	4889.07
323.34	4843.6
323.404	4814.45
323.468	4768.05
323.533	4723.63
323.597	4678.08
323.662	4623.61
323.726	4589.05
323.79	4544.36
323.855	4486.43
323.919	4434.86
323.983	4384.04
324.048	4316.44
324.112	4499.13
324.177	4363.22
324.241	4139.05
324.305	3921.99
324.37	3708.67
324.434	3504.58
324.498	3464.94
324.562	3412.13
324.627	3349.11
324.691	3292.97
324.755	3222.28
324.82	3143.31
324.884	3063.66
324.948	2987.68
325.012	2892.76
325.077	2762.14
