Data from 20250703_urea_0.1M_MAYP1162681_02-01-05-465.txt Node
Date: Fri Jul 04 02:01:05 BST 2025
User: adleo
Spectrometer: MAYP116268
Trigger mode: 0
Integration Time (sec): 1.000000E0
Scans to average: 1
Electric dark correction enabled: true
Nonlinearity correction enabled: true
Boxcar width: 10
XAxis mode: Wavelengths
Number of Pixels in Spectrum: 2068
>>>>>Begin Spectral Data<<<<<
179.565	1327.8
179.642	1387.07
179.718	1436.62
179.795	1480.22
179.871	1516.62
179.948	1539.16
180.024	1558.65
180.101	1585.28
180.177	1600.55
180.254	1625.03
180.33	1646.89
180.407	1710.76
180.483	1816
180.56	1917.4
180.636	2011.89
180.712	1998.19
180.789	2010.7
180.865	2023.96
180.942	2032.28
181.018	2042.79
181.095	2060.16
181.171	2064.11
181.248	2066.2
181.324	2082.8
181.4	2089.18
181.477	2099.17
181.553	2112.96
181.63	2136.46
181.706	2152.78
181.782	2164.57
181.859	2163.48
181.935	2172.32
182.011	2167.8
182.088	2183.74
182.164	2201.4
182.24	2212.77
182.317	2221.62
182.393	2219.43
182.469	2235.51
182.546	2252.36
182.622	2258.07
182.698	2251.12
182.775	2262.59
182.851	2280.19
182.927	2272.82
183.003	2268.25
183.08	2261.68
183.156	2268.87
183.232	2264.35
183.308	2250.45
183.385	2258.16
183.461	2280.86
183.537	2282.29
183.613	2296.66
183.69	2287.76
183.766	2277.86
183.842	2286.71
183.918	2292.76
183.995	2306.99
184.071	2311.22
184.147	2303.99
184.223	2294.09
184.299	2305.33
184.375	2293.53
184.452	2298.1
184.528	2347.13
184.604	2360.69
184.68	2376.39
184.756	2384.58
184.832	2394.19
184.908	2400.57
184.985	2399.24
185.061	2379.58
185.137	2389.15
185.213	2377.58
185.289	2377.82
185.365	2368.78
185.441	2366.45
185.517	2380.11
185.593	2376.64
185.669	2368.88
185.745	2382.3
185.822	2397.72
185.898	2389.91
185.974	2400.05
186.05	2395.86
186.126	2360.68
186.202	2352.59
186.278	2345.78
186.354	2336.26
186.43	2341.21
186.506	2342.74
186.582	2344.97
186.658	2351.92
186.734	2328.46
186.81	2332.17
186.886	2337.07
186.962	2351.16
187.038	2347.97
187.114	2340.3
187.19	2348.68
187.266	2339.5
187.341	2337.36
187.417	2330.64
187.493	2329.74
187.569	2334.22
187.645	2322.84
187.721	2310.8
187.797	2318.36
187.873	2324.26
187.949	2318.27
188.025	2311.98
188.101	2310.98
188.176	2314.74
188.252	2312.37
188.328	2324.16
188.404	2321.07
188.48	2315.03
188.556	2310.31
188.632	2311.17
188.707	2312.27
188.783	2307.22
188.859	2303.13
188.935	2291.32
189.011	2301.61
189.086	2298.27
189.162	2286.76
189.238	2284.9
189.314	2280.62
189.39	2275.67
189.465	2268.05
189.541	2288.14
189.617	2267.92
189.693	2261.92
189.768	2262.02
189.844	2285.97
189.92	2276.46
189.996	2287.31
190.071	2299.11
190.147	2296.59
190.223	2306.16
190.298	2297.92
190.374	2284.31
190.45	2297.73
190.526	2310.72
190.601	2301.15
190.677	2301.82
190.753	2335.16
190.828	2339.82
190.904	2361.15
190.98	2376.14
191.055	2388.95
191.131	2378.76
191.207	2406.69
191.282	2422.02
191.358	2412.83
191.433	2398.21
191.509	2410.77
191.585	2406.82
191.66	2410.39
191.736	2418.15
191.811	2406.87
191.887	2424.25
191.963	2452.96
192.038	2457.05
192.114	2455.76
192.189	2460.48
192.265	2455.91
192.34	2431.71
192.416	2429.14
192.491	2421.62
192.567	2424.66
192.642	2426.38
192.718	2425.71
192.793	2410.38
192.869	2402.72
192.944	2406.19
193.02	2413.81
193.095	2417.76
193.171	2424.14
193.246	2422.66
193.322	2419.19
193.397	2422.47
193.473	2406.76
193.548	2384.62
193.624	2391.76
193.699	2391.62
193.775	2407.28
193.85	2409.57
193.925	2417.71
194.001	2420.09
194.076	2413.95
194.152	2402.42
194.227	2395.28
194.302	2384.15
194.378	2390.19
194.453	2386.38
194.529	2401.48
194.604	2385.96
194.679	2380.2
194.755	2357.4
194.83	2370.5
194.905	2367.41
194.981	2378.07
195.056	2369.98
195.131	2378.12
195.207	2379.27
195.282	2368.6
195.357	2351.65
195.433	2370.93
195.508	2356.84
195.583	2362.17
195.659	2377.79
195.734	2388.07
195.809	2385.98
195.884	2395.73
195.96	2397.21
196.035	2418.63
196.11	2411.49
196.185	2424.63
196.261	2429.63
196.336	2465.04
196.411	2449.99
196.486	2460.04
196.561	2453.27
196.637	2464.46
196.712	2481.22
196.787	2482.51
196.862	2497.22
196.937	2507.36
197.013	2509.5
197.088	2523.74
197.163	2549.32
197.238	2565.43
197.313	2561.05
197.388	2577.9
197.464	2614.11
197.539	2620.88
197.614	2608.49
197.689	2622.59
197.764	2640.27
197.839	2661.85
197.914	2654.7
197.989	2677.57
198.065	2691.67
198.14	2745.59
198.215	2772.89
198.29	2785.71
198.365	2798.96
198.44	2810.2
198.515	2840.75
198.59	2857.48
198.665	2885.55
198.74	2894.66
198.815	2899.14
198.89	2924.78
198.965	2958.88
199.04	2951.34
199.115	2973.26
199.19	3021.4
199.265	3026.36
199.34	3035.71
199.415	3074.68
199.49	3096.7
199.565	3107.91
199.64	3130.99
199.715	3126.02
199.79	3134.27
199.865	3140.66
199.94	3140.9
200.015	3174.67
200.09	3180.01
200.165	3188.03
200.24	3193.08
200.315	3233.14
200.39	3248.55
200.464	3255.94
200.539	3251.36
200.614	3269.39
200.689	3291.48
200.764	3298.54
200.839	3315.37
200.914	3322.29
200.989	3305.58
201.063	3324.62
201.138	3305.6
201.213	3307.65
201.288	3290.09
201.363	3294.05
201.438	3294.43
201.512	3310.55
201.587	3293.99
201.662	3301.82
201.737	3317.42
201.812	3330.98
201.886	3300.51
201.961	3310.97
202.036	3298.76
202.111	3299.76
202.186	3271.87
202.26	3256.74
202.335	3233.5
202.41	3231.31
202.485	3211.9
202.559	3195.11
202.634	3165.4
202.709	3178.17
202.784	3162.34
202.858	3162.91
202.933	3148.89
203.008	3149.12
203.082	3133.96
203.157	3137.16
203.232	3091.91
203.306	3071.63
203.381	3039.86
203.456	3019.5
203.53	3002.27
203.605	2986.73
203.68	2970.8
203.754	2972.42
203.829	2964.55
203.904	2956.21
203.978	2955.92
204.053	2976.14
204.127	2975.81
204.202	2991.64
204.277	2991.92
204.351	2999.41
204.426	3010.09
204.5	3020.87
204.575	3005.09
204.65	3037.82
204.724	3054.57
204.799	3087.5
204.873	3111.55
204.948	3139.89
205.022	3157.96
205.097	3181.88
205.171	3234.63
205.246	3275.92
205.32	3309.69
205.395	3350.26
205.469	3381.94
205.544	3431.94
205.618	3458.19
205.693	3518.5
205.767	3556.84
205.842	3626.76
205.916	3673.56
205.991	3718.85
206.065	3784.98
206.14	3860.04
206.214	3915.75
206.289	3972.07
206.363	4052.89
206.438	4125.3
206.512	4203.25
206.586	4298.31
206.661	4380.53
206.735	4431.6
206.81	4514.65
206.884	4617.42
206.958	4685.23
207.033	4789.7
207.107	4884.69
207.181	5009.9
207.256	5095.12
207.33	5206.92
207.405	5316.38
207.479	5436.23
207.553	5543.3
207.628	5620.84
207.702	5731.29
207.776	5829.99
207.851	5934.65
207.925	6056.29
207.999	6159.31
208.073	6264.12
208.148	6375.44
208.222	6470.55
208.296	6614.73
208.371	6739.34
208.445	6860
208.519	7009.13
208.593	7133.37
208.668	7241.85
208.742	7354.25
208.816	7474.88
208.89	7602.77
208.965	7724.03
209.039	7847.1
209.113	7984.45
209.187	8121.86
209.261	8237.96
209.336	8376.7
209.41	8516.28
209.484	8633.61
209.558	8776.46
209.632	8913.09
209.707	9036.94
209.781	9173.31
209.855	9309.13
209.929	9444.31
210.003	9571.63
210.077	9688.6
210.151	9858.83
210.226	10012.87
210.3	10168.19
210.374	10310
210.448	10435.16
210.522	10554.94
210.596	10681.55
210.67	10801.48
210.744	10963.47
210.818	11109.94
210.892	11250.08
210.966	11364.19
211.041	11507.23
211.115	11608.1
211.189	11739.91
211.263	11870.38
211.337	11994.39
211.411	12117.78
211.485	12225.99
211.559	12345.43
211.633	12449.54
211.707	12523.54
211.781	12640.92
211.855	12703
211.929	12796.09
212.003	12883.96
212.077	13003.37
212.151	13125.61
212.225	13243.57
212.299	13343.6
212.373	13431
212.447	13521.58
212.52	13646.91
212.594	13739.71
212.668	13866.05
212.742	13958.56
212.816	14057.62
212.89	14152.78
212.964	14248.61
213.038	14354.57
213.112	14462.64
213.186	14576.99
213.26	14654.79
213.333	14698.51
213.407	14805.57
213.481	14902.08
213.555	15003.94
213.629	15081.25
213.703	15142.76
213.777	15226.73
213.85	15292.47
213.924	15424.21
213.998	15513.91
214.072	15590.35
214.146	15662.46
214.219	15733.46
214.293	15805.28
214.367	15881.97
214.441	15973.3
214.515	16046.95
214.588	16098.33
214.662	16139.97
214.736	16193.19
214.81	16263.17
214.883	16345.4
214.957	16393.93
215.031	16452.78
215.105	16497.32
215.178	16553.52
215.252	16619.93
215.326	16666.63
215.4	16714.3
215.473	16726.06
215.547	16766.25
215.621	16814.98
215.694	16879.85
215.768	16913.58
215.842	16966.5
215.915	17011.8
215.989	17039.03
216.063	17083.9
216.136	17138.17
216.21	17191.04
216.284	17264.58
216.357	17331.42
216.431	17382.61
216.504	17455.18
216.578	17531.47
216.652	17597.59
216.725	17644.77
216.799	17707.62
216.873	17759.57
216.946	17824.34
217.02	17876.19
217.093	17928.29
217.167	17960.19
217.24	17988.81
217.314	18035.71
217.387	18080.04
217.461	18127.8
217.535	18186.69
217.608	18218.83
217.682	18263.7
217.755	18322.63
217.829	18358.34
217.902	18413.47
217.976	18464.31
218.049	18504.31
218.123	18537.27
218.196	18584.35
218.27	18630.38
218.343	18658.71
218.417	18709.41
218.49	18748.87
218.563	18807.47
218.637	18858.75
218.71	18935.61
218.784	18999.08
218.857	19062.35
218.931	19115.45
219.004	19160.75
219.077	19220.41
219.151	19276.99
219.224	19322.86
219.298	19374.81
219.371	19424.64
219.444	19445.31
219.518	19494.95
219.591	19539
219.665	19625.26
219.738	19670.27
219.811	19704
219.885	19754.75
219.958	19803.47
220.031	19848.43
220.105	19890.88
220.178	19940.52
220.251	19971.12
220.325	20015.31
220.398	20061.24
220.471	20104.95
220.544	20148.03
220.618	20183.5
220.691	20235.26
220.764	20276.18
220.838	20325.14
220.911	20362.54
220.984	20426.87
221.057	20471.89
221.131	20511.98
221.204	20506.63
221.277	20565.38
221.35	20637.86
221.424	20674.78
221.497	20713.53
221.57	20742.73
221.643	20785.77
221.716	20814.69
221.79	20835.99
221.863	20865.68
221.936	20884.62
222.009	20912.28
222.082	20957.73
222.155	20978.12
222.229	21015.85
222.302	21057.11
222.375	21081.5
222.448	21117.41
222.521	21143.24
222.594	21160.06
222.667	21179.24
222.74	21210.47
222.814	21234.23
222.887	21254.91
222.96	21292.46
223.033	21327.89
223.106	21358.2
223.179	21387.27
223.252	21410.74
223.325	21434.45
223.398	21457.11
223.471	21489.59
223.544	21511.52
223.617	21533.4
223.69	21558.61
223.763	21569.12
223.837	21589.6
223.91	21615.39
223.983	21611.1
224.056	21612.98
224.129	21630.14
224.202	21651.59
224.275	21666.1
224.348	21671.16
224.42	21663.45
224.493	21659.01
224.566	21662.29
224.639	21683.88
224.712	21684.94
224.785	21699.98
224.858	21713.19
224.931	21717.67
225.004	21717.63
225.077	21730.06
225.15	21714.35
225.223	21714.59
225.296	21747.03
225.369	21730.5
225.442	21722.54
225.514	21733
225.587	21751.03
225.66	21771.47
225.733	21784.1
225.806	21793.88
225.879	21798.51
225.952	21791.38
226.025	21812.78
226.097	21831.1
226.17	21839.1
226.243	21824.3
226.316	21824.11
226.389	21831.1
226.461	21842.67
226.534	21859.63
226.607	21860.69
226.68	21886.39
226.753	21900.75
226.825	21877.08
226.898	21894.1
226.971	21898.34
227.044	21915.74
227.117	21922.15
227.189	21920.17
227.262	21928.46
227.335	21938.78
227.407	21938.78
227.48	21954.3
227.553	21953.34
227.626	21946.78
227.698	21936.37
227.771	21943.21
227.844	21927.26
227.916	21927.4
227.989	21914.73
228.062	21902.58
228.134	21928.46
228.207	21911.93
228.28	21905.95
228.352	21897.76
228.425	21905.66
228.498	21914.68
228.57	21897.52
228.643	21892.07
228.716	21884.36
228.788	21874.86
228.861	21860.11
228.934	21870.04
229.006	21859.44
229.079	21848.83
229.151	21829.89
229.224	21814.27
229.296	21817.26
229.369	21851.44
229.442	21866.19
229.514	21853.66
229.587	21863.39
229.659	21830.42
229.732	21834.9
229.804	21836.98
229.877	21870.48
229.949	21871.11
230.022	21887.93
230.094	21886.82
230.167	21881.18
230.239	21869.85
230.312	21857.95
230.384	21872.55
230.457	21860.7
230.529	21860.26
230.602	21853.56
230.674	21859.49
230.747	21864.75
230.819	21865.08
230.892	21819.53
230.964	21805.31
231.037	21809.02
231.109	21794.08
231.181	21788.68
231.254	21761.83
231.326	21737.88
231.399	21717.78
231.471	21699.6
231.544	21651.78
231.616	21653.81
231.688	21647.11
231.761	21625.03
231.833	21612.55
231.905	21572.01
231.978	21560.54
232.05	21541.55
232.122	21528.54
232.195	21495.23
232.267	21490.84
232.339	21471.76
232.412	21469.73
232.484	21449.54
232.556	21424.33
232.629	21429.73
232.701	21427.9
232.773	21418.59
232.846	21405.92
232.918	21387.07
232.99	21375.89
233.062	21373.14
233.135	21351.5
233.207	21319.5
233.279	21314.15
233.351	21298.24
233.424	21275.01
233.496	21238.86
233.568	21248.89
233.64	21215.01
233.713	21209.56
233.785	21184.79
233.857	21163
233.929	21125.7
234.001	21114.52
234.074	21105.65
234.146	21062.7
234.218	21032.82
234.29	21011.28
234.362	20972.19
234.434	20926.07
234.507	20878.02
234.579	20829.72
234.651	20806.49
234.723	20788.9
234.795	20773
234.867	20745.91
234.939	20749.43
235.012	20732.81
235.084	20709.04
235.156	20692.13
235.228	20652.51
235.3	20626.1
235.372	20603.4
235.444	20596.32
235.516	20546.87
235.588	20514.73
235.66	20493.86
235.732	20455.64
235.804	20495.64
235.876	20484.42
235.948	20477.77
236.02	20457.09
236.092	20438.87
236.164	20406.34
236.236	20370.2
236.308	20330.2
236.38	20309.53
236.452	20264.56
236.524	20244.27
236.596	20225.86
236.668	20207.55
236.74	20187.65
236.812	20166.2
236.884	20141.77
236.956	20122.98
237.028	20094.64
237.1	20063.65
237.172	20052.13
237.244	20046.4
237.316	19975.94
237.388	19941.34
237.46	19896.67
237.532	19880.09
237.604	19832.33
237.675	19818.84
237.747	19803.95
237.819	19760.24
237.891	19728.96
237.963	19690.94
238.035	19652
238.107	19585.79
238.178	19573.98
238.25	19533.79
238.322	19528.11
238.394	19481.89
238.466	19441.99
238.538	19410.18
238.609	19381.17
238.681	19319.73
238.753	19277.61
238.825	19239.54
238.897	19212.65
238.968	19201.09
239.04	19164.32
239.112	19169.14
239.184	19115.6
239.255	19077.58
239.327	19054.35
239.399	19022.69
239.471	19006.88
239.542	18975.75
239.614	18960.96
239.686	18893.44
239.758	18875.57
239.829	18822.12
239.901	18806.17
239.973	18767.77
240.044	18744.2
240.116	18711.96
240.188	18680.11
240.259	18641.41
240.331	18603.63
240.403	18576.98
240.474	18522.57
240.546	18485.42
240.618	18427.11
240.689	18392.85
240.761	18366.44
240.833	18355.55
240.904	18309.91
240.976	18270.49
241.048	18236.61
241.119	18204.37
241.191	18181.15
241.262	18160.67
241.334	18117.82
241.405	18076.28
241.477	18035.18
241.549	18002.79
241.62	17973.59
241.692	17951.47
241.763	17935.23
241.835	17894.12
241.906	17851.91
241.978	17801.35
242.049	17775.57
242.121	17758.51
242.192	17743.67
242.264	17690.32
242.335	17629.31
242.407	17606.75
242.478	17561.69
242.55	17528.68
242.621	17482.99
242.693	17446.99
242.764	17408.59
242.836	17380.39
242.907	17351.86
242.979	17325.26
243.05	17295.48
243.122	17267.67
243.193	17226.32
243.264	17167.23
243.336	17142.27
243.407	17126.08
243.479	17118.56
243.55	17089.16
243.622	17046.27
243.693	17007.66
243.764	16989.98
243.836	16951.95
243.907	16925.73
243.978	16897.3
244.05	16874.74
244.121	16828.57
244.192	16811.41
244.264	16758.01
244.335	16724.18
244.407	16672.46
244.478	16642.15
244.549	16596.94
244.62	16550.53
244.692	16520.26
244.763	16500.6
244.834	16450.71
244.906	16406.47
244.977	16372.54
245.048	16348.59
245.119	16313.93
245.191	16278.27
245.262	16222.93
245.333	16208.86
245.405	16169.05
245.476	16144.56
245.547	16108.66
245.618	16097.91
245.689	16056.84
245.761	16033.47
245.832	15998.86
245.903	15978.62
245.974	15951.29
246.045	15929.6
246.117	15909.74
246.188	15857.06
246.259	15806.35
246.33	15781.14
246.401	15750.39
246.473	15701.8
246.544	15660.4
246.615	15643.87
246.686	15600.3
246.757	15587.91
246.828	15546.07
246.899	15530.64
246.97	15472.85
247.042	15430.43
247.113	15397.66
247.184	15384.16
247.255	15336.3
247.326	15300.58
247.397	15261.05
247.468	15232.04
247.539	15193.43
247.61	15147.34
247.681	15136.84
247.752	15129.65
247.823	15084.58
247.894	15057.88
247.965	15016.57
248.037	14978.39
248.108	14932.65
248.179	14905.22
248.25	14873.69
248.321	14853.16
248.392	14805.87
248.463	14800.28
248.534	14781.09
248.605	14758.44
248.675	14722.05
248.746	14707.49
248.817	14687.58
248.888	14669.6
248.959	14618.12
249.03	14602.21
249.101	14573.53
249.172	14534.96
249.243	14478.61
249.314	14470.75
249.385	14439.52
249.456	14423.32
249.527	14397.19
249.598	14372.9
249.669	14344.75
249.739	14315.44
249.81	14298.71
249.881	14257.11
249.952	14237.49
250.023	14203.65
250.094	14159.2
250.165	14128.16
250.235	14101.02
250.306	14081.06
250.377	14044.71
250.448	14024.85
250.519	13974.53
250.59	13973.99
250.66	13942.66
250.731	13939.33
250.802	13913.5
250.873	13888.72
250.944	13862.83
251.014	13829.04
251.085	13828.41
251.156	13811.68
251.227	13808.74
251.297	13791.58
251.368	13785.17
251.439	13762.47
251.51	13750.8
251.58	13713.58
251.651	13673.19
251.722	13663.55
251.792	13618.23
251.863	13590.51
251.934	13587.81
252.005	13591.77
252.075	13555.51
252.146	13548.19
252.217	13537.29
252.287	13519.31
252.358	13494.15
252.429	13498.82
252.499	13475.25
252.57	13453.27
252.641	13438.81
252.711	13408.82
252.782	13364.66
252.852	13359.8
252.923	13336.8
252.994	13310.82
253.064	13308.07
253.135	13287.58
253.205	13254.9
253.276	13249.16
253.347	13251.38
253.417	13218.21
253.488	13190.78
253.558	13166.44
253.629	13139.54
253.699	13116.26
253.77	13105.89
253.841	13092.49
253.911	13068.1
253.982	13049.59
254.052	13030.84
254.123	13008.8
254.193	12987.4
254.264	13004.95
254.334	12964.89
254.405	12932.49
254.475	12899.91
254.546	12868.86
254.616	12863.22
254.687	12845.48
254.757	12827.6
254.827	12797.28
254.898	12784.74
254.968	12763.87
255.039	12736.11
255.109	12729.36
255.18	12696.38
255.25	12648.37
255.321	12627.45
255.391	12589.9
255.461	12584.89
255.532	12534.03
255.602	12507.47
255.673	12460.42
255.743	12428.37
255.813	12393.23
255.884	12387.25
255.954	12374.43
256.024	12380.55
256.095	12359.87
256.165	12324.73
256.235	12304.43
256.306	12278.41
256.376	12262.79
256.446	12251.51
256.517	12241.29
256.587	12230.49
256.657	12213.14
256.728	12197.81
256.798	12175.54
256.868	12147.05
256.938	12119.48
257.009	12112.15
257.079	12100.83
257.149	12115.09
257.219	12073.21
257.29	12060.92
257.36	12017.92
257.43	12009.68
257.5	11961.38
257.571	11936.51
257.641	11924.41
257.711	11893.03
257.781	11880.69
257.852	11867.58
257.922	11825.55
257.992	11806.13
258.062	11783.28
258.132	11771.18
258.202	11752.62
258.273	11736.04
258.343	11741.2
258.413	11713.05
258.483	11693.05
258.553	11661
258.623	11635.89
258.693	11620.51
258.764	11624.41
258.834	11633.38
258.904	11616.41
258.974	11594.53
259.044	11573.04
259.114	11562.14
259.184	11554
259.254	11534.72
259.324	11492.11
259.394	11478.81
259.464	11476.31
259.535	11459.29
259.605	11437.89
259.675	11408.06
259.745	11399.24
259.815	11362.13
259.885	11340.93
259.955	11360.59
260.025	11335.24
260.095	11312.21
260.165	11308.59
260.235	11305.7
260.305	11275.05
260.375	11245.65
260.445	11254.66
260.515	11253.41
260.585	11241.65
260.655	11225.6
260.725	11220.44
260.795	11209.75
260.865	11220.83
260.934	11189.46
261.004	11174.03
261.074	11154.03
261.144	11159.09
261.214	11146.13
261.284	11136.01
261.354	11136.2
261.424	11098.37
261.494	11103.77
261.564	11087.72
261.634	11076.83
261.703	11029.16
261.773	11016.15
261.843	11011.14
261.913	10988.49
261.983	10950.04
262.053	10947.77
262.123	10923.29
262.192	10892.98
262.262	10894.96
262.332	10860.12
262.402	10853.03
262.472	10840.26
262.541	10805.09
262.611	10805.53
262.681	10781.19
262.751	10777
262.821	10750.35
262.89	10723.17
262.96	10712.38
263.03	10719.22
263.1	10706.21
263.169	10693.59
263.239	10689.25
263.309	10690.22
263.379	10684.34
263.448	10674.56
263.518	10661.21
263.588	10641.45
263.657	10646.75
263.727	10641.36
263.797	10625.36
263.867	10614.95
263.936	10582.48
264.006	10584.65
264.076	10554.1
264.145	10539.35
264.215	10509.87
264.285	10510.69
264.354	10483.47
264.424	10464.58
264.494	10435.53
264.563	10412.78
264.633	10424.83
264.702	10413.22
264.772	10380.02
264.842	10355.54
264.911	10352.56
264.981	10318.49
265.05	10313.05
265.12	10287.13
265.19	10269.97
265.259	10264.05
265.329	10255.81
265.398	10252.49
265.468	10266.12
265.537	10248.68
265.607	10235.53
265.676	10236.78
265.746	10227.63
265.815	10228.5
265.885	10208.22
265.955	10179.65
266.024	10158.36
266.094	10117.41
266.163	10114.57
266.232	10112.88
266.302	10105.17
266.371	10091.35
266.441	10088.41
266.51	10085.9
266.58	10073.62
266.649	10049.05
266.719	10048.67
266.788	10035.51
266.858	10037.92
266.927	9998.47
266.996	9990.47
267.066	9980.89
267.135	9955.6
267.205	9946.54
267.274	9933.54
267.343	9936.62
267.413	9933.49
267.482	9938.74
267.552	9943.41
267.621	9917.11
267.69	9885.13
267.76	9871.16
267.829	9864.18
267.898	9855.51
267.968	9827.67
268.037	9819.43
268.106	9817.17
268.176	9791.78
268.245	9773.86
268.314	9753.34
268.384	9753.87
268.453	9742.36
268.522	9740.87
268.592	9747.9
268.661	9732.54
268.73	9723.82
268.799	9701.23
268.869	9705.13
268.938	9673.92
269.007	9655.19
269.076	9636.31
269.146	9642.42
269.215	9637.08
269.284	9643.82
269.353	9617.82
269.422	9606.55
269.492	9593.45
269.561	9558.58
269.63	9555.45
269.699	9545.05
269.768	9532.34
269.838	9523.91
269.907	9526.12
269.976	9496.46
270.045	9460.39
270.114	9448.59
270.183	9433.62
270.253	9434.34
270.322	9399.38
270.391	9394.18
270.46	9399.09
270.529	9405.59
270.598	9402.22
270.667	9395.58
270.736	9370.68
270.806	9368.03
270.875	9376.84
270.944	9365.76
271.013	9389.89
271.082	9385.46
271.151	9378.91
271.22	9344.39
271.289	9330.57
271.358	9311.36
271.427	9306.88
271.496	9302.64
271.565	9291.71
271.634	9284.59
271.703	9298.36
271.772	9305.54
271.841	9291.81
271.91	9267.69
271.979	9257.82
272.048	9234.03
272.117	9234.61
272.186	9212.51
272.255	9213.81
272.324	9211.88
272.393	9206.11
272.462	9183.23
272.531	9169.22
272.6	9156.8
272.669	9164.4
272.738	9162.24
272.807	9160.5
272.876	9142.45
272.945	9172.64
273.013	9178.23
273.082	9190.84
273.151	9150.88
273.22	9151.98
273.289	9141.3
273.358	9148.86
273.427	9132.53
273.496	9128.73
273.564	9121.51
273.633	9131.52
273.702	9113.42
273.771	9099.17
273.84	9091.85
273.909	9092.38
273.977	9089.54
274.046	9082.22
274.115	9095.7
274.184	9066.77
274.253	9062.1
274.322	9073.94
274.39	9034.66
274.459	9016.03
274.528	8978.33
274.597	8974.67
274.665	8964.61
274.734	8970.72
274.803	8962.97
274.872	8957.48
274.94	8942.66
275.009	8993.33
275.078	8973.69
275.147	8969.79
275.215	8967.81
275.284	8977.63
275.353	8964.15
275.421	8936.28
275.49	8953.91
275.559	8939.17
275.627	8942.83
275.696	8931.13
275.765	8927.57
275.833	8921.41
275.902	8919.53
275.971	8929.83
276.039	8942.49
276.108	8944.23
276.177	8947.5
276.245	8937.3
276.314	8932.77
276.383	8941.92
276.451	8876.08
276.52	8882
276.588	8889.8
276.657	8891.63
276.725	8879.69
276.794	8876.51
276.863	8887.92
276.931	8858.17
277	8872.28
277.068	8879.01
277.137	8897.4
277.205	8895.38
277.274	8917.04
277.342	8924.89
277.411	8903.33
277.48	8892.21
277.548	8880.94
277.617	8879.6
277.685	8866.74
277.754	8871.51
277.822	8862.99
277.89	8881.67
277.959	8873.3
278.027	8853.99
278.096	8844.85
278.164	8873.83
278.233	8866.47
278.301	8854.58
278.37	8857.03
278.438	8835.18
278.507	8839.08
278.575	8813.95
278.643	8813.37
278.712	8786.61
278.78	8772.75
278.849	8780.74
278.917	8793.3
278.985	8792.15
279.054	8793.88
279.122	8808.03
279.191	8804.71
279.259	8798.26
279.327	8767.64
279.396	8779.29
279.464	8780.49
279.532	8782.51
279.601	8773.41
279.669	8769.08
279.737	8790.12
279.806	8799.79
279.874	8814.71
279.942	8809.47
280.011	8802.58
280.079	8808.26
280.147	8828.38
280.215	8830.31
280.284	8829.83
280.352	8806.14
280.42	8813.84
280.488	8806
280.557	8802.2
280.625	8807.2
280.693	8806.67
280.761	8818.27
280.83	8807.35
280.898	8815.77
280.966	8794.59
281.034	8769.03
281.102	8763.01
281.171	8753.87
281.239	8764.36
281.307	8751.75
281.375	8739.82
281.443	8767.4
281.512	8759.55
281.58	8765.04
281.648	8749.06
281.716	8752.96
281.784	8756.62
281.852	8742.56
281.92	8744.68
281.989	8753.01
282.057	8735.63
282.125	8783.87
282.193	8774
282.261	8775.35
282.329	8772.85
282.397	8780.02
282.465	8775.11
282.533	8785.94
282.601	8775.35
282.67	8747.33
282.738	8737.52
282.806	8753.25
282.874	8738.96
282.942	8742.95
283.01	8736.93
283.078	8748.92
283.146	8745.69
283.214	8753.88
283.282	8761.48
283.35	8771.78
283.418	8766.49
283.486	8771.64
283.554	8729.27
283.622	8729.27
283.69	8723.2
283.758	8717.14
283.826	8719.02
283.894	8736.35
283.962	8758.49
284.03	8773.41
284.098	8772.83
284.165	8763.45
284.233	8758.39
284.301	8750.6
284.369	8741.31
284.437	8733.75
284.505	8730.62
284.573	8747.85
284.641	8734.86
284.709	8736.11
284.777	8715.32
284.845	8720.32
284.912	8720.95
284.98	8724.36
285.048	8714.93
285.116	8721.96
285.184	8737.36
285.252	8735
285.319	8710.55
285.387	8693.8
285.455	8675.03
285.523	8682.44
285.591	8686.53
285.659	8690.81
285.726	8705.83
285.794	8694.14
285.862	8688.03
285.93	8679.12
285.997	8671.23
286.065	8664.73
286.133	8662.37
286.201	8661.17
286.269	8643.07
286.336	8639.03
286.404	8630.99
286.472	8648.08
286.539	8629.41
286.607	8611.55
286.675	8615.01
286.743	8623.92
286.81	8621.9
286.878	8640.62
286.946	8636.33
287.013	8637.59
287.081	8632.39
287.149	8614.72
287.216	8639.17
287.284	8639.12
287.352	8641.48
287.419	8638.35
287.487	8656.07
287.555	8658.28
287.622	8658.18
287.69	8669.98
287.758	8686.44
287.825	8684.85
287.893	8668.48
287.96	8678.01
288.028	8693.7
288.096	8701.02
288.163	8707.85
288.231	8694.33
288.298	8689.71
288.366	8704.39
288.433	8701.84
288.501	8693.8
288.569	8698.13
288.636	8686
288.704	8699.62
288.771	8712.47
288.839	8705.78
288.906	8699.82
288.974	8707.71
289.041	8702.9
289.109	8688.07
289.176	8695.1
289.244	8700.25
289.311	8715.17
289.379	8720.85
289.446	8716.57
289.514	8712.67
289.581	8711.8
289.649	8716.76
289.716	8718.54
289.783	8707.18
289.851	8729.61
289.918	8733.55
289.986	8743.95
290.053	8746.36
290.121	8746.16
290.188	8749.77
290.255	8775.96
290.323	8769.94
290.39	8763.97
290.458	8770.23
290.525	8784.04
290.592	8770.18
290.66	8767.2
290.727	8757.23
290.794	8771.62
290.862	8766.23
290.929	8771.38
290.996	8769.56
291.064	8780.24
291.131	8785.73
291.198	8796.56
291.266	8790.25
291.333	8795.16
291.4	8794.54
291.468	8812.01
291.535	8805.75
291.602	8808.16
291.669	8804.26
291.737	8804.69
291.804	8807.05
291.871	8823.42
291.938	8834.3
292.006	8868.72
292.073	8885.13
292.14	8904.24
292.207	8893.56
292.275	8901.84
292.342	8908.91
292.409	8941.65
292.476	8967.55
292.543	8959.32
292.611	8961.73
292.678	8985.03
292.745	9005.82
292.812	9024.41
292.879	9020.6
292.946	9024.16
293.014	9030.71
293.081	9033.6
293.148	9050.88
293.215	9070.81
293.282	9066.82
293.349	9074.62
293.416	9046.21
293.484	9061.81
293.551	9067.68
293.618	9084.91
293.685	9111.73
293.752	9103.36
293.819	9090.6
293.886	9079.81
293.953	9087.7
294.02	9098.68
294.087	9098.59
294.154	9096.32
294.221	9108.51
294.288	9107.78
294.356	9125.26
294.423	9137.54
294.49	9133.59
294.557	9143.17
294.624	9130.22
294.691	9152.65
294.758	9152.17
294.825	9164.11
294.892	9151.54
294.959	9152.22
295.026	9159.54
295.093	9149.04
295.16	9155.88
295.226	9160.06
295.293	9187.13
295.36	9197.33
295.427	9208.6
295.494	9216.98
295.561	9227.09
295.628	9251.32
295.695	9271.49
295.762	9279.2
295.829	9288.34
295.896	9304.43
295.963	9322.82
296.03	9334.76
296.096	9336.01
296.163	9352.87
296.23	9374.34
296.297	9391
296.364	9389.6
296.431	9395.53
296.498	9391.39
296.564	9419.27
296.631	9420.76
296.698	9399.23
296.765	9419.41
296.832	9413.53
296.899	9410.55
296.965	9429.09
297.032	9407.9
297.099	9427.64
297.166	9436.55
297.233	9435.35
297.299	9426.58
297.366	9427.02
297.433	9421.34
297.5	9435.21
297.566	9435.25
297.633	9428.13
297.7	9436.22
297.767	9440.89
297.833	9451.05
297.9	9455
297.967	9431.88
298.033	9449.03
298.1	9477.2
298.167	9466.27
298.234	9464.92
298.3	9466.65
298.367	9460.05
298.434	9459.86
298.5	9443.97
298.567	9434.29
298.634	9432.89
298.7	9453.74
298.767	9449.36
298.834	9469.73
298.9	9464.1
298.967	9453.21
299.033	9464
299.1	9474.79
299.167	9483.12
299.233	9479.55
299.3	9494.14
299.366	9515.28
299.433	9525.11
299.5	9498.57
299.566	9508.3
299.633	9532.52
299.699	9549.91
299.766	9547.36
299.832	9558.72
299.899	9568.84
299.965	9585.5
300.032	9581.12
300.099	9586.8
300.165	9600.09
300.232	9599.13
300.298	9596.14
300.365	9615.26
300.431	9621.19
300.498	9615.5
300.564	9628.07
300.631	9640.45
300.697	9657.45
300.763	9661.45
300.83	9659.23
300.896	9675.65
300.963	9682.49
301.029	9679.7
301.096	9675.94
301.162	9686.64
301.229	9676.38
301.295	9667.51
301.361	9667.18
301.428	9672.57
301.494	9656.39
301.561	9656.82
301.627	9658.12
301.693	9660.92
301.76	9660.19
301.826	9651.67
301.892	9659.52
301.959	9670.26
302.025	9666.36
302.092	9662.65
302.158	9668.14
302.224	9672.96
302.291	9667.85
302.357	9667.71
302.423	9666.26
302.49	9663.47
302.556	9678.35
302.622	9678.59
302.688	9687.31
302.755	9700.61
302.821	9710.29
302.887	9726.61
302.954	9726.76
303.02	9735.38
303.086	9750.74
303.152	9746.31
303.219	9740.53
303.285	9745.2
303.351	9750.55
303.417	9745.93
303.483	9732.1
303.55	9720.98
303.616	9720.79
303.682	9714.48
303.748	9703.88
303.815	9722.38
303.881	9733.55
303.947	9714.19
304.013	9720.21
304.079	9713.56
304.145	9697.53
304.212	9693.29
304.278	9685.53
304.344	9674.26
304.41	9659.62
304.476	9642.96
304.542	9641.66
304.608	9654.18
304.674	9639.54
304.741	9624.85
304.807	9635.06
304.873	9640.6
304.939	9658.61
305.005	9637.8
305.071	9640.02
305.137	9640.35
305.203	9607.8
305.269	9605.53
305.335	9612.47
305.401	9610.64
305.467	9609.48
305.533	9615.16
305.599	9624.65
305.666	9633.32
305.732	9640.35
305.798	9655.09
305.864	9686.69
305.93	9692.13
305.996	9688.13
306.062	9684.95
306.128	9682.4
306.194	9669.83
306.259	9673.92
306.325	9659.09
306.391	9673.63
306.457	9687.12
306.523	9694.44
306.589	9724.11
306.655	9712.45
306.721	9699.06
306.787	9688.28
306.853	9700.9
306.919	9689.43
306.985	9685.87
307.051	9682.21
307.117	9671.08
307.183	9668.29
307.248	9635.59
307.314	9645.94
307.38	9647.05
307.446	9660.44
307.512	9654.22
307.578	9652.39
307.644	9647.29
307.709	9653.94
307.775	9647.48
307.841	9638.91
307.907	9639.1
307.973	9615.21
308.039	9616.18
308.104	9615.69
308.17	9615.6
308.236	9602.59
308.302	9600.67
308.368	9584.87
308.433	9581.4
308.499	9579.96
308.565	9563.25
308.631	9564.55
308.696	9530.69
308.762	9518.94
308.828	9517.06
308.894	9504.83
308.959	9490.39
309.025	9481.53
309.091	9477.91
309.156	9465.83
309.222	9472.04
309.288	9458.89
309.354	9440.5
309.419	9439.44
309.485	9433.47
309.551	9434.77
309.616	9415.7
309.682	9412.23
309.748	9414.64
309.813	9404.77
309.879	9396.34
309.945	9387.53
310.01	9379.49
310.076	9387.91
310.141	9383.15
310.207	9364.12
310.273	9359.89
310.338	9359.36
310.404	9341.3
310.469	9321.51
310.535	9318.67
310.601	9289.73
310.666	9295.03
310.732	9304.37
310.797	9291.89
310.863	9276.78
310.928	9270.95
310.994	9277.64
311.059	9276.29
311.125	9265.51
311.191	9279.14
311.256	9266.38
311.322	9272.73
311.387	9256.6
311.453	9590.89
311.518	9567.97
311.584	9566.72
311.649	9575.72
311.715	9563.5
311.78	9561.43
311.846	9559.07
311.911	9569.37
311.976	9573.9
312.042	9555.31
312.107	9537.5
312.173	9533.5
312.238	9525.65
312.304	9522.91
312.369	9514.63
312.434	9501.92
312.5	9496.57
312.565	9459.21
312.631	9470.91
312.696	9455.55
312.761	9457.14
312.827	9111.44
312.892	9146.35
312.958	9142.02
313.023	9141.77
313.088	9145.34
313.154	9134.65
313.219	9122.76
313.284	9104.08
313.35	9100.85
313.415	9093.68
313.48	9090.69
313.546	9094.16
313.611	9113.66
313.676	9100.13
313.741	9094.59
313.807	9103.84
313.872	9103.55
313.937	9114.77
314.003	9121.27
314.068	9123.91
314.133	9133.78
314.198	9120.98
314.264	9098.68
314.329	9082.99
314.394	9078.03
314.459	9076.49
314.525	9095.36
314.59	9091.32
314.655	9076.82
314.72	9079.14
314.785	9082.31
314.851	9077.64
314.916	9056.51
314.981	9035.28
315.046	9031.91
315.111	9019.49
315.176	9012.22
315.242	9015.49
315.307	9013.81
315.372	8990.31
315.437	8984.05
315.502	8967.97
315.567	8984.34
315.632	8974.86
315.698	8987.47
315.763	8975.1
315.828	8964.32
315.893	8963.35
315.958	8961.19
316.023	8957.1
316.088	8940.92
316.153	8913.15
316.218	8906.17
316.283	8887.64
316.348	8874.5
316.413	8872.19
316.479	8856.02
316.544	8818.91
316.609	8792.87
316.674	8754.9
316.739	8724.82
316.804	8694.26
316.869	8663.89
316.934	8628.95
316.999	8598.14
317.064	8540.73
317.129	8496.7
317.194	8463.16
317.259	8416.86
317.324	8368.56
317.389	8321.99
317.454	8282.68
317.518	8256.07
317.583	8235.62
317.648	8215.7
317.713	8177.46
317.778	8117.23
317.843	8090.19
317.908	8049.02
317.973	8011.74
318.038	7982.25
318.103	7944.69
318.168	7916.65
318.233	7886.78
318.297	7832.53
318.362	7792.71
318.427	7751.22
318.492	7729.15
318.557	7682.61
318.622	7652.89
318.687	7628.85
318.751	7591.74
318.816	7556.02
318.881	7523.76
318.946	7465.68
319.011	7416.93
319.075	7376.56
319.14	7340.32
319.205	7300.04
319.27	7271.59
319.335	7223.43
319.399	7184.74
319.464	7155.67
319.529	7103.49
319.594	7065.28
319.658	7041.11
319.723	6999.4
319.788	6976.83
319.853	6922.58
319.917	6894.05
319.982	6836.93
320.047	6801.34
320.112	6779.48
320.176	6730.02
320.241	6697.59
320.306	6670.12
320.37	6630.12
320.435	6602.75
320.5	6578.5
320.564	6538.55
320.629	6494.91
320.694	6465.62
320.758	6427.36
320.823	6387.66
320.888	6357.81
320.952	6304.67
321.017	6263.01
321.082	6224.13
321.146	6191.45
321.211	6157.91
321.275	6116.69
321.34	6076.16
321.405	6034.08
321.469	5983.42
321.534	5943.8
321.598	5890.56
321.663	5862
321.727	5829.15
321.792	5782.15
321.857	5736.39
321.921	5695.34
321.986	5655.16
322.05	5592.18
322.115	5555.64
322.179	5509
322.244	5450.72
322.308	5421.34
322.373	5370.25
322.437	5332.44
322.502	5303.86
322.566	5260.44
322.631	5227.1
322.695	5188.34
322.76	5143.27
322.824	5112.7
322.889	5078.12
322.953	5033.4
323.018	4962.32
323.082	4901.09
323.146	4844.12
323.211	4791.13
323.275	4747.75
323.34	4704.05
323.404	4672.38
323.468	4621.59
323.533	4577
323.597	4537.63
323.662	4485.67
323.726	4453.7
323.79	4409.35
323.855	4342.59
323.919	4293.23
323.983	4246.83
324.048	4179.21
324.112	4349.57
324.177	4217.51
324.241	3996.11
324.305	3785.13
324.37	3578.55
324.434	3378.58
324.498	3339.69
324.562	3290.64
324.627	3230.39
324.691	3172.1
324.755	3109.21
324.82	3036.47
324.884	2961.79
324.948	2886.98
325.012	2792.42
325.077	2663.69
