Data from 20250703_urea_0.1M_MAYP1162681_23-51-05-052.txt Node
Date: Thu Jul 03 23:51:05 BST 2025
User: adleo
Spectrometer: MAYP116268
Trigger mode: 0
Integration Time (sec): 1.000000E0
Scans to average: 1
Electric dark correction enabled: true
Nonlinearity correction enabled: true
Boxcar width: 10
XAxis mode: Wavelengths
Number of Pixels in Spectrum: 2068
>>>>>Begin Spectral Data<<<<<
179.565	1373.9
179.642	1437.67
179.718	1485.72
179.795	1527.33
179.871	1562.72
179.948	1583.65
180.024	1606.69
180.101	1634.27
180.177	1649.65
180.254	1676.92
180.33	1701.22
180.407	1766.57
180.483	1873.05
180.56	1975.59
180.636	2070.37
180.712	2053.33
180.789	2064.27
180.865	2076.87
180.942	2086.76
181.018	2096.75
181.095	2114.31
181.171	2121.26
181.248	2120.64
181.324	2138.96
181.4	2149.76
181.477	2163.41
181.553	2178.02
181.63	2202.62
181.706	2218.6
181.782	2227.45
181.859	2225.07
181.935	2233.26
182.011	2230.12
182.088	2248.1
182.164	2269.29
182.24	2287.46
182.317	2296.45
182.393	2295.26
182.469	2310.78
182.546	2324.05
182.622	2331.81
182.698	2321.62
182.775	2333
182.851	2350.8
182.927	2342.42
183.003	2336.19
183.08	2329.72
183.156	2337.9
183.232	2335.09
183.308	2322.24
183.385	2334
183.461	2352.89
183.537	2354.23
183.613	2369.84
183.69	2361.51
183.766	2348.03
183.842	2354.27
183.918	2361.08
183.995	2375.4
184.071	2378.16
184.147	2373.55
184.223	2362.32
184.299	2374.89
184.375	2365.18
184.452	2371.8
184.528	2423.65
184.604	2434.83
184.68	2447.44
184.756	2456.54
184.832	2461.15
184.908	2468.53
184.985	2465.15
185.061	2447.44
185.137	2454.87
185.213	2440.73
185.289	2440.07
185.365	2436.07
185.441	2433.74
185.517	2445.69
185.593	2439.31
185.669	2437.17
185.745	2450.17
185.822	2466.97
185.898	2460.63
185.974	2471.63
186.05	2462.53
186.126	2427.3
186.202	2422.3
186.278	2419.06
186.354	2408.11
186.43	2413.69
186.506	2410.93
186.582	2412.88
186.658	2422.44
186.734	2399.5
186.81	2405.31
186.886	2408.97
186.962	2422.97
187.038	2419.16
187.114	2412.49
187.19	2426.16
187.266	2417.54
187.341	2418.12
187.417	2411.5
187.493	2411.12
187.569	2413.31
187.645	2407.17
187.721	2395.36
187.797	2400.64
187.873	2402.07
187.949	2397.45
188.025	2389.59
188.101	2390.31
188.176	2396.4
188.252	2391.5
188.328	2401.59
188.404	2399.78
188.48	2395.16
188.556	2384.69
188.632	2383.35
188.707	2386.35
188.783	2379.88
188.859	2373.6
188.935	2361.98
189.011	2370.31
189.086	2364.93
189.162	2356.22
189.238	2355.03
189.314	2349.6
189.39	2343.13
189.465	2337.23
189.541	2355.8
189.617	2341.23
189.693	2338.76
189.768	2338.14
189.844	2362.85
189.92	2354.86
189.996	2363.43
190.071	2376.33
190.147	2378.19
190.223	2389.85
190.298	2378.52
190.374	2361.48
190.45	2373.61
190.526	2381.23
190.601	2373.38
190.677	2373.42
190.753	2400.05
190.828	2402.76
190.904	2421.28
190.98	2439.19
191.055	2451.94
191.131	2441.42
191.207	2463.94
191.282	2474.46
191.358	2466.84
191.433	2452.17
191.509	2465.68
191.585	2464.21
191.66	2467.02
191.736	2472.21
191.811	2461.4
191.887	2482.97
191.963	2511.87
192.038	2517.63
192.114	2516.68
192.189	2521.68
192.265	2519.06
192.34	2495.25
192.416	2494.86
192.491	2491.91
192.567	2493.67
192.642	2494.44
192.718	2493.96
192.793	2480.67
192.869	2475.3
192.944	2477.1
193.02	2485.87
193.095	2490.25
193.171	2494.53
193.246	2489.53
193.322	2486.91
193.397	2487.25
193.473	2471.19
193.548	2451.19
193.624	2458.48
193.699	2459.72
193.775	2475.72
193.85	2477.01
193.925	2487.82
194.001	2485.44
194.076	2478.25
194.152	2468.53
194.227	2461.96
194.302	2451.44
194.378	2454.82
194.453	2450.25
194.529	2463.06
194.604	2445.25
194.679	2437.35
194.755	2416.41
194.83	2433.41
194.905	2433.6
194.981	2443.17
195.056	2436.18
195.131	2442.51
195.207	2441.22
195.282	2430.23
195.357	2410.89
195.433	2424.93
195.508	2413.03
195.583	2421.45
195.659	2432.88
195.734	2442.31
195.809	2440.84
195.884	2453.5
195.96	2453.54
196.035	2471.26
196.11	2469.16
196.185	2483.11
196.261	2487.73
196.336	2523.39
196.411	2505.86
196.486	2510.48
196.561	2503.86
196.637	2512.76
196.712	2530.58
196.787	2533.29
196.862	2548.39
196.937	2560.82
197.013	2567.63
197.088	2576.67
197.163	2598.45
197.238	2617.56
197.313	2615.03
197.388	2629.32
197.464	2658.77
197.539	2672.39
197.614	2664.39
197.689	2677.49
197.764	2695.07
197.839	2717.18
197.914	2708.55
197.989	2733.04
198.065	2748.14
198.14	2804.65
198.215	2832.52
198.29	2843.44
198.365	2861.03
198.44	2874.8
198.515	2904.93
198.59	2922.09
198.665	2955.55
198.74	2966.47
198.815	2969.48
198.89	2994.31
198.965	3031.61
199.04	3026.79
199.115	3044.95
199.19	3092.81
199.265	3097.63
199.34	3109.26
199.415	3148.91
199.49	3175.28
199.565	3185.96
199.64	3212.43
199.715	3210.71
199.79	3218.3
199.865	3228.31
199.94	3224.07
200.015	3258.18
200.09	3262.29
200.165	3270.44
200.24	3275.55
200.315	3324.02
200.39	3340
200.464	3349.12
200.539	3347.06
200.614	3366.91
200.689	3391.48
200.764	3397.79
200.839	3413.67
200.914	3418.82
200.989	3405.69
201.063	3421.49
201.138	3402.89
201.213	3401.7
201.288	3379.79
201.363	3385.71
201.438	3387.29
201.512	3402.64
201.587	3383.08
201.662	3388.99
201.737	3403.88
201.812	3414.58
201.886	3375.79
201.961	3386.29
202.036	3372.22
202.111	3373.03
202.186	3343.56
202.26	3326.57
202.335	3305.76
202.41	3302.9
202.485	3283.11
202.559	3262.74
202.634	3233.68
202.709	3248.7
202.784	3231.48
202.858	3234.49
202.933	3220.22
203.008	3216.64
203.082	3199.04
203.157	3201.91
203.232	3159.85
203.306	3141.91
203.381	3112.09
203.456	3093.25
203.53	3074.72
203.605	3064.47
203.68	3043.2
203.754	3047.72
203.829	3040.85
203.904	3031.13
203.978	3030.79
204.053	3052.25
204.127	3054.07
204.202	3067.47
204.277	3065.8
204.351	3081.16
204.426	3093.71
204.5	3101.29
204.575	3086.65
204.65	3125.16
204.724	3145.68
204.799	3180.73
204.873	3207.98
204.948	3234.79
205.022	3256.78
205.097	3284.91
205.171	3333.63
205.246	3387.25
205.32	3424.61
205.395	3470.64
205.469	3507.86
205.544	3562.31
205.618	3592.54
205.693	3659.07
205.767	3701.82
205.842	3780.71
205.916	3830.97
205.991	3880.14
206.065	3952.45
206.14	4035.09
206.214	4097.42
206.289	4159.69
206.363	4250.69
206.438	4324.61
206.512	4410.05
206.586	4512.43
206.661	4602.67
206.735	4663.43
206.81	4749.84
206.884	4854.37
206.958	4925.28
207.033	5040.63
207.107	5145.01
207.181	5279.38
207.256	5374.76
207.33	5499.47
207.405	5616.27
207.479	5741.37
207.553	5853.71
207.628	5946.35
207.702	6067.85
207.776	6168.18
207.851	6281.1
207.925	6409.15
207.999	6522.93
208.073	6637.96
208.148	6752.46
208.222	6860.88
208.296	7013.64
208.371	7155.34
208.445	7293.31
208.519	7446.26
208.593	7577.97
208.668	7690.96
208.742	7816.56
208.816	7937.82
208.89	8078.87
208.965	8197.81
209.039	8331.04
209.113	8481.44
209.187	8623.78
209.261	8744.32
209.336	8897.79
209.41	9046.33
209.484	9178.79
209.558	9329.58
209.632	9477.25
209.707	9625.13
209.781	9780.24
209.855	9925.41
209.929	10074.76
210.003	10207.71
210.077	10341.24
210.151	10515.8
210.226	10682.12
210.3	10838.25
210.374	10991.31
210.448	11125.23
210.522	11267.87
210.596	11403.44
210.67	11544.06
210.744	11724.89
210.818	11888.79
210.892	12037.29
210.966	12156.43
211.041	12296.79
211.115	12422.98
211.189	12562.09
211.263	12693.68
211.337	12815.54
211.411	12949.31
211.485	13061.05
211.559	13196.5
211.633	13315.96
211.707	13398
211.781	13528.74
211.855	13607.22
211.929	13719.39
212.003	13814.69
212.077	13941.52
212.151	14061.79
212.225	14174.5
212.299	14272.35
212.373	14365.44
212.447	14465.03
212.52	14606.41
212.594	14711.69
212.668	14830.51
212.742	14923.69
212.816	15022.31
212.89	15118.58
212.964	15223.03
213.038	15319.48
213.112	15422.82
213.186	15539.42
213.26	15626.14
213.333	15661.81
213.407	15764.14
213.481	15856.3
213.555	15961.04
213.629	16037.34
213.703	16118.36
213.777	16205.6
213.85	16277.32
213.924	16405.13
213.998	16498.06
214.072	16577.82
214.146	16653.44
214.219	16726.41
214.293	16809.45
214.367	16891.91
214.441	16989.02
214.515	17063.39
214.588	17122.47
214.662	17173.61
214.736	17225.42
214.81	17306.53
214.883	17406.1
214.957	17475.4
215.031	17543.02
215.105	17591.4
215.178	17655.31
215.252	17726.05
215.326	17779.59
215.4	17833.23
215.473	17851.74
215.547	17893.66
215.621	17943.4
215.694	18016.55
215.768	18064.79
215.842	18116.79
215.915	18175
215.989	18209.75
216.063	18254.42
216.136	18306.46
216.21	18363.33
216.284	18437.78
216.357	18497.1
216.431	18556.62
216.504	18620.23
216.578	18698.49
216.652	18763.07
216.725	18814.92
216.799	18878.48
216.873	18930.24
216.946	18989.08
217.02	19042.81
217.093	19092.73
217.167	19126.03
217.24	19152.87
217.314	19195.57
217.387	19233.01
217.461	19274.22
217.535	19336.53
217.608	19385.78
217.682	19439.17
217.755	19501.62
217.829	19534.92
217.902	19590.34
217.976	19630.34
218.049	19669.95
218.123	19696.7
218.196	19742.91
218.27	19789.51
218.343	19813.51
218.417	19860.31
218.49	19907.34
218.563	19957.75
218.637	20014.57
218.71	20088.83
218.784	20148.25
218.857	20214.32
218.931	20269.84
219.004	20320.05
219.077	20369.36
219.151	20407.91
219.224	20440.68
219.298	20480.44
219.371	20536.73
219.444	20566.47
219.518	20615.14
219.591	20656.83
219.665	20736.74
219.738	20782.81
219.811	20811.49
219.885	20866.91
219.958	20908.45
220.031	20941.47
220.105	20992.02
220.178	21033.81
220.251	21066.68
220.325	21106.2
220.398	21143.12
220.471	21192.19
220.544	21234.55
220.618	21270.03
220.691	21312.73
220.764	21360.78
220.838	21400.26
220.911	21435.06
220.984	21480.46
221.057	21525.72
221.131	21567.51
221.204	21558.3
221.277	21616.34
221.35	21678.32
221.424	21710.42
221.497	21756.84
221.57	21793.57
221.643	21835.12
221.716	21868.19
221.79	21883.42
221.863	21910.37
221.936	21933.65
222.009	21959.29
222.082	21989.18
222.155	22002.05
222.229	22038.44
222.302	22065.68
222.375	22092.14
222.448	22125.94
222.521	22152.5
222.594	22168.84
222.667	22170.91
222.74	22215.6
222.814	22229.15
222.887	22242.79
222.96	22275.28
223.033	22292.15
223.106	22310.81
223.179	22338.29
223.252	22363.79
223.325	22388.96
223.398	22406.55
223.471	22421.69
223.544	22442.76
223.617	22455.68
223.69	22479.49
223.763	22482.58
223.837	22506.3
223.91	22529.1
223.983	22522.3
224.056	22519.7
224.129	22527.56
224.202	22561.74
224.275	22560.63
224.348	22566.56
224.42	22574.13
224.493	22556.24
224.566	22563.04
224.639	22584.01
224.712	22581.45
224.785	22577.36
224.858	22577.16
224.931	22577.55
225.004	22580.2
225.077	22584.59
225.15	22568.29
225.223	22570.56
225.296	22610.53
225.369	22602.67
225.442	22590.66
225.514	22590.66
225.587	22596.26
225.66	22607.01
225.733	22605.75
225.806	22615.01
225.879	22603.83
225.952	22593.9
226.025	22612.99
226.097	22630.15
226.17	22628.56
226.243	22607.3
226.316	22615.35
226.389	22621.52
226.461	22628.42
226.534	22635.31
226.607	22624.32
226.68	22653.58
226.753	22652.86
226.825	22613.32
226.898	22620.7
226.971	22615.93
227.044	22628.75
227.117	22633.67
227.189	22637.33
227.262	22647.75
227.335	22646.25
227.407	22642.73
227.48	22636.8
227.553	22632.94
227.626	22621.57
227.698	22611.39
227.771	22605.42
227.844	22583.53
227.916	22576.78
227.989	22560.82
228.062	22540.77
228.134	22569.45
228.207	22552.87
228.28	22545.2
228.352	22544.04
228.425	22537.73
228.498	22546.89
228.57	22527.12
228.643	22538.45
228.716	22524.04
228.788	22502.1
228.861	22492.03
228.934	22504.17
229.006	22497.86
229.079	22482.53
229.151	22462.57
229.224	22435.77
229.296	22437.36
229.369	22457.41
229.442	22474.09
229.514	22453.85
229.587	22461.99
229.659	22426.66
229.732	22425.74
229.804	22424.73
229.877	22442.13
229.949	22451.29
230.022	22453.85
230.094	22444.64
230.167	22421.64
230.239	22397.06
230.312	22391.32
230.384	22404.82
230.457	22392.86
230.529	22387.8
230.602	22387.27
230.674	22376.76
230.747	22381.78
230.819	22381.63
230.892	22327.3
230.964	22297.85
231.037	22296.83
231.109	22284.93
231.181	22272.39
231.254	22233.97
231.326	22214.4
231.399	22193.48
231.471	22156.12
231.544	22120.15
231.616	22117.74
231.688	22112.01
231.761	22087.38
231.833	22068.38
231.905	22017.09
231.978	21991.06
232.05	21962.76
232.122	21945.75
232.195	21925.84
232.267	21932.64
232.339	21909.59
232.412	21921.07
232.484	21907.04
232.556	21879.27
232.629	21889.01
232.701	21883.32
232.773	21872.67
232.846	21849.92
232.918	21832.76
232.99	21827.02
233.062	21810.92
233.135	21791.79
233.207	21759.68
233.279	21753.47
233.351	21731.82
233.424	21709.03
233.496	21684.16
233.568	21692.64
233.64	21647.33
233.713	21624.24
233.785	21590.31
233.857	21573.82
233.929	21522.25
234.001	21518.49
234.074	21520.37
234.146	21466.34
234.218	21441.13
234.29	21416.5
234.362	21383.39
234.434	21335.19
234.507	21288.87
234.579	21239.71
234.651	21202.79
234.723	21179.75
234.795	21153.29
234.867	21124.81
234.939	21115.07
235.012	21094.2
235.084	21072.51
235.156	21057.23
235.228	21026.87
235.3	20988.31
235.372	20958.24
235.444	20949.8
235.516	20883.24
235.588	20848.69
235.66	20815.96
235.732	20776.2
235.804	20815.53
235.876	20800.21
235.948	20793.41
236.02	20769.65
236.092	20748.69
236.164	20730.95
236.236	20697.6
236.308	20657.89
236.38	20641.89
236.452	20602.66
236.524	20575
236.596	20556.25
236.668	20536.83
236.74	20507.05
236.812	20492.15
236.884	20468.15
236.956	20438.71
237.028	20402.08
237.1	20358.42
237.172	20354.37
237.244	20335.63
237.316	20256.73
237.388	20217.69
237.46	20168.78
237.532	20149.74
237.604	20116.49
237.675	20098.03
237.747	20075.05
237.819	20046.04
237.891	19999.53
237.963	19961.75
238.035	19914.67
238.107	19837.37
238.178	19814.48
238.25	19776.46
238.322	19757.37
238.394	19699.93
238.466	19660.94
238.538	19640.17
238.609	19615.64
238.681	19546.06
238.753	19498.11
238.825	19469.67
238.897	19432.57
238.968	19425.15
239.04	19379.7
239.112	19370.93
239.184	19317.78
239.255	19286.12
239.327	19257.35
239.399	19225.74
239.471	19202.12
239.542	19182.32
239.614	19166.17
239.686	19103.33
239.758	19085.65
239.829	19039.05
239.901	19024.45
239.973	18995.87
240.044	18966.48
240.116	18935.92
240.188	18913.66
240.259	18882.1
240.331	18835.3
240.403	18813.52
240.474	18753.67
240.546	18715.26
240.618	18665.14
240.689	18619.27
240.761	18583.7
240.833	18568.23
240.904	18534.41
240.976	18494.46
241.048	18464.87
241.119	18442.75
241.191	18420.39
241.262	18406.65
241.334	18366.61
241.405	18333.36
241.477	18291.24
241.549	18257.99
241.62	18226.66
241.692	18196.11
241.763	18179.34
241.835	18147.77
241.906	18108.35
241.978	18064.07
242.049	18034.43
242.121	18015.06
242.192	18001.13
242.264	17939.4
242.335	17879.16
242.407	17852.02
242.478	17811.06
242.55	17768.46
242.621	17714.63
242.693	17674.39
242.764	17625.91
242.836	17581.67
242.907	17551.79
242.979	17529.43
243.05	17500.66
243.122	17474.25
243.193	17439.98
243.264	17376.47
243.336	17342.15
243.407	17322.39
243.479	17307.26
243.55	17283.26
243.622	17248.75
243.693	17210.39
243.764	17201.86
243.836	17165.19
243.907	17126.92
243.978	17095.4
244.05	17073.28
244.121	17024.6
244.192	17000.6
244.264	16950.57
244.335	16920.89
244.407	16866.43
244.478	16825.22
244.549	16783.29
244.62	16732.35
244.692	16702.13
244.763	16678.71
244.834	16638.08
244.906	16592.05
244.977	16557.21
245.048	16537.11
245.119	16499.13
245.191	16458.64
245.262	16394.54
245.333	16382.01
245.405	16354.83
245.476	16324.9
245.547	16291.54
245.618	16274.05
245.689	16242
245.761	16218.48
245.832	16183.77
245.903	16162.04
245.974	16142.81
246.045	16111.62
246.117	16093.59
246.188	16040.09
246.259	16003.65
246.33	15968.23
246.401	15943.12
246.473	15898.63
246.544	15856.41
246.615	15825.37
246.686	15796.16
246.757	15791.82
246.828	15744.39
246.899	15721.35
246.97	15678.69
247.042	15633.87
247.113	15611.6
247.184	15597.38
247.255	15557.08
247.326	15525.17
247.397	15484.97
247.468	15449.21
247.539	15412.91
247.61	15363.75
247.681	15347.75
247.752	15330.15
247.823	15290
247.894	15255.78
247.965	15212.83
248.037	15175.66
248.108	15125.39
248.179	15088.56
248.25	15050.72
248.321	15033.37
248.392	14998.81
248.463	14992.73
248.534	14963.43
248.605	14940.24
248.675	14910.26
248.746	14889.72
248.817	14870.39
248.888	14846.53
248.959	14798.96
249.03	14779.05
249.101	14757.79
249.172	14726.36
249.243	14670.83
249.314	14665.19
249.385	14634.96
249.456	14621.37
249.527	14593.51
249.598	14586.33
249.669	14565.84
249.739	14541.93
249.81	14516.19
249.881	14461.91
249.952	14424.65
250.023	14400.59
250.094	14356.58
250.165	14317.73
250.235	14281.67
250.306	14257.28
250.377	14212.45
250.448	14190.37
250.519	14142.88
250.59	14130.69
250.66	14095.16
250.731	14094.73
250.802	14062.91
250.873	14041.7
250.944	14018.42
251.014	13989.49
251.085	13981.25
251.156	13954.11
251.227	13946.54
251.297	13931.4
251.368	13924.7
251.439	13920.32
251.51	13908.41
251.58	13871.15
251.651	13829.45
251.722	13826.22
251.792	13782.11
251.863	13759.11
251.934	13751.35
252.005	13769.43
252.075	13736.17
252.146	13725.66
252.217	13710.52
252.287	13695.1
252.358	13668.92
252.429	13662.12
252.499	13633.1
252.57	13614.11
252.641	13600.37
252.711	13579.83
252.782	13540.02
252.852	13542.76
252.923	13512.78
252.994	13488.58
253.064	13485.16
253.135	13461.54
253.205	13422.54
253.276	13418.54
253.347	13420.61
253.417	13392.79
253.488	13361.84
253.558	13345.41
253.629	13315.57
253.699	13294.02
253.77	13276.13
253.841	13249.19
253.911	13229.04
253.982	13212.98
254.052	13194.62
254.123	13178.56
254.193	13147.57
254.264	13165.07
254.334	13123.17
254.405	13091.98
254.475	13057.85
254.546	13030.86
254.616	13026.81
254.687	13018.71
254.757	13001.26
254.827	12968.24
254.898	12950.79
254.968	12919.26
255.039	12882.34
255.109	12876.46
255.18	12837.89
255.25	12789.78
255.321	12782.07
255.391	12745.29
255.461	12745.77
255.532	12690.33
255.602	12664.11
255.673	12622.03
255.743	12594.26
255.813	12551.65
255.884	12538.92
255.954	12528.95
256.024	12529.23
256.095	12511.78
256.165	12472.35
256.235	12453.22
256.306	12429.79
256.376	12424.58
256.446	12414.41
256.517	12406.22
256.587	12396.77
256.657	12388.53
256.728	12379.46
256.798	12359.56
256.868	12336.9
256.938	12307.59
257.009	12303.74
257.079	12292.46
257.149	12302.43
257.219	12256.21
257.29	12238.18
257.36	12198.46
257.43	12187.76
257.5	12144.28
257.571	12122.49
257.641	12114.78
257.711	12085.38
257.781	12074.97
257.852	12051.97
257.922	12010.09
257.992	11990.42
258.062	11958.61
258.132	11942.75
258.202	11920.72
258.273	11896.19
258.343	11901.92
258.413	11875.85
258.483	11851.89
258.553	11810.68
258.623	11781.28
258.693	11769.95
258.764	11774.29
258.834	11775.2
258.904	11753.56
258.974	11729.51
259.044	11703
259.114	11687.05
259.184	11674.95
259.254	11660.49
259.324	11622.85
259.394	11615.04
259.464	11605.45
259.535	11594.36
259.605	11577.69
259.675	11550.84
259.745	11545.64
259.815	11506.6
259.885	11476.52
259.955	11490.84
260.025	11466.12
260.095	11446.16
260.165	11428.09
260.235	11427.9
260.305	11402.64
260.375	11370.59
260.445	11378.5
260.515	11378.25
260.585	11377.24
260.655	11353.53
260.725	11339.65
260.795	11329.87
260.865	11331.84
260.934	11309.82
261.004	11294.88
261.074	11274.64
261.144	11278.64
261.214	11270.83
261.284	11258.68
261.354	11251.17
261.424	11221.48
261.494	11231.69
261.564	11221.23
261.634	11218.68
261.703	11176.08
261.773	11156.8
261.843	11153.04
261.913	11130.3
261.983	11099.6
262.053	11081.96
262.123	11074.44
262.192	11043.41
262.262	11036.23
262.332	11002.3
262.402	10993.43
262.472	10984.04
262.541	10942.02
262.611	10935.32
262.681	10905.73
262.751	10895.08
262.821	10880.87
262.89	10849.3
262.96	10837.74
263.03	10841.59
263.1	10824.92
263.169	10808.87
263.239	10808.29
263.309	10814.13
263.379	10803.38
263.448	10788.73
263.518	10779
263.588	10758.66
263.657	10770.9
263.727	10765.7
263.797	10757.07
263.867	10732.5
263.936	10699.3
264.006	10708.21
264.076	10687.93
264.145	10670.87
264.215	10643.74
264.285	10636.47
264.354	10606.35
264.424	10583.13
264.494	10548.2
264.563	10532.2
264.633	10544.92
264.702	10535.23
264.772	10498.42
264.842	10487.29
264.911	10480.69
264.981	10447.88
265.05	10430.72
265.12	10406.06
265.19	10396.8
265.259	10390.68
265.329	10390.54
265.398	10383.75
265.468	10395.5
265.537	10378.45
265.607	10374.55
265.676	10379.17
265.746	10375.46
265.815	10373.53
265.885	10362.74
265.955	10340.29
266.024	10320.88
266.094	10280.94
266.163	10279.98
266.232	10279.35
266.302	10257.04
266.371	10246.16
266.441	10232.52
266.51	10233.92
266.58	10212.92
266.649	10187.82
266.719	10186.13
266.788	10178.04
266.858	10179.87
266.927	10141.28
266.996	10135.93
267.066	10117.72
267.135	10087.66
267.205	10078.32
267.274	10070.61
267.343	10066.18
267.413	10053.41
267.482	10054.71
267.552	10063.43
267.621	10038.04
267.69	10008.85
267.76	10003.84
267.829	9992.28
267.898	9981.64
267.968	9957.74
268.037	9962.75
268.106	9964.92
268.176	9936.45
268.245	9923.35
268.314	9902.83
268.384	9901.82
268.453	9889.87
268.522	9884.91
268.592	9890.88
268.661	9870.41
268.73	9865.59
268.799	9849.46
268.869	9860.54
268.938	9830.91
269.007	9811.02
269.076	9793.54
269.146	9791.56
269.215	9778.32
269.284	9791.13
269.353	9783.95
269.422	9772.49
269.492	9752.36
269.561	9701.45
269.63	9694.18
269.699	9672.41
269.768	9664.8
269.838	9658.93
269.907	9653.87
269.976	9628.73
270.045	9592.76
270.114	9588.33
270.183	9569.74
270.253	9562.32
270.322	9524.37
270.391	9514.6
270.46	9512.91
270.529	9513.1
270.598	9509.73
270.667	9498.22
270.736	9473.9
270.806	9462.77
270.875	9467.97
270.944	9456.03
271.013	9491.28
271.082	9487.28
271.151	9485.12
271.22	9452.23
271.289	9438.22
271.358	9421.79
271.427	9418.95
271.496	9411.01
271.565	9389.63
271.634	9383.27
271.703	9412.61
271.772	9427.24
271.841	9417.33
271.91	9395.37
271.979	9389.97
272.048	9366.04
272.117	9364.98
272.186	9346.92
272.255	9345.67
272.324	9337.58
272.393	9332.91
272.462	9313.46
272.531	9302.09
272.6	9292.65
272.669	9308.06
272.738	9300.5
272.807	9301.27
272.876	9275.18
272.945	9310.62
273.013	9319.86
273.082	9324.97
273.151	9276.61
273.22	9269.49
273.289	9255.72
273.358	9265.54
273.427	9252.3
273.496	9256.15
273.564	9258.08
273.633	9260
273.702	9242.62
273.771	9236.7
273.84	9233.62
273.909	9222.21
273.977	9220.57
274.046	9206.99
274.115	9213.15
274.184	9193.61
274.253	9175.6
274.322	9194.28
274.39	9156.39
274.459	9140.21
274.528	9108.77
274.597	9094.86
274.665	9089.51
274.734	9103.19
274.803	9091.49
274.872	9086.72
274.94	9068.23
275.009	9091.49
275.078	9076.33
275.147	9081.53
275.215	9070.17
275.284	9072.38
275.353	9066.36
275.421	9041.67
275.49	9060.35
275.559	9045.85
275.627	9040.46
275.696	9034.88
275.765	9032.62
275.833	9023.33
275.902	9020.54
275.971	9029.68
276.039	9056.4
276.108	9057.12
276.177	9053.56
276.245	9045.81
276.314	9040.18
276.383	9054.81
276.451	9020.14
276.52	9022.74
276.588	9027.07
276.657	9040.31
276.725	9029.14
276.794	9033.23
276.863	9040.07
276.931	9014.07
277	9018.45
277.068	9024.76
277.137	9045.46
277.205	9039.73
277.274	9062.5
277.342	9075.07
277.411	9064.43
277.48	9045.22
277.548	9035.06
277.617	9032.03
277.685	9026.3
277.754	9031.69
277.822	9014.17
277.89	9024.33
277.959	9017.78
278.027	8995.88
278.096	8973.92
278.164	9006.38
278.233	8993.28
278.301	8990.68
278.37	8996.8
278.438	8979.32
278.507	8985.72
278.575	8958.91
278.643	8956.6
278.712	8930.85
278.78	8917.51
278.849	8926.32
278.917	8935.56
278.985	8930.84
279.054	8943.89
279.122	8953.04
279.191	8949.96
279.259	8946.2
279.327	8922.42
279.396	8930.99
279.464	8929.45
279.532	8940.9
279.601	8931.8
279.669	8933.78
279.737	8945.86
279.806	8947.64
279.874	8964.59
279.942	8958.95
280.011	8955.44
280.079	8963.77
280.147	8989.76
280.215	8988.03
280.284	8985.58
280.352	8967.38
280.42	8975.71
280.488	8956.21
280.557	8947.98
280.625	8952.02
280.693	8955
280.761	8954.76
280.83	8938.49
280.898	8949.8
280.966	8928.19
281.034	8887.32
281.102	8874.13
281.171	8868.79
281.239	8872.59
281.307	8855.65
281.375	8840.92
281.443	8867.3
281.512	8860.27
281.58	8865.37
281.648	8856.33
281.716	8849.15
281.784	8848.96
281.852	8838.85
281.92	8837.94
281.989	8850.02
282.057	8828.26
282.125	8873.86
282.193	8878.43
282.261	8881.71
282.329	8878.62
282.397	8885.22
282.465	8893.93
282.533	8898.16
282.601	8879.54
282.67	8861.2
282.738	8854.12
282.806	8873.33
282.874	8862.88
282.942	8867.4
283.01	8856.81
283.078	8857.63
283.146	8857.1
283.214	8866.15
283.282	8874.72
283.35	8888.87
283.418	8880.06
283.486	8885.69
283.554	8842.7
283.622	8840.92
283.69	8838.36
283.758	8837.59
283.826	8849.58
283.894	8858.58
283.962	8884.87
284.03	8902
284.098	8907.49
284.165	8903.06
284.233	8900.56
284.301	8889.2
284.369	8878.12
284.437	8869.89
284.505	8862
284.573	8878.8
284.641	8863.16
284.709	8868.98
284.777	8850.3
284.845	8858.78
284.912	8869.61
284.98	8872.4
285.048	8867.1
285.116	8872.4
285.184	8885.44
285.252	8879.14
285.319	8864.02
285.387	8854.39
285.455	8841.88
285.523	8848.81
285.591	8850.98
285.659	8846.4
285.726	8859.06
285.794	8845.54
285.862	8842.32
285.93	8848.14
285.997	8839.57
286.065	8838.8
286.133	8827.82
286.201	8823.54
286.269	8805.06
286.336	8788.21
286.404	8780.6
286.472	8786.77
286.539	8767.03
286.607	8744.02
286.675	8739.88
286.743	8749.7
286.81	8744.7
286.878	8754.37
286.946	8736.32
287.013	8733.19
287.081	8737.53
287.149	8716.2
287.216	8740.03
287.284	8737.62
287.352	8733.29
287.419	8730.21
287.487	8747.15
287.555	8754.18
287.622	8755.19
287.69	8764.24
287.758	8779.45
287.825	8779.84
287.893	8770.64
287.96	8778.44
288.028	8792.93
288.096	8800.58
288.163	8806.98
288.231	8792.93
288.298	8786.67
288.366	8808.14
288.433	8808.38
288.501	8796.68
288.569	8811.12
288.636	8803.03
288.704	8811.22
288.771	8826.76
288.839	8818.53
288.906	8810.49
288.974	8815.26
289.041	8810.88
289.109	8798.03
289.176	8805.97
289.244	8808.19
289.311	8820.51
289.379	8828.11
289.446	8836.2
289.514	8838.9
289.581	8832.11
289.649	8835.96
289.716	8838.7
289.783	8827.34
289.851	8844.14
289.918	8843.71
289.986	8854.68
290.053	8861.38
290.121	8865.71
290.188	8863.59
290.255	8893.68
290.323	8892.52
290.39	8886.36
290.458	8902.19
290.525	8919.47
290.592	8913.02
290.66	8911.87
290.727	8903.4
290.794	8914.47
290.862	8908.59
290.929	8911.58
290.996	8911.87
291.064	8921.83
291.131	8938.73
291.198	8950.23
291.266	8946.29
291.333	8953.17
291.4	8951.82
291.468	8965.06
291.535	8957.7
291.602	8961.93
291.669	8951.77
291.737	8949.46
291.804	8946.33
291.871	8949.7
291.938	8959.77
292.006	8990.25
292.073	9007.19
292.14	9022.45
292.207	9015.76
292.275	9016.58
292.342	9024.23
292.409	9049.07
292.476	9081.48
292.543	9070.36
292.611	9082.15
292.678	9097.94
292.745	9120.96
292.812	9127.7
292.879	9125
292.946	9133.28
293.014	9147.48
293.081	9160.39
293.148	9175.55
293.215	9193.99
293.282	9191.77
293.349	9193.8
293.416	9170.59
293.484	9185.95
293.551	9192.83
293.618	9219.17
293.685	9247.38
293.752	9235.69
293.819	9240.21
293.886	9218.4
293.953	9228.17
294.02	9231.3
294.087	9244.49
294.154	9241.08
294.221	9261.2
294.288	9261.93
294.356	9277.58
294.423	9279.69
294.49	9271.12
294.557	9285.13
294.624	9274.11
294.691	9298.66
294.758	9305.12
294.825	9314.46
294.892	9303.05
294.959	9306.56
295.026	9308.49
295.093	9299.91
295.16	9306.22
295.226	9308.39
295.293	9338.78
295.36	9349.13
295.427	9361.74
295.494	9375.57
295.561	9380.77
295.628	9403.45
295.695	9419.05
295.762	9417.95
295.829	9429.94
295.896	9448.96
295.963	9464.18
296.03	9476.26
296.096	9481.56
296.163	9489.5
296.23	9511.85
296.297	9520.61
296.364	9521.38
296.431	9527.88
296.498	9521.19
296.564	9547.43
296.631	9548.35
296.698	9529.81
296.765	9545.94
296.832	9535.73
296.899	9514.11
296.965	9532.75
297.032	9502.64
297.099	9529.18
297.166	9539.49
297.233	9537.22
297.299	9527.45
297.366	9524.13
297.433	9528.6
297.5	9537.71
297.566	9538.33
297.633	9529.08
297.7	9538.43
297.767	9534.96
297.833	9538.48
297.9	9542.14
297.967	9525.14
298.033	9534.96
298.1	9565.88
298.167	9555.29
298.234	9561.74
298.3	9580.47
298.367	9579.85
298.434	9598.53
298.5	9575.41
298.567	9572.52
298.634	9568.38
298.7	9588.37
298.767	9590.97
298.834	9608.16
298.9	9604.98
298.967	9598.39
299.033	9616.11
299.1	9633.69
299.167	9650.54
299.233	9652.76
299.3	9670
299.366	9690.18
299.433	9709.25
299.5	9682.14
299.566	9692.35
299.633	9707.37
299.699	9716.76
299.766	9707.52
299.832	9707.18
299.899	9723.51
299.965	9735.16
300.032	9732.47
300.099	9735.31
300.165	9745.38
300.232	9740.94
300.298	9738.44
300.365	9755.87
300.431	9752.84
300.498	9740.22
300.564	9749.71
300.631	9755.97
300.697	9768.35
300.763	9765.41
300.83	9759.63
300.896	9777.06
300.963	9791.32
301.029	9798.69
301.096	9802.02
301.162	9818.78
301.229	9821.43
301.295	9806.06
301.361	9808.66
301.428	9813.09
301.494	9804.04
301.561	9800.71
301.627	9803.84
301.693	9805.24
301.76	9805.19
301.826	9796.81
301.892	9811.89
301.959	9818.97
302.025	9813.62
302.092	9802.4
302.158	9809.62
302.224	9812.95
302.291	9803.22
302.357	9787.85
302.423	9780.39
302.49	9769.6
302.556	9779.04
302.622	9768.39
302.688	9782.17
302.755	9802.98
302.821	9818.1
302.887	9824.07
302.954	9828.7
303.02	9837.8
303.086	9847.19
303.152	9844.98
303.219	9841.22
303.285	9844.11
303.351	9850.04
303.417	9859.53
303.483	9861.16
303.55	9854.81
303.616	9856.88
303.682	9854.76
303.748	9850.91
303.815	9868.54
303.881	9882.41
303.947	9867.24
304.013	9872.24
304.079	9862.95
304.145	9837.9
304.212	9835.15
304.278	9830.05
304.344	9822.73
304.41	9807.17
304.476	9796
304.542	9793.49
304.608	9806.98
304.674	9789.59
304.741	9782.12
304.807	9781.98
304.873	9787.66
304.939	9805.48
305.005	9782.94
305.071	9783.38
305.137	9787.9
305.203	9757.08
305.269	9758.04
305.335	9771.72
305.401	9771.67
305.467	9773.89
305.533	9781.11
305.599	9788.14
305.666	9794.74
305.732	9792.91
305.798	9807.26
305.864	9835.01
305.93	9845.94
305.996	9836.98
306.062	9841.61
306.128	9836.84
306.194	9821.91
306.259	9816.66
306.325	9800.38
306.391	9809.29
306.457	9819.35
306.523	9819.5
306.589	9850.57
306.655	9833.42
306.721	9815.98
306.787	9802.55
306.853	9815.45
306.919	9794.84
306.985	9789.06
307.051	9784.87
307.117	9779.14
307.183	9771
307.248	9742.77
307.314	9748.89
307.38	9751.2
307.446	9756.74
307.512	9749.52
307.578	9750.53
307.644	9745.47
307.709	9754.57
307.775	9751.49
307.841	9746.05
307.907	9749.61
307.973	9723.36
308.039	9725.43
308.104	9734.78
308.17	9739.78
308.236	9720.37
308.302	9731.4
308.368	9719.65
308.433	9720.13
308.499	9719.55
308.565	9710.31
308.631	9712.86
308.696	9687.43
308.762	9679.14
308.828	9672.3
308.894	9649.86
308.959	9634.31
309.025	9625.35
309.091	9619.91
309.156	9609.27
309.222	9611
309.288	9600.79
309.354	9578.3
309.419	9579.46
309.485	9556.68
309.551	9554.46
309.616	9544.93
309.682	9536.98
309.748	9530.77
309.813	9522.15
309.879	9507.8
309.945	9494.8
310.01	9483.43
310.076	9483.38
310.141	9472.26
310.207	9463.49
310.273	9472.54
310.338	9477.79
310.404	9466.53
310.469	9447.6
310.535	9437.39
310.601	9407.68
310.666	9414.13
310.732	9424.44
310.797	9410.08
310.863	9406.91
310.928	9400.98
310.994	9404.69
311.059	9405.7
311.125	9401.66
311.191	9419.86
311.256	9411.1
311.322	9414.33
311.387	9395.4
311.453	9814.47
311.518	9791.64
311.584	9784.23
311.649	9791.84
311.715	9777.73
311.78	9779.42
311.846	9768.49
311.911	9782.79
311.976	9794.44
312.042	9775.23
312.107	9765.5
312.173	9755.82
312.238	9748.93
312.304	9749.13
312.369	9741.04
312.434	9730.01
312.5	9718.5
312.565	9679.06
312.631	9686.91
312.696	9685.71
312.761	9685.71
312.827	9257.35
312.892	9297.75
312.958	9297.03
313.023	9290.48
313.088	9295.05
313.154	9274.25
313.219	9261.98
313.284	9247.29
313.35	9238.33
313.415	9225.62
313.48	9220.76
313.546	9224.32
313.611	9234.68
313.676	9221.05
313.741	9206.94
313.807	9213.68
313.872	9219.94
313.937	9224.85
314.003	9233.33
314.068	9225.43
314.133	9241.27
314.198	9223.75
314.264	9201.16
314.329	9189.7
314.394	9188.59
314.459	9188.07
314.525	9216.04
314.59	9218.25
314.655	9207.37
314.72	9221.09
314.785	9225.72
314.851	9214.84
314.916	9197.31
314.981	9181.23
315.046	9175.69
315.111	9164.96
315.176	9149.26
315.242	9154.7
315.307	9155.52
315.372	9135.64
315.437	9133.33
315.502	9116.62
315.567	9127.45
315.632	9118.83
315.698	9118.78
315.763	9109.39
315.828	9094.52
315.893	9084.74
315.958	9084.6
316.023	9072.9
316.088	9048.01
316.153	9029.38
316.218	9017.87
316.283	8996.17
316.348	8979.03
316.413	8977.83
316.479	8965.17
316.544	8936.92
316.609	8906.78
316.674	8874.39
316.739	8838.39
316.804	8804.79
316.869	8775.24
316.934	8743.81
316.999	8706.46
317.064	8654.63
317.129	8608.61
317.194	8571.8
317.259	8523
317.324	8462.9
317.389	8421.96
317.454	8384.23
317.518	8346.79
317.583	8330.19
317.648	8312.92
317.713	8277.94
317.778	8214.57
317.843	8188.74
317.908	8144
317.973	8101.86
318.038	8069.63
318.103	8033.89
318.168	8004.12
318.233	7971.07
318.297	7916.67
318.362	7882.72
318.427	7852.28
318.492	7828.09
318.557	7779.28
318.622	7755.04
318.687	7744.56
318.751	7704.18
318.816	7668.31
318.881	7635.08
318.946	7578.97
319.011	7531.56
319.075	7491.71
319.14	7461.14
319.205	7413.78
319.27	7385.91
319.335	7340.2
319.399	7297.81
319.464	7266.42
319.529	7211.93
319.594	7173.09
319.658	7150.7
319.723	7106.35
319.788	7070.6
319.853	7014.19
319.917	6989.4
319.982	6932.89
320.047	6896.57
320.112	6869.14
320.176	6818.13
320.241	6781.96
320.306	6755.3
320.37	6717.98
320.435	6689.74
320.5	6659.96
320.564	6619.29
320.629	6575.35
320.694	6547.31
320.758	6509
320.823	6465.75
320.888	6441.5
320.952	6391.68
321.017	6348.52
321.082	6310.12
321.146	6280.26
321.211	6249.6
321.275	6209.24
321.34	6168.07
321.405	6116.53
321.469	6072.87
321.534	6035.45
321.598	5983.74
321.663	5952.5
321.727	5920.54
321.792	5867.01
321.857	5820.19
321.921	5790.45
321.986	5745.29
322.05	5683.97
322.115	5647.76
322.179	5606.73
322.244	5547.39
322.308	5521.3
322.373	5471.6
322.437	5429.61
322.502	5405.01
322.566	5356.84
322.631	5319.27
322.695	5277.97
322.76	5234.19
322.824	5198.64
322.889	5156.05
322.953	5114.01
323.018	5044.06
323.082	4977.69
323.146	4926.94
323.211	4873.6
323.275	4820.78
323.34	4775.99
323.404	4742.34
323.468	4693.94
323.533	4654.21
323.597	4608.34
323.662	4553.15
323.726	4519.61
323.79	4477.74
323.855	4404.75
323.919	4357.2
323.983	4316.34
324.048	4248.51
324.112	4409.06
324.177	4279.98
324.241	4057.91
324.305	3843.25
324.37	3631.65
324.434	3427.99
324.498	3384.14
324.562	3334.2
324.627	3273.46
324.691	3221.05
324.755	3155.31
324.82	3077.06
324.884	2993.37
324.948	2922.52
325.012	2820.7
325.077	2691.98
