Data from 20250703_urea_0.1M_MAYP1162681_01-41-05-561.txt Node
Date: Fri Jul 04 01:41:05 BST 2025
User: adleo
Spectrometer: MAYP116268
Trigger mode: 0
Integration Time (sec): 1.000000E0
Scans to average: 1
Electric dark correction enabled: true
Nonlinearity correction enabled: true
Boxcar width: 10
XAxis mode: Wavelengths
Number of Pixels in Spectrum: 2068
>>>>>Begin Spectral Data<<<<<
179.565	1337.71
179.642	1401.72
179.718	1449.74
179.795	1493.82
179.871	1527.7
179.948	1547.8
180.024	1572.11
180.101	1598.21
180.177	1613.89
180.254	1640.24
180.33	1665.22
180.407	1730.19
180.483	1836.33
180.56	1937.11
180.636	2030.79
180.712	2016.38
180.789	2025.08
180.865	2035.16
180.942	2043.86
181.018	2054.28
181.095	2072.64
181.171	2080.11
181.248	2079.21
181.324	2094.15
181.4	2103.47
181.477	2116.55
181.553	2128.92
181.63	2151.09
181.706	2168.03
181.782	2177.11
181.859	2177.54
181.935	2183.67
182.011	2175.87
182.088	2192.43
182.164	2214.52
182.24	2230.74
182.317	2240.44
182.393	2238.92
182.469	2256.81
182.546	2274.7
182.622	2280.51
182.698	2270.51
182.775	2281.51
182.851	2298.73
182.927	2291.55
183.003	2284.32
183.08	2278.32
183.156	2289.6
183.232	2284.6
183.308	2271.66
183.385	2281.55
183.461	2299.21
183.537	2298.83
183.613	2316.34
183.69	2308.2
183.766	2296.16
183.842	2300.73
183.918	2305.06
183.995	2322.38
184.071	2327.48
184.147	2320
184.223	2306.83
184.299	2324.63
184.375	2314.97
184.452	2323.11
184.528	2376.24
184.604	2388.18
184.68	2403.13
184.756	2409.93
184.832	2417.17
184.908	2421.59
184.985	2418.45
185.061	2397.75
185.137	2408.7
185.213	2396.18
185.289	2397.37
185.365	2387.52
185.441	2387.28
185.517	2401.85
185.593	2395
185.669	2389.71
185.745	2399.62
185.822	2418.5
185.898	2406.36
185.974	2414.45
186.05	2401.88
186.126	2366.42
186.202	2361.42
186.278	2356.04
186.354	2347.71
186.43	2354.52
186.506	2353.38
186.582	2355.23
186.658	2364.22
186.734	2343.38
186.81	2345.23
186.886	2347.71
186.962	2360.61
187.038	2358.23
187.114	2350.27
187.19	2357.46
187.266	2345.52
187.341	2346.71
187.417	2340.47
187.493	2342.38
187.569	2347.18
187.645	2344.61
187.721	2330.47
187.797	2337.52
187.873	2342.57
187.949	2334.86
188.025	2327.81
188.101	2331.66
188.176	2336.47
188.252	2330.38
188.328	2338.04
188.404	2338.66
188.48	2332
188.556	2326.57
188.632	2327.95
188.707	2328.62
188.783	2326.38
188.859	2321.34
188.935	2309.39
189.011	2317.67
189.086	2311.48
189.162	2301.77
189.238	2298.39
189.314	2298.25
189.39	2290.35
189.465	2281.64
189.541	2299.54
189.617	2282.93
189.693	2276.98
189.768	2280.5
189.844	2310.74
189.92	2302.6
189.996	2311.03
190.071	2322.83
190.147	2319.97
190.223	2325.73
190.298	2317.74
190.374	2304.27
190.45	2316.5
190.526	2326.3
190.601	2319.73
190.677	2322.02
190.753	2352.54
190.828	2354.92
190.904	2373.06
190.98	2389.06
191.055	2400.15
191.131	2389.53
191.207	2413.81
191.282	2424.56
191.358	2413.95
191.433	2397.09
191.509	2410.6
191.585	2410.13
191.66	2413.98
191.736	2422.31
191.811	2412.98
191.887	2428.69
191.963	2454.26
192.038	2459.97
192.114	2459.64
192.189	2462.26
192.265	2458.12
192.34	2434.78
192.416	2432.06
192.491	2422.16
192.567	2425.68
192.642	2426.87
192.718	2429.02
192.793	2413.68
192.869	2407.78
192.944	2410.3
193.02	2418.26
193.095	2425.35
193.171	2425.92
193.246	2424.97
193.322	2420.92
193.397	2424.73
193.473	2412.02
193.548	2394.16
193.624	2399.44
193.699	2395.54
193.775	2415.35
193.85	2414.78
193.925	2424.31
194.001	2426.11
194.076	2422.4
194.152	2409.69
194.227	2405.59
194.302	2396.98
194.378	2401.26
194.453	2398.65
194.529	2414.64
194.604	2398.46
194.679	2391.22
194.755	2376.42
194.83	2389.23
194.905	2391.18
194.981	2396.94
195.056	2389.23
195.131	2394.76
195.207	2394.23
195.282	2386.19
195.357	2363.14
195.433	2380.04
195.508	2367.14
195.583	2375.7
195.659	2391.56
195.734	2401.42
195.809	2399.32
195.884	2407.03
195.96	2407.27
196.035	2425.17
196.11	2417.74
196.185	2430.07
196.261	2432.73
196.336	2464.44
196.411	2450.11
196.486	2456.1
196.561	2451.96
196.637	2459.77
196.712	2475.39
196.787	2479.96
196.862	2496.86
196.937	2510.48
197.013	2516.15
197.088	2528.24
197.163	2550.82
197.238	2568.74
197.313	2568.22
197.388	2581.46
197.464	2614.85
197.539	2625.8
197.614	2620.19
197.689	2636.81
197.764	2657.39
197.839	2679.35
197.914	2672.49
197.989	2696.31
198.065	2708.46
198.14	2763.57
198.215	2793.68
198.29	2806.7
198.365	2821.66
198.44	2832.9
198.515	2862.93
198.59	2878.42
198.665	2906.21
198.74	2915.17
198.815	2914.84
198.89	2938.52
198.965	2972.57
199.04	2966.28
199.115	2985.15
199.19	3030.34
199.265	3033.15
199.34	3040.73
199.415	3077.18
199.49	3101.78
199.565	3112.18
199.64	3137.97
199.715	3130.38
199.79	3137.58
199.865	3145.74
199.94	3146.12
200.015	3178.51
200.09	3180.89
200.165	3189.28
200.24	3197.01
200.315	3242.42
200.39	3259.55
200.464	3267.23
200.539	3265.03
200.614	3286.3
200.689	3314.65
200.764	3318.56
200.839	3337.25
200.914	3346.56
200.989	3331.9
201.063	3344.78
201.138	3324.28
201.213	3325.38
201.288	3307.16
201.363	3312.17
201.438	3313.03
201.512	3326.62
201.587	3311.44
201.662	3317.07
201.737	3329.91
201.812	3336.07
201.886	3297.96
201.961	3306.55
202.036	3296.06
202.111	3294.53
202.186	3262.92
202.26	3242.25
202.335	3223.5
202.41	3217.35
202.485	3197.27
202.559	3181
202.634	3154.44
202.709	3168.4
202.784	3151.95
202.858	3158.24
202.933	3143.74
203.008	3137.69
203.082	3122.52
203.157	3128.39
203.232	3087.96
203.306	3070.41
203.381	3045.74
203.456	3028.91
203.53	3010.92
203.605	2997.09
203.68	2980.97
203.754	2984.31
203.829	2978.49
203.904	2966.28
203.978	2966.76
204.053	2985.26
204.127	2985.12
204.202	2999.81
204.277	2994.94
204.351	3006.01
204.426	3013.21
204.5	3023.66
204.575	3009.07
204.65	3043.09
204.724	3057.74
204.799	3091.39
204.873	3116.49
204.948	3143.3
205.022	3163.23
205.097	3190.49
205.171	3238.34
205.246	3285.65
205.32	3322.8
205.395	3357.31
205.469	3388.7
205.544	3442.62
205.618	3470.07
205.693	3529.37
205.767	3566.76
205.842	3646
205.916	3693.52
205.991	3740.86
206.065	3803.74
206.14	3883.77
206.214	3942.54
206.289	3999.53
206.363	4082.04
206.438	4152.77
206.512	4232.93
206.586	4328.24
206.661	4411.61
206.735	4470.15
206.81	4551.44
206.884	4651.21
206.958	4727.68
207.033	4833.53
207.107	4926.28
207.181	5051.93
207.256	5144.1
207.33	5257.78
207.405	5367.44
207.479	5490.58
207.553	5598.08
207.628	5680.13
207.702	5795.35
207.776	5885.84
207.851	5993.58
207.925	6114.51
207.999	6224.12
208.073	6328.22
208.148	6441.14
208.222	6539.52
208.296	6684.06
208.371	6813.59
208.445	6937.57
208.519	7084.22
208.593	7209.23
208.668	7315.45
208.742	7434.93
208.816	7549.23
208.89	7683.81
208.965	7792.56
209.039	7912.48
209.113	8048.92
209.187	8195.81
209.261	8311.07
209.336	8455.92
209.41	8600.57
209.484	8722.96
209.558	8868.42
209.632	8999.09
209.707	9130.85
209.781	9278.5
209.855	9417.51
209.929	9556.66
210.003	9681.19
210.077	9799.71
210.151	9978.03
210.226	10138.63
210.3	10284.95
210.374	10426.42
210.448	10549.47
210.522	10682.83
210.596	10819.04
210.67	10946.2
210.744	11109.02
210.818	11262.4
210.892	11406.1
210.966	11512.94
211.041	11650.2
211.115	11760.14
211.189	11903.61
211.263	12036.4
211.337	12152.51
211.411	12285.11
211.485	12391.16
211.559	12513.06
211.633	12623.87
211.707	12700.67
211.781	12814.96
211.855	12890.98
211.929	12996.11
212.003	13081.19
212.077	13196.98
212.151	13308.39
212.225	13422.87
212.299	13518.8
212.373	13603.89
212.447	13694.52
212.52	13824.72
212.594	13917.52
212.668	14025.35
212.742	14107.98
212.816	14198.51
212.89	14286.58
212.964	14368.19
213.038	14463.78
213.112	14580.34
213.186	14689.66
213.26	14760.72
213.333	14804.63
213.407	14899.74
213.481	14998.41
213.555	15101.67
213.629	15180.81
213.703	15253.5
213.777	15340.46
213.85	15402.35
213.924	15531.09
213.998	15623.2
214.072	15697.43
214.146	15772.77
214.219	15851.14
214.293	15930.24
214.367	16012.27
214.441	16107.56
214.515	16183.57
214.588	16233.6
214.662	16273.51
214.736	16327.87
214.81	16405.38
214.883	16499.56
214.957	16565.1
215.031	16620.48
215.105	16665.84
215.178	16715.77
215.252	16773.99
215.326	16818.91
215.4	16868.26
215.473	16883.73
215.547	16928.31
215.621	16987.06
215.694	17050.58
215.768	17090.05
215.842	17134.72
215.915	17183.5
215.989	17218.29
216.063	17262.24
216.136	17324.08
216.21	17390.63
216.284	17462.2
216.357	17520.32
216.431	17565.81
216.504	17620.56
216.578	17695.21
216.652	17770.15
216.725	17834.24
216.799	17903.88
216.873	17961.75
216.946	18038.57
217.02	18085.17
217.093	18139.77
217.167	18161.56
217.24	18193.46
217.314	18243.82
217.387	18293.55
217.461	18338.66
217.535	18400.15
217.608	18434.51
217.682	18483.37
217.755	18531.42
217.829	18566.98
217.902	18621.53
217.976	18673.14
218.049	18712.9
218.123	18742.01
218.196	18788.8
218.27	18832.07
218.343	18860.55
218.417	18905.52
218.49	18942.53
218.563	19006.47
218.637	19042.71
218.71	19113.89
218.784	19171.67
218.857	19229.78
218.931	19270.7
219.004	19312.82
219.077	19363.75
219.151	19416.33
219.224	19457.68
219.298	19500.08
219.371	19557.19
219.444	19585.96
219.518	19639.64
219.591	19693.08
219.665	19773.52
219.738	19817.13
219.811	19843.83
219.885	19897.51
219.958	19946.81
220.031	19977.31
220.105	20018.47
220.178	20073.84
220.251	20112.4
220.325	20160.59
220.398	20206.08
220.471	20266.08
220.544	20319.24
220.618	20338.85
220.691	20389.45
220.764	20428.34
220.838	20474.17
220.911	20509.16
220.984	20573.4
221.057	20613.55
221.131	20647.67
221.204	20648.25
221.277	20709.41
221.35	20783.53
221.424	20813.85
221.497	20856.35
221.57	20896.45
221.643	20939.59
221.716	20975.93
221.79	20998.92
221.863	21032.99
221.936	21069.23
222.009	21102.1
222.082	21128.03
222.155	21162.78
222.229	21199.41
222.302	21242.84
222.375	21269.2
222.448	21301.21
222.521	21326.17
222.594	21340.82
222.667	21351.43
222.74	21377.12
222.814	21389.36
222.887	21403.63
222.96	21436.59
223.033	21470.34
223.106	21499.64
223.179	21513.81
223.252	21535.6
223.325	21563.26
223.398	21579.03
223.471	21590.26
223.544	21616.72
223.617	21637.4
223.69	21667.57
223.763	21677.93
223.837	21700.35
223.91	21721.31
223.983	21717.22
224.056	21712.69
224.129	21737.37
224.202	21781.32
224.275	21796.7
224.348	21801.14
224.42	21797.47
224.493	21786.63
224.566	21784.17
224.639	21806.77
224.712	21816.32
224.785	21830.15
224.858	21835.36
224.931	21832.13
225.004	21835.75
225.077	21836.18
225.15	21824.18
225.223	21831.17
225.296	21868.82
225.369	21851.17
225.442	21846.06
225.514	21863.51
225.587	21884.82
225.66	21891.66
225.733	21899.38
225.806	21914.7
225.879	21917.02
225.952	21910.37
226.025	21942.23
226.097	21955.34
226.17	21957.27
226.243	21944.98
226.316	21936.49
226.389	21943
226.461	21963.78
226.534	21966.77
226.607	21969.08
226.68	22000.12
226.753	21993.23
226.825	21967.92
226.898	21991.54
226.971	21994.09
227.044	21994.34
227.117	21994.34
227.189	22009.38
227.262	22007.93
227.335	22020.37
227.407	22026.05
227.48	22045.72
227.553	22041.43
227.626	22031.11
227.698	22015.26
227.771	22029.52
227.844	22018.44
227.916	22021.28
227.989	22007.25
228.062	22001.47
228.134	22017.67
228.207	22003.45
228.28	21997.57
228.352	21990.91
228.425	21989.32
228.498	21999.78
228.57	21983.35
228.643	21991.49
228.716	21979.3
228.788	21974.28
228.861	21954.47
228.934	21954.08
229.006	21944.59
229.079	21937.21
229.151	21922.32
229.224	21917.21
229.296	21906.85
229.369	21937.12
229.442	21944.88
229.514	21929.99
229.587	21947.92
229.659	21917.55
229.732	21918.99
229.804	21923
229.877	21952.31
229.949	21954.33
230.022	21963.49
230.094	21969.9
230.167	21958.91
230.239	21941.07
230.312	21922.66
230.384	21937.27
230.457	21936.16
230.529	21927.82
230.602	21915.86
230.674	21921.36
230.747	21916.06
230.819	21920.15
230.892	21865.59
230.964	21857.35
231.037	21850.65
231.109	21831.65
231.181	21832.14
231.254	21810.16
231.326	21798.73
231.399	21766.39
231.471	21740.45
231.544	21700.83
231.616	21701.12
231.688	21693.6
231.761	21673.5
231.833	21658.32
231.905	21626.5
231.978	21609.54
232.05	21589.92
232.122	21583.22
232.195	21564.76
232.267	21570.06
232.339	21546.2
232.412	21556.61
232.484	21521.95
232.556	21503.11
232.629	21502.92
232.701	21489.42
232.773	21475.68
232.846	21451.83
232.918	21432.16
232.99	21415
233.062	21411.96
233.135	21395.53
233.207	21365.4
233.279	21355.52
233.351	21350.03
233.424	21319.81
233.496	21285.78
233.568	21290.99
233.64	21251.47
233.713	21237.73
233.785	21205.34
233.857	21182.16
233.929	21143.74
234.001	21151.79
234.074	21145.77
234.146	21104.42
234.218	21085.57
234.29	21060.89
234.362	21032.94
234.434	20995.2
234.507	20965.13
234.579	20924.45
234.651	20891.25
234.723	20877.17
234.795	20855.2
234.867	20818.62
234.939	20807.48
235.012	20789.12
235.084	20764.59
235.156	20754.95
235.228	20718.95
235.3	20690.13
235.372	20677.65
235.444	20672.73
235.516	20623.38
235.588	20603.96
235.66	20575.04
235.732	20539.52
235.804	20579.28
235.876	20570.18
235.948	20561.21
236.02	20537.74
236.092	20508.97
236.164	20480.68
236.236	20446.13
236.308	20411.86
236.38	20399.14
236.452	20363
236.524	20341.41
236.596	20334.08
236.668	20315.43
236.74	20288.35
236.812	20262.66
236.884	20237.7
236.956	20193.31
237.028	20151.63
237.1	20114.28
237.172	20108.16
237.244	20102.37
237.316	20021.75
237.388	19972.49
237.46	19927.87
237.532	19912.4
237.604	19875.25
237.675	19857.75
237.747	19832.36
237.819	19793.9
237.891	19757.23
237.963	19713.62
238.035	19670.82
238.107	19590.05
238.178	19563.12
238.25	19527.31
238.322	19522.64
238.394	19468.04
238.466	19445.34
238.538	19425.63
238.609	19400.67
238.681	19347.42
238.753	19295.18
238.825	19263.32
238.897	19237.3
238.968	19223.42
239.04	19177.69
239.112	19175.09
239.184	19131.72
239.255	19099.67
239.327	19071.53
239.399	19032.88
239.471	19016.64
239.542	18999.82
239.614	18990.81
239.686	18935.3
239.758	18914.14
239.829	18864.94
239.901	18848.31
239.973	18807.93
240.044	18779.26
240.116	18741.72
240.188	18707.79
240.259	18669.92
240.331	18632.42
240.403	18619.36
240.474	18575.95
240.546	18537.97
240.618	18476.38
240.689	18438.02
240.761	18400.68
240.833	18383.81
240.904	18353.26
240.976	18317.36
241.048	18281.5
241.119	18247.67
241.191	18226.9
241.262	18216.16
241.334	18176.83
241.405	18141.65
241.477	18105.13
241.549	18060.93
241.62	18024.5
241.692	17997.71
241.763	17985.18
241.835	17954.48
241.906	17907.73
241.978	17866
242.049	17842.68
242.121	17829.38
242.192	17806.05
242.264	17749.47
242.335	17701.43
242.407	17669.62
242.478	17632.41
242.55	17594.78
242.621	17558.29
242.693	17507.45
242.764	17455.6
242.836	17418.92
242.907	17391.21
242.979	17365.04
243.05	17342.78
243.122	17316.08
243.193	17273.14
243.264	17216.32
243.336	17175.26
243.407	17152.7
243.479	17133.19
243.55	17103.06
243.622	17072.12
243.693	17040.94
243.764	17034.68
243.836	16984.89
243.907	16947.2
243.978	16908.5
244.05	16883.25
244.121	16834.71
244.192	16818.76
244.264	16760.06
244.335	16730.47
244.407	16673.12
244.478	16640.2
244.549	16603.28
244.62	16559.95
244.692	16531.51
244.763	16502.26
244.834	16461.15
244.906	16417.67
244.977	16386.11
245.048	16366.25
245.119	16323.45
245.191	16286.53
245.262	16227.25
245.333	16217.22
245.405	16183.24
245.476	16161.7
245.547	16131.09
245.618	16105.93
245.689	16073.35
245.761	16058.84
245.832	16014.02
245.903	15998.21
245.974	15971.6
246.045	15933.24
246.117	15914.2
246.188	15857.76
246.259	15816.06
246.33	15789.7
246.401	15755.72
246.473	15708.38
246.544	15673.2
246.615	15645.77
246.686	15605.67
246.757	15588.75
246.828	15549.32
246.899	15543.59
246.97	15494.47
247.042	15446.94
247.113	15425.69
247.184	15414.21
247.255	15374.3
247.326	15350.06
247.397	15313.81
247.468	15289.61
247.539	15262.19
247.61	15218.18
247.681	15206.95
247.752	15192.63
247.823	15153.15
247.894	15132.18
247.965	15089.33
248.037	15049.23
248.108	15007.92
248.179	14975.19
248.25	14940.33
248.321	14918.26
248.392	14871.5
248.463	14868.9
248.534	14842.39
248.605	14826.58
248.675	14793.56
248.746	14775.14
248.817	14753.74
248.888	14724.38
248.959	14671.65
249.03	14649.23
249.101	14623.73
249.172	14595.39
249.243	14542.41
249.314	14531.85
249.385	14503.12
249.456	14482.73
249.527	14450.72
249.598	14427.3
249.669	14399.24
249.739	14379.24
249.81	14347.23
249.881	14298.92
249.952	14269.71
250.023	14242.72
250.094	14187.81
250.165	14143.46
250.235	14108.32
250.306	14087.35
250.377	14054.43
250.448	14032.54
250.519	13986.07
250.59	13972.24
250.66	13938.59
250.731	13932.71
250.802	13900.17
250.873	13874.04
250.944	13853.21
251.014	13818.94
251.085	13821.01
251.156	13805.34
251.227	13792.09
251.297	13784.38
251.368	13777.14
251.439	13757.57
251.51	13747.64
251.58	13718.28
251.651	13686.27
251.722	13676.49
251.792	13628.76
251.863	13602.35
251.934	13592.9
252.005	13599.45
252.075	13566.34
252.146	13559.25
252.217	13547.49
252.287	13537.51
252.358	13509.02
252.429	13503.14
252.499	13475.66
252.57	13453.92
252.641	13437.48
252.711	13410.1
252.782	13373.12
252.852	13374.72
252.923	13351.91
252.994	13329.06
253.064	13318.36
253.135	13292.52
253.205	13259.02
253.276	13257.38
253.347	13254.97
253.417	13226.58
253.488	13196.16
253.558	13179.67
253.629	13153.74
253.699	13136.43
253.77	13117.97
253.841	13093
253.911	13075.16
253.982	13053.28
254.052	13031.39
254.123	13013.26
254.193	12995.48
254.264	13008.73
254.334	12972.05
254.405	12938.69
254.475	12912.18
254.546	12895.74
254.616	12893.38
254.687	12880.36
254.757	12860.45
254.827	12830.76
254.898	12814.08
254.968	12787.03
255.039	12755.27
255.109	12744.32
255.18	12711.45
255.25	12665.41
255.321	12655.39
255.391	12617.59
255.461	12626.99
255.532	12580.33
255.602	12548.61
255.673	12508.65
255.743	12475.44
255.813	12427.62
255.884	12418.12
255.954	12399.13
256.024	12390.5
256.095	12362.83
256.165	12327.79
256.235	12315.88
256.306	12290.09
256.376	12275.97
256.446	12273.66
256.517	12262.67
256.587	12246.76
256.657	12232.97
256.728	12218.71
256.798	12196.87
256.868	12175.95
256.938	12146.3
257.009	12139.41
257.079	12132.42
257.149	12147.37
257.219	12108.22
257.29	12097.86
257.36	12052.79
257.43	12041.13
257.5	12004.59
257.571	11985.7
257.641	11969.84
257.711	11931.91
257.781	11923.57
257.852	11912.48
257.922	11875.51
257.992	11851.84
258.062	11830.78
258.132	11821.14
258.202	11803.02
258.273	11787.4
258.343	11790.39
258.413	11761.86
258.483	11749.08
258.553	11715.01
258.623	11680.2
258.693	11667.82
258.764	11666.66
258.834	11673.26
258.904	11658.61
258.974	11627.86
259.044	11602.7
259.114	11594.61
259.184	11582.61
259.254	11564.77
259.324	11524.53
259.394	11511.32
259.464	11513.39
259.535	11493.2
259.605	11464.81
259.675	11439.99
259.745	11427.61
259.815	11393.29
259.885	11371.36
259.955	11378.4
260.025	11353.58
260.095	11333.58
260.165	11319.26
260.235	11319.12
260.305	11292.61
260.375	11263.17
260.445	11272.8
260.515	11276.03
260.585	11274.54
260.655	11262.73
260.725	11250.54
260.795	11243.12
260.865	11239.12
260.934	11213.96
261.004	11203.89
261.074	11190.2
261.144	11196.51
261.214	11185.57
261.284	11169.91
261.354	11166.1
261.424	11129.67
261.494	11140.7
261.564	11121.47
261.634	11114.49
261.703	11076.42
261.773	11070.39
261.843	11058.3
261.913	11035.65
261.983	10995.51
262.053	10974.59
262.123	10951.31
262.192	10918.69
262.262	10914.89
262.332	10883.13
262.402	10872.91
262.472	10855.57
262.541	10816.83
262.611	10804.49
262.681	10777.21
262.751	10768.83
262.821	10745.8
262.89	10717.61
262.96	10702.77
263.03	10712.93
263.1	10699.58
263.169	10686.82
263.239	10673.28
263.309	10676.17
263.379	10669.47
263.448	10663.4
263.518	10653.42
263.588	10638.01
263.657	10650.05
263.727	10637.72
263.797	10629.48
263.867	10612.37
263.936	10582.98
264.006	10581.78
264.076	10565.2
264.145	10550.6
264.215	10531.33
264.285	10531.43
264.354	10504.88
264.424	10481.46
264.494	10450.29
264.563	10423.88
264.633	10431.69
264.702	10418.06
264.772	10387.99
264.842	10371.08
264.911	10358.5
264.981	10336.34
265.05	10322.56
265.12	10304.06
265.19	10294.91
265.259	10286.91
265.329	10278.43
265.398	10275.49
265.468	10289.85
265.537	10264.7
265.607	10260.17
265.676	10259.98
265.746	10245.67
265.815	10241.24
265.885	10229.15
265.955	10206.12
266.024	10195.18
266.094	10158.91
266.163	10166.28
266.232	10166.38
266.302	10159.68
266.371	10151.01
266.441	10136.94
266.51	10137.91
266.58	10116.52
266.649	10095.51
266.719	10095.71
266.788	10088.29
266.858	10087.32
266.927	10048.06
266.996	10040.07
267.066	10029.23
267.135	9994.45
267.205	9991.08
267.274	9986.26
267.343	9986.41
267.413	9968.54
267.482	9972.54
267.552	9975.09
267.621	9942.09
267.69	9911.21
267.76	9891.8
267.829	9883.66
267.898	9871.72
267.968	9848.64
268.037	9852.06
268.106	9851.87
268.176	9823.84
268.245	9808.76
268.314	9788.39
268.384	9785.78
268.453	9775.04
268.522	9765.89
268.592	9767.63
268.661	9743.21
268.73	9737.04
268.799	9710.89
268.869	9728.13
268.938	9693.74
269.007	9670.77
269.076	9659.5
269.146	9659.74
269.215	9650.88
269.284	9658.97
269.353	9644.09
269.422	9631.13
269.492	9611.58
269.561	9564.87
269.63	9560.97
269.699	9546.66
269.768	9540.45
269.838	9538.33
269.907	9541.51
269.976	9516.61
270.045	9486.66
270.114	9485.84
270.183	9468.75
270.253	9464.9
270.322	9429.12
270.391	9416.79
270.46	9428.4
270.529	9426.85
270.598	9424.98
270.667	9410.05
270.736	9386.98
270.806	9379.8
270.875	9380.96
270.944	9360.3
271.013	9389.53
271.082	9376.43
271.151	9374.8
271.22	9344.03
271.289	9327.32
271.358	9312.87
271.427	9311.04
271.496	9302.43
271.565	9291.64
271.634	9284.61
271.703	9290.15
271.772	9299.15
271.841	9294.1
271.91	9261.59
271.979	9256.54
272.048	9227.55
272.117	9229
272.186	9216.91
272.255	9213.15
272.324	9213.88
272.393	9216.04
272.462	9196.68
272.531	9194.18
272.6	9180.89
272.669	9192.44
272.738	9186.86
272.807	9175.59
272.876	9152.34
272.945	9178.63
273.013	9178.63
273.082	9178.29
273.151	9154.31
273.22	9149.84
273.289	9143.05
273.358	9159.47
273.427	9144.3
273.496	9150.85
273.564	9144.44
273.633	9143
273.702	9123.84
273.771	9104.53
273.84	9094.13
273.909	9084.07
273.977	9075.4
274.046	9057.35
274.115	9061.44
274.184	9043.83
274.253	9044.07
274.322	9060.19
274.39	9030.97
274.459	9011.95
274.528	8989.81
274.597	8976.76
274.665	8966.51
274.734	8972.77
274.803	8955.29
274.872	8943.98
274.94	8927.03
275.009	8990.9
275.078	8971.74
275.147	8968.66
275.215	8969.04
275.284	8977.47
275.353	8974.87
275.421	8956.38
275.49	8980.89
275.559	8969.43
275.627	8964.47
275.696	8947.48
275.765	8940.02
275.833	8933.71
275.902	8934.05
275.971	8941.42
276.039	8967.6
276.108	8976.46
276.177	8975.02
276.245	8968.28
276.314	8967.46
276.383	8974.54
276.451	8904.6
276.52	8908.36
276.588	8925.5
276.657	8930.55
276.725	8924.82
276.794	8922.37
276.863	8931.32
276.931	8901.47
277	8908.6
277.068	8915.96
277.137	8942.1
277.205	8939.31
277.274	8957.84
277.342	8971.13
277.411	8951.78
277.48	8927.23
277.548	8906.38
277.617	8902.53
277.685	8894.3
277.754	8899.93
277.822	8892.43
277.89	8914
277.959	8908.7
278.027	8887.67
278.096	8874.72
278.164	8900.76
278.233	8895.13
278.301	8885.17
278.37	8894.46
278.438	8878.67
278.507	8879.39
278.575	8844.68
278.643	8841.36
278.712	8822.93
278.78	8805.26
278.849	8815.9
278.917	8833.03
278.985	8840.35
279.054	8848.05
279.122	8859.41
279.191	8852.62
279.259	8842.18
279.327	8812.67
279.396	8828.89
279.464	8825.14
279.532	8834.38
279.601	8827.83
279.669	8823.4
279.737	8837.41
279.806	8841.31
279.874	8853.87
279.942	8849.64
280.011	8852.96
280.079	8853.29
280.147	8866.1
280.215	8867.11
280.284	8863.55
280.352	8852.28
280.42	8848.86
280.488	8833.22
280.557	8829.99
280.625	8835.24
280.693	8838.75
280.761	8840.82
280.83	8819.84
280.898	8832.93
280.966	8810.21
281.034	8775.89
281.102	8758.46
281.171	8744.79
281.239	8749.9
281.307	8735.84
281.375	8728.09
281.443	8750
281.512	8752.74
281.58	8764.68
281.648	8748.27
281.716	8743.02
281.784	8737.68
281.852	8739.89
281.92	8737.63
281.989	8744.9
282.057	8727.62
282.125	8770.03
282.193	8767.19
282.261	8772.05
282.329	8767.34
282.397	8773.74
282.465	8778.31
282.533	8793.61
282.601	8790
282.67	8762.28
282.738	8752.41
282.806	8764.01
282.874	8750.48
282.942	8751.88
283.01	8740.04
283.078	8752.36
283.146	8756.45
283.214	8763.52
283.282	8758.57
283.35	8772.67
283.418	8765.88
283.486	8770.65
283.554	8726.6
283.622	8724.82
283.69	8720.63
283.758	8717.07
283.826	8725.73
283.894	8729.77
283.962	8751.44
284.03	8767.61
284.098	8772.23
284.165	8767.08
284.233	8764.34
284.301	8753.51
284.369	8746
284.437	8735.02
284.505	8729.78
284.573	8740.85
284.641	8730.4
284.709	8741.33
284.777	8720.82
284.845	8728.09
284.912	8734.54
284.98	8743.11
285.048	8739.88
285.116	8747.73
285.184	8762.36
285.252	8755.67
285.319	8743.16
285.387	8732.62
285.455	8713.32
285.523	8721.79
285.591	8726.6
285.659	8726.84
285.726	8740.75
285.794	8729.05
285.862	8727.13
285.93	8730.98
285.997	8729.92
286.065	8718.23
286.133	8706
286.201	8708.94
286.269	8689.15
286.336	8681.31
286.404	8674.14
286.472	8683.23
286.539	8660.9
286.607	8644.54
286.675	8645.84
286.743	8657.92
286.81	8650.17
286.878	8661.67
286.946	8650.22
287.013	8646.61
287.081	8649.93
287.149	8634.82
287.216	8649.4
287.284	8652.53
287.352	8653.73
287.419	8644.44
287.487	8667.25
287.555	8676.4
287.622	8675.97
287.69	8687.13
287.758	8698.15
287.825	8695.36
287.893	8678.37
287.96	8684.44
288.028	8690.69
288.096	8696.52
288.163	8696.52
288.231	8686.8
288.298	8685.78
288.366	8701.09
288.433	8702.15
288.501	8691.27
288.569	8699.93
288.636	8697.96
288.704	8709.13
288.771	8714.86
288.839	8705.57
288.906	8695.22
288.974	8702.83
289.041	8696.95
289.109	8682.32
289.176	8692.72
289.244	8697
289.311	8715.92
289.379	8730.89
289.446	8732.14
289.514	8733.92
289.581	8729.54
289.649	8729.64
289.716	8733.68
289.783	8725.35
289.851	8742.82
289.918	8745.66
289.986	8749.32
290.053	8751.1
290.121	8744.7
290.188	8742.39
290.255	8776.08
290.323	8771.08
290.39	8763.85
290.458	8770.01
290.525	8788.16
290.592	8776.8
290.66	8778.34
290.727	8767.03
290.794	8777.14
290.862	8777.81
290.929	8777.04
290.996	8783.87
291.064	8799.42
291.131	8809.43
291.198	8822.72
291.266	8817.52
291.333	8818.48
291.4	8825.22
291.468	8848.33
291.535	8845.63
291.602	8849.68
291.669	8840.19
291.737	8849.53
291.804	8851.7
291.871	8869.65
291.938	8878.51
292.006	8912.45
292.073	8926.94
292.14	8941.38
292.207	8935.22
292.275	8937.39
292.342	8949.71
292.409	8971.52
292.476	8991.69
292.543	8987.65
292.611	8988.32
292.678	9011.77
292.745	9037.71
292.812	9051.87
292.879	9040.89
292.946	9044.45
293.014	9059.52
293.081	9068.96
293.148	9082.63
293.215	9097.79
293.282	9090.52
293.349	9101.12
293.416	9074.87
293.484	9086
293.551	9092.01
293.618	9109.3
293.685	9137.27
293.752	9129.37
293.819	9127.98
293.886	9112.52
293.953	9120.23
294.02	9130.19
294.087	9136.98
294.154	9131.78
294.221	9143.05
294.288	9144.45
294.356	9174.87
294.423	9179.59
294.49	9169.05
294.557	9183.69
294.624	9166.79
294.691	9190.67
294.758	9188.55
294.825	9202.37
294.892	9192.54
294.959	9195.58
295.026	9200.01
295.093	9192.06
295.16	9186.43
295.226	9189.13
295.293	9221.19
295.36	9223.17
295.427	9233.86
295.494	9241.27
295.561	9249.17
295.628	9272
295.695	9286.16
295.762	9282.54
295.829	9298.68
295.896	9323.28
295.963	9331.27
296.03	9348.22
296.096	9352.07
296.163	9363.97
296.23	9380
296.297	9393.72
296.364	9392.66
296.431	9401.62
296.498	9399.07
296.564	9431.47
296.631	9428.63
296.698	9412.11
296.765	9433.11
296.832	9426.41
296.899	9413.89
296.965	9429.16
297.032	9406.96
297.099	9430.41
297.166	9435.8
297.233	9427.71
297.299	9414.95
297.366	9416.4
297.433	9415.82
297.5	9432.97
297.566	9431.09
297.633	9426.22
297.7	9431.18
297.767	9431.09
297.833	9434.17
297.9	9433.54
297.967	9419
298.033	9439.56
298.1	9467.74
298.167	9456.47
298.234	9459.12
298.3	9475.87
298.367	9471.93
298.434	9482.47
298.5	9469.71
298.567	9465.42
298.634	9462.1
298.7	9478.28
298.767	9476.3
298.834	9497.2
298.9	9484.25
298.967	9482.32
299.033	9493.54
299.1	9512.9
299.167	9530.14
299.233	9533.13
299.3	9550.46
299.366	9566.26
299.433	9576.28
299.5	9552.87
299.566	9558.65
299.633	9580.8
299.699	9586.87
299.766	9584.7
299.832	9586.53
299.899	9591.5
299.965	9604.64
300.032	9604.5
300.099	9616.1
300.165	9624.77
300.232	9617.4
300.298	9620.15
300.365	9634.6
300.431	9636.24
300.498	9632.43
300.564	9643.27
300.631	9647.31
300.697	9663.11
300.763	9666.53
300.83	9664.89
300.896	9676.35
300.963	9690.56
301.029	9692.15
301.096	9693.69
301.162	9707.75
301.229	9710.6
301.295	9701.64
301.361	9706.26
301.428	9706.5
301.494	9691.09
301.561	9696.05
301.627	9702.12
301.693	9707.47
301.76	9707.27
301.826	9702.12
301.892	9707.66
301.959	9713.2
302.025	9714.98
302.092	9708.24
302.158	9712.09
302.224	9711.9
302.291	9711.56
302.357	9705.35
302.423	9696.05
302.49	9688.3
302.556	9700.68
302.622	9690.03
302.688	9704.53
302.755	9721.68
302.821	9733.76
302.887	9745.08
302.954	9740.36
303.02	9748.02
303.086	9751.58
303.152	9751.1
303.219	9747.06
303.285	9756.79
303.351	9758.86
303.417	9759.58
303.483	9740.37
303.55	9731.84
303.616	9733.19
303.682	9732.37
303.748	9726.74
303.815	9746.73
303.881	9758.77
303.947	9742.58
304.013	9747.78
304.079	9735.07
304.145	9706.84
304.212	9707.23
304.278	9700.49
304.344	9695.72
304.41	9678.91
304.476	9671.3
304.542	9667.83
304.608	9678.53
304.674	9658.92
304.741	9657.52
304.807	9661.09
304.873	9677.22
304.939	9696.78
305.005	9672.98
305.071	9665.04
305.137	9667.06
305.203	9635.47
305.269	9635.42
305.335	9653.48
305.401	9650.83
305.467	9652.71
305.533	9665.18
305.599	9672.79
305.666	9680.45
305.732	9678.43
305.798	9696.3
305.864	9719.75
305.93	9726.4
305.996	9723.03
306.062	9720.09
306.128	9716.24
306.194	9698.66
306.259	9698.85
306.325	9692.16
306.391	9713.73
306.457	9730.83
306.523	9735.11
306.589	9766.18
306.655	9755.34
306.721	9726.73
306.787	9713.92
306.853	9730.78
306.919	9714.7
306.985	9702.46
307.051	9695.58
307.117	9695.24
307.183	9686.52
307.248	9659.98
307.314	9660.94
307.38	9661.72
307.446	9672.26
307.512	9657.96
307.578	9663.79
307.644	9660.32
307.709	9656.42
307.775	9647.12
307.841	9637.1
307.907	9635.9
307.973	9609.46
308.039	9601.66
308.104	9608.2
308.17	9609.31
308.236	9595.73
308.302	9598.04
308.368	9589.81
308.433	9592.79
308.499	9585.42
308.565	9575.6
308.631	9578.39
308.696	9553.45
308.762	9543
308.828	9537.55
308.894	9525.18
308.959	9507.02
309.025	9493.11
309.091	9490.12
309.156	9481.45
309.222	9485.5
309.288	9471.58
309.354	9454.29
309.419	9460.07
309.485	9455.4
309.551	9466.86
309.616	9449.82
309.682	9444.76
309.748	9447.6
309.813	9438.74
309.879	9431.95
309.945	9417.89
310.01	9409.22
310.076	9415.39
310.141	9412.11
310.207	9397.33
310.273	9397.71
310.338	9402.62
310.404	9386.11
310.469	9374.17
310.535	9364.05
310.601	9336.36
310.666	9342.62
310.732	9356.78
310.797	9342.67
310.863	9321.29
310.928	9310.12
310.994	9310.89
311.059	9309.74
311.125	9293.08
311.191	9303.72
311.256	9292.6
311.322	9301.22
311.387	9284.84
311.453	9593.15
311.518	9565.42
311.584	9564.55
311.649	9573.89
311.715	9557.38
311.78	9561.76
311.846	9545.68
311.911	9557.62
311.976	9562.68
312.042	9552.47
312.107	9534.99
312.173	9523.48
312.238	9524.54
312.304	9517.37
312.369	9515.3
312.434	9506
312.5	9504.08
312.565	9472.25
312.631	9475.53
312.696	9465.9
312.761	9467.15
312.827	9145.41
312.892	9185.42
312.958	9179.83
313.023	9172.75
313.088	9179.25
313.154	9169.67
313.219	9170.64
313.284	9155.04
313.35	9151.28
313.415	9139.92
313.48	9131.06
313.546	9131.11
313.611	9141.56
313.676	9135.73
313.741	9115.41
313.807	9120.18
313.872	9117.97
313.937	9127.69
314.003	9140.59
314.068	9141.65
314.133	9142.14
314.198	9136.07
314.264	9116.28
314.329	9100.68
314.394	9099.96
314.459	9094.71
314.525	9112.47
314.59	9106.74
314.655	9095.91
314.72	9103.09
314.785	9100.82
314.851	9100.05
314.916	9089.7
314.981	9069.87
315.046	9057.35
315.111	9050.76
315.176	9037.76
315.242	9040.5
315.307	9033.71
315.372	9007.14
315.437	8995.63
315.502	8989.18
315.567	8996.16
315.632	8971.9
315.698	8982.3
315.763	8975.32
315.828	8969.3
315.893	8964.87
315.958	8960.73
316.023	8950.19
316.088	8929.1
316.153	8906.19
316.218	8898.87
316.283	8880.97
316.348	8866.82
316.413	8865.38
316.479	8853.01
316.544	8821.77
316.609	8793.71
316.674	8754.68
316.739	8726.77
316.804	8693.47
316.869	8663.39
316.934	8627.72
316.999	8605.63
317.064	8552.46
317.129	8506.78
317.194	8468.77
317.259	8418.19
317.324	8368.77
317.389	8323.65
317.454	8282.02
317.518	8253.83
317.583	8225.49
317.648	8200.43
317.713	8162.85
317.778	8108.49
317.843	8080.49
317.908	8043.41
317.973	8003.91
318.038	7982.03
318.103	7945.19
318.168	7921.33
318.233	7890.31
318.297	7844.28
318.362	7803.31
318.427	7763.6
318.492	7737.38
318.557	7688.25
318.622	7666.32
318.687	7644.49
318.751	7608.58
318.816	7574.06
318.881	7538.78
318.946	7486.32
319.011	7443.49
319.075	7407.3
319.14	7368.51
319.205	7324.43
319.27	7289.4
319.335	7245.62
319.399	7199.82
319.464	7175.02
319.529	7120.77
319.594	7077.85
319.658	7048.83
319.723	7006.6
319.788	6979.5
319.853	6925.31
319.917	6896.68
319.982	6839.65
320.047	6801.74
320.112	6775.95
320.176	6729.08
320.241	6697.09
320.306	6668.99
320.37	6632.64
320.435	6606.46
320.5	6582.74
320.564	6550.66
320.629	6510.1
320.694	6481.1
320.758	6444.76
320.823	6396.37
320.888	6371.03
320.952	6320.06
321.017	6275.94
321.082	6242.01
321.146	6207.94
321.211	6178.86
321.275	6138.89
321.34	6094.42
321.405	6048.84
321.469	6001.34
321.534	5962.49
321.598	5911.64
321.663	5880.02
321.727	5847.45
321.792	5795.83
321.857	5746.96
321.921	5702.45
321.986	5662.61
322.05	5605.8
322.115	5569.17
322.179	5524.89
322.244	5466.51
322.308	5443.59
322.373	5395.38
322.437	5350.14
322.502	5325.21
322.566	5275.13
322.631	5241.21
322.695	5200.83
322.76	5158.19
322.824	5124.71
322.889	5086.44
322.953	5038.17
323.018	4972.41
323.082	4905.76
323.146	4849.75
323.211	4803.35
323.275	4765.52
323.34	4718.96
323.404	4686.13
323.468	4638.21
323.533	4594.67
323.597	4548.47
323.662	4488.7
323.726	4454.35
323.79	4410.91
323.855	4343.96
323.919	4300.77
323.983	4254.18
324.048	4189.61
324.112	4359.59
324.177	4228.93
324.241	4008.1
324.305	3798.32
324.37	3589.11
324.434	3390
324.498	3348.98
324.562	3294.77
324.627	3227.06
324.691	3171.59
324.755	3103.47
324.82	3027.95
324.884	2953.4
324.948	2883.2
325.012	2791.77
325.077	2668.56
