Data from 20250703_urea_0.1M_MAYP1162681_09-51-05-181.txt Node
Date: Fri Jul 04 09:51:05 BST 2025
User: adleo
Spectrometer: MAYP116268
Trigger mode: 0
Integration Time (sec): 1.000000E0
Scans to average: 1
Electric dark correction enabled: true
Nonlinearity correction enabled: true
Boxcar width: 10
XAxis mode: Wavelengths
Number of Pixels in Spectrum: 2068
>>>>>Begin Spectral Data<<<<<
179.565	1214.27
179.642	1268.6
179.718	1315.95
179.795	1352.9
179.871	1384.86
179.948	1404.16
180.024	1423.82
180.101	1447.01
180.177	1463.51
180.254	1486.84
180.33	1509.28
180.407	1563.26
180.483	1659.37
180.56	1748.74
180.636	1834.81
180.712	1825.73
180.789	1835.62
180.865	1847.55
180.942	1852.49
181.018	1863.61
181.095	1878.69
181.171	1885.01
181.248	1887.15
181.324	1901.03
181.4	1906.41
181.477	1917.63
181.553	1930.03
181.63	1951.81
181.706	1970.88
181.782	1976.49
181.859	1974.73
181.935	1980.29
182.011	1975.3
182.088	1991.47
182.164	2011.45
182.24	2023.95
182.317	2034.7
182.393	2029.13
182.469	2042.21
182.546	2058.86
182.622	2063.14
182.698	2058
182.775	2069.08
182.851	2083.44
182.927	2076.31
183.003	2073.6
183.08	2069.03
183.156	2077.97
183.232	2073.88
183.308	2057.81
183.385	2067.27
183.461	2088.63
183.537	2088.96
183.613	2103.89
183.69	2093.67
183.766	2083.53
183.842	2090.48
183.918	2093.81
183.995	2111.88
184.071	2116.97
184.147	2107.7
184.223	2095.95
184.299	2108.75
184.375	2098.57
184.452	2106.47
184.528	2157.57
184.604	2171.94
184.68	2183.4
184.756	2192.73
184.832	2199.72
184.908	2205.57
184.985	2204.81
185.061	2185.3
185.137	2194.11
185.213	2180.83
185.289	2182.36
185.365	2173.37
185.441	2172.85
185.517	2183.6
185.593	2177.27
185.669	2172.85
185.745	2185.31
185.822	2201.24
185.898	2192.87
185.974	2198.81
186.05	2189.96
186.126	2152.04
186.202	2141.05
186.278	2138.05
186.354	2127.3
186.43	2132.68
186.506	2130.44
186.582	2129.82
186.658	2134.96
186.734	2114.41
186.81	2120.17
186.886	2125.4
186.962	2139.95
187.038	2137.91
187.114	2131.72
187.19	2141.05
187.266	2132.68
187.341	2134.15
187.417	2128.11
187.493	2127.49
187.569	2133.06
187.645	2126.68
187.721	2116.17
187.797	2124.87
187.873	2126.58
187.949	2122.02
188.025	2114.59
188.101	2119.3
188.176	2124.72
188.252	2123.25
188.328	2132.62
188.404	2130.62
188.48	2126.05
188.556	2117.4
188.632	2115.73
188.707	2116.87
188.783	2112.3
188.859	2107.79
188.935	2095.89
189.011	2103.27
189.086	2097.51
189.162	2090.23
189.238	2088.33
189.314	2087.29
189.39	2081.29
189.465	2074.11
189.541	2090.24
189.617	2076.92
189.693	2072.02
189.768	2076.11
189.844	2099.72
189.92	2091.3
189.996	2101.53
190.071	2114.52
190.147	2115.61
190.223	2122.37
190.298	2116.56
190.374	2104.81
190.45	2117.94
190.526	2128.31
190.601	2122.46
190.677	2124.65
190.753	2152.11
190.828	2153.44
190.904	2166.95
190.98	2183.89
191.055	2197.5
191.131	2187.03
191.207	2204.96
191.282	2213.05
191.358	2203.77
191.433	2188.78
191.509	2203.42
191.585	2198.19
191.66	2196.38
191.736	2204.9
191.811	2196.33
191.887	2212.52
191.963	2233.36
192.038	2236.11
192.114	2235.88
192.189	2239.78
192.265	2234.83
192.34	2213.08
192.416	2213.84
192.491	2211.98
192.567	2213.89
192.642	2213.55
192.718	2215.03
192.793	2203.89
192.869	2198.33
192.944	2200.61
193.02	2207.32
193.095	2209.65
193.171	2215.08
193.246	2217.69
193.322	2213.94
193.397	2215.6
193.473	2197.28
193.548	2179.81
193.624	2185.72
193.699	2185.57
193.775	2201.04
193.85	2202.09
193.925	2209.75
194.001	2211.56
194.076	2203.18
194.152	2190.71
194.227	2182.48
194.302	2171.21
194.378	2174.97
194.453	2174.16
194.529	2186.58
194.604	2173.64
194.679	2168.45
194.755	2150.76
194.83	2162.61
194.905	2162.04
194.981	2171.32
195.056	2167.42
195.131	2176.41
195.207	2175.46
195.282	2163.76
195.357	2145.2
195.433	2163.23
195.508	2153.14
195.583	2158.9
195.659	2173.22
195.734	2184.26
195.809	2184.36
195.884	2193.39
195.96	2197.77
196.035	2212.95
196.11	2205.14
196.185	2217.04
196.261	2219.84
196.336	2252.48
196.411	2236.77
196.486	2242.1
196.561	2235.01
196.637	2245.24
196.712	2263.14
196.787	2267
196.862	2283.36
196.937	2295.4
197.013	2298.02
197.088	2306.96
197.163	2329.39
197.238	2345.11
197.313	2346.15
197.388	2364.72
197.464	2396.95
197.539	2404.14
197.614	2398.9
197.689	2416.85
197.764	2436.32
197.839	2457.41
197.914	2450.32
197.989	2475.98
198.065	2491.03
198.14	2541.53
198.215	2566.29
198.29	2573.67
198.365	2586.05
198.44	2594.67
198.515	2620.44
198.59	2637.25
198.665	2665.07
198.74	2674.17
198.815	2675.36
198.89	2695.18
198.965	2719.91
199.04	2713.19
199.115	2729.91
199.19	2772.3
199.265	2770.4
199.34	2779.36
199.415	2811.73
199.49	2833.12
199.565	2838.6
199.64	2860.52
199.715	2857.51
199.79	2867.62
199.865	2875.1
199.94	2875.72
200.015	2906.84
200.09	2912.23
200.165	2922.19
200.24	2928.91
200.315	2968.8
200.39	2983.77
200.464	2990.35
200.539	2993.45
200.614	3011.75
200.689	3036.55
200.764	3043.56
200.839	3066.38
200.914	3071.82
200.989	3062.8
201.063	3078.87
201.138	3063.15
201.213	3064.77
201.288	3048.27
201.363	3053.33
201.438	3055.76
201.512	3070.2
201.587	3057.47
201.662	3059.71
201.737	3070.77
201.812	3075.97
201.886	3042.99
201.961	3054.25
202.036	3043.72
202.111	3042.57
202.186	3015.99
202.26	2998.77
202.335	2976.6
202.41	2967.26
202.485	2949.53
202.559	2933.18
202.634	2906.19
202.709	2915.58
202.784	2896.32
202.858	2897.7
202.933	2877.97
203.008	2874.59
203.082	2854.38
203.157	2854.29
203.232	2819.75
203.306	2800.39
203.381	2777.13
203.456	2757.45
203.53	2740.85
203.605	2725.04
203.68	2711.12
203.754	2710.92
203.829	2700.11
203.904	2689.63
203.978	2691.68
204.053	2706.35
204.127	2701.68
204.202	2713.6
204.277	2709.31
204.351	2718.79
204.426	2725.27
204.5	2733.14
204.575	2712.03
204.65	2744.35
204.724	2756.84
204.799	2782.33
204.873	2799.25
204.948	2818.12
205.022	2828.65
205.097	2843.87
205.171	2886
205.246	2917.24
205.32	2943.83
205.395	2977.44
205.469	3000.22
205.544	3033.04
205.618	3048.4
205.693	3096.53
205.767	3117.51
205.842	3179.59
205.916	3211.7
205.991	3245.05
206.065	3295.49
206.14	3358.4
206.214	3399.57
206.289	3439.63
206.363	3500.01
206.438	3555.75
206.512	3618.32
206.586	3695.58
206.661	3757.85
206.735	3791.8
206.81	3850.93
206.884	3929.33
206.958	3980.84
207.033	4060.73
207.107	4135.24
207.181	4232.9
207.256	4292.58
207.33	4383.15
207.405	4461.56
207.479	4552.61
207.553	4632.08
207.628	4689.1
207.702	4772.28
207.776	4842.52
207.851	4923.62
207.925	5016.93
207.999	5091.18
208.073	5165.28
208.148	5250.49
208.222	5319.49
208.296	5435.24
208.371	5529.56
208.445	5622.48
208.519	5737.21
208.593	5834.51
208.668	5916.06
208.742	6005.04
208.816	6095.31
208.89	6196.39
208.965	6280.21
209.039	6374.74
209.113	6476.65
209.187	6584.24
209.261	6668.78
209.336	6779.62
209.41	6888.95
209.484	6980.14
209.558	7093.77
209.632	7201.25
209.707	7295
209.781	7415.01
209.855	7521.69
209.929	7633.54
210.003	7728.55
210.077	7811.16
210.151	7947.49
210.226	8075.4
210.3	8192.37
210.374	8302.5
210.448	8400.8
210.522	8502.71
210.596	8608.53
210.67	8711.23
210.744	8849.17
210.818	8972.02
210.892	9085.16
210.966	9168.33
211.041	9276.18
211.115	9354.36
211.189	9461.73
211.263	9572.24
211.337	9658.39
211.411	9751.14
211.485	9830.95
211.559	9925.59
211.633	10018.72
211.707	10074.13
211.781	10164.94
211.855	10208.59
211.929	10291.63
212.003	10346.5
212.077	10440.02
212.151	10527.51
212.225	10618.29
212.299	10685.56
212.373	10751.38
212.447	10819.52
212.52	10926.54
212.594	11006.25
212.668	11101.08
212.742	11172.41
212.816	11241.18
212.89	11318.86
212.964	11395.49
213.038	11481.81
213.112	11575.51
213.186	11664.24
213.26	11719.9
213.333	11752.92
213.407	11831.38
213.481	11903.53
213.555	12001.13
213.629	12068.18
213.703	12130.21
213.777	12199.48
213.85	12257.81
213.924	12371.23
213.998	12441.27
214.072	12508.76
214.146	12559.51
214.219	12627.82
214.293	12687.16
214.367	12760.29
214.441	12835
214.515	12894.83
214.588	12929.3
214.662	12962.32
214.736	13005.12
214.81	13078.49
214.883	13149.93
214.957	13214.38
215.031	13264.18
215.105	13291.7
215.178	13325.01
215.252	13370.81
215.326	13407.83
215.4	13445.24
215.473	13450.4
215.547	13487.23
215.621	13531.68
215.694	13597
215.768	13626.98
215.842	13668.44
215.915	13707.48
215.989	13735.54
216.063	13777
216.136	13831.86
216.21	13880.79
216.284	13942.78
216.357	13988.53
216.431	14030.8
216.504	14088.84
216.578	14173.93
216.652	14245.42
216.725	14300.61
216.799	14362.51
216.873	14411.63
216.946	14471.31
217.02	14515.9
217.093	14566.13
217.167	14588.59
217.24	14618.52
217.314	14664.85
217.387	14709.29
217.461	14747.52
217.535	14807.1
217.608	14846.72
217.682	14898.25
217.755	14954.7
217.829	14993.55
217.902	15044.02
217.976	15096.66
218.049	15122.98
218.123	15143.85
218.196	15187.09
218.27	15237.75
218.343	15278.33
218.417	15328.41
218.49	15375.36
218.563	15437.64
218.637	15492.11
218.71	15564.17
218.784	15620.61
218.857	15687.9
218.931	15745.98
219.004	15795.24
219.077	15854.52
219.151	15910.63
219.224	15957
219.298	16008.28
219.371	16067.85
219.444	16103.86
219.518	16143.48
219.591	16205.17
219.665	16286.62
219.738	16345.09
219.811	16375.5
219.885	16424.52
219.958	16481.73
220.031	16520.91
220.105	16583.9
220.178	16624.68
220.251	16667.96
220.325	16724.68
220.398	16767.29
220.471	16813.07
220.544	16867.73
220.618	16902.96
220.691	16955.2
220.764	17002.38
220.838	17049.76
220.911	17092.02
220.984	17155.88
221.057	17215.84
221.131	17265.57
221.204	17273.14
221.277	17335.26
221.35	17421.52
221.424	17464.99
221.497	17502.1
221.57	17553.24
221.643	17594.49
221.716	17659.98
221.79	17695.74
221.863	17736.94
221.936	17775.98
222.009	17819.64
222.082	17870.77
222.155	17907.78
222.229	17967.97
222.302	18018.14
222.375	18049.8
222.448	18090.28
222.521	18127.97
222.594	18160.83
222.667	18181.89
222.74	18229.84
222.814	18254.71
222.887	18279
222.96	18316.3
223.033	18366.17
223.106	18409.01
223.179	18447.33
223.252	18472.1
223.325	18503.52
223.398	18531.66
223.471	18561.73
223.544	18600.57
223.617	18629.82
223.69	18665.82
223.763	18671.41
223.837	18698.44
223.91	18738.88
223.983	18752.61
224.056	18767.26
224.129	18794.15
224.202	18833.04
224.275	18860.6
224.348	18879.78
224.42	18892.6
224.493	18901.42
224.566	18910.05
224.639	18927.49
224.712	18934.67
224.785	18954.72
224.858	18981.22
224.931	18987.34
225.004	19015.29
225.077	19029.8
225.15	19021.51
225.223	19038.47
225.296	19091.09
225.369	19098.76
225.442	19111.86
225.514	19139.77
225.587	19163.43
225.66	19187.18
225.733	19211.95
225.806	19229.88
225.879	19247.76
225.952	19256.67
226.025	19293.88
226.097	19337.54
226.17	19358.74
226.243	19365.29
226.316	19381.73
226.389	19398.11
226.461	19439.27
226.534	19453.1
226.607	19479.84
226.68	19524.9
226.753	19543.55
226.825	19526.83
226.898	19549.91
226.971	19558.2
227.044	19583.74
227.117	19608.32
227.189	19630.72
227.262	19659.54
227.335	19676.89
227.407	19682
227.48	19703.2
227.553	19720.89
227.626	19720.12
227.698	19727.49
227.771	19741.37
227.844	19743.97
227.916	19759.59
227.989	19756.16
228.062	19761.47
228.134	19786.04
228.207	19795.05
228.28	19788.79
228.352	19805.08
228.425	19821.99
228.498	19850.47
228.57	19851.58
228.643	19867.29
228.716	19876.64
228.788	19866.86
228.861	19868.64
228.934	19893.22
229.006	19893.07
229.079	19894.38
229.151	19901.6
229.224	19896.26
229.296	19912.16
229.369	19939.48
229.442	19956.93
229.514	19955.19
229.587	19967.19
229.659	19946.18
229.732	19954.23
229.804	19982.61
229.877	20005.84
229.949	20008.49
230.022	20031.48
230.094	20033.07
230.167	20037.46
230.239	20025.26
230.312	20032.25
230.384	20050.37
230.457	20048.78
230.529	20055.05
230.602	20059.09
230.674	20065.45
230.747	20088.44
230.819	20106.08
230.892	20076.35
230.964	20073.74
231.037	20077.07
231.109	20085.12
231.181	20093.41
231.254	20073.55
231.326	20061.6
231.399	20053.74
231.471	20049.45
231.544	20014.37
231.616	20013.74
231.688	20013.55
231.761	19999.58
231.833	19990.71
231.905	19967.72
231.978	19967
232.05	19970.37
232.122	19968.98
232.195	19954.13
232.267	19960.69
232.339	19947.96
232.412	19966.32
232.484	19959.34
232.556	19946.23
232.629	19956.88
232.701	19957.55
232.773	19961.22
232.846	19954.9
232.918	19950.61
232.99	19942.47
233.062	19945.17
233.135	19948.16
233.207	19918.37
233.279	19929.75
233.351	19927.92
233.424	19916.59
233.496	19897.46
233.568	19908.16
233.64	19884.3
233.713	19877.17
233.785	19857.32
233.857	19847.68
233.929	19814.38
234.001	19820.31
234.074	19829.13
234.146	19787.78
234.218	19770.19
234.29	19751.1
234.362	19728.41
234.434	19699.78
234.507	19674.48
234.579	19642.29
234.651	19615.88
234.723	19617.09
234.795	19608.17
234.867	19585.52
234.939	19581.33
235.012	19570.68
235.084	19547.89
235.156	19543.84
235.228	19515.26
235.3	19493.87
235.372	19478.69
235.444	19487.17
235.516	19446.64
235.588	19425.24
235.66	19413.82
235.732	19392.09
235.804	19426.21
235.876	19419.99
235.948	19413.2
236.02	19399.99
236.092	19384.67
236.164	19365.97
236.236	19340.77
236.308	19308
236.38	19288.38
236.452	19260.34
236.524	19238.7
236.596	19237.3
236.668	19221.3
236.74	19195.28
236.812	19175.43
236.884	19149.65
236.956	19111.91
237.028	19074.23
237.1	19043.58
237.172	19045.17
237.244	19035.15
237.316	18971.29
237.388	18931.63
237.46	18893.28
237.532	18881.95
237.604	18845.37
237.675	18836.85
237.747	18813.23
237.819	18771.26
237.891	18754.01
237.963	18724.71
238.035	18699.46
238.107	18636.66
238.178	18615.17
238.25	18595.22
238.322	18588.09
238.394	18551.32
238.466	18527.03
238.538	18515.18
238.609	18492.48
238.681	18434.17
238.753	18397.5
238.825	18379.38
238.897	18359.48
238.968	18356.34
239.04	18327.91
239.112	18329.4
239.184	18290.13
239.255	18267.29
239.327	18256.59
239.399	18218.18
239.471	18197.41
239.542	18169.03
239.614	18154.91
239.686	18099.87
239.758	18079.29
239.829	18028.94
239.901	18002.53
239.973	17969.08
240.044	17932.65
240.116	17909.32
240.188	17878.77
240.259	17845.81
240.331	17808.22
240.403	17779.35
240.474	17725.67
240.546	17675.21
240.618	17631.11
240.689	17588.18
240.761	17552.56
240.833	17530.54
240.904	17506.15
240.976	17480.18
241.048	17449.67
241.119	17422.39
241.191	17401.48
241.262	17389.82
241.334	17361.43
241.405	17335.36
241.477	17302.59
241.549	17275.74
241.62	17232.61
241.692	17208.56
241.763	17195.45
241.835	17162.92
241.906	17133.19
241.978	17090.29
242.049	17077.47
242.121	17052.46
242.192	17043.74
242.264	16999.35
242.335	16949.76
242.407	16916.21
242.478	16875.44
242.55	16854.09
242.621	16812.06
242.693	16777.89
242.764	16735.67
242.836	16704.11
242.907	16669.79
242.979	16647.24
243.05	16614.13
243.122	16592.48
243.193	16561.98
243.264	16496.09
243.336	16463.8
243.407	16447.99
243.479	16433.73
243.55	16405.05
243.622	16378.44
243.693	16344.85
243.764	16337.28
243.836	16299.16
243.907	16271.01
243.978	16235.39
244.05	16205.13
244.121	16165.26
244.192	16138.18
244.264	16091.14
244.335	16064.05
244.407	16023.03
244.478	15989.87
244.549	15961.77
244.62	15923.69
244.692	15891.5
244.763	15875.59
244.834	15837.8
244.906	15796.64
244.977	15771.43
245.048	15752.54
245.119	15710.41
245.191	15662.5
245.262	15607.07
245.333	15597.86
245.405	15561.04
245.476	15542.05
245.547	15500.5
245.618	15479.14
245.689	15451.96
245.761	15422.75
245.832	15388.91
245.903	15366.93
245.974	15344.81
246.045	15300.65
246.117	15277.9
246.188	15227.09
246.259	15185.78
246.33	15154.45
246.401	15119.65
246.473	15072.94
246.544	15023.1
246.615	15005.07
246.686	14975.04
246.757	14958.51
246.828	14911.08
246.899	14903.07
246.97	14852.22
247.042	14825.23
247.113	14799.44
247.184	14785.07
247.255	14747.09
247.326	14722.79
247.397	14695.51
247.468	14662.83
247.539	14644.56
247.61	14605.27
247.681	14596.21
247.752	14586.18
247.823	14548.77
247.894	14526.07
247.965	14484.71
248.037	14450.53
248.108	14401.02
248.179	14370.08
248.25	14338.65
248.321	14324.67
248.392	14282.78
248.463	14274.97
248.534	14242.77
248.605	14215.24
248.675	14188.34
248.746	14174.6
248.817	14143.99
248.888	14118.83
248.959	14070.09
249.03	14048.98
249.101	14024.78
249.172	13989.64
249.243	13933.43
249.314	13924.13
249.385	13892.45
249.456	13880.16
249.527	13856.3
249.598	13840.82
249.669	13814.31
249.739	13797.25
249.81	13768.66
249.881	13727.01
249.952	13706.28
250.023	13671.57
250.094	13632.67
250.165	13591.93
250.235	13559.97
250.306	13534.09
250.377	13489.59
250.448	13472.53
250.519	13427.36
250.59	13418.39
250.66	13387.44
250.731	13384.12
250.802	13353.6
250.873	13339.67
250.944	13319.42
251.014	13290.16
251.085	13288.43
251.156	13269.24
251.227	13254.25
251.297	13245.38
251.368	13235.83
251.439	13215.34
251.51	13206.47
251.58	13178.03
251.651	13148.24
251.722	13133.97
251.792	13090.15
251.863	13066.15
251.934	13059.3
252.005	13059.3
252.075	13032.02
252.146	13025.89
252.217	13008.44
252.287	12994.75
252.358	12966.46
252.429	12959.13
252.499	12934.11
252.57	12913.72
252.641	12903.98
252.711	12877.76
252.782	12838.81
252.852	12840.01
252.923	12814.17
252.994	12800.15
253.064	12791.76
253.135	12756.76
253.205	12730.59
253.276	12733.24
253.347	12738.25
253.417	12706.68
253.488	12682.38
253.558	12658.23
253.629	12634.85
253.699	12624.78
253.77	12604.38
253.841	12573
253.911	12546.06
253.982	12526.44
254.052	12507.88
254.123	12486.81
254.193	12461.89
254.264	12483.1
254.334	12443.43
254.405	12414.56
254.475	12373.44
254.546	12353.92
254.616	12352.08
254.687	12335.31
254.757	12313.18
254.827	12284.31
254.898	12271.15
254.968	12251.05
255.039	12220.25
255.109	12206.94
255.18	12172.82
255.25	12135.12
255.321	12127.7
255.391	12098.73
255.461	12100.18
255.532	12052.31
255.602	12025.03
255.673	11988.54
255.743	11959.86
255.813	11915.08
255.884	11903.85
255.954	11896.82
256.024	11886.02
256.095	11869.05
256.165	11839.46
256.235	11830.06
256.306	11808.75
256.376	11795.98
256.446	11783.54
256.517	11781.13
256.587	11771.83
256.657	11751.68
256.728	11734.82
256.798	11713.8
256.868	11691.97
256.938	11661.22
257.009	11654.42
257.079	11642.08
257.149	11652.83
257.219	11608.78
257.29	11598.7
257.36	11564.82
257.43	11555.71
257.5	11517.11
257.571	11495.61
257.641	11480.96
257.711	11448.14
257.781	11427.9
257.852	11414.79
257.922	11374.16
257.992	11344.42
258.062	11320.37
258.132	11316.42
258.202	11299.36
258.273	11287.69
258.343	11290.44
258.413	11269.19
258.483	11252.9
258.553	11222.39
258.623	11183.69
258.693	11174.29
258.764	11173.62
258.834	11167.74
258.904	11148.51
258.974	11125.43
259.044	11106.78
259.114	11101.09
259.184	11081
259.254	11066.78
259.324	11026.16
259.394	11013.96
259.464	11018.16
259.535	10993.19
259.605	10964.23
259.675	10940.09
259.745	10924.04
259.815	10887.56
259.885	10862.36
259.955	10874.51
260.025	10855.52
260.095	10849.35
260.165	10829.11
260.235	10830.08
260.305	10807.91
260.375	10781.55
260.445	10790.85
260.515	10784.44
260.585	10774.42
260.655	10764.88
260.725	10757.56
260.795	10752.69
260.865	10762.62
260.934	10731.1
261.004	10729.08
261.074	10715.3
261.144	10715.1
261.214	10707.06
261.284	10690.82
261.354	10689.08
261.424	10656.27
261.494	10657.23
261.564	10639.64
261.634	10632.41
261.703	10591.41
261.773	10581.48
261.843	10573.82
261.913	10552.77
261.983	10523.18
262.053	10513.5
262.123	10495.87
262.192	10462.29
262.262	10452.07
262.332	10421.96
262.402	10415.21
262.472	10392.9
262.541	10359.76
262.611	10354.41
262.681	10330.32
262.751	10330.85
262.821	10310.18
262.89	10281.37
262.96	10270.82
263.03	10279.35
263.1	10268.7
263.169	10257.33
263.239	10246.83
263.309	10249.53
263.379	10241.34
263.448	10231.03
263.518	10212.48
263.588	10196.82
263.657	10209.01
263.727	10207.9
263.797	10192.1
263.867	10176.93
263.936	10152.75
264.006	10158.48
264.076	10139.26
264.145	10121.48
264.215	10090.56
264.285	10084.49
264.354	10058.72
264.424	10037.09
264.494	10004.62
264.563	9981.69
264.633	9994.6
264.702	9984.19
264.772	9949.99
264.842	9930.72
264.911	9921.71
264.981	9899.41
265.05	9892.23
265.12	9869.93
265.19	9858.13
265.259	9857.74
265.329	9852.49
265.398	9840.07
265.468	9846.95
265.537	9836.26
265.607	9833.08
265.676	9834.91
265.746	9824.51
265.815	9821.96
265.885	9807.8
265.955	9786.17
266.024	9770.9
266.094	9734.87
266.163	9739.21
266.232	9742.15
266.302	9732.18
266.371	9719.37
266.441	9709.78
266.51	9701.64
266.58	9685.61
266.649	9656.9
266.719	9650.69
266.788	9637.15
266.858	9647.03
266.927	9606.09
266.996	9596.6
267.066	9583.84
267.135	9559.13
267.205	9558.51
267.274	9547.34
267.343	9552.06
267.413	9539.2
267.482	9541.61
267.552	9539.34
267.621	9511.89
267.69	9478.76
267.76	9463.64
267.829	9455.6
267.898	9440.43
267.968	9420.54
268.037	9416.79
268.106	9419.67
268.176	9388.71
268.245	9374.99
268.314	9353.99
268.384	9359.48
268.453	9345.9
268.522	9336.12
268.592	9339.78
268.661	9317.92
268.73	9312.96
268.799	9289.9
268.869	9298.71
268.938	9270.73
269.007	9249.79
269.076	9238.28
269.146	9242.81
269.215	9236.35
269.284	9244.54
269.353	9227.11
269.422	9212.24
269.492	9190.28
269.561	9146.38
269.63	9149.94
269.699	9136.41
269.768	9128.95
269.838	9115.37
269.907	9113.83
269.976	9092.74
270.045	9058.23
270.114	9056.64
270.183	9040.27
270.253	9033.58
270.322	9005.7
270.391	8993.57
270.46	9003.82
270.529	9001.56
270.598	8996.75
270.667	8986.88
270.736	8968.34
270.806	8973.39
270.875	8971.71
270.944	8965.31
271.013	8993.52
271.082	8978.78
271.151	8971.13
271.22	8944.22
271.289	8937.39
271.358	8916.98
271.427	8910.72
271.496	8907.49
271.565	8887.52
271.634	8878.66
271.703	8895.41
271.772	8893.34
271.841	8886.9
271.91	8868.17
271.979	8862.34
272.048	8838.18
272.117	8835.29
272.186	8811.27
272.255	8804.19
272.324	8815.6
272.393	8812.86
272.462	8794.66
272.531	8792.26
272.6	8785.71
272.669	8795
272.738	8781.86
272.807	8782.29
272.876	8765.88
272.945	8792.69
273.013	8800.39
273.082	8810.16
273.151	8771.32
273.22	8766.7
273.289	8758.95
273.358	8766.41
273.427	8753.46
273.496	8756.97
273.564	8752.26
273.633	8760.39
273.702	8740.03
273.771	8717.31
273.84	8703.98
273.909	8701.34
273.977	8699.03
274.046	8685.74
274.115	8686.99
274.184	8671.64
274.253	8661.58
274.322	8675.35
274.39	8641.99
274.459	8628.95
274.528	8597.33
274.597	8594.68
274.665	8594.44
274.734	8597.76
274.803	8581.25
274.872	8571.44
274.94	8553.49
275.009	8609.87
275.078	8586
275.147	8589.52
275.215	8583.36
275.284	8600.63
275.353	8593.51
275.421	8566.51
275.49	8583.31
275.559	8574.41
275.627	8568.78
275.696	8561.51
275.765	8552.08
275.833	8548.04
275.902	8547.51
275.971	8562.67
276.039	8574.74
276.108	8572.29
276.177	8568.68
276.245	8560.45
276.314	8561.75
276.383	8570.03
276.451	8509.31
276.52	8517.15
276.588	8528.32
276.657	8537.37
276.725	8526.44
276.794	8523.6
276.863	8536.5
276.931	8513.16
277	8520.52
277.068	8531.68
277.137	8551.51
277.205	8552.38
277.274	8567.49
277.342	8569.75
277.411	8550.07
277.48	8534.28
277.548	8527.55
277.617	8531.2
277.685	8522.21
277.754	8520.62
277.822	8513.98
277.89	8526.4
277.959	8522.93
278.027	8501.61
278.096	8493.58
278.164	8515.19
278.233	8509.17
278.301	8497.86
278.37	8498.44
278.438	8478.52
278.507	8483.19
278.575	8456.43
278.643	8453.69
278.712	8439.01
278.78	8424.53
278.849	8430.4
278.917	8443.39
278.985	8438.96
279.054	8444.06
279.122	8458.64
279.191	8462.2
279.259	8456.43
279.327	8432.22
279.396	8451.09
279.464	8450.61
279.532	8454.41
279.601	8450.36
279.669	8445.02
279.737	8462.06
279.806	8465.33
279.874	8476.69
279.942	8471.97
280.011	8469.52
280.079	8473.85
280.147	8489.58
280.215	8496.8
280.284	8497.23
280.352	8479.96
280.42	8487.8
280.488	8475.58
280.557	8467.78
280.625	8467.4
280.693	8473.6
280.761	8476.01
280.83	8452.38
280.898	8464.84
280.966	8445.07
281.034	8409.22
281.102	8394.16
281.171	8386.07
281.239	8398.92
281.307	8395.56
281.375	8382.76
281.443	8406.58
281.512	8401.91
281.58	8406.48
281.648	8389.3
281.716	8385.5
281.784	8390.32
281.852	8382.66
281.92	8386.03
281.989	8391.28
282.057	8375.69
282.125	8412.56
282.193	8413.81
282.261	8421.51
282.329	8415.92
282.397	8421.46
282.465	8426.75
282.533	8444.45
282.601	8430.6
282.67	8402.01
282.738	8391.76
282.806	8406.15
282.874	8390.22
282.942	8394.31
283.01	8385.17
283.078	8393.2
283.146	8392.24
283.214	8393.83
283.282	8392.05
283.35	8399.07
283.418	8393.2
283.486	8395.99
283.554	8353.88
283.622	8353.45
283.69	8349.65
283.758	8340.17
283.826	8353.45
283.894	8367.35
283.962	8382.42
284.03	8397.24
284.098	8407.68
284.165	8407
284.233	8406.67
284.301	8399.02
284.369	8388.77
284.437	8379.38
284.505	8369.14
284.573	8378.95
284.641	8372.74
284.709	8378.47
284.777	8363.02
284.845	8376.07
284.912	8382.18
284.98	8388.24
285.048	8382.75
285.116	8387.61
285.184	8402.14
285.252	8395.7
285.319	8378.28
285.387	8371.54
285.455	8357.78
285.523	8359.46
285.591	8350.37
285.659	8353.11
285.726	8370.2
285.794	8355.62
285.862	8357.74
285.93	8366.2
285.997	8366.78
286.065	8358.75
286.133	8354.17
286.201	8353.07
286.269	8334.49
286.336	8329.54
286.404	8325.3
286.472	8329.68
286.539	8306.11
286.607	8290.13
286.675	8287.1
286.743	8293.69
286.81	8287.73
286.878	8299.13
286.946	8294.94
287.013	8299.27
287.081	8285.51
287.149	8266.46
287.216	8286.95
287.284	8280.94
287.352	8284.88
287.419	8281.66
287.487	8297.78
287.555	8301.39
287.622	8301.82
287.69	8311.54
287.758	8324.87
287.825	8320.06
287.893	8315.2
287.96	8324.05
288.028	8337.09
288.096	8340.7
288.163	8342.33
288.231	8326.7
288.298	8320.44
288.366	8333.67
288.433	8324.68
288.501	8329.54
288.569	8333.53
288.636	8327.61
288.704	8341.37
288.771	8344.36
288.839	8331.61
288.906	8327.76
288.974	8337.77
289.041	8337.72
289.109	8327.71
289.176	8331.13
289.244	8334.55
289.311	8344.89
289.379	8356.49
289.446	8355.23
289.514	8355.23
289.581	8354.71
289.649	8362.98
289.716	8374.34
289.783	8365.39
289.851	8388.29
289.918	8385.78
289.986	8394.78
290.053	8403.83
290.121	8400.07
290.188	8403.73
290.255	8432.36
290.323	8427.36
290.39	8418.45
290.458	8420.38
290.525	8428.61
290.592	8413.59
290.66	8415.47
290.727	8408.06
290.794	8418.93
290.862	8419.32
290.929	8420.23
290.996	8421.24
291.064	8427.59
291.131	8443.43
291.198	8454.55
291.266	8450.84
291.333	8452.38
291.4	8458.44
291.468	8473.8
291.535	8475.77
291.602	8480.73
291.669	8475.19
291.737	8482.55
291.804	8487.94
291.871	8510.22
291.938	8522.25
292.006	8556.19
292.073	8575.72
292.14	8587.32
292.207	8574.28
292.275	8576.59
292.342	8583.33
292.409	8609.8
292.476	8637.38
292.543	8625.82
292.611	8630.25
292.678	8652.29
292.745	8676.69
292.812	8685.79
292.879	8680.01
292.946	8679.39
293.014	8691.08
293.081	8700.71
293.148	8710.38
293.215	8724.87
293.282	8715.24
293.349	8726.22
293.416	8705.47
293.484	8713.75
293.551	8722.08
293.618	8743.44
293.685	8773.58
293.752	8772.18
293.819	8766.26
293.886	8753.07
293.953	8755
294.02	8762.55
294.087	8770.74
294.154	8769.53
294.221	8787.35
294.288	8787.44
294.356	8805.49
294.423	8807.61
294.49	8798.37
294.557	8808.67
294.624	8799.14
294.691	8814.35
294.758	8816.13
294.825	8827.2
294.892	8822.53
294.959	8824.6
295.026	8831.87
295.093	8816.89
295.16	8813.62
295.226	8825.42
295.293	8852.42
295.36	8859.26
295.427	8872.02
295.494	8875.82
295.561	8877.7
295.628	8897.25
295.695	8916.55
295.762	8925.02
295.829	8934.22
295.896	8950.44
295.963	8966.85
296.03	8978.55
296.096	8981.63
296.163	8989.24
296.23	9003.34
296.297	9008.68
296.364	9008.97
296.431	9021.97
296.498	9025.63
296.564	9055.52
296.631	9054.17
296.698	9037.9
296.765	9058.6
296.832	9048.88
296.899	9040.6
296.965	9057.74
297.032	9036.45
297.099	9048.59
297.166	9050.61
297.233	9050.66
297.299	9047.72
297.366	9039.97
297.433	9041.36
297.5	9061.87
297.566	9062.5
297.633	9061.54
297.7	9067.56
297.767	9066.01
297.833	9065.77
297.9	9069.14
297.967	9054.85
298.033	9063.75
298.1	9092.35
298.167	9080.94
298.234	9090.38
298.3	9101.64
298.367	9098.13
298.434	9107.71
298.5	9100.54
298.567	9095.67
298.634	9095.58
298.7	9117.1
298.767	9125.81
298.834	9139.53
298.9	9126.1
298.967	9119.02
299.033	9133.08
299.1	9150.42
299.167	9164.33
299.233	9157.3
299.3	9169.58
299.366	9188.25
299.433	9203.09
299.5	9182.14
299.566	9190.95
299.633	9208.67
299.699	9223.79
299.766	9222.06
299.832	9224.61
299.899	9229.81
299.965	9240.98
300.032	9236.21
300.099	9238.62
300.165	9244.98
300.232	9240.02
300.298	9246.71
300.365	9262.02
300.431	9255.86
300.498	9246.42
300.564	9255.47
300.631	9269.05
300.697	9281.13
300.763	9277.86
300.83	9279.98
300.896	9287.92
300.963	9303.43
301.029	9302.37
301.096	9302.95
301.162	9318.11
301.229	9317.68
301.295	9307.91
301.361	9319.51
301.428	9322.83
301.494	9311.71
301.561	9313.68
301.627	9323.03
301.693	9322.35
301.76	9324.95
301.826	9323.27
301.892	9340.17
301.959	9349.17
302.025	9351.1
302.092	9344.79
302.158	9355.53
302.224	9357.31
302.291	9356.11
302.357	9348.64
302.423	9342.19
302.49	9332.08
302.556	9340.17
302.622	9336.65
302.688	9352.35
302.755	9366.99
302.821	9381
302.887	9393.66
302.954	9386.68
303.02	9392.65
303.086	9399.92
303.152	9399.3
303.219	9396.8
303.285	9394.72
303.351	9401.32
303.417	9401.47
303.483	9396.41
303.55	9384.76
303.616	9380.95
303.682	9378.74
303.748	9371.18
303.815	9387.22
303.881	9395.84
303.947	9385.43
304.013	9388.27
304.079	9385.77
304.145	9363.76
304.212	9360.83
304.278	9349.99
304.344	9348.11
304.41	9328.08
304.476	9321.2
304.542	9318.45
304.608	9326.64
304.674	9313.83
304.741	9303.67
304.807	9304.1
304.873	9311.08
304.939	9335.45
305.005	9316.53
305.071	9315.32
305.137	9322.16
305.203	9293.36
305.269	9292.4
305.335	9311.09
305.401	9311.47
305.467	9307.52
305.533	9314.17
305.599	9318.5
305.666	9326.88
305.732	9335.07
305.798	9357.41
305.864	9380.81
305.93	9381.2
305.996	9383.94
306.062	9387.22
306.128	9388.18
306.194	9376.86
306.259	9370.36
306.325	9354.9
306.391	9364.1
306.457	9374.5
306.523	9372.72
306.589	9402.86
306.655	9391.4
306.721	9361.55
306.787	9350.38
306.853	9360.92
306.919	9342.15
306.985	9337.81
307.051	9334.39
307.117	9322.64
307.183	9314.75
307.248	9286.77
307.314	9292.93
307.38	9291.1
307.446	9297.03
307.512	9283.98
307.578	9287.88
307.644	9282.72
307.709	9284.41
307.775	9279.88
307.841	9272.9
307.907	9270.21
307.973	9248.44
308.039	9256.58
308.104	9267.79
308.17	9265.72
308.236	9249.64
308.302	9259.32
308.368	9245.69
308.433	9240.54
308.499	9240.54
308.565	9230.43
308.631	9240.45
308.696	9221.28
308.762	9206.4
308.828	9201.16
308.894	9186.71
308.959	9169.81
309.025	9158.84
309.091	9154.79
309.156	9150.08
309.222	9152.29
309.288	9140.64
309.354	9120.13
309.419	9116.28
309.485	9099.96
309.551	9104.87
309.616	9098.51
309.682	9094.66
309.748	9088.45
309.813	9085.13
309.879	9074.73
309.945	9065.49
310.01	9057.69
310.076	9059.23
310.141	9062.64
310.207	9047.48
310.273	9044.74
310.338	9044.01
310.404	9034.48
310.469	9018.98
310.535	9005.98
310.601	8977.82
310.666	8986.77
310.732	8999.68
310.797	8983.02
310.863	8972.96
310.928	8969.44
310.994	8967.28
311.059	8960.54
311.125	8958.76
311.191	8972.67
311.256	8958.71
311.322	8960.73
311.387	8938.83
311.453	9177.18
311.518	9149.31
311.584	9149.74
311.649	9159.56
311.715	9158.89
311.78	9163.84
311.846	9159.85
311.911	9166.93
311.976	9175.01
312.042	9159.12
312.107	9139.82
312.173	9132.51
312.238	9127.84
312.304	9123.41
312.369	9112.05
312.434	9101.55
312.5	9093.27
312.565	9056.3
312.631	9063.81
312.696	9054.28
312.761	9057.99
312.827	8809.34
312.892	8844.53
312.958	8840.14
313.023	8837.88
313.088	8828.88
313.154	8809.82
313.219	8796.06
313.284	8788.89
313.35	8782.97
313.415	8767.23
313.48	8761.6
313.546	8767.37
313.611	8781.48
313.676	8770.64
313.741	8765.74
313.807	8773
313.872	8775.89
313.937	8783.64
314.003	8796.2
314.068	8796.3
314.133	8797.12
314.198	8783.45
314.264	8764.19
314.329	8754.18
314.394	8748.45
314.459	8747.06
314.525	8769.44
314.59	8767.61
314.655	8755.38
314.72	8760.1
314.785	8766.98
314.851	8765.44
314.916	8742.1
314.981	8716.93
315.046	8711.49
315.111	8702.87
315.176	8691.18
315.242	8698.73
315.307	8696.42
315.372	8673.95
315.437	8662.97
315.502	8660.61
315.567	8676.4
315.632	8660.23
315.698	8660.18
315.763	8655.42
315.828	8645.74
315.893	8643.91
315.958	8640.54
316.023	8636.79
316.088	8622.64
316.153	8601.47
316.218	8592.61
316.283	8583.86
316.348	8572.07
316.413	8565.48
316.479	8545.65
316.544	8512.07
316.609	8478.48
316.674	8442.92
316.739	8407.76
316.804	8379.23
316.869	8340.4
316.934	8296.17
316.999	8269.81
317.064	8217.18
317.129	8174.22
317.194	8142.95
317.259	8093.25
317.324	8045.29
317.389	7997
317.454	7957.27
317.518	7921.01
317.583	7898.3
317.648	7873.05
317.713	7840.06
317.778	7780.76
317.843	7760.18
317.908	7719.79
317.973	7685.98
318.038	7663.57
318.103	7631.46
318.168	7603.52
318.233	7575.64
318.297	7534.82
318.362	7494.53
318.427	7466.7
318.492	7444.73
318.557	7397.87
318.622	7367.87
318.687	7343.7
318.751	7306.65
318.816	7278.96
318.881	7249.03
318.946	7195.24
319.011	7148.77
319.075	7114.51
319.14	7082.85
319.205	7035.09
319.27	7002.23
319.335	6955.87
319.399	6909.99
319.464	6881.02
319.529	6829.87
319.594	6793.26
319.658	6761.41
319.723	6720.97
319.788	6688.8
319.853	6633.7
319.917	6606.62
319.982	6555.87
320.047	6522.25
320.112	6499.64
320.176	6446.34
320.241	6416.29
320.306	6390.65
320.37	6352.68
320.435	6320.75
320.5	6294.55
320.564	6259.32
320.629	6228.85
320.694	6204.37
320.758	6166.8
320.823	6125.77
320.888	6099.29
320.952	6047.08
321.017	6011.77
321.082	5976.32
321.146	5941.78
321.211	5913.04
321.275	5867.87
321.34	5823.61
321.405	5776.81
321.469	5729.57
321.534	5689.83
321.598	5639.24
321.663	5609.41
321.727	5579.25
321.792	5527.71
321.857	5484.8
321.921	5442.29
321.986	5396.52
322.05	5332.88
322.115	5295.89
322.179	5252.77
322.244	5197.48
322.308	5165.24
322.373	5118.53
322.437	5079.73
322.502	5055.62
322.566	5002.84
322.631	4973.58
322.695	4940.59
322.76	4902.19
322.824	4867.33
322.889	4826.02
322.953	4780.17
323.018	4709.61
323.082	4644.33
323.146	4595.39
323.211	4544.85
323.275	4503.17
323.34	4459.98
323.404	4429.75
323.468	4389.18
323.533	4351.34
323.597	4307.93
323.662	4260.68
323.726	4225.29
323.79	4178.47
323.855	4112.41
323.919	4068.58
323.983	4023.97
324.048	3957.57
324.112	4103.73
324.177	3976.19
324.241	3770.67
324.305	3571.56
324.37	3376.41
324.434	3189.58
324.498	3148.48
324.562	3098.89
324.627	3041.67
324.691	2987.45
324.755	2923.83
324.82	2845.16
324.884	2764.15
324.948	2694.36
325.012	2599.15
325.077	2474.23
