Data from 20250703_urea_0.1M_MAYP1162681_09-31-05-277.txt Node
Date: Fri Jul 04 09:31:05 BST 2025
User: adleo
Spectrometer: MAYP116268
Trigger mode: 0
Integration Time (sec): 1.000000E0
Scans to average: 1
Electric dark correction enabled: true
Nonlinearity correction enabled: true
Boxcar width: 10
XAxis mode: Wavelengths
Number of Pixels in Spectrum: 2068
>>>>>Begin Spectral Data<<<<<
179.565	1216.87
179.642	1271.52
179.718	1317.46
179.795	1357.05
179.871	1388.63
179.948	1409.15
180.024	1429.85
180.101	1453.34
180.177	1467.22
180.254	1489.64
180.33	1512.02
180.407	1566
180.483	1662.39
180.56	1753.18
180.636	1836.31
180.712	1822.38
180.789	1834.31
180.865	1844.96
180.942	1854.56
181.018	1863.16
181.095	1875.67
181.171	1881.56
181.248	1886.17
181.324	1899.35
181.4	1905.34
181.477	1916.79
181.553	1929.53
181.63	1950.22
181.706	1963.63
181.782	1975.79
181.859	1977.03
181.935	1980.55
182.011	1978.6
182.088	1994.67
182.164	2012.75
182.24	2028.34
182.317	2038.33
182.393	2038.09
182.469	2056.02
182.546	2067.15
182.622	2071.76
182.698	2066.43
182.775	2078.46
182.851	2092.73
182.927	2087.98
183.003	2085.17
183.08	2079.94
183.156	2085.41
183.232	2079.66
183.308	2070.14
183.385	2078.23
183.461	2093.59
183.537	2094.5
183.613	2106.91
183.69	2096.88
183.766	2087.79
183.842	2098.16
183.918	2103.68
183.995	2114.57
184.071	2114.57
184.147	2111.38
184.223	2102.78
184.299	2115.76
184.375	2102.45
184.452	2106.82
184.528	2153.97
184.604	2162.05
184.68	2175.61
184.756	2184.79
184.832	2193.93
184.908	2200.68
184.985	2194.5
185.061	2178.99
185.137	2188.98
185.213	2178.52
185.289	2180.56
185.365	2172.57
185.441	2169.05
185.517	2180.66
185.593	2175.71
185.669	2172.91
185.745	2181.95
185.822	2195.36
185.898	2186.94
185.974	2198.54
186.05	2191.5
186.126	2158.96
186.202	2154.34
186.278	2147.54
186.354	2139.07
186.43	2142.64
186.506	2139.74
186.582	2144.16
186.658	2149.35
186.734	2128.66
186.81	2130.37
186.886	2133.51
186.962	2146.68
187.038	2142.21
187.114	2135.5
187.19	2143.68
187.266	2134.13
187.341	2137.08
187.417	2131.08
187.493	2132.51
187.569	2133.79
187.645	2129.13
187.721	2115.62
187.797	2121.61
187.873	2127.75
187.949	2122.28
188.025	2119.04
188.101	2121.04
188.176	2124.75
188.252	2123.23
188.328	2133.4
188.404	2131.55
188.48	2126.27
188.556	2120.23
188.632	2118.47
188.707	2116.9
188.783	2115.38
188.859	2112.29
188.935	2099.96
189.011	2108.81
189.086	2101.91
189.162	2093.07
189.238	2091.26
189.314	2090.5
189.39	2085.65
189.465	2077.13
189.541	2092.26
189.617	2077.18
189.693	2071.9
189.768	2074.95
189.844	2100.12
189.92	2092.04
189.996	2106.03
190.071	2119.53
190.147	2118.92
190.223	2128.96
190.298	2125.39
190.374	2112.26
190.45	2121.96
190.526	2131.33
190.601	2126.15
190.677	2128.67
190.753	2158.08
190.828	2160.03
190.904	2172.35
190.98	2187.43
191.055	2198.85
191.131	2189.57
191.207	2210.46
191.282	2221.83
191.358	2212.22
191.433	2197.32
191.509	2210.73
191.585	2206.02
191.66	2204.78
191.736	2215.01
191.811	2202.97
191.887	2219.01
191.963	2243.52
192.038	2248.56
192.114	2246.89
192.189	2248.65
192.265	2243.38
192.34	2222.62
192.416	2220.1
192.491	2216.62
192.567	2217.58
192.642	2218.77
192.718	2217.53
192.793	2201.83
192.869	2195.83
192.944	2198.78
193.02	2204.73
193.095	2206.78
193.171	2208.59
193.246	2209.35
193.322	2203.92
193.397	2207.35
193.473	2191.5
193.548	2172.7
193.624	2181.08
193.699	2182.46
193.775	2200.3
193.85	2205.34
193.925	2211.1
194.001	2209.86
194.076	2205.3
194.152	2198.02
194.227	2190.64
194.302	2183.89
194.378	2188.6
194.453	2186.55
194.529	2196.4
194.604	2183.27
194.679	2178.56
194.755	2161.2
194.83	2173.43
194.905	2171.82
194.981	2182.24
195.056	2178.91
195.131	2184.23
195.207	2181.85
195.282	2173.39
195.357	2154.87
195.433	2169.62
195.508	2159.25
195.583	2166.72
195.659	2179.71
195.734	2186.51
195.809	2187.99
195.884	2197.36
195.96	2199.83
196.035	2217.77
196.11	2215.77
196.185	2227.09
196.261	2231.14
196.336	2262.78
196.411	2249.78
196.486	2255.06
196.561	2247.02
196.637	2252.92
196.712	2272.25
196.787	2274.39
196.862	2288.38
196.937	2296.56
197.013	2302.28
197.088	2313.98
197.163	2336.5
197.238	2353.03
197.313	2352.93
197.388	2365.83
197.464	2394.83
197.539	2404.11
197.614	2394.07
197.689	2406.4
197.764	2420.11
197.839	2437.29
197.914	2431.63
197.989	2451.67
198.065	2463.14
198.14	2515.45
198.215	2539.78
198.29	2548.03
198.365	2562.17
198.44	2572.55
198.515	2600.36
198.59	2612.65
198.665	2636.56
198.74	2643.66
198.815	2647.52
198.89	2669.1
198.965	2698.97
199.04	2695.26
199.115	2711.5
199.19	2754.56
199.265	2754.18
199.34	2765.52
199.415	2800.98
199.49	2820.51
199.565	2834.67
199.64	2860.45
199.715	2858.68
199.79	2867.69
199.865	2876.22
199.94	2875.22
200.015	2906.59
200.09	2913.26
200.165	2921.08
200.24	2931.76
200.315	2975.41
200.39	2989.67
200.464	2993.24
200.539	2994.29
200.614	3011.69
200.689	3035.05
200.764	3043.02
200.839	3067.37
200.914	3073.9
200.989	3064.5
201.063	3080.33
201.138	3061.18
201.213	3060.6
201.288	3040.58
201.363	3045.54
201.438	3043.11
201.512	3057.07
201.587	3038.57
201.662	3042.43
201.737	3052.35
201.812	3057.78
201.886	3023.14
201.961	3033.3
202.036	3027.39
202.111	3023.96
202.186	2994.56
202.26	2978.01
202.335	2958.94
202.41	2949.73
202.485	2934.25
202.559	2915.61
202.634	2889.01
202.709	2897.01
202.784	2880.09
202.858	2879.09
202.933	2863.03
203.008	2861.7
203.082	2850.07
203.157	2855.36
203.232	2820.2
203.306	2807.66
203.381	2783.44
203.456	2766.43
203.53	2746.11
203.605	2728.91
203.68	2713.47
203.754	2715.85
203.829	2708.27
203.904	2694.08
203.978	2692.98
204.053	2706.94
204.127	2705.94
204.202	2718.38
204.277	2717.14
204.351	2723.19
204.426	2731.91
204.5	2738.78
204.575	2719.67
204.65	2744.94
204.724	2753.33
204.799	2778.01
204.873	2792.88
204.948	2812.52
205.022	2822.62
205.097	2842.42
205.171	2887.12
205.246	2924.08
205.32	2951.1
205.395	2978.95
205.469	3002.92
205.544	3041.56
205.618	3059.11
205.693	3106.33
205.767	3130.28
205.842	3186.82
205.916	3222.59
205.991	3255.52
206.065	3308.11
206.14	3368.53
206.214	3410.51
206.289	3454.63
206.363	3517.65
206.438	3571.29
206.512	3631.9
206.586	3705.67
206.661	3765.17
206.735	3799.41
206.81	3859.94
206.884	3933.94
206.958	3988.12
207.033	4069.3
207.107	4139.47
207.181	4238.18
207.256	4301.7
207.33	4391.17
207.405	4475.47
207.479	4564.94
207.553	4642.1
207.628	4696.6
207.702	4785.28
207.776	4856.47
207.851	4931.93
207.925	5025.59
207.999	5108.99
208.073	5183.33
208.148	5267.24
208.222	5342.29
208.296	5455.88
208.371	5556.17
208.445	5654.41
208.519	5765.63
208.593	5860.39
208.668	5944.01
208.742	6031.32
208.816	6120.15
208.89	6220.66
208.965	6310.4
209.039	6414.49
209.113	6525.48
209.187	6635.47
209.261	6721.51
209.336	6830.72
209.41	6948.02
209.484	7031.24
209.558	7138.83
209.632	7245
209.707	7348.66
209.781	7465.32
209.855	7578.25
209.929	7688.69
210.003	7788.6
210.077	7876.5
210.151	8018.7
210.226	8146.47
210.3	8271.29
210.374	8383.89
210.448	8478.1
210.522	8575.74
210.596	8674.45
210.67	8768.38
210.744	8912.01
210.818	9029.87
210.892	9137.99
210.966	9216.12
211.041	9329.4
211.115	9408.79
211.189	9522.95
211.263	9619.78
211.337	9707.53
211.411	9802.17
211.485	9880.2
211.559	9972.68
211.633	10068.66
211.707	10121.17
211.781	10217
211.855	10256.31
211.929	10328.09
212.003	10392.78
212.077	10486.15
212.151	10575.87
212.225	10670.26
212.299	10736.04
212.373	10808.6
212.447	10890.57
212.52	11005.45
212.594	11088.58
212.668	11179.23
212.742	11237.73
212.816	11319.22
212.89	11392.48
212.964	11469.79
213.038	11554.18
213.112	11644.41
213.186	11731.11
213.26	11785.81
213.333	11812.08
213.407	11900.91
213.481	11980.77
213.555	12074.03
213.629	12134.72
213.703	12191.21
213.777	12265.3
213.85	12320.35
213.924	12427.51
213.998	12491.09
214.072	12553.37
214.146	12604.08
214.219	12679.62
214.293	12748.45
214.367	12823.8
214.441	12902.52
214.515	12961.81
214.588	12994.93
214.662	13028.19
214.736	13074.9
214.81	13147.88
214.883	13217.59
214.957	13265.84
215.031	13318.15
215.105	13345.82
215.178	13394.36
215.252	13451.44
215.326	13490.82
215.4	13530.25
215.473	13540.76
215.547	13582.75
215.621	13627
215.694	13691.84
215.768	13719.32
215.842	13763.77
215.915	13802.19
215.989	13832.12
216.063	13874.11
216.136	13932.68
216.21	13986.19
216.284	14048.04
216.357	14101.69
216.431	14149.66
216.504	14203.6
216.578	14280.44
216.652	14348.99
216.725	14394.83
216.799	14450.36
216.873	14496.98
216.946	14557.43
217.02	14606.98
217.093	14663.19
217.167	14684.25
217.24	14716.31
217.314	14773.62
217.387	14816.81
217.461	14853.35
217.535	14915.15
217.608	14952.41
217.682	15003.31
217.755	15062.12
217.829	15103.77
217.902	15153.99
217.976	15204.85
218.049	15254.26
218.123	15285.49
218.196	15335.09
218.27	15377.17
218.343	15413.42
218.417	15465.33
218.49	15503.12
218.563	15557.11
218.637	15599.14
218.71	15676.98
218.784	15728.22
218.857	15774.49
218.931	15826.35
219.004	15881.74
219.077	15934.9
219.151	15984.74
219.224	16035.2
219.298	16078.72
219.371	16143.36
219.444	16180.37
219.518	16231.27
219.591	16282.94
219.665	16363.52
219.738	16413.31
219.811	16461.7
219.885	16513.22
219.958	16564.41
220.031	16616.03
220.105	16674.29
220.178	16723.17
220.251	16762.97
220.325	16826.06
220.398	16880.91
220.471	16940.43
220.544	16994.12
220.618	17031.03
220.691	17090.07
220.764	17132.68
220.838	17186.17
220.911	17214.56
220.984	17281.98
221.057	17334.37
221.131	17378.95
221.204	17390.27
221.277	17460.49
221.35	17537.79
221.424	17579.14
221.497	17627.09
221.57	17674.94
221.643	17736.39
221.716	17794.07
221.79	17832.82
221.863	17879.76
221.936	17915.13
222.009	17954.12
222.082	17998.41
222.155	18035.85
222.229	18093.97
222.302	18145.19
222.375	18189.43
222.448	18235.99
222.521	18259.07
222.594	18285.91
222.667	18309.91
222.74	18351.36
222.814	18379.59
222.887	18401.76
222.96	18454.82
223.033	18498.29
223.106	18538.19
223.179	18554.91
223.252	18582.67
223.325	18615.2
223.398	18638.33
223.471	18676.64
223.544	18703.67
223.617	18731.48
223.69	18767.14
223.763	18775.81
223.837	18802.9
223.91	18828.82
223.983	18838.65
224.056	18867.37
224.129	18902.7
224.202	18938.84
224.275	18955.13
224.348	18966.26
224.42	18980.33
224.493	18982.88
224.566	18994.45
224.639	19021.68
224.712	19045.92
224.785	19070.35
224.858	19092.23
224.931	19102.49
225.004	19118.3
225.077	19141.86
225.15	19142.2
225.223	19161.91
225.296	19203.06
225.369	19198
225.442	19207.83
225.514	19235.21
225.587	19259.2
225.66	19276.22
225.733	19302.09
225.806	19336.6
225.879	19350.04
225.952	19367.2
226.025	19403.73
226.097	19433.41
226.17	19453.55
226.243	19453.36
226.316	19461.75
226.389	19481.89
226.461	19511.72
226.534	19527.04
226.607	19539.86
226.68	19568.54
226.753	19584.58
226.825	19582.7
226.898	19628.87
226.971	19631.62
227.044	19652.19
227.117	19660.48
227.189	19681.69
227.262	19705.97
227.335	19723.56
227.407	19740.33
227.48	19753.49
227.553	19759.37
227.626	19768.24
227.698	19778.07
227.771	19800.28
227.844	19799.32
227.916	19808.38
227.989	19799.66
228.062	19800.38
228.134	19840.33
228.207	19860.52
228.28	19868.91
228.352	19875.65
228.425	19871.03
228.498	19896.52
228.57	19892.86
228.643	19917.63
228.716	19917.05
228.788	19916.23
228.861	19916.86
228.934	19938.35
229.006	19944.23
229.079	19951.75
229.151	19950.88
229.224	19932.76
229.296	19935.51
229.369	19981.67
229.442	20002.73
229.514	20003.36
229.587	20031.12
229.659	19999.26
229.732	19997.96
229.804	20007.5
229.877	20033.48
229.949	20051.26
230.022	20084.61
230.094	20097.72
230.167	20103.65
230.239	20108.51
230.312	20113.57
230.384	20133.48
230.457	20137.82
230.529	20142.83
230.602	20147.16
230.674	20156.66
230.747	20173.52
230.819	20185.33
230.892	20143.4
230.964	20148.66
231.037	20162.97
231.109	20155.21
231.181	20177.77
231.254	20173.77
231.326	20170.01
231.399	20160.66
231.471	20141.77
231.544	20115.4
231.616	20124.03
231.688	20122.01
231.761	20107.74
231.833	20095.55
231.905	20068.56
231.978	20065.77
232.05	20064.51
232.122	20071.31
232.195	20066.2
232.267	20076.47
232.339	20069.14
232.412	20086.68
232.484	20072.22
232.556	20058.3
232.629	20080.56
232.701	20078.06
232.773	20072.37
232.846	20055.5
232.918	20052.61
232.99	20052.27
233.062	20050.25
233.135	20044.27
233.207	20016.76
233.279	20013.87
233.351	20010.15
233.424	19998.59
233.496	19972.04
233.568	19989.19
233.64	19956.76
233.713	19941.92
233.785	19915.22
233.857	19905.77
233.929	19872.47
234.001	19871.41
234.074	19876.43
234.146	19838.21
234.218	19821.01
234.29	19804.86
234.362	19783.08
234.434	19749.44
234.507	19721.88
234.579	19688.24
234.651	19656.63
234.723	19649.4
234.795	19641.21
234.867	19619.67
234.939	19615.04
235.012	19613.74
235.084	19586.61
235.156	19577.11
235.228	19550.61
235.3	19537.74
235.372	19513.6
235.444	19504.06
235.516	19456.64
235.588	19440.45
235.66	19421.07
235.732	19388.64
235.804	19428.01
235.876	19419.05
235.948	19405.08
236.02	19392.59
236.092	19364.93
236.164	19353.32
236.236	19325.37
236.308	19300.55
236.38	19285.57
236.452	19259.16
236.524	19221.18
236.596	19212.46
236.668	19200.7
236.74	19179.16
236.812	19161.38
236.884	19146.97
236.956	19133.09
237.028	19110.54
237.1	19069.29
237.172	19064.09
237.244	19058.88
237.316	18988.47
237.388	18955.22
237.46	18927.13
237.532	18915.18
237.604	18885.54
237.675	18866.41
237.747	18853.59
237.819	18829.93
237.891	18800.39
237.963	18764.68
238.035	18739.28
238.107	18669.17
238.178	18648.74
238.25	18623
238.322	18613.27
238.394	18570.52
238.466	18530.96
238.538	18509.61
238.609	18483.06
238.681	18434.05
238.753	18394.05
238.825	18373.76
238.897	18359.45
238.968	18352.51
239.04	18320.37
239.112	18329.33
239.184	18285.29
239.255	18247.41
239.327	18213.87
239.399	18187.22
239.471	18169
239.542	18151.36
239.614	18154.54
239.686	18096.09
239.758	18078.07
239.829	18038.89
239.901	18021.54
239.973	18005.78
240.044	17973.64
240.116	17952.38
240.188	17921.35
240.259	17888.92
240.331	17850.51
240.403	17829.35
240.474	17776.63
240.546	17726.22
240.618	17664.92
240.689	17635.43
240.761	17618.22
240.833	17608.49
240.904	17575.04
240.976	17537.84
241.048	17504.2
241.119	17474.8
241.191	17453.02
241.262	17426.22
241.334	17388.44
241.405	17356.15
241.477	17309.69
241.549	17284.01
241.62	17250.85
241.692	17226.85
241.763	17213.4
241.835	17183.04
241.906	17142.22
241.978	17099.04
242.049	17088.05
242.121	17069.16
242.192	17054.41
242.264	17001.2
242.335	16940.82
242.407	16916.86
242.478	16893.1
242.55	16861.63
242.621	16819.8
242.693	16784.13
242.764	16752.33
242.836	16718.98
242.907	16686.68
242.979	16659.89
243.05	16628.99
243.122	16606.44
243.193	16567.78
243.264	16510.86
243.336	16471.1
243.407	16445.8
243.479	16440.02
243.55	16415.29
243.622	16388.83
243.693	16352.06
243.764	16334.66
243.836	16300.58
243.907	16270.26
243.978	16236.77
244.05	16205.44
244.121	16153.14
244.192	16135.45
244.264	16092.27
244.335	16060.27
244.407	16014.33
244.478	15989.17
244.549	15956.69
244.62	15903.76
244.692	15878.26
244.763	15850.69
244.834	15815.65
244.906	15783.07
244.977	15750.25
245.048	15730.58
245.119	15699.3
245.191	15657.61
245.262	15602.18
245.333	15588.49
245.405	15552.91
245.476	15519.75
245.547	15499.51
245.618	15485.19
245.689	15454.01
245.761	15420.84
245.832	15388.11
245.903	15371.1
245.974	15347.77
246.045	15316
246.117	15309.4
246.188	15263.99
246.259	15236.13
246.33	15207.64
246.401	15171.2
246.473	15123.77
246.544	15079.28
246.615	15050.7
246.686	15024.09
246.757	15015.7
246.828	14971.55
246.899	14961.91
246.97	14917.61
247.042	14871.09
247.113	14843.9
247.184	14825.49
247.255	14792.13
247.326	14764.22
247.397	14728.5
247.468	14693.99
247.539	14662.18
247.61	14617.01
247.681	14597.77
247.752	14573.29
247.823	14532.26
247.894	14508.5
247.965	14467.62
248.037	14428.28
248.108	14385.86
248.179	14349.04
248.25	14315
248.321	14292.83
248.392	14251.9
248.463	14246.02
248.534	14221.53
248.605	14199.07
248.675	14167.83
248.746	14149.9
248.817	14129.65
248.888	14106.85
248.959	14068.05
249.03	14051.9
249.101	14032.23
249.172	13994.58
249.243	13952.45
249.314	13942.9
249.385	13914.27
249.456	13898.31
249.527	13872.42
249.598	13853.33
249.669	13831.06
249.739	13811.97
249.81	13795.68
249.881	13750.32
249.952	13727.18
250.023	13700.04
250.094	13659.54
250.165	13626.72
250.235	13590.46
250.306	13556.91
250.377	13526.06
250.448	13501.76
250.519	13453.41
250.59	13436.88
250.66	13415.28
250.731	13403.13
250.802	13378.55
250.873	13360.23
250.944	13339.31
251.014	13310.29
251.085	13304.41
251.156	13279.44
251.227	13265.89
251.297	13259.43
251.368	13246.94
251.439	13228
251.51	13214.16
251.58	13180.13
251.651	13152.51
251.722	13145.23
251.792	13113.36
251.863	13083.04
251.934	13079.48
252.005	13087.91
252.075	13066.75
252.146	13051.13
252.217	13037.78
252.287	13021.29
252.358	12990.92
252.429	12982.92
252.499	12952.55
252.57	12936.45
252.641	12922.08
252.711	12901.45
252.782	12857.1
252.852	12852.81
252.923	12824.03
252.994	12809.71
253.064	12800.94
253.135	12765.46
253.205	12732.06
253.276	12725.6
253.347	12728.3
253.417	12689.01
253.488	12657.82
253.558	12630.49
253.629	12610.1
253.699	12599.11
253.77	12586.38
253.841	12568.59
253.911	12556.45
253.982	12540.39
254.052	12518.75
254.123	12502.17
254.193	12479.94
254.264	12492.19
254.334	12459.84
254.405	12431.55
254.475	12396.6
254.546	12377.46
254.616	12378.28
254.687	12372.31
254.757	12354.76
254.827	12326.37
254.898	12317.21
254.968	12289.35
255.039	12259.65
255.109	12249.39
255.18	12214.34
255.25	12169.85
255.321	12151.15
255.391	12114.37
255.461	12116.49
255.532	12077.59
255.602	12058.7
255.673	12006.98
255.743	11979.12
255.813	11932.85
255.884	11932.85
255.954	11917.86
256.024	11916.6
256.095	11890.19
256.165	11852.69
256.235	11836.3
256.306	11808.34
256.376	11797.16
256.446	11794.27
256.517	11778.56
256.587	11765.88
256.657	11744.67
256.728	11730.7
256.798	11717.1
256.868	11689.58
256.938	11662.35
257.009	11656.42
257.079	11638.59
257.149	11653.63
257.219	11609.57
257.29	11601.76
257.36	11552.31
257.43	11543.54
257.5	11497.61
257.571	11478.77
257.641	11471.3
257.711	11446.57
257.781	11435.97
257.852	11422.38
257.922	11384.01
257.992	11363.87
258.062	11344.11
258.132	11336.49
258.202	11315.62
258.273	11295.67
258.343	11300.3
258.413	11270.08
258.483	11244.15
258.553	11214.9
258.623	11194.94
258.693	11177.89
258.764	11175.72
258.834	11175.52
258.904	11159.81
258.974	11137.07
259.044	11114.56
259.114	11099.14
259.184	11083.48
259.254	11063.77
259.324	11026.71
259.394	11008.06
259.464	11009.51
259.535	10992.01
259.605	10967.58
259.675	10943.05
259.745	10935
259.815	10901.32
259.885	10884.84
259.955	10895.54
260.025	10872.12
260.095	10849.18
260.165	10847.01
260.235	10849.18
260.305	10823.84
260.375	10790.88
260.445	10795.21
260.515	10795.02
260.585	10784.9
260.655	10770.54
260.725	10764.08
260.795	10748.91
260.865	10759.94
260.934	10733.92
261.004	10723.08
261.074	10705.44
261.144	10712.04
261.214	10701.1
261.284	10687.23
261.354	10678.27
261.424	10654.12
261.494	10658.75
261.564	10645.06
261.634	10633.4
261.703	10595.29
261.773	10587.96
261.843	10585.65
261.913	10562.81
261.983	10530.1
262.053	10519.98
262.123	10499.36
262.192	10466.41
262.262	10463.32
262.332	10435.42
262.402	10429.69
262.472	10413.26
262.541	10384.93
262.611	10372.07
262.681	10348.56
262.751	10337.04
262.821	10318.4
262.89	10285.01
262.96	10278.26
263.03	10281.11
263.1	10269.83
263.169	10256.2
263.239	10249.02
263.309	10246.85
263.379	10246.23
263.448	10233.36
263.518	10226.62
263.588	10210.48
263.657	10221.8
263.727	10219.83
263.797	10207.83
263.867	10189.67
263.936	10157.92
264.006	10155.23
264.076	10137.35
264.145	10114.38
264.215	10093.9
264.285	10094.43
264.354	10068.13
264.424	10042.51
264.494	10014.66
264.563	9993.32
264.633	10000.31
264.702	9983.83
264.772	9953.96
264.842	9936.43
264.911	9933.39
264.981	9905.45
265.05	9892.26
265.12	9869.62
265.19	9851.02
265.259	9848.57
265.329	9837.29
265.398	9832.67
265.468	9842.64
265.537	9826.89
265.607	9821.5
265.676	9822.7
265.746	9805.79
265.815	9797.46
265.885	9785.23
265.955	9759.13
266.024	9740.49
266.094	9703.55
266.163	9711.54
266.232	9711.97
266.302	9695.02
266.371	9681.73
266.441	9671.71
266.51	9670.07
266.58	9652.5
266.649	9631.5
266.719	9619.6
266.788	9612.71
266.858	9615.89
266.927	9576.93
266.996	9569.37
267.066	9558.44
267.135	9534.07
267.205	9531.9
267.274	9529.2
267.343	9529.06
267.413	9522.32
267.482	9528.87
267.552	9534.21
267.621	9503.97
267.69	9474.35
267.76	9461.35
267.829	9451.24
267.898	9434
267.968	9416.61
268.037	9408
268.106	9410.93
268.176	9386.04
268.245	9373.08
268.314	9350.74
268.384	9355.22
268.453	9344.43
268.522	9335.81
268.592	9334.94
268.661	9315.1
268.73	9308.03
268.799	9289.54
268.869	9296.23
268.938	9264.16
269.007	9237.73
269.076	9228.58
269.146	9229.88
269.215	9227.18
269.284	9235.56
269.353	9222.71
269.422	9207.73
269.492	9192.18
269.561	9150.3
269.63	9152.17
269.699	9139.9
269.768	9126.46
269.838	9121.7
269.907	9116.64
269.976	9100.75
270.045	9074.33
270.114	9075.38
270.183	9065.18
270.253	9057.72
270.322	9028.4
270.391	9016.94
270.46	9030.81
270.529	9023.87
270.598	9018.82
270.667	9009.24
270.736	8984.68
270.806	8977.51
270.875	8979.24
270.944	8974.28
271.013	8995.22
271.082	8983.96
271.151	8977.22
271.22	8954.45
271.289	8939.09
271.358	8926.14
271.427	8915.56
271.496	8911.99
271.565	8895.77
271.634	8881.71
271.703	8886.38
271.772	8884.03
271.841	8878.25
271.91	8853.07
271.979	8843.2
272.048	8820
272.117	8821.3
272.186	8805.27
272.255	8807.83
272.324	8806.57
272.393	8799.74
272.462	8784.86
272.531	8775.04
272.6	8764.5
272.669	8772.88
272.738	8763.54
272.807	8762.58
272.876	8745.11
272.945	8769.17
273.013	8770.28
273.082	8775.48
273.151	8754.35
273.22	8754.64
273.289	8745.73
273.358	8755.26
273.427	8749.73
273.496	8750.4
273.564	8748.24
273.633	8755.12
273.702	8736.59
273.771	8719.41
273.84	8714.4
273.909	8713.44
273.977	8708.34
274.046	8701.55
274.115	8702.32
274.184	8689.14
274.253	8677.63
274.322	8684.51
274.39	8648.41
274.459	8634.46
274.528	8607.46
274.597	8598.75
274.665	8592.2
274.734	8599.47
274.803	8585.37
274.872	8578.1
274.94	8563.42
275.009	8610.42
275.078	8593.38
275.147	8594.11
275.215	8593.72
275.284	8601.23
275.353	8584.05
275.421	8561.86
275.49	8571.3
275.559	8564.32
275.627	8554.7
275.696	8546.37
275.765	8550.41
275.833	8545.27
275.902	8544.69
275.971	8559.85
276.039	8569.81
276.108	8574.19
276.177	8573.61
276.245	8563.46
276.314	8561.19
276.383	8569.57
276.451	8505.82
276.52	8508.51
276.588	8518.38
276.657	8526.18
276.725	8514.34
276.794	8520.31
276.863	8531.42
276.931	8509.09
277	8518.96
277.068	8528.77
277.137	8549.71
277.205	8543.88
277.274	8560.58
277.342	8565.1
277.411	8540.13
277.48	8528.29
277.548	8520.02
277.617	8520.98
277.685	8515.54
277.754	8515.35
277.822	8508.23
277.89	8522.19
277.959	8516.6
278.027	8496.97
278.096	8477.53
278.164	8503.62
278.233	8497.79
278.301	8489.56
278.37	8501.6
278.438	8485.47
278.507	8487.54
278.575	8458.57
278.643	8455.4
278.712	8433.36
278.78	8424.79
278.849	8438.26
278.917	8443.41
278.985	8437.4
279.054	8439.51
279.122	8451.74
279.191	8448.32
279.259	8444.47
279.327	8424.93
279.396	8440.96
279.464	8438.26
279.532	8448.41
279.601	8440.95
279.669	8434.02
279.737	8450.24
279.806	8445.09
279.874	8452.5
279.942	8447.84
280.011	8446.63
280.079	8451.54
280.147	8468.48
280.215	8472.04
280.284	8468.86
280.352	8461.26
280.42	8470.07
280.488	8462.46
280.557	8455.63
280.625	8458.04
280.693	8455.39
280.761	8456.26
280.83	8442.06
280.898	8452.93
280.966	8435.76
281.034	8406.83
281.102	8387.01
281.171	8374.17
281.239	8378.69
281.307	8372.19
281.375	8362.76
281.443	8382.35
281.512	8377.15
281.58	8384.18
281.648	8368.88
281.716	8368.01
281.784	8365.6
281.852	8358.05
281.92	8357.09
281.989	8365.65
282.057	8350.45
282.125	8394.29
282.193	8389.19
282.261	8382.17
282.329	8374.18
282.397	8375.96
282.465	8378.66
282.533	8400.69
282.601	8388.37
282.67	8374.56
282.738	8368.07
282.806	8382.02
282.874	8369.51
282.942	8372.35
283.01	8369.46
283.078	8374.08
283.146	8367.34
283.214	8371.14
283.282	8373.79
283.35	8388.03
283.418	8380.19
283.486	8380.19
283.554	8337.21
283.622	8337.98
283.69	8343.37
283.758	8341.49
283.826	8344.52
283.894	8357.23
283.962	8379.46
284.03	8403.47
284.098	8398.13
284.165	8391.64
284.233	8384.76
284.301	8376.62
284.369	8372.29
284.437	8365.8
284.505	8364.26
284.573	8382.49
284.641	8369.74
284.709	8372.34
284.777	8351.7
284.845	8357.42
284.912	8368.01
284.98	8375.56
285.048	8375.51
285.116	8380.57
285.184	8397.7
285.252	8399.77
285.319	8384.95
285.387	8374.07
285.455	8354.68
285.523	8363.1
285.591	8357.9
285.659	8362.14
285.726	8381.96
285.794	8371.66
285.862	8361.9
285.93	8359.01
285.997	8355.06
286.065	8357.61
286.133	8352.27
286.201	8350.97
286.269	8339.42
286.336	8332.5
286.404	8324.41
286.472	8331.87
286.539	8308.11
286.607	8287.85
286.675	8287.8
286.743	8290.25
286.81	8278.03
286.878	8286.93
286.946	8278.85
287.013	8281.93
287.081	8284.33
287.149	8264.65
287.216	8279.62
287.284	8280.72
287.352	8285.39
287.419	8281.78
287.487	8297.51
287.555	8304.3
287.622	8300.79
287.69	8309.02
287.758	8320.95
287.825	8318.93
287.893	8306.32
287.96	8311.71
288.028	8320.99
288.096	8326.38
288.163	8333.55
288.231	8326.19
288.298	8322.87
288.366	8341.25
288.433	8343.61
288.501	8330.04
288.569	8334.9
288.636	8332.5
288.704	8343.27
288.771	8346.5
288.839	8337.07
288.906	8330.62
288.974	8336.01
289.041	8336.59
289.109	8329.9
289.176	8338.27
289.244	8342.94
289.311	8360.36
289.379	8372.96
289.446	8378.5
289.514	8379.56
289.581	8380.33
289.649	8387.59
289.716	8393.12
289.783	8382.01
289.851	8402.41
289.918	8412.22
289.986	8420.4
290.053	8421.7
290.121	8422.47
290.188	8425.12
290.255	8450.14
290.323	8448.41
290.39	8441.14
290.458	8449.18
290.525	8457.98
290.592	8449.46
290.66	8451.44
290.727	8439.74
290.794	8452.45
290.862	8453.36
290.929	8453.22
290.996	8447.39
291.064	8453.07
291.131	8462.17
291.198	8478.58
291.266	8474.78
291.333	8482.14
291.4	8491.67
291.468	8506.1
291.535	8499.61
291.602	8504.47
291.669	8500.67
291.737	8507.93
291.804	8511.11
291.871	8525.35
291.938	8533.68
292.006	8557.55
292.073	8573.62
292.14	8588.35
292.207	8578.53
292.275	8578.05
292.342	8590.71
292.409	8627.29
292.476	8654.87
292.543	8651.5
292.611	8649.91
292.678	8665.07
292.745	8679.75
292.812	8688.12
292.879	8685.62
292.946	8694.86
293.014	8705.3
293.081	8717.58
293.148	8728.84
293.215	8745.64
293.282	8733.32
293.349	8742.41
293.416	8731.01
293.484	8741.93
293.551	8747.61
293.618	8769.32
293.685	8793.96
293.752	8789.77
293.819	8780.92
293.886	8768.93
293.953	8777.35
294.02	8782.31
294.087	8791.5
294.154	8786.64
294.221	8797.96
294.288	8801.76
294.356	8815.72
294.423	8825.25
294.49	8811.53
294.557	8821.73
294.624	8808.93
294.691	8834.01
294.758	8831.94
294.825	8831.36
294.892	8822.31
294.959	8825.58
295.026	8830.45
295.093	8828.09
295.16	8828.62
295.226	8826.59
295.293	8849.89
295.36	8851.58
295.427	8861.16
295.494	8869.68
295.561	8879.6
295.628	8904.06
295.695	8918.4
295.762	8925.72
295.829	8934.19
295.896	8955.9
295.963	8968.71
296.03	8977.8
296.096	8983.97
296.163	8995.71
296.23	9015.79
296.297	9027.67
296.364	9028.69
296.431	9032.34
296.498	9028.45
296.564	9050.93
296.631	9058.72
296.698	9041.44
296.765	9071.87
296.832	9070.28
296.899	9057.14
296.965	9072.59
297.032	9050.25
297.099	9069.27
297.166	9074.13
297.233	9072.49
297.299	9059.45
297.366	9058.82
297.433	9066.47
297.5	9076.78
297.566	9073.6
297.633	9074.37
297.7	9080
297.767	9077.69
297.833	9089.63
297.9	9093.39
297.967	9074.61
298.033	9079.81
298.1	9113.08
298.167	9095.27
298.234	9100.52
298.3	9109.52
298.367	9104.03
298.434	9107.45
298.5	9092.76
298.567	9087.61
298.634	9087.52
298.7	9108.75
298.767	9107.64
298.834	9122.23
298.9	9117.27
298.967	9113.46
299.033	9129.11
299.1	9136.53
299.167	9149.81
299.233	9140.18
299.3	9149.48
299.366	9174.12
299.433	9194.54
299.5	9164.4
299.566	9169.65
299.633	9184.91
299.699	9194.92
299.766	9192.37
299.832	9202.39
299.899	9214.91
299.965	9229.21
300.032	9225.31
300.099	9228.77
300.165	9236.77
300.232	9228.29
300.298	9229.83
300.365	9249.14
300.431	9243.36
300.498	9243.65
300.564	9253.86
300.631	9273.26
300.697	9286.94
300.763	9288.24
300.83	9281.93
300.896	9296.37
300.963	9304.89
301.029	9306.15
301.096	9313.56
301.162	9329.84
301.229	9324.64
301.295	9312.31
301.361	9315.68
301.428	9320.11
301.494	9314.09
301.561	9316.79
301.627	9324.06
301.693	9326.03
301.76	9329.4
301.826	9326.8
301.892	9340.57
301.959	9351.41
302.025	9340.24
302.092	9335.86
302.158	9345.63
302.224	9353.19
302.291	9349.58
302.357	9343.42
302.423	9341.44
302.49	9329.36
302.556	9343.42
302.622	9342.46
302.688	9353.53
302.755	9369.71
302.821	9378.19
302.887	9386.03
302.954	9385.41
303.02	9392.92
303.086	9398.7
303.152	9396.48
303.219	9392.82
303.285	9393.06
303.351	9403.9
303.417	9410.4
303.483	9403.37
303.55	9385.8
303.616	9386.13
303.682	9385.6
303.748	9383.24
303.815	9400.63
303.881	9410.31
303.947	9388.83
304.013	9395.19
304.079	9386.33
304.145	9361.53
304.212	9361.24
304.278	9352.86
304.344	9346.5
304.41	9333.36
304.476	9324.5
304.542	9317.13
304.608	9318.87
304.674	9300.81
304.741	9283.76
304.807	9288.67
304.873	9289.39
304.939	9310.1
305.005	9291.22
305.071	9285.88
305.137	9287.71
305.203	9258.19
305.269	9260.45
305.335	9271.58
305.401	9266.04
305.467	9265.61
305.533	9277.74
305.599	9282.41
305.666	9295.41
305.732	9298.78
305.798	9315.35
305.864	9341.11
305.93	9348.28
305.996	9357.05
306.062	9360.71
306.128	9359.89
306.194	9343.76
306.259	9348.67
306.325	9336.29
306.391	9341.44
306.457	9359.16
306.523	9369.03
306.589	9395.9
306.655	9390.7
306.721	9377.99
306.787	9371.2
306.853	9386.9
306.919	9369.37
306.985	9358.06
307.051	9345.73
307.117	9339.14
307.183	9332.2
307.248	9304.66
307.314	9310.43
307.38	9304.13
307.446	9312.02
307.512	9309.09
307.578	9311.97
307.644	9302.63
307.709	9308.07
307.775	9306.29
307.841	9297
307.907	9294.11
307.973	9274.17
308.039	9270.13
308.104	9271.53
308.17	9268.83
308.236	9253.13
308.302	9259.29
308.368	9252.94
308.433	9253.9
308.499	9249.67
308.565	9234.16
308.631	9235.32
308.696	9210.71
308.762	9203.01
308.828	9202.96
308.894	9177.83
308.959	9157.52
309.025	9150.87
309.091	9144.8
309.156	9136.52
309.222	9137.15
309.288	9125.93
309.354	9099.93
309.419	9100.7
309.485	9090.88
309.551	9093.82
309.616	9081.5
309.682	9068.3
309.748	9060.07
309.813	9054.97
309.879	9045.53
309.945	9037.06
310.01	9029.55
310.076	9035.42
310.141	9028.15
310.207	9010.92
310.273	9017.27
310.338	9023.48
310.404	9011.3
310.469	8995.03
310.535	8990.84
310.601	8967.64
310.666	8968.36
310.732	8987.32
310.797	8969.85
310.863	8958.49
310.928	8952.9
310.994	8957.76
311.059	8963.16
311.125	8961.09
311.191	8973.56
311.256	8962.58
311.322	8969.66
311.387	8952.33
311.453	9308.1
311.518	9284.61
311.584	9277.39
311.649	9281
311.715	9273.3
311.78	9273.83
311.846	9266.17
311.911	9268.15
311.976	9278.98
312.042	9261.65
312.107	9241.53
312.173	9232.53
312.238	9231.18
312.304	9218.85
312.369	9207.83
312.434	9194.54
312.5	9190.89
312.565	9156.51
312.631	9166.19
312.696	9157.91
312.761	9158.97
312.827	8791.02
312.892	8825.63
312.958	8827.7
313.023	8820.77
313.088	8819.42
313.154	8805.85
313.219	8801.37
313.284	8787.51
313.35	8773.79
313.415	8766.48
313.48	8763.35
313.546	8769.7
313.611	8775.77
313.676	8773.26
313.741	8765.27
313.807	8774.95
313.872	8779.09
313.937	8782.89
314.003	8790.69
314.068	8791.03
314.133	8804.7
314.198	8801.38
314.264	8782.12
314.329	8773.17
314.394	8775.76
314.459	8775.52
314.525	8799.11
314.59	8790.73
314.655	8782.55
314.72	8785.49
314.785	8791.02
314.851	8789.39
314.916	8769.7
314.981	8752.04
315.046	8742.85
315.111	8734.95
315.176	8722.44
315.242	8723.55
315.307	8724.17
315.372	8701.31
315.437	8691.78
315.502	8681.57
315.567	8690.77
315.632	8675.32
315.698	8674.69
315.763	8667.52
315.828	8659.15
315.893	8652.7
315.958	8651.73
316.023	8641.15
316.088	8632.53
316.153	8608.62
316.218	8604.09
316.283	8591.34
316.348	8577.15
316.413	8579.17
316.479	8561.32
316.544	8529.61
316.609	8502.27
316.674	8467.54
316.739	8435.78
316.804	8404.56
316.869	8365.25
316.934	8317.71
316.999	8285.96
317.064	8237.32
317.129	8189.64
317.194	8151.39
317.259	8104.29
317.324	8053.6
317.389	8018.15
317.454	7976.58
317.518	7947.1
317.583	7916.65
317.648	7896.93
317.713	7862.45
317.778	7802.85
317.843	7779.05
317.908	7741.54
317.973	7694.51
318.038	7671.96
318.103	7640.18
318.168	7611
318.233	7578.21
318.297	7535.47
318.362	7506.05
318.427	7467.36
318.492	7446.01
318.557	7397.47
318.622	7367.66
318.687	7349.54
318.751	7303.85
318.816	7271.3
318.881	7237.18
318.946	7183.74
319.011	7139.04
319.075	7100.26
319.14	7068.94
319.205	7019.69
319.27	6985.96
319.335	6947.49
319.399	6904.2
319.464	6871.91
319.529	6815.86
319.594	6779.26
319.658	6754.57
319.723	6715.18
319.788	6689.92
319.853	6637.91
319.917	6614.96
319.982	6562.32
320.047	6523.86
320.112	6502.54
320.176	6450.64
320.241	6416.84
320.306	6394.23
320.37	6350.59
320.435	6324.05
320.5	6296.16
320.564	6259.64
320.629	6219.86
320.694	6189.14
320.758	6147.83
320.823	6106.18
320.888	6084.45
320.952	6039.64
321.017	5992.62
321.082	5955.67
321.146	5923.39
321.211	5893.69
321.275	5851.25
321.34	5809.67
321.405	5766.61
321.469	5717.98
321.534	5680.16
321.598	5631.49
321.663	5593.6
321.727	5564.74
321.792	5510.23
321.857	5466.21
321.921	5429.4
321.986	5389.82
322.05	5335.78
322.115	5300.55
322.179	5258.1
322.244	5200.33
322.308	5168.23
322.373	5127.52
322.437	5081.05
322.502	5054.54
322.566	5003.96
322.631	4968.71
322.695	4930.37
322.76	4886.65
322.824	4855.96
322.889	4809.54
322.953	4765.31
323.018	4702.08
323.082	4637.23
323.146	4591.44
323.211	4536.65
323.275	4495.59
323.34	4449.72
323.404	4419.97
323.468	4372.75
323.533	4331.19
323.597	4291.99
323.662	4242.1
323.726	4208.1
323.79	4163.59
323.855	4095.42
323.919	4049.15
323.983	4005.74
324.048	3941.64
324.112	4100.81
324.177	3973.07
324.241	3773.58
324.305	3572.74
324.37	3376.4
324.434	3188.18
324.498	3146.44
324.562	3100.46
324.627	3041.12
324.691	2989.62
324.755	2922.15
324.82	2851.64
324.884	2776.93
324.948	2706.08
325.012	2613.23
325.077	2489.72
