Data from 20250703_urea_0.1M_MAYP1162681_19-31-05-325.txt Node
Date: Thu Jul 03 19:31:05 BST 2025
User: adleo
Spectrometer: MAYP116268
Trigger mode: 0
Integration Time (sec): 1.000000E0
Scans to average: 1
Electric dark correction enabled: true
Nonlinearity correction enabled: true
Boxcar width: 10
XAxis mode: Wavelengths
Number of Pixels in Spectrum: 2068
>>>>>Begin Spectral Data<<<<<
179.565	1359.97
179.642	1423.36
179.718	1470.47
179.795	1514.06
179.871	1552.04
179.948	1574.41
180.024	1600.49
180.101	1629.56
180.177	1647.74
180.254	1674.58
180.33	1700.29
180.407	1767.65
180.483	1875.6
180.56	1979.28
180.636	2074.24
180.712	2059.16
180.789	2073.86
180.865	2089.55
180.942	2097.58
181.018	2111.66
181.095	2125.8
181.171	2130.08
181.248	2132.93
181.324	2153.77
181.4	2161.86
181.477	2174.04
181.553	2189.36
181.63	2210.34
181.706	2226.71
181.782	2235.22
181.859	2231.85
181.935	2236.46
182.011	2232.13
182.088	2250.93
182.164	2271.16
182.24	2289.72
182.317	2297.66
182.393	2293.81
182.469	2309.42
182.546	2327.7
182.622	2331.55
182.698	2328.93
182.775	2341.35
182.851	2356.35
182.927	2349.02
183.003	2344.97
183.08	2340.74
183.156	2349.3
183.232	2345.07
183.308	2332.55
183.385	2343.97
183.461	2366.82
183.537	2370.72
183.613	2387.38
183.69	2374.2
183.766	2361.29
183.842	2366.62
183.918	2374.62
183.995	2392.8
184.071	2393.33
184.147	2384.28
184.223	2372.01
184.299	2389.05
184.375	2379.91
184.452	2388.25
184.528	2438.1
184.604	2448.86
184.68	2461.85
184.756	2469.71
184.832	2474.28
184.908	2479.42
184.985	2474.99
185.061	2455.95
185.137	2463.95
185.213	2448.95
185.289	2452
185.365	2445.43
185.441	2444.24
185.517	2458.05
185.593	2453.58
185.669	2450.25
185.745	2463.62
185.822	2484.23
185.898	2472.37
185.974	2481.18
186.05	2472.22
186.126	2434.75
186.202	2430.32
186.278	2426.18
186.354	2416.94
186.43	2426.28
186.506	2422.09
186.582	2424.14
186.658	2431.85
186.734	2411.05
186.81	2414.85
186.886	2420.28
186.962	2433.28
187.038	2429.04
187.114	2417.75
187.19	2426.51
187.266	2416.9
187.341	2419.85
187.417	2408.19
187.493	2408.47
187.569	2413.71
187.645	2409.43
187.721	2399.33
187.797	2406.09
187.873	2411.42
187.949	2405.67
188.025	2399.09
188.101	2405.28
188.176	2410.56
188.252	2406.57
188.328	2412.66
188.404	2412.66
188.48	2405.28
188.556	2398.09
188.632	2396.95
188.707	2399.52
188.783	2392.95
188.859	2390.23
188.935	2375.95
189.011	2386.61
189.086	2380.95
189.162	2369.86
189.238	2365.72
189.314	2362.19
189.39	2355.96
189.465	2344.77
189.541	2360.81
189.617	2343.2
189.693	2335.4
189.768	2337.45
189.844	2364.78
189.92	2357.84
189.996	2367.69
190.071	2382.54
190.147	2381.73
190.223	2391.83
190.298	2383.92
190.374	2370.17
190.45	2380.78
190.526	2390.21
190.601	2381.88
190.677	2381.07
190.753	2410.45
190.828	2413.79
190.904	2430.59
190.98	2447.59
191.055	2459.49
191.131	2449.92
191.207	2472.25
191.282	2484.62
191.358	2474.63
191.433	2457.05
191.509	2470.99
191.585	2467.04
191.66	2466.71
191.736	2477.32
191.811	2467.8
191.887	2485.71
191.963	2511.33
192.038	2518.13
192.114	2516.85
192.189	2522.32
192.265	2517.56
192.34	2494.41
192.416	2493.36
192.491	2485.79
192.567	2488.98
192.642	2490.22
192.718	2490.79
192.793	2479.32
192.869	2474.46
192.944	2477.65
193.02	2488.46
193.095	2494.84
193.171	2498.37
193.246	2498.75
193.322	2494.75
193.397	2499.03
193.473	2481.08
193.548	2463.22
193.624	2471.84
193.699	2472.79
193.775	2488.84
193.85	2490.75
193.925	2503.89
194.001	2502.46
194.076	2499.7
194.152	2488.55
194.227	2481.46
194.302	2470.37
194.378	2476.37
194.453	2473.32
194.529	2487.28
194.604	2466.09
194.679	2459.42
194.755	2440.53
194.83	2451.82
194.905	2450.77
194.981	2458.48
195.056	2453.15
195.131	2458.1
195.207	2456.06
195.282	2443.39
195.357	2424.68
195.433	2445.2
195.508	2430.1
195.583	2440.1
195.659	2452.15
195.734	2458
195.809	2458.86
195.884	2470.19
195.96	2470.09
196.035	2487.71
196.11	2484.52
196.185	2499.13
196.261	2502.75
196.336	2538.89
196.411	2523.98
196.486	2527.98
196.561	2520.7
196.637	2529.69
196.712	2549.56
196.787	2550.46
196.862	2568.37
196.937	2580.84
197.013	2584.99
197.088	2594.84
197.163	2618.15
197.238	2642.27
197.313	2643.46
197.388	2656.7
197.464	2688.19
197.539	2697.67
197.614	2688.48
197.689	2703.49
197.764	2725.51
197.839	2746.99
197.914	2739.37
197.989	2765
198.065	2782.34
198.14	2836.8
198.215	2866.63
198.29	2875.88
198.365	2892.37
198.44	2905.14
198.515	2934.03
198.59	2950.71
198.665	2980.12
198.74	2989.8
198.815	2987.13
198.89	3012.25
198.965	3049.41
199.04	3046.31
199.115	3064.99
199.19	3112.14
199.265	3110.76
199.34	3122.3
199.415	3160.43
199.49	3182.45
199.565	3192.28
199.64	3217.56
199.715	3212.36
199.79	3221.9
199.865	3231.91
199.94	3228.2
200.015	3261.3
200.09	3269.27
200.165	3277.19
200.24	3286.64
200.315	3330
200.39	3344.56
200.464	3350.81
200.539	3352.24
200.614	3371.46
200.689	3397.38
200.764	3407.4
200.839	3431.49
200.914	3436.31
200.989	3428.24
201.063	3442.93
201.138	3425.91
201.213	3427.63
201.288	3410.55
201.363	3415.51
201.438	3417.13
201.512	3434.78
201.587	3421.7
201.662	3424.23
201.737	3438.26
201.812	3447.52
201.886	3411.13
201.961	3424.97
202.036	3415.15
202.111	3410.71
202.186	3384.33
202.26	3365.19
202.335	3341.76
202.41	3333.79
202.485	3313.13
202.559	3289.95
202.634	3265.66
202.709	3276.96
202.784	3257.07
202.858	3260.83
202.933	3242.42
203.008	3237.65
203.082	3220.48
203.157	3222.96
203.232	3182.86
203.306	3166.82
203.381	3137.91
203.456	3119.16
203.53	3104.07
203.605	3090.49
203.68	3076.22
203.754	3076.03
203.829	3075.65
203.904	3066.4
203.978	3069.45
204.053	3089.15
204.127	3092.63
204.202	3110.66
204.277	3112.85
204.351	3127.31
204.426	3139.71
204.5	3155.5
204.575	3143.39
204.65	3187.49
204.724	3211.08
204.799	3251.14
204.873	3277.87
204.948	3317.29
205.022	3349.45
205.097	3382.27
205.171	3442.6
205.246	3498.87
205.32	3547.88
205.395	3599.75
205.469	3646.72
205.544	3711.19
205.618	3754.18
205.693	3833.41
205.767	3884.87
205.842	3978.57
205.916	4042.9
205.991	4107.2
206.065	4191.22
206.14	4289.33
206.214	4362.17
206.289	4437.69
206.363	4541.23
206.438	4637.21
206.512	4734.64
206.586	4850.11
206.661	4952.68
206.735	5029.53
206.81	5132.23
206.884	5254.29
206.958	5345.66
207.033	5468.46
207.107	5586.49
207.181	5738.71
207.256	5844.19
207.33	5983.67
207.405	6117.42
207.479	6263.83
207.553	6398.39
207.628	6512.09
207.702	6656.7
207.776	6786.42
207.851	6924.18
207.925	7078.92
207.999	7215.83
208.073	7353.32
208.148	7495.57
208.222	7627.88
208.296	7807.33
208.371	7967.74
208.445	8129.41
208.519	8310.26
208.593	8478.2
208.668	8623.1
208.742	8773.62
208.816	8933.63
208.89	9099.04
208.965	9250.92
209.039	9409.48
209.113	9588.21
209.187	9768.33
209.261	9918.82
209.336	10097.37
209.41	10274.01
209.484	10428.66
209.558	10610.39
209.632	10779.39
209.707	10946.49
209.781	11121.21
209.855	11296.04
209.929	11468.72
210.003	11624.77
210.077	11780.97
210.151	11980.7
210.226	12176.82
210.3	12358.64
210.374	12531.87
210.448	12687.27
210.522	12844.56
210.596	13009.46
210.67	13158.46
210.744	13349.16
210.818	13527.94
210.892	13694.39
210.966	13833.85
211.041	13987.87
211.115	14126.31
211.189	14294.88
211.263	14455.36
211.337	14606.29
211.411	14754.08
211.485	14894.93
211.559	15049.37
211.633	15181.16
211.707	15291.06
211.781	15431.42
211.855	15533.7
211.929	15666.01
212.003	15774.8
212.077	15912.8
212.151	16050.89
212.225	16194.38
212.299	16311.54
212.373	16431.41
212.447	16554.17
212.52	16712.83
212.594	16842.71
212.668	16970.34
212.742	17071.21
212.816	17186.92
212.89	17296.86
212.964	17411.75
213.038	17525.05
213.112	17651.55
213.186	17790.06
213.26	17871.46
213.333	17931.21
213.407	18040.47
213.481	18142.49
213.555	18265.43
213.629	18362.53
213.703	18450.62
213.777	18550.23
213.85	18632.01
213.924	18771.81
213.998	18872.1
214.072	18966.6
214.146	19047.32
214.219	19143.79
214.293	19243.02
214.367	19333.28
214.441	19436.45
214.515	19517.7
214.588	19583.05
214.662	19636.54
214.736	19691.33
214.81	19785.49
214.883	19892.62
214.957	19969.49
215.031	20036.62
215.105	20097.14
215.178	20162.88
215.252	20238.78
215.326	20296.08
215.4	20350.63
215.473	20368.03
215.547	20413.28
215.621	20462.15
215.694	20539.89
215.768	20581.72
215.842	20624.37
215.915	20673.68
215.989	20707.32
216.063	20761.49
216.136	20823.76
216.21	20877.83
216.284	20961.21
216.357	21030.47
216.431	21071.92
216.504	21132.84
216.578	21223.35
216.652	21293.91
216.725	21352.38
216.799	21421.02
216.873	21475.58
216.946	21542.62
217.02	21592.22
217.093	21640.9
217.167	21673.44
217.24	21714.89
217.314	21761.89
217.387	21815.44
217.461	21861.28
217.535	21934.88
217.608	21973.16
217.682	22025.8
217.755	22087.98
217.829	22113.14
217.902	22156.62
217.976	22199.62
218.049	22237.8
218.123	22256.94
218.196	22305.39
218.27	22337.5
218.343	22358.85
218.417	22393.03
218.49	22428.27
218.563	22485.26
218.637	22536.46
218.71	22598.41
218.784	22644.41
218.857	22707.27
218.931	22758.33
219.004	22808.38
219.077	22857.17
219.151	22895.02
219.224	22913.2
219.298	22955.1
219.371	23007.46
219.444	23030.41
219.518	23070.48
219.591	23110.4
219.665	23178.68
219.738	23216.39
219.811	23244.21
219.885	23294.6
219.958	23347.69
220.031	23379.32
220.105	23418.53
220.178	23444.76
220.251	23472.1
220.325	23515.22
220.398	23543.19
220.471	23573.81
220.544	23615.38
220.618	23625.99
220.691	23660.47
220.764	23704.65
220.838	23730.4
220.911	23755.33
220.984	23806.07
221.057	23836.55
221.131	23866.35
221.204	23854.05
221.277	23898.57
221.35	23961.42
221.424	23978.3
221.497	23997.69
221.57	24017.65
221.643	24042.54
221.716	24081.85
221.79	24090.77
221.863	24094.83
221.936	24113.88
222.009	24134.23
222.082	24139.73
222.155	24157.96
222.229	24197.66
222.302	24220.81
222.375	24231.23
222.448	24256.75
222.521	24271.75
222.594	24283.04
222.667	24284.39
222.74	24310.15
222.814	24296.35
222.887	24305.71
222.96	24329.35
223.033	24357.18
223.106	24381.3
223.179	24389.21
223.252	24393.41
223.325	24401.03
223.398	24413.09
223.471	24419.31
223.544	24422.88
223.617	24442.18
223.69	24448.45
223.763	24429.83
223.837	24440.06
223.91	24458.92
223.983	24448.11
224.056	24436.58
224.129	24441.12
224.202	24454
224.275	24448.55
224.348	24448.74
224.42	24425.2
224.493	24408.7
224.566	24393.5
224.639	24389.45
224.712	24378.84
224.785	24373.77
224.858	24371.89
224.931	24360.99
225.004	24342.46
225.077	24341.16
225.15	24300.69
225.223	24298.42
225.296	24332.53
225.369	24304.36
225.442	24282.56
225.514	24271.22
225.587	24270.74
225.66	24266.59
225.733	24263.17
225.806	24259.16
225.879	24258.78
225.952	24242.96
226.025	24242.67
226.097	24244.98
226.17	24237.17
226.243	24207.12
226.316	24192.41
226.389	24183.24
226.461	24189.56
226.534	24183.63
226.607	24157.1
226.68	24173.89
226.753	24167.42
226.825	24124.58
226.898	24132.11
226.971	24123.47
227.044	24118.7
227.117	24101.62
227.189	24099.12
227.262	24098.2
227.335	24091.4
227.407	24062.08
227.48	24050.36
227.553	24027.49
227.626	24003.42
227.698	23988.08
227.771	23980.51
227.844	23958.71
227.916	23953.36
227.989	23917.43
228.062	23904.31
228.134	23927.51
228.207	23911.78
228.28	23883.91
228.352	23864.81
228.425	23840.88
228.498	23831.43
228.57	23805.34
228.643	23811.66
228.716	23782.14
228.788	23755.42
228.861	23737.43
228.934	23746.16
229.006	23738.78
229.079	23723.06
229.151	23692.39
229.224	23664.37
229.296	23655.21
229.369	23667.07
229.442	23656.27
229.514	23627.48
229.587	23617.31
229.659	23571.15
229.732	23550.7
229.804	23542.02
229.877	23549.64
229.949	23557.89
230.022	23556.54
230.094	23535.18
230.167	23507.69
230.239	23478.9
230.312	23459.85
230.384	23460.82
230.457	23434.58
230.529	23418.09
230.602	23404.93
230.674	23402.85
230.747	23391.38
230.819	23390.32
230.892	23332.4
230.964	23314.56
231.037	23299.47
231.109	23276.37
231.181	23270.83
231.254	23230.08
231.326	23207.76
231.399	23176.12
231.471	23125.83
231.544	23084.74
231.616	23081.66
231.688	23054.03
231.761	23026.11
231.833	22995.64
231.905	22943.95
231.978	22920.09
232.05	22886.48
232.122	22867.87
232.195	22827.32
232.267	22821.39
232.339	22789.08
232.412	22783.78
232.484	22753.21
232.556	22729.2
232.629	22735.09
232.701	22709.58
232.773	22696.18
232.846	22668.22
232.918	22643.43
232.99	22633.16
233.062	22606.5
233.135	22578.68
233.207	22536.4
233.279	22537.08
233.351	22514.37
233.424	22486.27
233.496	22452.67
233.568	22454.93
233.64	22396.89
233.713	22369.94
233.785	22340.82
233.857	22317.97
233.929	22272.18
234.001	22258.1
234.074	22247.35
234.146	22191.52
234.218	22162.41
234.29	22135.17
234.362	22090.1
234.434	22036.26
234.507	21983.13
234.579	21942.35
234.651	21900.03
234.723	21881.52
234.795	21841.13
234.867	21814.13
234.939	21801.12
235.012	21772.58
235.084	21740
235.156	21727.42
235.228	21692.62
235.3	21647.02
235.372	21610.67
235.444	21599.54
235.516	21542.32
235.588	21510.32
235.66	21477.25
235.732	21432.33
235.804	21452.09
235.876	21433.34
235.948	21422.07
236.02	21398.5
236.092	21360.66
236.164	21326.35
236.236	21290.68
236.308	21262
236.38	21226.72
236.452	21179.97
236.524	21147.82
236.596	21132.98
236.668	21104.25
236.74	21070.8
236.812	21045.41
236.884	21021.36
236.956	20976.44
237.028	20931.18
237.1	20893.35
237.172	20869.15
237.244	20860.82
237.316	20787.94
237.388	20745.48
237.46	20701.58
237.532	20680.18
237.604	20645.53
237.675	20631.07
237.747	20608.9
237.819	20557.19
237.891	20520.85
237.963	20479.79
238.035	20429.09
238.107	20337.53
238.178	20313.09
238.25	20279.26
238.322	20262.01
238.394	20197.14
238.466	20164.27
238.538	20142.88
238.609	20105.63
238.681	20050.16
238.753	19989
238.825	19946.93
238.897	19913.1
238.968	19899.41
239.04	19845.63
239.112	19829.54
239.184	19780.72
239.255	19734.46
239.327	19696.43
239.399	19661.01
239.471	19630.7
239.542	19610.27
239.614	19603.04
239.686	19545.74
239.758	19519.19
239.829	19468.88
239.901	19448.88
239.973	19411.29
240.044	19381.66
240.116	19345.13
240.188	19310
240.259	19275.83
240.331	19232.27
240.403	19212.85
240.474	19146.44
240.546	19099.84
240.618	19045.82
240.689	18996.62
240.761	18970.93
240.833	18962.45
240.904	18923.66
240.976	18888.29
241.048	18852.43
241.119	18819.38
241.191	18790.32
241.262	18771.57
241.334	18734.42
241.405	18700.83
241.477	18656.64
241.549	18612.16
241.62	18573.99
241.692	18552.98
241.763	18534.77
241.835	18500.89
241.906	18450.63
241.978	18402
242.049	18383.35
242.121	18363.45
242.192	18349.91
242.264	18282.44
242.335	18223.17
242.407	18190.83
242.478	18151.27
242.55	18118.74
242.621	18073.44
242.693	18020.43
242.764	17970.94
242.836	17918.26
242.907	17882.8
242.979	17858.46
243.05	17823.47
243.122	17790.46
243.193	17753.64
243.264	17690.17
243.336	17657.55
243.407	17639.72
243.479	17624.05
243.55	17596.49
243.622	17566.66
243.693	17529.02
243.764	17522.23
243.836	17477.5
243.907	17440.73
243.978	17403.91
244.05	17365.74
244.121	17311.67
244.192	17293.84
244.264	17239.86
244.335	17214.51
244.407	17159.62
244.478	17133.59
244.549	17097.5
244.62	17043.32
244.692	16998.31
244.763	16973.11
244.834	16931.56
244.906	16878.21
244.977	16853.49
245.048	16824.18
245.119	16767.07
245.191	16721
245.262	16660.27
245.333	16653.28
245.405	16616.85
245.476	16582.19
245.547	16557.13
245.618	16539.25
245.689	16511.83
245.761	16494.38
245.832	16465.66
245.903	16450.28
245.974	16407.92
246.045	16370.32
246.117	16359.29
246.188	16311.52
246.259	16266.79
246.33	16230.79
246.401	16206.02
246.473	16153.72
246.544	16112.85
246.615	16104.03
246.686	16069.13
246.757	16055.4
246.828	15999.53
246.899	15988.98
246.97	15940.73
247.042	15902.07
247.113	15878.22
247.184	15860.33
247.255	15818.79
247.326	15789.34
247.397	15753.52
247.468	15727.01
247.539	15701.37
247.61	15649.56
247.681	15628.83
247.752	15613.94
247.823	15568.53
247.894	15532.04
247.965	15499.17
248.037	15467.84
248.108	15416.5
248.179	15383.77
248.25	15350.85
248.321	15329.02
248.392	15278.65
248.463	15280.62
248.534	15241.96
248.605	15220.32
248.675	15186.1
248.746	15163.16
248.817	15139.1
248.888	15109.46
248.959	15057.11
249.03	15032.29
249.101	15021.34
249.172	14991.84
249.243	14937.81
249.314	14928.74
249.385	14903.2
249.456	14873.98
249.527	14844.92
249.598	14821.88
249.669	14789.53
249.739	14761.23
249.81	14738.58
249.881	14695.87
249.952	14665.07
250.023	14636.19
250.094	14578.88
250.165	14535.64
250.235	14501.32
250.306	14467.52
250.377	14434.84
250.448	14417.92
250.519	14368.85
250.59	14351.25
250.66	14320.02
250.731	14319.15
250.802	14296.64
250.873	14273.16
250.944	14254.17
251.014	14216.33
251.085	14214.11
251.156	14193.77
251.227	14183.64
251.297	14175.01
251.368	14169.18
251.439	14154.29
251.51	14146.14
251.58	14119.43
251.651	14090.03
251.722	14085.4
251.792	14036.81
251.863	14008.27
251.934	13996.99
252.005	14006.05
252.075	13976.45
252.146	13963.49
252.217	13947.48
252.287	13931.24
252.358	13906.22
252.429	13902.26
252.499	13868.71
252.57	13848.51
252.641	13836.51
252.711	13805.27
252.782	13760.83
252.852	13758.9
252.923	13730.65
252.994	13705.73
253.064	13697.48
253.135	13660.27
253.205	13626.19
253.276	13629.51
253.347	13632.65
253.417	13598.8
253.488	13570.8
253.558	13546.21
253.629	13523.94
253.699	13504.27
253.77	13485.95
253.841	13459.58
253.911	13438.37
253.982	13422.95
254.052	13401.11
254.123	13385.97
254.193	13371.46
254.264	13393.35
254.334	13348.23
254.405	13308.75
254.475	13272.25
254.546	13250.8
254.616	13252.92
254.687	13234.41
254.757	13211.61
254.827	13178.06
254.898	13164.66
254.968	13139.59
255.039	13103
255.109	13079.81
255.18	13048.77
255.25	12997.81
255.321	12982.82
255.391	12941.46
255.461	12936.69
255.532	12892.2
255.602	12859.75
255.673	12813.91
255.743	12777.95
255.813	12732.15
255.884	12722.99
255.954	12714.37
256.024	12711.09
256.095	12693.88
256.165	12659.31
256.235	12647.12
256.306	12614.63
256.376	12605.47
256.446	12594.14
256.517	12582.38
256.587	12583.87
256.657	12566.23
256.728	12561.22
256.798	12539.86
256.868	12520.1
256.938	12496.29
257.009	12487.08
257.079	12475.27
257.149	12482.79
257.219	12441.09
257.29	12431.93
257.36	12395.4
257.43	12386.09
257.5	12333.55
257.571	12308.63
257.641	12293.3
257.711	12258.5
257.781	12259.27
257.852	12242.3
257.922	12199.83
257.992	12178.87
258.062	12155.68
258.132	12144.64
258.202	12119.43
258.273	12103.04
258.343	12108.59
258.413	12086.8
258.483	12064.63
258.553	12036.19
258.623	12013.97
258.693	11999.02
258.764	12001.48
258.834	12000.52
258.904	11980.95
258.974	11955.11
259.044	11929.09
259.114	11916.94
259.184	11903.93
259.254	11873.13
259.324	11831.48
259.394	11824.25
259.464	11829.46
259.535	11805.89
259.605	11779.09
259.675	11752.1
259.745	11742.31
259.815	11704.62
259.885	11680.66
259.955	11690.21
260.025	11662.01
260.095	11635.36
260.165	11622.78
260.235	11627.55
260.305	11604.08
260.375	11572.22
260.445	11582.82
260.515	11585.28
260.585	11582.53
260.655	11566.87
260.725	11557.52
260.795	11554.19
260.865	11552.36
260.934	11524.31
261.004	11515.97
261.074	11503.01
261.144	11504.94
261.214	11499.68
261.284	11483.78
261.354	11474.52
261.424	11444.79
261.494	11451.1
261.564	11437.51
261.634	11429.51
261.703	11383.14
261.773	11371.91
261.843	11365.7
261.913	11349.21
261.983	11307.82
262.053	11295.96
262.123	11276.78
262.192	11247.29
262.262	11237.12
262.332	11205.6
262.402	11200.1
262.472	11183.91
262.541	11142.66
262.611	11141.74
262.681	11108.92
262.751	11101.45
262.821	11084.93
262.89	11049.89
262.96	11039.38
263.03	11043.67
263.1	11032.83
263.169	11013.8
263.239	11000.06
263.309	11008.4
263.379	10998.86
263.448	10993.36
263.518	10978.33
263.588	10964.88
263.657	10974.13
263.727	10967.92
263.797	10954.19
263.867	10929.51
263.936	10892.94
264.006	10894.43
264.076	10875.93
264.145	10859.64
264.215	10838
264.285	10830.82
264.354	10805.34
264.424	10782.78
264.494	10749.63
264.563	10729.01
264.633	10738.5
264.702	10729.15
264.772	10682.17
264.842	10661.01
264.911	10653.16
264.981	10630.46
265.05	10615.53
265.12	10589.51
265.19	10570.95
265.259	10570.38
265.329	10562.38
265.398	10554.38
265.468	10566.96
265.537	10538.43
265.607	10527.78
265.676	10522.44
265.746	10512.46
265.815	10513.52
265.885	10496.9
265.955	10475.75
266.024	10453.44
266.094	10418.75
266.163	10421.06
266.232	10433.01
266.302	10416.97
266.371	10405.02
266.441	10390.52
266.51	10382.23
266.58	10369.03
266.649	10351.45
266.719	10349.76
266.788	10337.96
266.858	10340.36
266.927	10299.36
266.996	10290.45
267.066	10286.55
267.135	10263.33
267.205	10258.13
267.274	10253.02
267.343	10251.04
267.413	10238.76
267.482	10247.77
267.552	10247.82
267.621	10216.65
267.69	10178.4
267.76	10169.87
267.829	10156.86
267.898	10141.69
267.968	10122.18
268.037	10118.18
268.106	10109.27
268.176	10077.62
268.245	10067.79
268.314	10055.6
268.384	10060.27
268.453	10048.28
268.522	10030.21
268.592	10033.87
268.661	10013.79
268.73	9998.18
268.799	9977.71
268.869	9987.53
268.938	9947.98
269.007	9928.43
269.076	9917.78
269.146	9923.51
269.215	9918.75
269.284	9926.6
269.353	9909.84
269.422	9892.69
269.492	9874.44
269.561	9840.77
269.63	9841.88
269.699	9826.32
269.768	9814.13
269.838	9808.59
269.907	9809.55
269.976	9788.8
270.045	9746.18
270.114	9740.11
270.183	9730.81
270.253	9725.56
270.322	9695.6
270.391	9694.06
270.46	9700.85
270.529	9703.6
270.598	9698.64
270.667	9680.43
270.736	9658.13
270.806	9656.54
270.875	9662.13
270.944	9645.8
271.013	9669.45
271.082	9656.4
271.151	9649.99
271.22	9622.93
271.289	9607.27
271.358	9593.93
271.427	9589.12
271.496	9586.47
271.565	9570.77
271.634	9558.63
271.703	9588.4
271.772	9589.08
271.841	9575.11
271.91	9549.68
271.979	9535.19
272.048	9510.48
272.117	9514.09
272.186	9500.22
272.255	9499.35
272.324	9494.54
272.393	9488.95
272.462	9470.75
272.531	9461.12
272.6	9448.5
272.669	9454.23
272.738	9447.68
272.807	9442.72
272.876	9422.16
272.945	9454.33
273.013	9454.09
273.082	9458.71
273.151	9405.39
273.22	9402.65
273.289	9394.7
273.358	9405.4
273.427	9393.45
273.496	9389.79
273.564	9389.5
273.633	9387.92
273.702	9369.18
273.771	9361.86
273.84	9359.94
273.909	9358.01
273.977	9356.62
274.046	9346.89
274.115	9353.05
274.184	9327.73
274.253	9320.89
274.322	9336.49
274.39	9299.8
274.459	9289.25
274.528	9256.22
274.597	9250.44
274.665	9249.72
274.734	9257.09
274.803	9242.11
274.872	9236.34
274.94	9226.03
275.009	9250.74
275.078	9237.11
275.147	9230.33
275.215	9222.82
275.284	9233.6
275.353	9220.17
275.421	9195.08
275.49	9210.44
275.559	9195.56
275.627	9190.51
275.696	9182.08
275.765	9181.75
275.833	9171.83
275.902	9170.43
275.971	9184.44
276.039	9203.8
276.108	9205.58
276.177	9202.35
276.245	9192.44
276.314	9189.16
276.383	9195.04
276.451	9156.27
276.52	9153.62
276.588	9167.48
276.657	9173.74
276.725	9156.75
276.794	9158.24
276.863	9170.76
276.931	9141.53
277	9150.25
277.068	9167.19
277.137	9180.87
277.205	9177.45
277.274	9199.02
277.342	9208.89
277.411	9190.55
277.48	9168.64
277.548	9154.96
277.617	9158.58
277.685	9148.42
277.754	9151.16
277.822	9139.66
277.89	9157.09
277.959	9152.8
278.027	9131.09
278.096	9115.39
278.164	9139.47
278.233	9126.47
278.301	9115.54
278.37	9120.84
278.438	9101.44
278.507	9093.97
278.575	9069.95
278.643	9069.8
278.712	9051.12
278.78	9032.15
278.849	9043.18
278.917	9055.6
278.985	9049.77
279.054	9051.46
279.122	9067.54
279.191	9066.57
279.259	9062.1
279.327	9037.35
279.396	9055.55
279.464	9056.12
279.532	9065.27
279.601	9066.96
279.669	9063.44
279.737	9074.32
279.806	9084.48
279.874	9095.89
279.942	9100.03
280.011	9091.08
280.079	9095.41
280.147	9110.14
280.215	9115.34
280.284	9110.34
280.352	9093.34
280.42	9107.16
280.488	9090.89
280.557	9082.27
280.625	9084.2
280.693	9078.66
280.761	9075.68
280.83	9052.42
280.898	9064.26
280.966	9048.86
281.034	9011.98
281.102	8994.46
281.171	8985.55
281.239	8991.28
281.307	8985.75
281.375	8971.26
281.443	9001.83
281.512	8991.04
281.58	9002.84
281.648	8986.9
281.716	8988.25
281.784	8995.18
281.852	8980.89
281.92	8978.91
281.989	8993.26
282.057	8972.75
282.125	9037.42
282.193	9042.19
282.261	9039.78
282.329	9030.25
282.397	9030.15
282.465	9037.13
282.533	9061.05
282.601	9050.41
282.67	9029.28
282.738	9015.27
282.806	9029.09
282.874	9016.91
282.942	9020.85
283.01	9009.49
283.078	9021.28
283.146	9014.26
283.214	9020.13
283.282	9025.86
283.35	9039.43
283.418	9030.58
283.486	9039.43
283.554	8984.34
283.622	8984.1
283.69	8986.94
283.758	8980.11
283.826	8988.92
283.894	8999.07
283.962	9015.83
284.03	9036.82
284.098	9037.11
284.165	9038.55
284.233	9034.17
284.301	9024.97
284.369	9015.3
284.437	9007.45
284.505	8994.02
284.573	9011.21
284.641	8997.44
284.709	8999.6
284.777	8983.14
284.845	8989.64
284.912	8992.14
284.98	9003.94
285.048	8991.13
285.116	8995.85
285.184	9016.84
285.252	9010.87
285.319	8991.81
285.387	8982.08
285.455	8962.05
285.523	8967.59
285.591	8962.78
285.659	8962.2
285.726	8975.68
285.794	8962.83
285.862	8958.16
285.93	8958.45
285.997	8951.22
286.065	8944.92
286.133	8935.58
286.201	8933.75
286.269	8918.68
286.336	8907.9
286.404	8893.84
286.472	8908.14
286.539	8889.03
286.607	8870.79
286.675	8874.16
286.743	8887.3
286.81	8884.84
286.878	8902.89
286.946	8898.71
287.013	8900.87
287.081	8905.3
287.149	8888.64
287.216	8908.52
287.284	8902.7
287.352	8906.31
287.419	8904.58
287.487	8929.56
287.555	8936.06
287.622	8932.45
287.69	8935.48
287.758	8952.38
287.825	8950.65
287.893	8932.07
287.96	8939.91
288.028	8947.42
288.096	8944.48
288.163	8944.15
288.231	8924.27
288.298	8916.32
288.366	8925.85
288.433	8919.02
288.501	8906.17
288.569	8911.41
288.636	8908.77
288.704	8923.64
288.771	8933.32
288.839	8922.2
288.906	8909.01
288.974	8918.92
289.041	8917.53
289.109	8910.36
289.176	8913.77
289.244	8913.97
289.311	8930.86
289.379	8942.56
289.446	8943.91
289.514	8949.11
289.581	8947.81
289.649	8957.63
289.716	8958.83
289.783	8950.21
289.851	8974.91
289.918	8978.04
289.986	8983.96
290.053	8985.11
290.121	8982.85
290.188	8991.95
290.255	9020.64
290.323	9016.36
290.39	9005.81
290.458	9010.91
290.525	9020.49
290.592	9019.1
290.66	9028.87
290.727	9025.31
290.794	9031.42
290.862	9033.63
290.929	9037.1
290.996	9037.1
291.064	9045.04
291.131	9058.86
291.198	9071.81
291.266	9064.78
291.333	9063.63
291.4	9076.97
291.468	9097.43
291.535	9092.71
291.602	9088.47
291.669	9085.15
291.737	9094.01
291.804	9088.86
291.871	9109.61
291.938	9122.03
292.006	9153.96
292.073	9161.52
292.14	9171.63
292.207	9168.31
292.275	9168.4
292.342	9177.07
292.409	9201.82
292.476	9227.19
292.543	9216.07
292.611	9219.11
292.678	9240.44
292.745	9271.15
292.812	9276.16
292.879	9271.44
292.946	9277.75
293.014	9291.04
293.081	9300.38
293.148	9310.97
293.215	9336.49
293.282	9331.92
293.349	9347.18
293.416	9320.02
293.484	9340.2
293.551	9352.04
293.618	9371.4
293.685	9400.53
293.752	9392.39
293.819	9392.39
293.886	9378.09
293.953	9387.33
294.02	9395.18
294.087	9404.14
294.154	9397.4
294.221	9415.7
294.288	9414.21
294.356	9436.89
294.423	9445.36
294.49	9437.66
294.557	9450.28
294.624	9439.2
294.691	9460.2
294.758	9454.99
294.825	9460.68
294.892	9445.6
294.959	9439.73
295.026	9454.75
295.093	9441.37
295.16	9446.9
295.226	9444.69
295.293	9473.05
295.36	9478.06
295.427	9495.93
295.494	9506.38
295.561	9510.91
295.628	9530.13
295.695	9542.74
295.762	9540.05
295.829	9549.05
295.896	9567.55
295.963	9580.36
296.03	9591.43
296.096	9596.83
296.163	9615.22
296.23	9633.72
296.297	9649.51
296.364	9650.52
296.431	9648.55
296.498	9653.12
296.564	9676.48
296.631	9677.15
296.698	9658.08
296.765	9685.58
296.832	9668.1
296.899	9647.29
296.965	9667.04
297.032	9640.64
297.099	9662.8
297.166	9680.24
297.233	9674.89
297.299	9664.39
297.366	9665.21
297.433	9666.12
297.5	9676.58
297.566	9669.74
297.633	9670.51
297.7	9674.94
297.767	9675.85
297.833	9682.64
297.9	9679.27
297.967	9659.72
298.033	9678.31
298.1	9710.54
298.167	9699.51
298.234	9711.69
298.3	9730.14
298.367	9729.08
298.434	9740.2
298.5	9727.58
298.567	9716.74
298.634	9714.53
298.7	9736.88
298.767	9737.26
298.834	9754.89
298.9	9741.21
298.967	9734.23
299.033	9743.62
299.1	9758.45
299.167	9776.9
299.233	9767.32
299.3	9784.8
299.366	9808.68
299.433	9819.38
299.5	9789.71
299.566	9796.26
299.633	9815.09
299.699	9829.06
299.766	9822.13
299.832	9829.35
299.899	9843.32
299.965	9860.47
300.032	9860.66
300.099	9869.04
300.165	9873.76
300.232	9869.23
300.298	9875.25
300.365	9894.04
300.431	9890.81
300.498	9885.71
300.564	9893.65
300.631	9909.6
300.697	9925.97
300.763	9929.01
300.83	9928
300.896	9952.51
300.963	9960.99
301.029	9958.58
301.096	9959.11
301.162	9974
301.229	9964.75
301.295	9952.75
301.361	9951.21
301.428	9955.74
301.494	9935.85
301.561	9938.59
301.627	9946.11
301.693	9953.62
301.76	9956.51
301.826	9957.67
301.892	9968.36
301.959	9977.32
302.025	9975.34
302.092	9967.88
302.158	9970.09
302.224	9978.81
302.291	9965.28
302.357	9963.83
302.423	9963.01
302.49	9950.83
302.556	9963.64
302.622	9966.82
302.688	9977.47
302.755	9994.91
302.821	10005.55
302.887	10014.46
302.954	10008.73
303.02	10014.56
303.086	10018.36
303.152	10020.67
303.219	10013.4
303.285	10022.41
303.351	10025.69
303.417	10027.37
303.483	10018.27
303.55	10012.68
303.616	10003.86
303.682	10004.54
303.748	9990.43
303.815	10006.32
303.881	10021.06
303.947	10011.04
304.013	10014.8
304.079	10005.31
304.145	9980.45
304.212	9978.77
304.278	9974.82
304.344	9978.14
304.41	9961.14
304.476	9948.33
304.542	9943.22
304.608	9954.78
304.674	9931.42
304.741	9928.72
304.807	9933.63
304.873	9939.75
304.939	9957.48
305.005	9943.46
305.071	9936.91
305.137	9943.12
305.203	9912.97
305.269	9911.52
305.335	9919.37
305.401	9914.22
305.467	9915.52
305.533	9928.82
305.599	9938.83
305.666	9950.78
305.732	9951.17
305.798	9967.74
305.864	9997.94
305.93	9994.47
305.996	9993.41
306.062	9993.17
306.128	9983.58
306.194	9968.84
306.259	9967.4
306.325	9955.93
306.391	9966.68
306.457	9981.13
306.523	9982.43
306.589	10007.81
306.655	10001.21
306.721	9983.29
306.787	9971.4
306.853	9986.09
306.919	9963.02
306.985	9957.09
307.051	9951.17
307.117	9941.15
307.183	9936.09
307.248	9900.3
307.314	9911.86
307.38	9911.14
307.446	9920.1
307.512	9915.62
307.578	9920.63
307.644	9916.29
307.709	9916.63
307.775	9910.08
307.841	9903.58
307.907	9908.97
307.973	9891.97
308.039	9890.47
308.104	9894.81
308.17	9893.12
308.236	9875.59
308.302	9883.25
308.368	9869.37
308.433	9869.04
308.499	9863.45
308.565	9851.74
308.631	9860.61
308.696	9827.61
308.762	9818.8
308.828	9811.53
308.894	9789.76
308.959	9773.77
309.025	9765.14
309.091	9759.56
309.156	9752.77
309.222	9754.6
309.288	9738.94
309.354	9713.27
309.419	9706.24
309.485	9688.85
309.551	9696.27
309.616	9677.1
309.682	9674.12
309.748	9666.41
309.813	9655.77
309.879	9650.37
309.945	9639.2
310.01	9629.9
310.076	9641.27
310.141	9634.04
310.207	9621.76
310.273	9627.78
310.338	9625.33
310.404	9607.56
310.469	9595.32
310.535	9588.44
310.601	9568.69
310.666	9571.72
310.732	9580.25
310.797	9567.44
310.863	9559.97
310.928	9552.89
310.994	9563.39
311.059	9561.66
311.125	9557.52
311.191	9576.16
311.256	9564.41
311.322	9566.77
311.387	9549.62
311.453	9937.9
311.518	9907.47
311.584	9901.16
311.649	9902.75
311.715	9896.39
311.78	9904.72
311.846	9893.35
311.911	9895.38
311.976	9895.91
312.042	9884.25
312.107	9871.88
312.173	9864.65
312.238	9859.16
312.304	9852.9
312.369	9837.93
312.434	9822.71
312.5	9815.34
312.565	9774.94
312.631	9780.14
312.696	9772.72
312.761	9775.9
312.827	9371.78
312.892	9418.44
312.958	9420.08
313.023	9415.07
313.088	9409.1
313.154	9394.66
313.219	9389.17
313.284	9378.86
313.35	9372.12
313.415	9358.83
313.48	9360.13
313.546	9365.28
313.611	9374.43
313.676	9364.95
313.741	9356.42
313.807	9364.85
313.872	9364.71
313.937	9369.42
314.003	9375.49
314.068	9380.36
314.133	9384.54
314.198	9376.5
314.264	9351.41
314.329	9338.6
314.394	9332.49
314.459	9341.97
314.525	9359.4
314.59	9352.9
314.655	9339.71
314.72	9350.21
314.785	9354.3
314.851	9340.14
314.916	9317.51
314.981	9300.04
315.046	9296.14
315.111	9288.63
315.176	9277.26
315.242	9289.16
315.307	9286.8
315.372	9268.88
315.437	9258.1
315.502	9248.03
315.567	9264.74
315.632	9247.12
315.698	9253.09
315.763	9256.08
315.828	9240.14
315.893	9228.92
315.958	9223.82
316.023	9223.77
316.088	9198.49
316.153	9179.66
316.218	9176.73
316.283	9156.66
316.348	9136.92
316.413	9133.69
316.479	9116.94
316.544	9077.9
316.609	9045.6
316.674	9010.31
316.739	8975.42
316.804	8938.98
316.869	8904.22
316.934	8859.36
316.999	8828.36
317.064	8770.12
317.129	8719.72
317.194	8684.97
317.259	8641.17
317.324	8584.97
317.389	8532.13
317.454	8489.3
317.518	8450.18
317.583	8426.11
317.648	8409.9
317.713	8381.84
317.778	8314.77
317.843	8287.1
317.908	8253.09
317.973	8207.09
318.038	8174.67
318.103	8134.7
318.168	8102.95
318.233	8072.69
318.297	8022.32
318.362	7985.19
318.427	7950.95
318.492	7925.41
318.557	7868.62
318.622	7840.19
318.687	7829.32
318.751	7796.14
318.816	7768.83
318.881	7733.39
318.946	7676.02
319.011	7629.85
319.075	7582.06
319.14	7553.94
319.205	7511.24
319.27	7477.79
319.335	7432.84
319.399	7400.54
319.464	7377.47
319.529	7324.79
319.594	7283.6
319.658	7257.41
319.723	7213.43
319.788	7185.56
319.853	7132.79
319.917	7107.33
319.982	7049.05
320.047	7005.61
320.112	6972.65
320.176	6920.57
320.241	6888.33
320.306	6859.27
320.37	6817.77
320.435	6788.95
320.5	6758.88
320.564	6719.92
320.629	6676.71
320.694	6649.53
320.758	6604.1
320.823	6556.08
320.888	6531.02
320.952	6480.85
321.017	6439.36
321.082	6403.12
321.146	6366.2
321.211	6333.51
321.275	6294.3
321.34	6254.81
321.405	6212.29
321.469	6168
321.534	6126.07
321.598	6073.14
321.663	6043.67
321.727	6012.39
321.792	5959.67
321.857	5916.97
321.921	5878.16
321.986	5834.33
322.05	5771.7
322.115	5733.48
322.179	5688.79
322.244	5629.88
322.308	5597.47
322.373	5545.35
322.437	5508.63
322.502	5482.25
322.566	5438.96
322.631	5403.59
322.695	5360.42
322.76	5313.8
322.824	5275.8
322.889	5233.02
322.953	5189.48
323.018	5115.98
323.082	5045.01
323.146	4997.13
323.211	4937.46
323.275	4885.78
323.34	4839.16
323.404	4807.33
323.468	4758.39
323.533	4716.32
323.597	4670.83
323.662	4615.83
323.726	4581.28
323.79	4530.45
323.855	4465.1
323.919	4410.56
323.983	4357.83
324.048	4290.1
324.112	4419.84
324.177	4288.85
324.241	4065.83
324.305	3846.86
324.37	3633.68
324.434	3430.79
324.498	3383.14
324.562	3331.26
324.627	3267.76
324.691	3209.73
324.755	3136.48
324.82	3056.27
324.884	2970.41
324.948	2891.96
325.012	2791.58
325.077	2653.86
