Data from 20250703_urea_0.1M_MAYP1162681_19-41-05-277.txt Node
Date: Thu Jul 03 19:41:05 BST 2025
User: adleo
Spectrometer: MAYP116268
Trigger mode: 0
Integration Time (sec): 1.000000E0
Scans to average: 1
Electric dark correction enabled: true
Nonlinearity correction enabled: true
Boxcar width: 10
XAxis mode: Wavelengths
Number of Pixels in Spectrum: 2068
>>>>>Begin Spectral Data<<<<<
179.565	1379.01
179.642	1445.74
179.718	1495.98
179.795	1538.41
179.871	1575.57
179.948	1596.17
180.024	1619.04
180.101	1646.59
180.177	1664.87
180.254	1692.27
180.33	1717.1
180.407	1783.83
180.483	1891.74
180.56	1995.23
180.636	2091.53
180.712	2077.59
180.789	2090.33
180.865	2100.46
180.942	2108.31
181.018	2119.44
181.095	2132.67
181.171	2138.81
181.248	2138.95
181.324	2155.7
181.4	2166.41
181.477	2179.3
181.553	2196.71
181.63	2221.69
181.706	2235.73
181.782	2242.34
181.859	2240.82
181.935	2246.72
182.011	2244.24
182.088	2262.52
182.164	2282.9
182.24	2298.26
182.317	2309.73
182.393	2306.3
182.469	2323.43
182.546	2341.66
182.622	2346.52
182.698	2340.14
182.775	2354.23
182.851	2371.22
182.927	2364.75
183.003	2356.04
183.08	2347.61
183.156	2353.52
183.232	2347.33
183.308	2335.67
183.385	2344.04
183.461	2363.89
183.537	2365.8
183.613	2378.74
183.69	2367.08
183.766	2355.23
183.842	2362.79
183.918	2369.13
183.995	2382.79
184.071	2387.55
184.147	2381.07
184.223	2366.7
184.299	2381.61
184.375	2368.8
184.452	2374.95
184.528	2424.56
184.604	2439.41
184.68	2454.16
184.756	2463.16
184.832	2467.54
184.908	2477.01
184.985	2474.87
185.061	2456.07
185.137	2465.88
185.213	2453.07
185.289	2457.02
185.365	2452.02
185.441	2452.59
185.517	2466.55
185.593	2461.69
185.669	2457.12
185.745	2470.27
185.822	2489.58
185.898	2476.63
185.974	2488.01
186.05	2479.25
186.126	2443.3
186.202	2435.59
186.278	2428.73
186.354	2419.59
186.43	2429.4
186.506	2426.45
186.582	2430.02
186.658	2438.58
186.734	2415.31
186.81	2419.64
186.886	2422.12
186.962	2435.06
187.038	2429.59
187.114	2419.49
187.19	2430.97
187.266	2421.87
187.341	2418.68
187.417	2412.26
187.493	2414.02
187.569	2415.68
187.645	2407.4
187.721	2396.74
187.797	2404.35
187.873	2411.25
187.949	2403.5
188.025	2394.59
188.101	2398.3
188.176	2403.4
188.252	2400.26
188.328	2410.82
188.404	2410.01
188.48	2405.3
188.556	2396.68
188.632	2396.01
188.707	2397.49
188.783	2392.68
188.859	2385.49
188.935	2375.64
189.011	2383.45
189.086	2378.4
189.162	2370.97
189.238	2366.64
189.314	2364.45
189.39	2356.6
189.465	2346.27
189.541	2366.98
189.617	2350.32
189.693	2343.09
189.768	2345.76
189.844	2369.28
189.92	2361.95
189.996	2372.57
190.071	2383.42
190.147	2384.57
190.223	2396.8
190.298	2388.9
190.374	2376.62
190.45	2392.18
190.526	2402.42
190.601	2394.56
190.677	2394.71
190.753	2422.95
190.828	2430.8
190.904	2446.71
190.98	2464.75
191.055	2480.28
191.131	2468.32
191.207	2491.46
191.282	2504.69
191.358	2493.74
191.433	2478.12
191.509	2491.44
191.585	2485.3
191.66	2488.4
191.736	2498.49
191.811	2489.39
191.887	2508.11
191.963	2533.21
192.038	2537.97
192.114	2536.02
192.189	2541.63
192.265	2540.68
192.34	2516.63
192.416	2513.63
192.491	2508.58
192.567	2511.53
192.642	2516.96
192.718	2518.53
192.793	2504.72
192.869	2495.77
192.944	2499.68
193.02	2507.58
193.095	2512.01
193.171	2523.96
193.246	2524.06
193.322	2517.73
193.397	2516.96
193.473	2500.01
193.548	2479.91
193.624	2486.05
193.699	2486.48
193.775	2502.91
193.85	2503.58
193.925	2516.2
194.001	2516.2
194.076	2509.87
194.152	2497.72
194.227	2485.58
194.302	2472.35
194.378	2477.25
194.453	2474.58
194.529	2487.11
194.604	2470.87
194.679	2464.97
194.755	2437.31
194.83	2449.17
194.905	2450.27
194.981	2457.17
195.056	2447.04
195.131	2452.18
195.207	2449.8
195.282	2439.27
195.357	2418.65
195.433	2435.03
195.508	2421.12
195.583	2429.55
195.659	2443.93
195.734	2452.98
195.809	2454.84
195.884	2465.31
195.96	2467.5
196.035	2485.64
196.11	2485.97
196.185	2501.16
196.261	2503.97
196.336	2543.25
196.411	2527.91
196.486	2530.77
196.561	2528.2
196.637	2541
196.712	2562.2
196.787	2565.87
196.862	2580.73
196.937	2594.77
197.013	2601.06
197.088	2609.92
197.163	2635.37
197.238	2652
197.313	2652.91
197.388	2667.01
197.464	2703.7
197.539	2714.61
197.614	2708.84
197.689	2721.04
197.764	2738.72
197.839	2758.68
197.914	2749.25
197.989	2772.78
198.065	2790.32
198.14	2843.44
198.215	2874.32
198.29	2885.1
198.365	2901.54
198.44	2915.98
198.515	2946.26
198.59	2961.8
198.665	2995.26
198.74	3004.66
198.815	3010.05
198.89	3034.4
198.965	3069.13
199.04	3062.45
199.115	3082.33
199.19	3126.24
199.265	3129.48
199.34	3140.74
199.415	3180.96
199.49	3203.37
199.565	3214.39
199.64	3237.95
199.715	3233.37
199.79	3239.52
199.865	3247.82
199.94	3244.72
200.015	3279.36
200.09	3283.42
200.165	3294.68
200.24	3300.35
200.315	3345.06
200.39	3357.46
200.464	3367.34
200.539	3367.34
200.614	3388.28
200.689	3412.24
200.764	3422.51
200.839	3441.16
200.914	3447.17
200.989	3433.66
201.063	3452.55
201.138	3435.63
201.213	3439.25
201.288	3418.83
201.363	3426.37
201.438	3424.94
201.512	3443.35
201.587	3424.11
201.662	3430.08
201.737	3444.97
201.812	3454.23
201.886	3419.46
201.961	3434.16
202.036	3419.8
202.111	3413.74
202.186	3382.55
202.26	3366.94
202.335	3344.51
202.41	3338.21
202.485	3323.95
202.559	3305.1
202.634	3278.52
202.709	3292.26
202.784	3270.6
202.858	3276.89
202.933	3259.48
203.008	3257.38
203.082	3240.49
203.157	3242.83
203.232	3203.11
203.306	3182.3
203.381	3152.72
203.456	3130.49
203.53	3116.97
203.605	3104.29
203.68	3088.02
203.754	3092.79
203.829	3088.16
203.904	3079.67
203.978	3084.01
204.053	3105.53
204.127	3110.3
204.202	3127.14
204.277	3127.24
204.351	3143.12
204.426	3155.72
204.5	3174.71
204.575	3167.6
204.65	3207.12
204.724	3231.62
204.799	3272.53
204.873	3308.87
204.948	3347.05
205.022	3376.29
205.097	3404.24
205.171	3464.47
205.246	3523.55
205.32	3570.75
205.395	3621.24
205.469	3665.11
205.544	3724.02
205.618	3761.53
205.693	3834.16
205.767	3889.5
205.842	3979.46
205.916	4045.28
205.991	4106.95
206.065	4183.37
206.14	4277.92
206.214	4354.3
206.289	4436.57
206.363	4539.16
206.438	4627.93
206.512	4727.84
206.586	4848.53
206.661	4956.22
206.735	5031.25
206.81	5136.54
206.884	5258.74
206.958	5356.25
207.033	5480.91
207.107	5608.35
207.181	5760.24
207.256	5874.97
207.33	6008.99
207.405	6144.56
207.479	6287.43
207.553	6422.65
207.628	6530.43
207.702	6675.58
207.776	6802.61
207.851	6934.33
207.925	7087.38
207.999	7217.17
208.073	7356.93
208.148	7496.97
208.222	7623.41
208.296	7809.93
208.371	7971.08
208.445	8128.22
208.519	8300.99
208.593	8466.67
208.668	8610.61
208.742	8755.31
208.816	8904.3
208.89	9073.22
208.965	9220.08
209.039	9379.17
209.113	9555.93
209.187	9739.79
209.261	9881.18
209.336	10051.53
209.41	10227.25
209.484	10373.22
209.558	10553.49
209.632	10715.03
209.707	10879.43
209.781	11060.31
209.855	11218.28
209.929	11387.54
210.003	11545.75
210.077	11697.18
210.151	11899.08
210.226	12088.84
210.3	12274.41
210.374	12449.52
210.448	12601.5
210.522	12763.94
210.596	12919.44
210.67	13066.75
210.744	13264.2
210.818	13452.14
210.892	13620.81
210.966	13759.01
211.041	13921.99
211.115	14059.57
211.189	14227.81
211.263	14389.58
211.337	14526.58
211.411	14683.39
211.485	14818.79
211.559	14967.5
211.633	15109.85
211.707	15211.84
211.781	15346.13
211.855	15441.08
211.929	15563.95
212.003	15673.56
212.077	15818.3
212.151	15962.42
212.225	16101.86
212.299	16216.28
212.373	16321.01
212.447	16433.6
212.52	16588.6
212.594	16708.27
212.668	16844.96
212.742	16950.46
212.816	17058.94
212.89	17177.12
212.964	17289.02
213.038	17405.75
213.112	17533.94
213.186	17660.73
213.26	17755.63
213.333	17819.14
213.407	17939.14
213.481	18053.84
213.555	18177.98
213.629	18267.14
213.703	18359.08
213.777	18475.42
213.85	18550.21
213.924	18683.17
213.998	18790.05
214.072	18884.22
214.146	18972.11
214.219	19064.78
214.293	19153.16
214.367	19251.42
214.441	19365.2
214.515	19443.37
214.588	19500.91
214.662	19557.48
214.736	19629
214.81	19716.6
214.883	19807.35
214.957	19868.98
215.031	19935.24
215.105	19980.83
215.178	20039.19
215.252	20113.79
215.326	20150.18
215.4	20212.2
215.473	20235.86
215.547	20294.03
215.621	20345.98
215.694	20422.37
215.768	20466.32
215.842	20519.58
215.915	20560.16
215.989	20585.36
216.063	20647.15
216.136	20707.73
216.21	20757.56
216.284	20827.11
216.357	20884.03
216.431	20937.47
216.504	21010.2
216.578	21095.37
216.652	21171.85
216.725	21233.93
216.799	21289.75
216.873	21355.2
216.946	21420.22
217.02	21471.64
217.093	21514.4
217.167	21544.28
217.24	21585.11
217.314	21632.54
217.387	21674.08
217.461	21722.67
217.535	21785.96
217.608	21818.01
217.682	21868.82
217.755	21930.23
217.829	21958.48
217.902	22003.35
217.976	22054.21
218.049	22090.8
218.123	22110.42
218.196	22158.14
218.27	22200.42
218.343	22223.41
218.417	22259.23
218.49	22294.95
218.563	22358.69
218.637	22406.7
218.71	22471.26
218.784	22514.98
218.857	22559.63
218.931	22606
219.004	22647.51
219.077	22695
219.151	22743.84
219.224	22789.31
219.298	22827.69
219.371	22882.75
219.444	22908.59
219.518	22942.58
219.591	22981.73
219.665	23052.32
219.738	23093.69
219.811	23114.43
219.885	23164.38
219.958	23208.4
220.031	23230.63
220.105	23261.49
220.178	23289.65
220.251	23301.56
220.325	23339.9
220.398	23386.87
220.471	23428.48
220.544	23461.95
220.618	23486.21
220.691	23523.29
220.764	23551.46
220.838	23584.59
220.911	23595.2
220.984	23658.66
221.057	23702.26
221.131	23735.63
221.204	23719.43
221.277	23763.41
221.35	23834.17
221.424	23861.8
221.497	23886.26
221.57	23919.43
221.643	23954.02
221.716	23995.59
221.79	24039.92
221.863	24056.8
221.936	24070.4
222.009	24093.79
222.082	24131.94
222.155	24143.95
222.229	24174.83
222.302	24200.82
222.375	24213.27
222.448	24231.89
222.521	24230.87
222.594	24229.18
222.667	24223.88
222.74	24262.13
222.814	24267.58
222.887	24272.02
222.96	24291.12
223.033	24306.75
223.106	24328.5
223.179	24338.1
223.252	24341.19
223.325	24347.56
223.398	24358.07
223.471	24366.08
223.544	24378.67
223.617	24378.57
223.69	24389.96
223.763	24373.17
223.837	24381.08
223.91	24400.47
223.983	24405.2
224.056	24396.04
224.129	24410.02
224.202	24424.98
224.275	24419.09
224.348	24414.75
224.42	24385.85
224.493	24358.84
224.566	24362.12
224.639	24372.3
224.712	24366.95
224.785	24366.75
224.858	24347.02
224.931	24335.74
225.004	24320.49
225.077	24312.44
225.15	24272.5
225.223	24263.48
225.296	24288.66
225.369	24259.82
225.442	24246.89
225.514	24236.08
225.587	24246.12
225.66	24246.21
225.733	24238.11
225.806	24241.53
225.879	24219.3
225.952	24206.56
226.025	24217.85
226.097	24220.6
226.17	24202.95
226.243	24172.32
226.316	24151.29
226.389	24149.16
226.461	24153.65
226.534	24154.86
226.607	24142.94
226.68	24160.98
226.753	24144.05
226.825	24101.6
226.898	24111.54
226.971	24091.71
227.044	24096.29
227.117	24075.51
227.189	24066.53
227.262	24069.81
227.335	24053.56
227.407	24042.42
227.48	24044.25
227.553	24033.25
227.626	24007.54
227.698	23986.51
227.771	23987.29
227.844	23975.47
227.916	23959.07
227.989	23925.4
228.062	23904.23
228.134	23912.96
228.207	23899.7
228.28	23884.99
228.352	23873.17
228.425	23850.79
228.498	23836.76
228.57	23790.32
228.643	23796.69
228.716	23775.8
228.788	23743.49
228.861	23718.55
228.934	23725.35
229.006	23706.64
229.079	23692.8
229.151	23668.25
229.224	23646.12
229.296	23629.53
229.369	23639.17
229.442	23645.15
229.514	23626.3
229.587	23617.52
229.659	23564.14
229.732	23545.47
229.804	23538.38
229.877	23551.55
229.949	23547.4
230.022	23553.09
230.094	23547.98
230.167	23526.67
230.239	23499.18
230.312	23489.68
230.384	23496.43
230.457	23473.48
230.529	23450.76
230.602	23430.17
230.674	23415.08
230.747	23400.28
230.819	23395.98
230.892	23335.08
230.964	23308.27
231.037	23288.3
231.109	23266.99
231.181	23261.74
231.254	23230.01
231.326	23205.51
231.399	23171.76
231.471	23143.07
231.544	23103.09
231.616	23096.77
231.688	23068.23
231.761	23029.51
231.833	22998.7
231.905	22945.86
231.978	22917.36
232.05	22894.89
232.122	22872.76
232.195	22851.59
232.267	22839.64
232.339	22801.84
232.412	22802.27
232.484	22765.96
232.556	22733.57
232.629	22733.18
232.701	22720.31
232.773	22699.87
232.846	22673.54
232.918	22651.27
232.99	22627.79
233.062	22599.05
233.135	22581.46
233.207	22540.67
233.279	22531.46
233.351	22510.78
233.424	22476.94
233.496	22443.77
233.568	22434.57
233.64	22384.28
233.713	22349
233.785	22319.49
233.857	22296.01
233.929	22245.25
234.001	22244.92
234.074	22231.42
234.146	22168.85
234.218	22126.23
234.29	22096.54
234.362	22057.44
234.434	22006.97
234.507	21960.55
234.579	21917.36
234.651	21868.63
234.723	21848.81
234.795	21826.16
234.867	21792.27
234.939	21780.66
235.012	21744.65
235.084	21719.53
235.156	21701.46
235.228	21657.07
235.3	21620.19
235.372	21581.29
235.444	21569.15
235.516	21507.16
235.588	21473.61
235.66	21445.13
235.732	21419.05
235.804	21447.59
235.876	21426.62
235.948	21409.85
236.02	21375.39
236.092	21339.77
236.164	21306.03
236.236	21264.73
236.308	21221.49
236.38	21196.38
236.452	21154.84
236.524	21127.41
236.596	21105.87
236.668	21076.81
236.74	21047.7
236.812	21014.92
236.884	20996.32
236.956	20946.77
237.028	20905.04
237.1	20862.92
237.172	20849.81
237.244	20823.83
237.316	20747.24
237.388	20699.87
237.46	20656.3
237.532	20641.5
237.604	20605.6
237.675	20594.56
237.747	20575.43
237.819	20542.66
237.891	20506.18
237.963	20470.13
238.035	20426.75
238.107	20353.5
238.178	20339.14
238.25	20300.78
238.322	20288.25
238.394	20230.13
238.466	20210.42
238.538	20176.64
238.609	20141.17
238.681	20078.37
238.753	20032.83
238.825	20002.37
238.897	19975.82
238.968	19955.77
239.04	19907.49
239.112	19908.16
239.184	19852.26
239.255	19800.84
239.327	19760.84
239.399	19719.54
239.471	19691.88
239.542	19666.58
239.614	19645.47
239.686	19577.48
239.758	19553.14
239.829	19502.88
239.901	19479.7
239.973	19430.21
240.044	19399.7
240.116	19371.61
240.188	19335.42
240.259	19294.7
240.331	19243.52
240.403	19210.65
240.474	19155.38
240.546	19111.19
240.618	19048.64
240.689	19006.09
240.761	18974.81
240.833	18954.57
240.904	18913.37
240.976	18872.31
241.048	18837.95
241.119	18803.69
241.191	18774.1
241.262	18761.24
241.334	18712.9
241.405	18672.28
241.477	18627.89
241.549	18591.9
241.62	18551.18
241.692	18525.97
241.763	18506.6
241.835	18479.03
241.906	18444.15
241.978	18392.82
242.049	18375.38
242.121	18347.72
242.192	18335.33
242.264	18289.26
242.335	18225.22
242.407	18201.31
242.478	18152.3
242.55	18117.27
242.621	18067.29
242.693	18023.05
242.764	17976.07
242.836	17945.13
242.907	17913.28
242.979	17889.66
243.05	17860.55
243.122	17844.7
243.193	17810.97
243.264	17747.79
243.336	17701.47
243.407	17671.55
243.479	17656.08
243.55	17618.58
243.622	17591.21
243.693	17548.75
243.764	17536.27
243.836	17497.67
243.907	17458.15
243.978	17424.8
244.05	17390.05
244.121	17344.22
244.192	17321.48
244.264	17269.38
244.335	17236.99
244.407	17188.99
244.478	17160.51
244.549	17113.09
244.62	17051.93
244.692	17008.84
244.763	16985.13
244.834	16945.76
244.906	16901.18
244.977	16866.04
245.048	16843.58
245.119	16793.17
245.191	16744.35
245.262	16677.79
245.333	16667.48
245.405	16626.99
245.476	16600.53
245.547	16569.16
245.618	16544.48
245.689	16514.17
245.761	16483.75
245.832	16442.64
245.903	16420.57
245.974	16387.26
246.045	16357
246.117	16345.33
246.188	16296.94
246.259	16254.38
246.33	16223.34
246.401	16184.88
246.473	16135.72
246.544	16100.15
246.615	16071.09
246.686	16034.31
246.757	16019.8
246.828	15973.92
246.899	15957.58
246.97	15909.47
247.042	15871.78
247.113	15847.2
247.184	15835.54
247.255	15790.57
247.326	15758.37
247.397	15720.15
247.468	15691.56
247.539	15658.5
247.61	15612.13
247.681	15605.81
247.752	15579.98
247.823	15531.01
247.894	15509.7
247.965	15478.47
248.037	15442.22
248.108	15401.63
248.179	15373.68
248.25	15346.68
248.321	15313.76
248.392	15276.12
248.463	15274.14
248.534	15243.77
248.605	15229.07
248.675	15191.81
248.746	15179.14
248.817	15159.9
248.888	15131.13
248.959	15080.61
249.03	15063.69
249.101	15035.01
249.172	14994.9
249.243	14952.39
249.314	14943.95
249.385	14919.85
249.456	14892.32
249.527	14857.81
249.598	14835.4
249.669	14810.86
249.739	14774.9
249.81	14754.8
249.881	14709.44
249.952	14682.11
250.023	14646.24
250.094	14590.08
250.165	14549.83
250.235	14519.51
250.306	14494.16
250.377	14461.76
250.448	14444.27
250.519	14390.23
250.59	14382.52
250.66	14349.64
250.731	14341.4
250.802	14315.56
250.873	14285.86
250.944	14267.11
251.014	14229.27
251.085	14232.84
251.156	14210.32
251.227	14208.25
251.297	14206.47
251.368	14193.79
251.439	14172.53
251.51	14171.28
251.58	14138.5
251.651	14109.53
251.722	14094.24
251.792	14047.29
251.863	14022.71
251.934	14007.04
252.005	14011.72
252.075	13977.78
252.146	13968.23
252.217	13953.34
252.287	13939.31
252.358	13912.41
252.429	13913.57
252.499	13891.1
252.57	13868.98
252.641	13859.58
252.711	13834.41
252.782	13788.86
252.852	13786.88
252.923	13760.75
252.994	13730.77
253.064	13720.55
253.135	13682.08
253.205	13644.77
253.276	13636.24
253.347	13633.59
253.417	13603.31
253.488	13571.88
253.558	13550.86
253.629	13523.1
253.699	13505.11
253.77	13485.59
253.841	13459.56
253.911	13435.75
253.982	13413.09
254.052	13393.03
254.123	13364.4
254.193	13340.78
254.264	13361.84
254.334	13319.04
254.405	13279.31
254.475	13248.94
254.546	13230.77
254.616	13228.75
254.687	13220.17
254.757	13207.15
254.827	13179.53
254.898	13157.64
254.968	13141.01
255.039	13110.74
255.109	13096.76
255.18	13062.39
255.25	13017.07
255.321	13007.34
255.391	12966.55
255.461	12968.58
255.532	12924.57
255.602	12903.69
255.673	12848.74
255.743	12806.61
255.813	12768.14
255.884	12759.17
255.954	12744.52
256.024	12747.46
256.095	12728.13
256.165	12688.31
256.235	12675.15
256.306	12642.9
256.376	12642.27
256.446	12636.25
256.517	12620.49
256.587	12611.95
256.657	12597.73
256.728	12581.68
256.798	12558.69
256.868	12537.86
256.938	12508.07
257.009	12495.73
257.079	12483.58
257.149	12502.34
257.219	12462.95
257.29	12447.38
257.36	12412.82
257.43	12400.77
257.5	12354.16
257.571	12327.36
257.641	12321.72
257.711	12287.73
257.781	12278.48
257.852	12258.86
257.922	12211.62
257.992	12196.39
258.062	12174.6
258.132	12166.98
258.202	12150.45
258.273	12135.8
258.343	12135.56
258.413	12105.33
258.483	12085.43
258.553	12051.06
258.623	12022.86
258.693	12017.51
258.764	12020.5
258.834	12020.45
258.904	12004.35
258.974	11973.16
259.044	11949.26
259.114	11936
259.184	11916.63
259.254	11898.26
259.324	11851.31
259.394	11841.63
259.464	11836.52
259.535	11811.6
259.605	11782.87
259.675	11755.59
259.745	11741.37
259.815	11709.9
259.885	11689.36
259.955	11700.02
260.025	11674.96
260.095	11654.28
260.165	11634.28
260.235	11632.4
260.305	11605.55
260.375	11572.2
260.445	11583.96
260.515	11588.68
260.585	11584.97
260.655	11570.75
260.725	11563.04
260.795	11564.72
260.865	11564.68
260.934	11533.25
261.004	11529.01
261.074	11513.59
261.144	11519.85
261.214	11521.11
261.284	11505.06
261.354	11501.92
261.424	11472.52
261.494	11478.11
261.564	11457.15
261.634	11451.46
261.703	11410.69
261.773	11401.1
261.843	11395.31
261.913	11382.49
261.983	11342.4
262.053	11325.29
262.123	11311.89
262.192	11281.53
262.262	11272.32
262.332	11243.07
262.402	11233.14
262.472	11218.39
262.541	11180.71
262.611	11171.6
262.681	11134.44
262.751	11121.09
262.821	11096.37
262.89	11060.32
262.96	11046.78
263.03	11056.76
263.1	11040.32
263.169	11024.95
263.239	11015.65
263.309	11014.78
263.379	10996.95
263.448	10984.66
263.518	10972.62
263.588	10955.51
263.657	10955.36
263.727	10949.39
263.797	10931.66
263.867	10918.11
263.936	10877.4
264.006	10873.78
264.076	10847.91
264.145	10829.74
264.215	10807.33
264.285	10807.14
264.354	10780.21
264.424	10755.73
264.494	10716.94
264.563	10700.65
264.633	10711.01
264.702	10695.78
264.772	10661.09
264.842	10644.51
264.911	10640.22
264.981	10615.55
265.05	10602.78
265.12	10584.28
265.19	10568.23
265.259	10568.33
265.329	10561.34
265.398	10553.01
265.468	10571.7
265.537	10555.47
265.607	10544.77
265.676	10545.2
265.746	10529.4
265.815	10524.63
265.885	10508.68
265.955	10489.56
266.024	10460.41
266.094	10419.36
266.163	10422.39
266.232	10427.07
266.302	10405.67
266.371	10386.21
266.441	10370.41
266.51	10364.43
266.58	10348.29
266.649	10326.13
266.719	10324.83
266.788	10314.18
266.858	10321.75
266.927	10274.24
266.996	10263.07
267.066	10261.38
267.135	10232.76
267.205	10230.35
267.274	10227.95
267.343	10228.38
267.413	10220.62
267.482	10230.5
267.552	10233.25
267.621	10197.02
267.69	10163.63
267.76	10155.73
267.829	10153.32
267.898	10140.07
267.968	10120.08
268.037	10115.84
268.106	10116.61
268.176	10089.49
268.245	10074.99
268.314	10058.71
268.384	10063.09
268.453	10051.19
268.522	10037.7
268.592	10040.59
268.661	10015.93
268.73	10007.74
268.799	9988.81
268.869	9994.49
268.938	9968.33
269.007	9949.4
269.076	9946.8
269.146	9948.1
269.215	9941.17
269.284	9948.06
269.353	9936.26
269.422	9921.81
269.492	9907.31
269.561	9867.72
269.63	9859.53
269.699	9843.82
269.768	9835.78
269.838	9831.16
269.907	9831.01
269.976	9805.34
270.045	9773.89
270.114	9769.31
270.183	9752.55
270.253	9742.34
270.322	9712.58
270.391	9700.25
270.46	9706.61
270.529	9706.27
270.598	9707.66
270.667	9694.85
270.736	9674.82
270.806	9665.52
270.875	9668.07
270.944	9652.32
271.013	9674.43
271.082	9668.99
271.151	9665.91
271.22	9635.52
271.289	9623
271.358	9612.5
271.427	9607.87
271.496	9601.42
271.565	9588.32
271.634	9582.49
271.703	9616.74
271.772	9619.92
271.841	9604.95
271.91	9580.14
271.979	9566.08
272.048	9537.09
272.117	9535.74
272.186	9519.22
272.255	9520.42
272.324	9515.61
272.393	9506.36
272.462	9487.24
272.531	9473.9
272.6	9463.74
272.669	9472.65
272.738	9458.35
272.807	9449.82
272.876	9430.32
272.945	9457
273.013	9461.82
273.082	9466.92
273.151	9412.21
273.22	9409.56
273.289	9403.83
273.358	9421.94
273.427	9415.39
273.496	9420.69
273.564	9419.38
273.633	9419.82
273.702	9402.34
273.771	9392.61
273.84	9393
273.909	9387.8
273.977	9392.8
274.046	9377.06
274.115	9379.27
274.184	9364.11
274.253	9355.54
274.322	9362.81
274.39	9329.44
274.459	9313.79
274.528	9275.65
274.597	9271.22
274.665	9266.26
274.734	9275.31
274.803	9257.88
274.872	9248.2
274.94	9228.9
275.009	9289.21
275.078	9269.13
275.147	9260.32
275.215	9253.82
275.284	9261.04
275.353	9257.29
275.421	9227.1
275.49	9242.41
275.559	9229.07
275.627	9224.45
275.696	9214.34
275.765	9218.72
275.833	9215.25
275.902	9215.93
275.971	9237.16
276.039	9254.25
276.108	9255.79
276.177	9251.6
276.245	9234.85
276.314	9233.98
276.383	9240.05
276.451	9170.73
276.52	9177.23
276.588	9195.58
276.657	9203.81
276.725	9188.16
276.794	9180.55
276.863	9191.43
276.931	9170.54
277	9182
277.068	9189.07
277.137	9209.44
277.205	9207.18
277.274	9220.85
277.342	9232.26
277.411	9204.05
277.48	9189.51
277.548	9179.79
277.617	9179.83
277.685	9170.11
277.754	9174.73
277.822	9167.75
277.89	9184.27
277.959	9179.17
278.027	9152.3
278.096	9133.38
278.164	9163.81
278.233	9161.11
278.301	9150.28
278.37	9155.63
278.438	9135.6
278.507	9138.87
278.575	9114.46
278.643	9105.89
278.712	9088.22
278.78	9067.13
278.849	9084.75
278.917	9094.38
278.985	9090.82
279.054	9090.67
279.122	9112.43
279.191	9099.96
279.259	9088.89
279.327	9061.4
279.396	9071.7
279.464	9069.25
279.532	9079.79
279.601	9074.49
279.669	9068.09
279.737	9081.33
279.806	9083.69
279.874	9091.73
279.942	9092.93
280.011	9085.95
280.079	9096.3
280.147	9110.26
280.215	9120.71
280.284	9110.65
280.352	9097.07
280.42	9105.45
280.488	9098.04
280.557	9086.14
280.625	9096.25
280.693	9099.29
280.761	9103.38
280.83	9089.71
280.898	9108.29
280.966	9092.26
281.034	9054.41
281.102	9038.14
281.171	9032.99
281.239	9040.12
281.307	9037.9
281.375	9023.99
281.443	9052.49
281.512	9045.85
281.58	9052.59
281.648	9036.12
281.716	9035.55
281.784	9031.98
281.852	9018.07
281.92	9017.69
281.989	9027.22
282.057	9009.07
282.125	9068.25
282.193	9064.64
282.261	9067.77
282.329	9061.37
282.397	9064.93
282.465	9068.83
282.533	9090.73
282.601	9078.36
282.67	9048.56
282.738	9031.52
282.806	9044.56
282.874	9034.93
282.942	9036.81
283.01	9025.11
283.078	9029.83
283.146	9028.19
283.214	9042.2
283.282	9047.59
283.35	9055.97
283.418	9051.01
283.486	9054.53
283.554	9006.22
283.622	9003.62
283.69	8997.46
283.758	8993.56
283.826	8992.79
283.894	9004.1
283.962	9020.86
284.03	9036.84
284.098	9045.36
284.165	9045.27
284.233	9044.4
284.301	9029.96
284.369	9021.53
284.437	9017.39
284.505	9005.84
284.573	9025.34
284.641	9009.74
284.709	9018.5
284.777	9002.56
284.845	9009.5
284.912	9015.9
284.98	9013.69
285.048	9010.75
285.116	9017.1
285.184	9023.75
285.252	9025
285.319	9011.57
285.387	8998.28
285.455	8977.19
285.523	8981.62
285.591	8981.91
285.659	8979.41
285.726	8994.67
285.794	8982.59
285.862	8982.39
285.93	8987.54
285.997	8979.6
286.065	8974.07
286.133	8962.94
286.201	8960.25
286.269	8945.71
286.336	8938.49
286.404	8926.79
286.472	8934.59
286.539	8911.73
286.607	8901.28
286.675	8900.89
286.743	8911.34
286.81	8910.28
286.878	8922.22
286.946	8916.01
287.013	8914.66
287.081	8912.4
287.149	8897.67
287.216	8916.58
287.284	8905.51
287.352	8906.24
287.419	8899.64
287.487	8916.63
287.555	8918.13
287.622	8917.79
287.69	8925.83
287.758	8939.02
287.825	8937.24
287.893	8925.54
287.96	8935.65
288.028	8938.49
288.096	8943.01
288.163	8944.17
288.231	8924.91
288.298	8933.1
288.366	8944.17
288.433	8938.92
288.501	8930.93
288.569	8934.93
288.636	8927.18
288.704	8946.48
288.771	8957.75
288.839	8946.87
288.906	8940.22
288.974	8958.47
289.041	8953.56
289.109	8940.23
289.176	8946.25
289.244	8956.89
289.311	8972.05
289.379	8983.17
289.446	8986.4
289.514	8988.75
289.581	8985.91
289.649	8984.04
289.716	8979.17
289.783	8972.63
289.851	8998.86
289.918	9002.52
289.986	9012.24
290.053	9019.23
290.121	9016.67
290.188	9016.53
290.255	9046.13
290.323	9043.15
290.39	9031.26
290.458	9040.55
290.525	9054.6
290.592	9042.18
290.66	9039
290.727	9031.21
290.794	9043
290.862	9049.36
290.929	9049.74
290.996	9049.45
291.064	9069.81
291.131	9083.39
291.198	9099.42
291.266	9096.1
291.333	9096.01
291.4	9098.7
291.468	9118.88
291.535	9114.3
291.602	9112.72
291.669	9112.62
291.737	9116.18
291.804	9116.66
291.871	9132.55
291.938	9144.78
292.006	9175.89
292.073	9186.14
292.14	9190.67
292.207	9184.65
292.275	9184.79
292.342	9198.27
292.409	9225.58
292.476	9250.61
292.543	9242.96
292.611	9238.58
292.678	9255.33
292.745	9282.58
292.812	9289.23
292.879	9277.43
292.946	9278.06
293.014	9296.84
293.081	9305.02
293.148	9318.36
293.215	9329.29
293.282	9325.97
293.349	9333.53
293.416	9315.23
293.484	9333.86
293.551	9348.74
293.618	9365.35
293.685	9398.1
293.752	9388.42
293.819	9386.69
293.886	9372.19
293.953	9380.57
294.02	9390.92
294.087	9393.04
294.154	9389.62
294.221	9410.57
294.288	9419.24
294.356	9440.62
294.423	9449.43
294.49	9440.62
294.557	9451.65
294.624	9443.65
294.691	9466.58
294.758	9466.19
294.825	9473.75
294.892	9464.75
294.959	9470.04
295.026	9479.67
295.093	9459.83
295.16	9460.17
295.226	9464.5
295.293	9492.97
295.36	9494.27
295.427	9511.75
295.494	9523.45
295.561	9525.38
295.628	9544.36
295.695	9558.42
295.762	9561.12
295.829	9567.47
295.896	9586.93
295.963	9596.9
296.03	9615.25
296.096	9618.57
296.163	9629.89
296.23	9641.3
296.297	9655.27
296.364	9653.39
296.431	9658.25
296.498	9662.83
296.564	9691.43
296.631	9692.35
296.698	9674.96
296.765	9697.02
296.832	9680.79
296.899	9671.25
296.965	9699.57
297.032	9676.11
297.099	9691.96
297.166	9702.75
297.233	9701.74
297.299	9689.12
297.366	9692.64
297.433	9691.91
297.5	9701.45
297.566	9703.04
297.633	9709.01
297.7	9720.14
297.767	9717.06
297.833	9721
297.9	9722.11
297.967	9703.96
298.033	9720
298.1	9749.38
298.167	9744.46
298.234	9757.71
298.3	9767.63
298.367	9751.88
298.434	9765.27
298.5	9749.61
298.567	9743.84
298.634	9735.84
298.7	9758.28
298.767	9762.52
298.834	9778.95
298.9	9771
298.967	9764.93
299.033	9772.49
299.1	9782.32
299.167	9797.34
299.233	9786.51
299.3	9804.76
299.366	9818.87
299.433	9830
299.5	9804.13
299.566	9804.13
299.633	9822.25
299.699	9837.56
299.766	9836.94
299.832	9836.5
299.899	9850.09
299.965	9861.5
300.032	9857.46
300.099	9862.13
300.165	9864.49
300.232	9854.33
300.298	9855.67
300.365	9872.92
300.431	9879.42
300.498	9870.22
300.564	9880.96
300.631	9903.94
300.697	9917.33
300.763	9918.49
300.83	9915.16
300.896	9926.24
300.963	9942.66
301.029	9947.48
301.096	9949.07
301.162	9965.02
301.229	9963.52
301.295	9952.78
301.361	9959.96
301.428	9969.4
301.494	9958.22
301.561	9965.64
301.627	9971.08
301.693	9981.34
301.76	9982.74
301.826	9972.24
301.892	9983.9
301.959	9993.48
302.025	9988.47
302.092	9979.75
302.158	9990.45
302.224	9993.34
302.291	9991.12
302.357	9984.76
302.423	9977.05
302.49	9967.04
302.556	9972.33
302.622	9970.74
302.688	9985.29
302.755	10002.78
302.821	10009.14
302.887	10016.12
302.954	10010.29
303.02	10018.87
303.086	10022.53
303.152	10022.05
303.219	10015.69
303.285	10020.36
303.351	10018.14
303.417	10018.34
303.483	10007.16
303.55	9997.72
303.616	9994.73
303.682	9994.83
303.748	9993.24
303.815	10007.07
303.881	10016.56
303.947	10006.3
304.013	10008.85
304.079	10002.73
304.145	9978.26
304.212	9979.95
304.278	9974.5
304.344	9971.52
304.41	9960.63
304.476	9950.95
304.542	9944.78
304.608	9958.03
304.674	9941.8
304.741	9941.02
304.807	9946.27
304.873	9949.69
304.939	9966.22
305.005	9948.35
305.071	9950.03
305.137	9945.6
305.203	9916.6
305.269	9917.03
305.335	9936.88
305.401	9929.99
305.467	9925.27
305.533	9933.27
305.599	9943.72
305.666	9958.8
305.732	9962.41
305.798	9979.85
305.864	10005.53
305.93	10011.69
305.996	10009.67
306.062	10009.81
306.128	10008.8
306.194	9989.25
306.259	9989.15
306.325	9980.19
306.391	9992.09
306.457	9997.34
306.523	10006.97
306.589	10034.67
306.655	10028.5
306.721	10000.76
306.787	9990.4
306.853	10005.24
306.919	9989.78
306.985	9982.55
307.051	9967.23
307.117	9959.96
307.183	9949.55
307.248	9916.17
307.314	9921.04
307.38	9924.36
307.446	9937.75
307.512	9925.13
307.578	9932.74
307.644	9931.68
307.709	9935.97
307.775	9934.14
307.841	9928.55
307.907	9927.2
307.973	9907.26
308.039	9899.46
308.104	9916.17
308.17	9920.36
308.236	9906.87
308.302	9906.97
308.368	9890.93
308.433	9894.54
308.499	9885.87
308.565	9870.36
308.631	9872.34
308.696	9844.16
308.762	9830.38
308.828	9822.97
308.894	9808.71
308.959	9788
309.025	9777.07
309.091	9770.56
309.156	9762.86
309.222	9768.16
309.288	9748.99
309.354	9724.23
309.419	9722.3
309.485	9699.04
309.551	9705.25
309.616	9688.69
309.682	9689.31
309.748	9685.99
309.813	9679.53
309.879	9671.44
309.945	9666.92
310.01	9669.04
310.076	9670.19
310.141	9665.23
310.207	9646.88
310.273	9644.04
310.338	9651.21
310.404	9637.01
310.469	9622.7
310.535	9603.15
310.601	9572.09
310.666	9581.43
310.732	9596.79
310.797	9588.07
310.863	9577.43
310.928	9567.22
310.994	9571.51
311.059	9564.96
311.125	9561.25
311.191	9574.25
311.256	9566.79
311.322	9565.92
311.387	9544.35
311.453	9835.17
311.518	9805.89
311.584	9806.37
311.649	9816.49
311.715	9802.28
311.78	9802.62
311.846	9794.29
311.911	9810.66
311.976	9819.33
312.042	9801.89
312.107	9783.02
312.173	9778.2
312.238	9776.9
312.304	9773.24
312.369	9759.23
312.434	9751.14
312.5	9745.69
312.565	9707.7
312.631	9709.96
312.696	9701.15
312.761	9699.99
312.827	9395.26
312.892	9435.71
312.958	9430.65
313.023	9425.16
313.088	9429.3
313.154	9415.58
313.219	9407.68
313.284	9390.63
313.35	9383.46
313.415	9370.7
313.48	9366.27
313.546	9364.25
313.611	9372.29
313.676	9366.8
313.741	9358.23
313.807	9361.98
313.872	9364.06
313.937	9370.17
314.003	9386.26
314.068	9387.41
314.133	9396.85
314.198	9394.54
314.264	9375.56
314.329	9367.95
314.394	9360.73
314.459	9357.65
314.525	9383.94
314.59	9375.85
314.655	9367.86
314.72	9376.62
314.785	9385.34
314.851	9378.88
314.916	9361.6
314.981	9346.38
315.046	9333.43
315.111	9324.57
315.176	9311.14
315.242	9313.83
315.307	9319.52
315.372	9291.49
315.437	9285.09
315.502	9272.13
315.567	9277.04
315.632	9261.63
315.698	9261.63
315.763	9261.49
315.828	9247.19
315.893	9237.85
315.958	9236.89
316.023	9224.75
316.088	9205.16
316.153	9178.53
316.218	9169.96
316.283	9150.52
316.348	9131.5
316.413	9133.76
316.479	9118.94
316.544	9082.07
316.609	9052.46
316.674	9009.66
316.739	8973.18
316.804	8939.67
316.869	8903.38
316.934	8867.66
316.999	8836.04
317.064	8780.88
317.129	8727.93
317.194	8692.55
317.259	8639.9
317.324	8583.31
317.389	8537.26
317.454	8497.79
317.518	8466.18
317.583	8447.45
317.648	8429.65
317.713	8400.49
317.778	8335.38
317.843	8303.86
317.908	8275.72
317.973	8232.7
318.038	8206.68
318.103	8175.36
318.168	8144.09
318.233	8109.7
318.297	8059.48
318.362	8016.57
318.427	7976.99
318.492	7957.66
318.557	7905.39
318.622	7881.77
318.687	7864.99
318.751	7829.89
318.816	7792.62
318.881	7755.16
318.946	7691.15
319.011	7640.75
319.075	7595.89
319.14	7561.33
319.205	7520.99
319.27	7480.37
319.335	7439.22
319.399	7395.52
319.464	7363.03
319.529	7312.17
319.594	7276.08
319.658	7248.87
319.723	7211.39
319.788	7187.51
319.853	7129.5
319.917	7106.44
319.982	7048.29
320.047	7008.36
320.112	6980.59
320.176	6926.74
320.241	6894.26
320.306	6868.8
320.37	6830.14
320.435	6799.29
320.5	6776.19
320.564	6735.22
320.629	6694.84
320.694	6655.22
320.758	6618.67
320.823	6574.74
320.888	6548.95
320.952	6497.25
321.017	6450.92
321.082	6410.35
321.146	6376.6
321.211	6346.07
321.275	6303.36
321.34	6260.27
321.405	6217.07
321.469	6167.98
321.534	6130.42
321.598	6078.17
321.663	6042.84
321.727	6010.7
321.792	5958.64
321.857	5908.59
321.921	5870.94
321.986	5830.46
322.05	5774.46
322.115	5733.07
322.179	5687.13
322.244	5621.02
322.308	5587.46
322.373	5542.07
322.437	5504.53
322.502	5474.65
322.566	5425.75
322.631	5389.04
322.695	5351.76
322.76	5305
322.824	5273.42
322.889	5229.59
322.953	5183.37
323.018	5119.07
323.082	5050.16
323.146	4997.58
323.211	4943.07
323.275	4895.37
323.34	4847.64
323.404	4814.71
323.468	4768.12
323.533	4725.04
323.597	4680.8
323.662	4627.81
323.726	4593.69
323.79	4538.03
323.855	4467.43
323.919	4421.54
323.983	4377.95
324.048	4305.29
324.112	4464.66
324.177	4330.89
324.241	4107.86
324.305	3891
324.37	3674.95
324.434	3470.57
324.498	3424.05
324.562	3371.31
324.627	3307.79
324.691	3249.27
324.755	3179.42
324.82	3094.76
324.884	3012.71
324.948	2941.52
325.012	2844.08
325.077	2710.2
