Data from 20250703_urea_0.1M_MAYP1162681_16-41-05-145.txt Node
Date: Thu Jul 03 16:41:05 BST 2025
User: adleo
Spectrometer: MAYP116268
Trigger mode: 0
Integration Time (sec): 1.000000E0
Scans to average: 1
Electric dark correction enabled: true
Nonlinearity correction enabled: true
Boxcar width: 10
XAxis mode: Wavelengths
Number of Pixels in Spectrum: 2068
>>>>>Begin Spectral Data<<<<<
179.565	1304.96
179.642	1367.53
179.718	1417.01
179.795	1459.36
179.871	1493.52
179.948	1512.44
180.024	1534.06
180.101	1558.94
180.177	1575.31
180.254	1598.99
180.33	1623.45
180.407	1683.57
180.483	1787.19
180.56	1885.21
180.636	1976.51
180.712	1962.72
180.789	1973.23
180.865	1984.35
180.942	1995
181.018	2005.36
181.095	2020.64
181.171	2025.92
181.248	2025.58
181.324	2039.85
181.4	2046.8
181.477	2060.64
181.553	2075.71
181.63	2098.59
181.706	2115.96
181.782	2125.75
181.859	2125.51
181.935	2131.51
182.011	2127.09
182.088	2144.45
182.164	2165.63
182.24	2180.99
182.317	2190.93
182.393	2191.17
182.469	2209.25
182.546	2224.81
182.622	2230.85
182.698	2225.28
182.775	2236.37
182.851	2253.54
182.927	2248.12
183.003	2245.41
183.08	2236.42
183.156	2243.41
183.232	2237.6
183.308	2225
183.385	2231.85
183.461	2252.12
183.537	2250.26
183.613	2264.39
183.69	2255.4
183.766	2244.88
183.842	2251.97
183.918	2257.35
183.995	2271.29
184.071	2273.53
184.147	2266.86
184.223	2254.26
184.299	2267.59
184.375	2254.74
184.452	2260.79
184.528	2312.29
184.604	2322.76
184.68	2336.7
184.756	2344.36
184.832	2353.84
184.908	2358.31
184.985	2358.16
185.061	2342.27
185.137	2353.17
185.213	2341.79
185.289	2341.75
185.365	2330
185.441	2328.04
185.517	2341.47
185.593	2335.33
185.669	2330.47
185.745	2340.99
185.822	2359.07
185.898	2349.69
185.974	2361.35
186.05	2353.45
186.126	2316.6
186.202	2310.7
186.278	2306.66
186.354	2298.9
186.43	2305.61
186.506	2304.47
186.582	2303.42
186.658	2311.51
186.734	2292.24
186.81	2292.77
186.886	2296.43
186.962	2312.8
187.038	2307.8
187.114	2301.28
187.19	2307.37
187.266	2299.19
187.341	2301.38
187.417	2295.19
187.493	2294.48
187.569	2296.52
187.645	2291
187.721	2277.77
187.797	2282.15
187.873	2287.33
187.949	2282.39
188.025	2275.05
188.101	2277.76
188.176	2282.62
188.252	2276
188.328	2282.09
188.404	2285.33
188.48	2278.14
188.556	2269.29
188.632	2269.34
188.707	2269.77
188.783	2271.01
188.859	2268.96
188.935	2254.25
189.011	2259.44
189.086	2255.21
189.162	2245.07
189.238	2242.45
189.314	2243.4
189.39	2239.88
189.465	2230.98
189.541	2249.02
189.617	2230.8
189.693	2227.56
189.768	2232.51
189.844	2258.65
189.92	2250.37
189.996	2258.47
190.071	2273.69
190.147	2273.98
190.223	2284.45
190.298	2275.41
190.374	2258.99
190.45	2269.79
190.526	2281.11
190.601	2275.88
190.677	2279.16
190.753	2308.11
190.828	2312.06
190.904	2327.2
190.98	2341.05
191.055	2353.9
191.131	2343.29
191.207	2365.7
191.282	2377.12
191.358	2366.27
191.433	2348.08
191.509	2364.92
191.585	2362.97
191.66	2362.35
191.736	2373.63
191.811	2366.44
191.887	2384.92
191.963	2409.62
192.038	2414.67
192.114	2414.9
192.189	2418.52
192.265	2413.91
192.34	2392.52
192.416	2390.09
192.491	2383.62
192.567	2387.57
192.642	2389.43
192.718	2392.28
192.793	2378.34
192.869	2374.01
192.944	2376.62
193.02	2384.14
193.095	2388.24
193.171	2394.71
193.246	2395.95
193.322	2392.28
193.397	2390.95
193.473	2377.43
193.548	2358.81
193.624	2365.24
193.699	2364.05
193.775	2382.77
193.85	2382.91
193.925	2390.33
194.001	2389.29
194.076	2383.86
194.152	2371.2
194.227	2364.67
194.302	2352.87
194.378	2359.11
194.453	2351.3
194.529	2365.58
194.604	2352.11
194.679	2343.4
194.755	2324.32
194.83	2336.47
194.905	2333.66
194.981	2344.85
195.056	2335.23
195.131	2340.94
195.207	2336.99
195.282	2328.85
195.357	2309.28
195.433	2326.23
195.508	2314.28
195.583	2322.18
195.659	2334.65
195.734	2347.17
195.809	2346.03
195.884	2354.88
195.96	2356.41
196.035	2376.21
196.11	2371.54
196.185	2384.44
196.261	2389.05
196.336	2421.14
196.411	2407.61
196.486	2411.8
196.561	2404.28
196.637	2414.94
196.712	2434.61
196.787	2442.56
196.862	2457.03
196.937	2466.89
197.013	2475.65
197.088	2488.98
197.163	2512.41
197.238	2531.76
197.313	2528.86
197.388	2542.57
197.464	2573.06
197.539	2585.1
197.614	2576.87
197.689	2588.82
197.764	2608.92
197.839	2631.83
197.914	2625.4
197.989	2650.89
198.065	2667.94
198.14	2719.13
198.215	2745.57
198.29	2756.53
198.365	2768.16
198.44	2782.74
198.515	2813.9
198.59	2830.73
198.665	2858.8
198.74	2866
198.815	2862.99
198.89	2887.49
198.965	2920.29
199.04	2920.48
199.115	2935.78
199.19	2982.15
199.265	2986.01
199.34	2989.87
199.415	3027.65
199.49	3047.96
199.565	3053.06
199.64	3075.8
199.715	3073.84
199.79	3082.76
199.865	3087.39
199.94	3088.67
200.015	3119.34
200.09	3124.06
200.165	3126.88
200.24	3132.6
200.315	3174.61
200.39	3193.83
200.464	3200.79
200.539	3203.13
200.614	3219.06
200.689	3243.53
200.764	3248.92
200.839	3270.81
200.914	3284.26
200.989	3270.84
201.063	3289.74
201.138	3273.34
201.213	3276.44
201.288	3257.84
201.363	3263.47
201.438	3268.81
201.512	3284.21
201.587	3263.7
201.662	3269.04
201.737	3282.3
201.812	3292.99
201.886	3261.34
201.961	3274.89
202.036	3266.74
202.111	3264.07
202.186	3234.17
202.26	3219.52
202.335	3197.67
202.41	3187.75
202.485	3169.54
202.559	3148.46
202.634	3122.56
202.709	3136.38
202.784	3120.35
202.858	3123.55
202.933	3106.05
203.008	3103.38
203.082	3085.92
203.157	3094.18
203.232	3055.04
203.306	3040.77
203.381	3014.78
203.456	2999.37
203.53	2983.14
203.605	2970.7
203.68	2955.01
203.754	2960.25
203.829	2959.77
203.904	2955.87
203.978	2962.97
204.053	2986.48
204.127	2994.16
204.202	3016.48
204.277	3024.25
204.351	3040.9
204.426	3058.27
204.5	3080.49
204.575	3074.1
204.65	3120.01
204.724	3149.37
204.799	3195.62
204.873	3232.18
204.948	3270.78
205.022	3301.22
205.097	3341.67
205.171	3405.2
205.246	3469.19
205.32	3528.41
205.395	3585.59
205.469	3639.58
205.544	3711.25
205.618	3757.79
205.693	3843.08
205.767	3902.82
205.842	4002.03
205.916	4073.82
205.991	4146.59
206.065	4239.56
206.14	4343.68
206.214	4432.18
206.289	4518.1
206.363	4632.01
206.438	4731.69
206.512	4847.28
206.586	4978.95
206.661	5100.34
206.735	5190.86
206.81	5309.8
206.884	5441.73
206.958	5548.18
207.033	5692.9
207.107	5824.93
207.181	5993.62
207.256	6118.71
207.33	6274.24
207.405	6423.02
207.479	6589.81
207.553	6739.5
207.628	6869.97
207.702	7029.14
207.776	7176.52
207.851	7334.43
207.925	7502.31
207.999	7663.12
208.073	7816.36
208.148	7973.82
208.222	8119.38
208.296	8318.15
208.371	8495.96
208.445	8670.64
208.519	8873.57
208.593	9048.43
208.668	9215.96
208.742	9384.75
208.816	9559.08
208.89	9747.1
208.965	9916.32
209.039	10086.49
209.113	10279.84
209.187	10473.46
209.261	10639.75
209.336	10823.51
209.41	11011.81
209.484	11179.7
209.558	11372.46
209.632	11559.34
209.707	11739.68
209.781	11933.95
209.855	12126.17
209.929	12316.95
210.003	12492.97
210.077	12655.32
210.151	12877.58
210.226	13075.93
210.3	13264.12
210.374	13447.82
210.448	13608.59
210.522	13783.96
210.596	13966.27
210.67	14133.78
210.744	14346.31
210.818	14553.15
210.892	14740.18
210.966	14893.18
211.041	15069.21
211.115	15227.9
211.189	15416.75
211.263	15593.07
211.337	15741.73
211.411	15898.13
211.485	16035.6
211.559	16202.99
211.633	16349.76
211.707	16456.66
211.781	16621.54
211.855	16739.23
211.929	16884.93
212.003	17010.24
212.077	17164.61
212.151	17311.02
212.225	17456.52
212.299	17580.66
212.373	17685.82
212.447	17816.75
212.52	17985.62
212.594	18118.72
212.668	18255.54
212.742	18360.98
212.816	18486.71
212.89	18614.76
212.964	18739.86
213.038	18871.8
213.112	19004.76
213.186	19154.63
213.26	19265.86
213.333	19330.63
213.407	19459.82
213.481	19581.22
213.555	19716.54
213.629	19819.42
213.703	19912.48
213.777	20035.47
213.85	20122.74
213.924	20274.6
213.998	20375.13
214.072	20479.14
214.146	20570.61
214.219	20665.4
214.293	20753.45
214.367	20850.95
214.441	20962.91
214.515	21047.83
214.588	21122.1
214.662	21179.36
214.736	21244.76
214.81	21331.28
214.883	21425.93
214.957	21499.63
215.031	21563.92
215.105	21615.21
215.178	21675.07
215.252	21763.38
215.326	21812.35
215.4	21871.4
215.473	21903.31
215.547	21954.79
215.621	22006.47
215.694	22091.41
215.768	22137.88
215.842	22205.37
215.915	22263.37
215.989	22303.91
216.063	22366.82
216.136	22423.52
216.21	22486.53
216.284	22564.39
216.357	22635.12
216.431	22699.43
216.504	22758.92
216.578	22842.38
216.652	22917.4
216.725	22972.56
216.799	23032.98
216.873	23087.75
216.946	23151.68
217.02	23202.99
217.093	23262.1
217.167	23286.45
217.24	23312.83
217.314	23361.82
217.387	23398.42
217.461	23435.69
217.535	23495.83
217.608	23526.84
217.682	23571.97
217.755	23623.28
217.829	23652.51
217.902	23684.72
217.976	23729.96
218.049	23762.08
218.123	23785.14
218.196	23825.89
218.27	23878.03
218.343	23891.82
218.417	23930.02
218.49	23964.12
218.563	24013.61
218.637	24050.22
218.71	24106.99
218.784	24157.44
218.857	24202.69
218.931	24244.94
219.004	24274.41
219.077	24315.56
219.151	24354.82
219.224	24392.06
219.298	24423.27
219.371	24460.9
219.444	24486.47
219.518	24522.75
219.591	24557.04
219.665	24615.81
219.738	24651.07
219.811	24656.04
219.885	24706.46
219.958	24752.2
220.031	24777.62
220.105	24803.82
220.178	24831.8
220.251	24854.67
220.325	24883.87
220.398	24927.2
220.471	24961.31
220.544	25001.3
220.618	25013.95
220.691	25033.53
220.764	25055.2
220.838	25085.55
220.911	25107.6
220.984	25149.34
221.057	25164.44
221.131	25191.61
221.204	25182.49
221.277	25220.47
221.35	25274.66
221.424	25276.92
221.497	25284.02
221.57	25306.65
221.643	25331.65
221.716	25355.25
221.79	25368.18
221.863	25377.49
221.936	25373.44
222.009	25381.84
222.082	25402.35
222.155	25406.11
222.229	25432.85
222.302	25447.66
222.375	25456.59
222.448	25470.68
222.521	25472.18
222.594	25476.81
222.667	25466.92
222.74	25485.64
222.814	25484.24
222.887	25491.05
222.96	25517.4
223.033	25524.88
223.106	25522.86
223.179	25529.66
223.252	25529.37
223.325	25537.09
223.398	25532.17
223.471	25526.72
223.544	25519.38
223.617	25514.41
223.69	25515.42
223.763	25499.64
223.837	25502.88
223.91	25498.49
223.983	25466.73
224.056	25455.63
224.129	25449.94
224.202	25458.19
224.275	25443.61
224.348	25419.82
224.42	25392.36
224.493	25355.2
224.566	25341.73
224.639	25346.27
224.712	25326.96
224.785	25308.05
224.858	25288.07
224.931	25278.37
225.004	25255.26
225.077	25253.57
225.15	25211.97
225.223	25197.16
225.296	25209.22
225.369	25171.97
225.442	25157.16
225.514	25145.87
225.587	25131.1
225.66	25126.56
225.733	25120.05
225.806	25104.8
225.879	25088.35
225.952	25057.95
226.025	25051.19
226.097	25052.01
226.17	25026.78
226.243	24980.17
226.316	24972.21
226.389	24958.36
226.461	24940.65
226.534	24938
226.607	24909.63
226.68	24914.98
226.753	24899.83
226.825	24858.96
226.898	24854.23
226.971	24827.99
227.044	24820.17
227.117	24806.42
227.189	24789.44
227.262	24773.66
227.335	24744.18
227.407	24715.96
227.48	24698.16
227.553	24681.71
227.626	24646.24
227.698	24625.98
227.771	24620.34
227.844	24583.14
227.916	24560.13
227.989	24522.31
228.062	24492.5
228.134	24499.54
228.207	24469.34
228.28	24446.76
228.352	24426.69
228.425	24409.13
228.498	24396.06
228.57	24358.78
228.643	24342.18
228.716	24306.15
228.788	24269.53
228.861	24259.11
228.934	24258.58
229.006	24234.22
229.079	24206.15
229.151	24183.43
229.224	24130.71
229.296	24107.27
229.369	24111.57
229.442	24096.9
229.514	24063.87
229.587	24056.39
229.659	24004.59
229.732	23996.05
229.804	23978.98
229.877	23968.94
229.949	23948.35
230.022	23942.9
230.094	23928.19
230.167	23903.54
230.239	23874.07
230.312	23850.3
230.384	23840.36
230.457	23809.83
230.529	23796.76
230.602	23782.2
230.674	23756.1
230.747	23756.59
230.819	23732.67
230.892	23670.89
230.964	23648.36
231.037	23635.2
231.109	23600.53
231.181	23585.1
231.254	23532.15
231.326	23498.97
231.399	23457.49
231.471	23416.65
231.544	23362.92
231.616	23348.07
231.688	23326.71
231.761	23289.63
231.833	23254
231.905	23202.74
231.978	23171.34
232.05	23138.75
232.122	23102.73
232.195	23064.01
232.267	23043.85
232.339	23018.11
232.412	23008.12
232.484	22974.52
232.556	22941.68
232.629	22932.62
232.701	22906.39
232.773	22881.41
232.846	22841.98
232.918	22818.64
232.99	22795.06
233.062	22772.79
233.135	22742.27
233.207	22697.86
233.279	22673.28
233.351	22654.71
233.424	22611.81
233.496	22568.85
233.568	22556.08
233.64	22505.36
233.713	22471.04
233.785	22439.12
233.857	22414.05
233.929	22364.5
234.001	22348.15
234.074	22332.68
234.146	22284.27
234.218	22251.78
234.29	22222.71
234.362	22188.97
234.434	22140.38
234.507	22097.62
234.579	22046.23
234.651	21994.85
234.723	21970.26
234.795	21950.84
234.867	21909.43
234.939	21901.72
235.012	21875.01
235.084	21836.35
235.156	21808.3
235.228	21768.63
235.3	21718.89
235.372	21684.61
235.444	21670.25
235.516	21609.13
235.588	21571.63
235.66	21540.15
235.732	21490.22
235.804	21514.75
235.876	21487.14
235.948	21463.08
236.02	21428
236.092	21386.45
236.164	21358.55
236.236	21311.41
236.308	21263.02
236.38	21225.71
236.452	21175.54
236.524	21140.35
236.596	21115.39
236.668	21094.47
236.74	21055
236.812	21028.78
236.884	20992.87
236.956	20950.12
237.028	20908.48
237.1	20859.23
237.172	20835.71
237.244	20826.98
237.316	20743.79
237.388	20698.49
237.46	20655.79
237.532	20628.46
237.604	20595.79
237.675	20566.97
237.747	20538.1
237.819	20492.22
237.891	20455.16
237.963	20415.45
238.035	20372.37
238.107	20303.79
238.178	20272.32
238.25	20242.49
238.322	20228.42
238.394	20164.37
238.466	20122.4
238.538	20086.93
238.609	20053.05
238.681	19983.46
238.753	19932.47
238.825	19888.71
238.897	19852.14
238.968	19828.62
239.04	19778.79
239.112	19763.03
239.184	19712.1
239.255	19663.38
239.327	19624.15
239.399	19591.96
239.471	19556.34
239.542	19524.54
239.614	19495.43
239.686	19433.32
239.758	19403.87
239.829	19342.62
239.901	19320.84
239.973	19286.48
240.044	19255.3
240.116	19211.01
240.188	19186.44
240.259	19144.75
240.331	19100.03
240.403	19067.46
240.474	19015.89
240.546	18972.72
240.618	18918.6
240.689	18881.97
240.761	18856.15
240.833	18858.02
240.904	18813.4
240.976	18769.02
241.048	18735.29
241.119	18706.56
241.191	18677.02
241.262	18654.95
241.334	18627.73
241.405	18594.14
241.477	18543.49
241.549	18497.42
241.62	18470.53
241.692	18432.8
241.763	18405.47
241.835	18375.98
241.906	18332.75
241.978	18284.56
242.049	18263.99
242.121	18234.93
242.192	18213.24
242.264	18155.12
242.335	18079.56
242.407	18049.83
242.478	18008.81
242.55	17971.23
242.621	17925.64
242.693	17880.53
242.764	17836.24
242.836	17788.44
242.907	17756.2
242.979	17727.18
243.05	17698.17
243.122	17662.95
243.193	17619.23
243.264	17559.48
243.336	17524.87
243.407	17505.16
243.479	17481.5
243.55	17446.61
243.622	17412.78
243.693	17365.36
243.764	17345.5
243.836	17296.34
243.907	17253.55
243.978	17220.92
244.05	17185.06
244.121	17128.15
244.192	17109.74
244.264	17057.45
244.335	17024.96
244.407	16975.95
244.478	16939.95
244.549	16902.36
244.62	16854.07
244.692	16829.2
244.763	16805.63
244.834	16763.99
244.906	16717.58
244.977	16689.96
245.048	16664.66
245.119	16618.29
245.191	16580.17
245.262	16519.83
245.333	16512.02
245.405	16481.22
245.476	16454.81
245.547	16426.71
245.618	16407.43
245.689	16372.83
245.761	16345.02
245.832	16302.75
245.903	16272.48
245.974	16249.68
246.045	16209.49
246.117	16189.2
246.188	16133.67
246.259	16079.88
246.33	16044.74
246.401	16012.5
246.473	15963.67
246.544	15927.72
246.615	15906.03
246.686	15874.17
246.757	15864.24
246.828	15825.29
246.899	15806.83
246.97	15753.28
247.042	15705.32
247.113	15686.38
247.184	15672.45
247.255	15632.2
247.326	15601.98
247.397	15567.52
247.468	15535.37
247.539	15510.4
247.61	15470.44
247.681	15447.35
247.752	15435.88
247.823	15387.25
247.894	15360.49
247.965	15319.47
248.037	15279.95
248.108	15229.19
248.179	15193.28
248.25	15161.47
248.321	15132.06
248.392	15089.45
248.463	15085.88
248.534	15056.53
248.605	15026.11
248.675	14994.01
248.746	14974.15
248.817	14959.35
248.888	14934.38
248.959	14881.22
249.03	14855.76
249.101	14821.59
249.172	14789.68
249.243	14734.87
249.314	14732.65
249.385	14705.56
249.456	14686.66
249.527	14657.45
249.598	14644.82
249.669	14620.43
249.739	14592.42
249.81	14569.04
249.881	14521.61
249.952	14494.37
250.023	14470.46
250.094	14422.84
250.165	14380.37
250.235	14349.04
250.306	14314.96
250.377	14276.54
250.448	14255.81
250.519	14207.22
250.59	14199.98
250.66	14172.8
250.731	14172.8
250.802	14137.08
250.873	14110.47
250.944	14089.01
251.014	14060.77
251.085	14053.15
251.156	14028.13
251.227	14024.13
251.297	14013.33
251.368	14003.64
251.439	13987.44
251.51	13970.48
251.58	13941.46
251.651	13912
251.722	13905.01
251.792	13863.55
251.863	13839.64
251.934	13837.57
252.005	13846.01
252.075	13812.55
252.146	13804.65
252.217	13785.51
252.287	13772.4
252.358	13749.11
252.429	13744.87
252.499	13710.21
252.57	13684.13
252.641	13667.16
252.711	13630.14
252.782	13587.67
252.852	13585.11
252.923	13555.76
252.994	13536.14
253.064	13525.77
253.135	13490.97
253.205	13457.9
253.276	13450.04
253.347	13443.14
253.417	13399.61
253.488	13363.03
253.558	13338.63
253.629	13312.46
253.699	13292.02
253.77	13274.28
253.841	13243.33
253.911	13220.14
253.982	13204.04
254.052	13200.04
254.123	13179.31
254.193	13154.68
254.264	13173.82
254.334	13137.32
254.405	13101.75
254.475	13070.08
254.546	13042.74
254.616	13036.72
254.687	13022.3
254.757	13010.4
254.827	12983.21
254.898	12974.48
254.968	12962.05
255.039	12939.63
255.109	12924.83
255.18	12896.63
255.25	12853.53
255.321	12842.25
255.391	12806.68
255.461	12815.98
255.532	12757.75
255.602	12736.49
255.673	12700.1
255.743	12665.68
255.813	12622.58
255.884	12621.91
255.954	12602.77
256.024	12599.64
256.095	12575.53
256.165	12536.97
256.235	12520.68
256.306	12497.93
256.376	12491.61
256.446	12477.92
256.517	12465.58
256.587	12456.47
256.657	12440.32
256.728	12428.56
256.798	12410.34
256.868	12383.68
256.938	12339.82
257.009	12334.42
257.079	12323.19
257.149	12335.28
257.219	12292.91
257.29	12283.56
257.36	12237.96
257.43	12230.73
257.5	12191.11
257.571	12169.37
257.641	12162.43
257.711	12126.76
257.781	12110.81
257.852	12088.2
257.922	12045.35
257.992	12024.76
258.062	11996.9
258.132	11986.06
258.202	11963.74
258.273	11942.15
258.343	11942.15
258.413	11916.36
258.483	11892.5
258.553	11856.06
258.623	11826.18
258.693	11816.63
258.764	11816.34
258.834	11809.93
258.904	11797.83
258.974	11774.17
259.044	11758.17
259.114	11737.83
259.184	11724.67
259.254	11709.92
259.324	11668.42
259.394	11657.34
259.464	11656.03
259.535	11638.49
259.605	11618.15
259.675	11591.55
259.745	11579.64
259.815	11545.95
259.885	11524.79
259.955	11537.28
260.025	11510.29
260.095	11491.68
260.165	11477.9
260.235	11480.74
260.305	11457.47
260.375	11420.79
260.445	11430.23
260.515	11426.81
260.585	11422.19
260.655	11403.63
260.725	11395.53
260.795	11398.23
260.865	11404.74
260.934	11371.29
261.004	11364.93
261.074	11342.76
261.144	11343.77
261.214	11336.45
261.284	11319.39
261.354	11318.04
261.424	11287.24
261.494	11291.96
261.564	11277.69
261.634	11269.07
261.703	11222.51
261.773	11220.54
261.843	11211.43
261.913	11191.48
261.983	11157.5
262.053	11143.28
262.123	11129.79
262.192	11102.37
262.262	11089.12
262.332	11050.37
262.402	11042.8
262.472	11022.76
262.541	10985.7
262.611	10974.57
262.681	10947.77
262.751	10953.03
262.821	10937.17
262.89	10908.55
262.96	10896.89
263.03	10896.93
263.1	10884.79
263.169	10872.31
263.239	10862.24
263.309	10864.7
263.379	10856.94
263.448	10843.83
263.518	10839.11
263.588	10820.8
263.657	10818.68
263.727	10819.11
263.797	10807.11
263.867	10792.71
263.936	10763.46
264.006	10771.99
264.076	10757.63
264.145	10739.36
264.215	10706.94
264.285	10689.45
264.354	10657.84
264.424	10641.75
264.494	10606.81
264.563	10579.44
264.633	10587.44
264.702	10572.41
264.772	10540.56
264.842	10518.39
264.911	10510.39
264.981	10481
265.05	10463.75
265.12	10442.79
265.19	10420.68
265.259	10421.4
265.329	10414.51
265.398	10404.2
265.468	10412.39
265.537	10393.46
265.607	10387.53
265.676	10384.49
265.746	10384.69
265.815	10387.14
265.885	10370.23
265.955	10347.26
266.024	10328.56
266.094	10290.21
266.163	10292.09
266.232	10292.19
266.302	10277.93
266.371	10262.18
266.441	10246.04
266.51	10245.51
266.58	10231.82
266.649	10212.26
266.719	10206.96
266.788	10202.19
266.858	10205.23
266.927	10168.33
266.996	10157.05
267.066	10151.42
267.135	10124.49
267.205	10114.08
267.274	10100.16
267.343	10101.22
267.413	10092.12
267.482	10101.56
267.552	10105.61
267.621	10072.13
267.69	10042.11
267.76	10026.07
267.829	10021.64
267.898	10009.94
267.968	9986.53
268.037	9976.94
268.106	9975.02
268.176	9941.83
268.245	9925.45
268.314	9906.42
268.384	9902.23
268.453	9894.38
268.522	9885.61
268.592	9891.44
268.661	9877.85
268.73	9873.61
268.799	9851.12
268.869	9863.35
268.938	9828.48
269.007	9803.1
269.076	9793.66
269.146	9794.81
269.215	9791.1
269.284	9794.24
269.353	9781.91
269.422	9770.25
269.492	9757.06
269.561	9714.96
269.63	9716.02
269.699	9691.55
269.768	9681.44
269.838	9675.47
269.907	9667.86
269.976	9636.22
270.045	9597.93
270.114	9584.78
270.183	9568.55
270.253	9563.78
270.322	9535.61
270.391	9527.14
270.46	9535.47
270.529	9537.73
270.598	9536.09
270.667	9524.01
270.736	9502.52
270.806	9495.45
270.875	9500.21
270.944	9487.55
271.013	9505.85
271.082	9494.87
271.151	9490.73
271.22	9469.59
271.289	9456.82
271.358	9444.45
271.427	9441.12
271.496	9436.65
271.565	9424.08
271.634	9413.58
271.703	9432.99
271.772	9438.05
271.841	9426.49
271.91	9400.63
271.979	9391.48
272.048	9357.92
272.117	9359.51
272.186	9340.78
272.255	9339.43
272.324	9333.17
272.393	9330.28
272.462	9319.73
272.531	9311.07
272.6	9303.12
272.669	9307.45
272.738	9288.48
272.807	9285.79
272.876	9267.78
272.945	9295.95
273.013	9299.95
273.082	9307.07
273.151	9264.12
273.22	9249.14
273.289	9242.02
273.358	9251.55
273.427	9235.61
273.496	9247.17
273.564	9239.03
273.633	9247.12
273.702	9221.31
273.771	9211.35
273.84	9206.68
273.909	9203.93
273.977	9201.67
274.046	9193.82
274.115	9191.85
274.184	9180.29
274.253	9174.08
274.322	9182.31
274.39	9143.31
274.459	9124.15
274.528	9098.35
274.597	9090.98
274.665	9086.26
274.734	9094.88
274.803	9084.09
274.872	9079.42
274.94	9054.29
275.009	9111.28
275.078	9091.78
275.147	9092.07
275.215	9082.2
275.284	9089.32
275.353	9072.04
275.421	9049.17
275.49	9067.85
275.559	9060.53
275.627	9053.6
275.696	9041.57
275.765	9045.23
275.833	9043.98
275.902	9043.88
275.971	9051
276.039	9065.98
276.108	9074.74
276.177	9068.96
276.245	9059.09
276.314	9053.7
276.383	9066.51
276.451	8997.1
276.52	9004.37
276.588	9021.99
276.657	9030.08
276.725	9015.16
276.794	9017.8
276.863	9032.39
276.931	9002.06
277	9006.92
277.068	9018.91
277.137	9040.62
277.205	9032.29
277.274	9049.76
277.342	9066.52
277.411	9042.17
277.48	9027.43
277.548	9009.81
277.617	9018.43
277.685	9009.91
277.754	9013.18
277.822	9003.41
277.89	9020.55
277.959	9007.12
278.027	8987.19
278.096	8976.55
278.164	9009.05
278.233	9002.6
278.301	8984.36
278.37	8987.82
278.438	8973.33
278.507	8976.37
278.575	8948.35
278.643	8947.38
278.712	8927.36
278.78	8904.88
278.849	8915.56
278.917	8925.77
278.985	8922.78
279.054	8919.17
279.122	8939.24
279.191	8937.7
279.259	8936.74
279.327	8909.73
279.396	8928.03
279.464	8919.84
279.532	8920.66
279.601	8910.5
279.669	8908.14
279.737	8923.5
279.806	8925.76
279.874	8932.36
279.942	8928.7
280.011	8921.81
280.079	8929.32
280.147	8945.83
280.215	8950.84
280.284	8952
280.352	8938.13
280.42	8949.93
280.488	8942.37
280.557	8926.91
280.625	8928.31
280.693	8926.77
280.761	8931.49
280.83	8917.67
280.898	8936.4
280.966	8922.82
281.034	8888.35
281.102	8872.71
281.171	8867.27
281.239	8878.06
281.307	8874.16
281.375	8868.04
281.443	8892.21
281.512	8889.51
281.58	8898.61
281.648	8885.23
281.716	8890.33
281.784	8889.75
281.852	8880.75
281.92	8873.77
281.989	8883.79
282.057	8866.07
282.125	8915.33
282.193	8912.34
282.261	8910.03
282.329	8902.76
282.397	8906.81
282.465	8908.83
282.533	8926.25
282.601	8915.18
282.67	8888.71
282.738	8879.7
282.806	8887.12
282.874	8872.96
282.942	8875.03
283.01	8861.99
283.078	8866.94
283.146	8853.32
283.214	8863.48
283.282	8864.68
283.35	8879.66
283.418	8871.76
283.486	8875.71
283.554	8827.36
283.622	8826.64
283.69	8826.4
283.758	8815.43
283.826	8816.87
283.894	8826.93
283.962	8848.07
284.03	8861.3
284.098	8867.27
284.165	8865.63
284.233	8858.46
284.301	8848.11
284.369	8839.98
284.437	8829.68
284.505	8827.99
284.573	8848.84
284.641	8831.51
284.709	8840.99
284.777	8817.84
284.845	8825.54
284.912	8828.19
284.98	8833.43
285.048	8831.6
285.116	8840.56
285.184	8856.92
285.252	8860.92
285.319	8846.67
285.387	8832.47
285.455	8815.81
285.523	8817.21
285.591	8809.46
285.659	8819.09
285.726	8833.91
285.794	8815.67
285.862	8820.24
285.93	8813.65
285.997	8808.26
286.065	8806.96
286.133	8795.98
286.201	8795.07
286.269	8784.38
286.336	8782.46
286.404	8769.56
286.472	8779.09
286.539	8754.01
286.607	8735.14
286.675	8736.06
286.743	8749.3
286.81	8744
286.878	8758.68
286.946	8754.59
287.013	8756.18
287.081	8747.85
287.149	8738.03
287.216	8761.18
287.284	8754.01
287.352	8754.59
287.419	8748.33
287.487	8765.95
287.555	8767.63
287.622	8770.47
287.69	8772.35
287.758	8780.19
287.825	8782.07
287.893	8768.16
287.96	8773.89
288.028	8792.08
288.096	8790.11
288.163	8788.47
288.231	8777.55
288.298	8771.05
288.366	8780.91
288.433	8777.45
288.501	8775.19
288.569	8778.65
288.636	8772.06
288.704	8788.38
288.771	8800.84
288.839	8796.37
288.906	8790.69
288.974	8803.83
289.041	8799.79
289.109	8791.31
289.176	8798.49
289.244	8803.97
289.311	8817.45
289.379	8829.05
289.446	8826.69
289.514	8825.39
289.581	8823.37
289.649	8820.53
289.716	8822.5
289.783	8818.61
289.851	8839.06
289.918	8831.89
289.986	8833.43
290.053	8833.72
290.121	8828.66
290.188	8831.31
290.255	8855.48
290.323	8847.97
290.39	8834.73
290.458	8842.14
290.525	8852.2
290.592	8849.7
290.66	8846.28
290.727	8847.58
290.794	8855.86
290.862	8853.6
290.929	8858.46
290.996	8856.82
291.064	8863.85
291.131	8877.18
291.198	8885.27
291.266	8885.22
291.333	8895.62
291.4	8904.04
291.468	8925.66
291.535	8923.16
291.602	8927.15
291.669	8920.46
291.737	8927.58
291.804	8931.63
291.871	8948.57
291.938	8955.79
292.006	8983.96
292.073	9002.4
292.14	9006.59
292.207	8998.07
292.275	8998.6
292.342	9007.6
292.409	9041.64
292.476	9079.19
292.543	9072.64
292.611	9072.88
292.678	9094.6
292.745	9118.43
292.812	9134.9
292.879	9126.28
292.946	9132.15
293.014	9147.51
293.081	9159.64
293.148	9176.35
293.215	9193.39
293.282	9187.85
293.349	9205.09
293.416	9188.29
293.484	9203.79
293.551	9218.62
293.618	9246.78
293.685	9274.52
293.752	9272.3
293.819	9261.32
293.886	9242.79
293.953	9249.91
294.02	9267.53
294.087	9270.13
294.154	9267.73
294.221	9284.24
294.288	9287.81
294.356	9307.74
294.423	9307.98
294.49	9297.05
294.557	9305.38
294.624	9289.54
294.691	9312.65
294.758	9306.34
294.825	9311.3
294.892	9299.12
294.959	9299.41
295.026	9302.54
295.093	9295.27
295.16	9294.69
295.226	9302.59
295.293	9332.98
295.36	9334.23
295.427	9345.69
295.494	9359.85
295.561	9356.91
295.628	9378.2
295.695	9390.96
295.762	9388.17
295.829	9401.17
295.896	9419.66
295.963	9430.93
296.03	9446.67
296.096	9446.96
296.163	9457.51
296.23	9472.24
296.297	9489.96
296.364	9484.43
296.431	9488.86
296.498	9489.82
296.564	9511.49
296.631	9512.84
296.698	9493.67
296.765	9523.43
296.832	9507.73
296.899	9486.06
296.965	9513.27
297.032	9488.56
297.099	9511.29
297.166	9528.05
297.233	9527.04
297.299	9517.55
297.366	9514.52
297.433	9519.72
297.5	9533.11
297.566	9535.23
297.633	9532.34
297.7	9538.4
297.767	9535.95
297.833	9544.95
297.9	9543.12
297.967	9529.21
298.033	9539.56
298.1	9570.48
298.167	9554.98
298.234	9568.22
298.3	9578.62
298.367	9570.48
298.434	9574.48
298.5	9556.27
298.567	9543.08
298.634	9538.16
298.7	9557.52
298.767	9562.53
298.834	9574.52
298.9	9567.01
298.967	9562.1
299.033	9572.69
299.1	9586.9
299.167	9605.78
299.233	9603.08
299.3	9616.47
299.366	9637.42
299.433	9652.78
299.5	9625.76
299.566	9633.18
299.633	9645.51
299.699	9664.96
299.766	9660.97
299.832	9664.68
299.899	9676.48
299.965	9695.84
300.032	9696.37
300.099	9707.01
300.165	9713.99
300.232	9714.62
300.298	9711.49
300.365	9729.21
300.431	9728.49
300.498	9716.31
300.564	9721.94
300.631	9732.83
300.697	9752.72
300.763	9751.13
300.83	9746.17
300.896	9765.43
300.963	9777.81
301.029	9780.56
301.096	9786.63
301.162	9799.97
301.229	9799.82
301.295	9788.41
301.361	9791.59
301.428	9788.6
301.494	9770.01
301.561	9773.33
301.627	9771.55
301.693	9782.58
301.76	9782.29
301.826	9777.04
301.892	9793.37
301.959	9802.28
302.025	9791.73
302.092	9781.76
302.158	9790
302.224	9798.28
302.291	9786.77
302.357	9779.59
302.423	9771.31
302.49	9754.93
302.556	9768.52
302.622	9774.06
302.688	9789.37
302.755	9799.3
302.821	9813.31
302.887	9826.75
302.954	9823.47
303.02	9832.24
303.086	9835.37
303.152	9836.04
303.219	9834.6
303.285	9836.14
303.351	9841.73
303.417	9852.66
303.483	9842.26
303.55	9832.43
303.616	9829.59
303.682	9822.32
303.748	9819.43
303.815	9835.61
303.881	9852.28
303.947	9837.59
304.013	9830.6
304.079	9817.41
304.145	9797.66
304.212	9797.32
304.278	9786.82
304.344	9776.61
304.41	9763.41
304.476	9748.24
304.542	9741.11
304.608	9745.3
304.674	9723.73
304.741	9718.52
304.807	9715.78
304.873	9725.6
304.939	9746.6
305.005	9721.75
305.071	9724.74
305.137	9725.22
305.203	9699.45
305.269	9692.99
305.335	9704.31
305.401	9701.09
305.467	9706.38
305.533	9711.83
305.599	9719.92
305.666	9728.64
305.732	9739.67
305.798	9752.67
305.864	9787.59
305.93	9796.74
305.996	9797.13
306.062	9802.91
306.128	9795.73
306.194	9781.23
306.259	9776.61
306.325	9763.36
306.391	9776.85
306.457	9790.58
306.523	9792.79
306.589	9823.28
306.655	9816.68
306.721	9798.81
306.787	9786
306.853	9798.09
306.919	9786.68
306.985	9777.28
307.051	9775.21
307.117	9764.18
307.183	9763.7
307.248	9725.27
307.314	9723
307.38	9720.74
307.446	9724.11
307.512	9716.98
307.578	9722.95
307.644	9716.11
307.709	9722.62
307.775	9725.41
307.841	9715.73
307.907	9715.54
307.973	9692.95
308.039	9686.2
308.104	9694.49
308.17	9696.22
308.236	9679.36
308.302	9683.99
308.368	9672.23
308.433	9670.26
308.499	9667.85
308.565	9649.07
308.631	9663.71
308.696	9633.9
308.762	9627.88
308.828	9625.47
308.894	9606.5
308.959	9585.94
309.025	9579.1
309.091	9571.78
309.156	9555.55
309.222	9558.63
309.288	9544.08
309.354	9518.47
309.419	9518.71
309.485	9503.39
309.551	9514.42
309.616	9503.97
309.682	9495.25
309.748	9485.33
309.813	9474.98
309.879	9464.58
309.945	9456.3
310.01	9445.12
310.076	9457.98
310.141	9455.19
310.207	9444.59
310.273	9450.22
310.338	9456.77
310.404	9446.42
310.469	9431.3
310.535	9423.21
310.601	9396.72
310.666	9410.83
310.732	9424.99
310.797	9418.87
310.863	9409.39
310.928	9403.32
310.994	9399.32
311.059	9396.67
311.125	9397.97
311.191	9411.31
311.256	9398.99
311.322	9403.13
311.387	9378.62
311.453	9648.37
311.518	9621.5
311.584	9617.56
311.649	9618.52
311.715	9604.27
311.78	9601.76
311.846	9597.33
311.911	9609.37
311.976	9616.93
312.042	9590.16
312.107	9576.58
312.173	9564.44
312.238	9551.83
312.304	9543.6
312.369	9538.06
312.434	9526.12
312.5	9513.26
312.565	9479.6
312.631	9485.48
312.696	9477.68
312.761	9479.84
312.827	9199.45
312.892	9236.91
312.958	9232.1
313.023	9231.71
313.088	9234.07
313.154	9217.66
313.219	9205.43
313.284	9191.75
313.35	9183.81
313.415	9181.16
313.48	9169.27
313.546	9174.66
313.611	9188.62
313.676	9175.24
313.741	9164.93
313.807	9175.67
313.872	9187.61
313.937	9194.74
314.003	9205.38
314.068	9208.22
314.133	9217.94
314.198	9199.75
314.264	9176.87
314.329	9165.12
314.394	9159.35
314.459	9156.99
314.525	9183.18
314.59	9171.62
314.655	9156.31
314.72	9166.86
314.785	9167.68
314.851	9165.56
314.916	9147.55
314.981	9130.65
315.046	9124.49
315.111	9119.58
315.176	9104.12
315.242	9104.99
315.307	9098.3
315.372	9074.23
315.437	9063.78
315.502	9057.57
315.567	9078.99
315.632	9063.63
315.698	9063.39
315.763	9059.64
315.828	9045.39
315.893	9037.73
315.958	9042.88
316.023	9038.6
316.088	9016.5
316.153	8990.84
316.218	8987.86
316.283	8965.24
316.348	8948.97
316.413	8945.79
316.479	8929.43
316.544	8896.46
316.609	8862.86
316.674	8834.36
316.739	8806.31
316.804	8773.1
316.869	8734.93
316.934	8690.26
316.999	8663.5
317.064	8614.32
317.129	8568.64
317.194	8537.32
317.259	8482.45
317.324	8428.37
317.389	8384.68
317.454	8344.98
317.518	8317.46
317.583	8292.53
317.648	8271.94
317.713	8232.83
317.778	8169.18
317.843	8138.39
317.908	8099.58
317.973	8059.45
318.038	8028.24
318.103	7992.31
318.168	7960.22
318.233	7926.12
318.297	7874.86
318.362	7829.79
318.427	7787.1
318.492	7764.83
318.557	7719.29
318.622	7694.19
318.687	7672.7
318.751	7631.31
318.816	7597.17
318.881	7557.46
318.946	7498.03
319.011	7447.84
319.075	7413.76
319.14	7384.34
319.205	7340.79
319.27	7307.01
319.335	7261.45
319.399	7222.32
319.464	7191.9
319.529	7138.47
319.594	7098.53
319.658	7073.45
319.723	7038.42
319.788	7016.52
319.853	6956.36
319.917	6921.87
319.982	6869.5
320.047	6831.26
320.112	6801.2
320.176	6747.5
320.241	6716.42
320.306	6687.17
320.37	6649.67
320.435	6617.06
320.5	6589.88
320.564	6551.37
320.629	6511.91
320.694	6484.35
320.758	6437.49
320.823	6390.4
320.888	6366.73
320.952	6323.68
321.017	6279.9
321.082	6238.96
321.146	6204.16
321.211	6174.27
321.275	6133.58
321.34	6090.88
321.405	6045.25
321.469	5998.82
321.534	5960.83
321.598	5907.87
321.663	5875.92
321.727	5840.52
321.792	5788.43
321.857	5743.97
321.921	5705.22
321.986	5661.45
322.05	5602.33
322.115	5571.22
322.179	5527.31
322.244	5469.07
322.308	5435.76
322.373	5388.6
322.437	5347.05
322.502	5320.67
322.566	5272.75
322.631	5237.63
322.695	5196.49
322.76	5154.52
322.824	5123.72
322.889	5084.93
322.953	5040.11
323.018	4973.2
323.082	4913.11
323.146	4864.38
323.211	4808.51
323.275	4763.02
323.34	4716.46
323.404	4679.61
323.468	4631.36
323.533	4591.35
323.597	4545.1
323.662	4491.51
323.726	4457.01
323.79	4409.7
323.855	4337.81
323.919	4290.27
323.983	4245.07
324.048	4177.97
324.112	4343.62
324.177	4210.85
324.241	3991.07
324.305	3780.72
324.37	3573.9
324.434	3373.16
324.498	3329
324.562	3279.3
324.627	3216.09
324.691	3162.88
324.755	3098.18
324.82	3019.57
324.884	2936.69
324.948	2866.84
325.012	2768.71
325.077	2643.61
