Data from 20250703_urea_0.1M_MAYP1162681_23-21-05-195.txt Node
Date: Thu Jul 03 23:21:05 BST 2025
User: adleo
Spectrometer: MAYP116268
Trigger mode: 0
Integration Time (sec): 1.000000E0
Scans to average: 1
Electric dark correction enabled: true
Nonlinearity correction enabled: true
Boxcar width: 10
XAxis mode: Wavelengths
Number of Pixels in Spectrum: 2068
>>>>>Begin Spectral Data<<<<<
179.565	1370.9
179.642	1433.85
179.718	1486.35
179.795	1530.28
179.871	1570.09
179.948	1591.87
180.024	1614.85
180.101	1642.6
180.177	1657.81
180.254	1685.18
180.33	1709.95
180.407	1774.83
180.483	1881.3
180.56	1983.84
180.636	2079.61
180.712	2063.53
180.789	2076.37
180.865	2089.4
180.942	2096.49
181.018	2106.67
181.095	2123.66
181.171	2131.79
181.248	2134.31
181.324	2149.21
181.4	2157.01
181.477	2167.91
181.553	2181.75
181.63	2205.35
181.706	2222.43
181.782	2233.28
181.859	2230.56
181.935	2237.8
182.011	2234.8
182.088	2255.69
182.164	2275.68
182.24	2290
182.317	2302.95
182.393	2301.42
182.469	2315.61
182.546	2331.98
182.622	2336.4
182.698	2328.17
182.775	2339.02
182.851	2354.2
182.927	2348.3
183.003	2345.07
183.08	2339.83
183.156	2346.11
183.232	2343.3
183.308	2329.83
183.385	2339.45
183.461	2359.29
183.537	2360.1
183.613	2375.62
183.69	2365.91
183.766	2354.67
183.842	2365.76
183.918	2367.43
183.995	2382.76
184.071	2387.14
184.147	2380.38
184.223	2370.05
184.299	2387.43
184.375	2375.25
184.452	2382.87
184.528	2434.2
184.604	2442.76
184.68	2454.8
184.756	2467.37
184.832	2470.37
184.908	2475.47
184.985	2472.99
185.061	2453.52
185.137	2464.24
185.213	2451.05
185.289	2452.86
185.365	2447.05
185.441	2441.86
185.517	2457.77
185.593	2452.44
185.669	2448.06
185.745	2459.96
185.822	2478.14
185.898	2469.61
185.974	2479.23
186.05	2469.65
186.126	2431.94
186.202	2428.37
186.278	2422.75
186.354	2410.04
186.43	2418
186.506	2418.61
186.582	2420.9
186.658	2429.65
186.734	2406.28
186.81	2412.8
186.886	2414.66
186.962	2429.23
187.038	2428.04
187.114	2420.46
187.19	2427.65
187.266	2416.09
187.341	2414.56
187.417	2406.95
187.493	2404.09
187.569	2409.9
187.645	2404.76
187.721	2393.09
187.797	2400.85
187.873	2406.33
187.949	2400.76
188.025	2392.38
188.101	2393.47
188.176	2399.18
188.252	2395.14
188.328	2405.42
188.404	2403.23
188.48	2399.7
188.556	2392.8
188.632	2390.18
188.707	2392.85
188.783	2388.23
188.859	2384.76
188.935	2376.09
189.011	2384.71
189.086	2378.24
189.162	2366.53
189.238	2361.48
189.314	2360.53
189.39	2354.1
189.465	2346.25
189.541	2369.15
189.617	2354.73
189.693	2347.07
189.768	2350.26
189.844	2376.02
189.92	2364.03
189.996	2372.98
190.071	2383.45
190.147	2380.31
190.223	2393.69
190.298	2381.5
190.374	2368.94
190.45	2380.93
190.526	2390.07
190.601	2380.5
190.677	2384.12
190.753	2414.22
190.828	2418.12
190.904	2431.93
190.98	2448.79
191.055	2460.93
191.131	2448.97
191.207	2468.49
191.282	2480.82
191.358	2467.68
191.433	2452.05
191.509	2469.52
191.585	2466.42
191.66	2467.9
191.736	2475.37
191.811	2465.47
191.887	2488
191.963	2514.23
192.038	2520.75
192.114	2522.56
192.189	2529.8
192.265	2524.75
192.34	2503.74
192.416	2504.79
192.491	2500.7
192.567	2500.93
192.642	2502.03
192.718	2502.84
192.793	2492.27
192.869	2487.27
192.944	2491.32
193.02	2497.46
193.095	2502.03
193.171	2505.32
193.246	2503.46
193.322	2503.46
193.397	2503.51
193.473	2486.31
193.548	2465.21
193.624	2469.83
193.699	2465.41
193.775	2481.98
193.85	2482.6
193.925	2488.89
194.001	2486.41
194.076	2478.79
194.152	2470.22
194.227	2465.08
194.302	2450.99
194.378	2454.18
194.453	2452.7
194.529	2463.37
194.604	2453.04
194.679	2443.47
194.755	2424.62
194.83	2438.96
194.905	2434.44
194.981	2444.96
195.056	2436.06
195.131	2445.15
195.207	2445.29
195.282	2437.2
195.357	2417.34
195.433	2436
195.508	2424.48
195.583	2434.33
195.659	2450.19
195.734	2456.19
195.809	2452.95
195.884	2467.61
195.96	2471.99
196.035	2490.28
196.11	2489.9
196.185	2500.23
196.261	2505.56
196.336	2542.66
196.411	2527.22
196.486	2532.03
196.561	2523.74
196.637	2533.98
196.712	2549.36
196.787	2551.32
196.862	2568.17
196.937	2579.6
197.013	2585.18
197.088	2599.27
197.163	2622.38
197.238	2642.07
197.313	2642.59
197.388	2657.12
197.464	2685.42
197.539	2697.57
197.614	2690.71
197.689	2704.67
197.764	2723.21
197.839	2747.6
197.914	2740.12
197.989	2764.75
198.065	2782.05
198.14	2835.83
198.215	2864.52
198.29	2881.4
198.365	2899.84
198.44	2911.18
198.515	2939.26
198.59	2959.38
198.665	2985.46
198.74	2994.42
198.815	2995.61
198.89	3020.54
198.965	3055.88
199.04	3052.83
199.115	3069.66
199.19	3116.15
199.265	3116.34
199.34	3127.17
199.415	3166.73
199.49	3190.09
199.565	3198.29
199.64	3221.71
199.715	3217.99
199.79	3227.91
199.865	3233.39
199.94	3231.92
200.015	3267.8
200.09	3275.15
200.165	3280.2
200.24	3291.85
200.315	3336.88
200.39	3353.1
200.464	3359.26
200.539	3361.16
200.614	3377.19
200.689	3402.44
200.764	3407.69
200.839	3429.58
200.914	3438.41
200.989	3424.99
201.063	3438.64
201.138	3424.9
201.213	3423.81
201.288	3403.58
201.363	3409.26
201.438	3412.07
201.512	3426.62
201.587	3406.52
201.662	3412.73
201.737	3427.57
201.812	3434.4
201.886	3394.57
201.961	3406.03
202.036	3394.72
202.111	3391.81
202.186	3365.96
202.26	3347.06
202.335	3323.58
202.41	3315.14
202.485	3296.34
202.559	3274.11
202.634	3248.77
202.709	3256.97
202.784	3246.76
202.858	3250.63
202.933	3233.98
203.008	3227.54
203.082	3211.99
203.157	3216.47
203.232	3175.03
203.306	3154.8
203.381	3126.6
203.456	3110.15
203.53	3096.01
203.605	3083.9
203.68	3064.39
203.754	3065.44
203.829	3054.71
203.904	3044.03
203.978	3048.75
204.053	3065.4
204.127	3066.88
204.202	3079.9
204.277	3081.47
204.351	3089.05
204.426	3100.27
204.5	3111.48
204.575	3098.08
204.65	3138.84
204.724	3157.41
204.799	3193.07
204.873	3219.47
204.948	3248.34
205.022	3270.23
205.097	3295.73
205.171	3345.6
205.246	3395.73
205.32	3436.67
205.395	3484.5
205.469	3524.82
205.544	3578.18
205.618	3611.71
205.693	3679.26
205.767	3722.82
205.842	3801.66
205.916	3860.14
205.991	3910.89
206.065	3978.52
206.14	4063.17
206.214	4116.98
206.289	4177.01
206.363	4265.48
206.438	4344.96
206.512	4429.64
206.586	4534.41
206.661	4627.88
206.735	4693.77
206.81	4785.49
206.884	4892.62
206.958	4972.53
207.033	5085.78
207.107	5190.84
207.181	5324.61
207.256	5420.23
207.33	5541.68
207.405	5661.47
207.479	5782.8
207.553	5900.66
207.628	5995.99
207.702	6110.24
207.776	6223.63
207.851	6348.22
207.925	6478.44
207.999	6596.08
208.073	6715.4
208.148	6835.58
208.222	6940.99
208.296	7098.39
208.371	7240.29
208.445	7379.15
208.519	7536.69
208.593	7671.1
208.668	7789.78
208.742	7923.18
208.816	8054.61
208.89	8207.41
208.965	8336.62
209.039	8480.3
209.113	8628.36
209.187	8782.02
209.261	8921.96
209.336	9078.16
209.41	9228.46
209.484	9364.77
209.558	9521.99
209.632	9668.22
209.707	9820.65
209.781	9975.82
209.855	10126.69
209.929	10275.7
210.003	10410.93
210.077	10535.51
210.151	10718.08
210.226	10895.44
210.3	11051.92
210.374	11200.85
210.448	11329.48
210.522	11466.97
210.596	11598.98
210.67	11740.72
210.744	11921.16
210.818	12085.56
210.892	12230.26
210.966	12350.27
211.041	12489.62
211.115	12609.26
211.189	12755.03
211.263	12889.47
211.337	13019.81
211.411	13150.16
211.485	13269.23
211.559	13399.67
211.633	13531.03
211.707	13617.31
211.781	13736.24
211.855	13815.97
211.929	13926.75
212.003	14026.44
212.077	14160.16
212.151	14295.03
212.225	14417.96
212.299	14524.39
212.373	14627.16
212.447	14733.16
212.52	14875.99
212.594	14992.35
212.668	15109.97
212.742	15213.31
212.816	15308.42
212.89	15408.15
212.964	15519.73
213.038	15621.77
213.112	15746.95
213.186	15867.06
213.26	15943.46
213.333	15990.7
213.407	16083.15
213.481	16185.04
213.555	16307.75
213.629	16383.81
213.703	16454.18
213.777	16541.56
213.85	16611.83
213.924	16732.46
213.998	16822.25
214.072	16898.83
214.146	16970.4
214.219	17064.08
214.293	17135.46
214.367	17229.29
214.441	17315.95
214.515	17381.25
214.588	17443.71
214.662	17483.95
214.736	17530.98
214.81	17618.55
214.883	17710.65
214.957	17782.36
215.031	17837.64
215.105	17869.01
215.178	17925.25
215.252	17993.39
215.326	18041.83
215.4	18079.17
215.473	18090.21
215.547	18141
215.621	18197
215.694	18266.83
215.768	18294.87
215.842	18357.52
215.915	18407.98
215.989	18445.95
216.063	18493.13
216.136	18547.49
216.21	18605.46
216.284	18684.88
216.357	18746.8
216.431	18811.09
216.504	18875.18
216.578	18964.19
216.652	19037.44
216.725	19092.47
216.799	19161.77
216.873	19215.79
216.946	19276.41
217.02	19329.08
217.093	19373.41
217.167	19401.12
217.24	19433.65
217.314	19476.69
217.387	19507.96
217.461	19548.59
217.535	19617.59
217.608	19657.21
217.682	19705.83
217.755	19768.96
217.829	19804.24
217.902	19846.79
217.976	19880.86
218.049	19920.81
218.123	19946.16
218.196	19991.41
218.27	20043.94
218.343	20072.47
218.417	20116.9
218.49	20169.33
218.563	20227.6
218.637	20271.45
218.71	20349.24
218.784	20405.29
218.857	20468.56
218.931	20531.69
219.004	20580.8
219.077	20627.99
219.151	20680.03
219.224	20720.76
219.298	20764.62
219.371	20824.33
219.444	20859.75
219.518	20900.09
219.591	20949.97
219.665	21024.87
219.738	21076.59
219.811	21103.53
219.885	21151.1
219.958	21206.86
220.031	21251.78
220.105	21297.47
220.178	21345.96
220.251	21358.59
220.325	21399.75
220.398	21447.47
220.471	21475.66
220.544	21517.07
220.618	21541.31
220.691	21580.93
220.764	21622.82
220.838	21657.48
220.911	21672.71
220.984	21732.04
221.057	21777.11
221.131	21818.76
221.204	21825.6
221.277	21869.71
221.35	21928.57
221.424	21953.34
221.497	21981.54
221.57	22011.23
221.643	22046.28
221.716	22087.74
221.79	22118.64
221.863	22149.68
221.936	22172.1
222.009	22214.76
222.082	22252.31
222.155	22271.3
222.229	22313.39
222.302	22338.17
222.375	22353.4
222.448	22391.87
222.521	22410.53
222.594	22436.61
222.667	22438.92
222.74	22477.15
222.814	22488.87
222.887	22492.63
222.96	22532.4
223.033	22561.47
223.106	22581.14
223.179	22606.89
223.252	22613.74
223.325	22633.16
223.398	22647.53
223.471	22659.29
223.544	22669.23
223.617	22679.3
223.69	22711.31
223.763	22701.48
223.837	22721.63
223.91	22747.81
223.983	22735.37
224.056	22735.23
224.129	22740.19
224.202	22760.01
224.275	22751.86
224.348	22748.39
224.42	22756.54
224.493	22733.39
224.566	22737.97
224.639	22749.54
224.712	22741.06
224.785	22763.72
224.858	22776.88
224.931	22770.66
225.004	22768.88
225.077	22769.31
225.15	22743.71
225.223	22745.98
225.296	22784.12
225.369	22769.94
225.442	22758.37
225.514	22764.3
225.587	22781.13
225.66	22790.77
225.733	22795.45
225.806	22804.85
225.879	22809.04
225.952	22803.6
226.025	22826.79
226.097	22834.74
226.17	22838.02
226.243	22828.28
226.316	22820.47
226.389	22812.08
226.461	22820.9
226.534	22831.51
226.607	22835.42
226.68	22856.2
226.753	22847.57
226.825	22815.89
226.898	22828.81
226.971	22829.05
227.044	22840.33
227.117	22831.36
227.189	22832.66
227.262	22844.62
227.335	22843.37
227.407	22840.76
227.48	22838.11
227.553	22831.99
227.626	22824.76
227.698	22821.14
227.771	22823.31
227.844	22798.43
227.916	22796.99
227.989	22781.51
228.062	22764.83
228.134	22776.35
228.207	22762.51
228.28	22750.37
228.352	22744.97
228.425	22730.94
228.498	22736.67
228.57	22712.76
228.643	22717.53
228.716	22697.91
228.788	22672.26
228.861	22651.72
228.934	22654.28
229.006	22649.84
229.079	22644.64
229.151	22633.93
229.224	22603.08
229.296	22594.45
229.369	22623.18
229.442	22632.3
229.514	22603.66
229.587	22601.4
229.659	22568.13
229.732	22566.68
229.804	22573.53
229.877	22583.22
229.949	22587.99
230.022	22585.2
230.094	22580.57
230.167	22566.3
230.239	22546.77
230.312	22534.62
230.384	22553.62
230.457	22537.76
230.529	22522.57
230.602	22499.48
230.674	22481.74
230.747	22483.62
230.819	22483.76
230.892	22418.63
230.964	22398.43
231.037	22397.85
231.109	22388.07
231.181	22384.93
231.254	22359.09
231.326	22323.18
231.399	22309.78
231.471	22286.54
231.544	22254.38
231.616	22250.24
231.688	22231.97
231.761	22209.75
231.833	22184.01
231.905	22134.21
231.978	22118.83
232.05	22105.76
232.122	22098.58
232.195	22071.49
232.267	22057.99
232.339	22027.33
232.412	22032.44
232.484	22006.94
232.556	21990.84
232.629	22000.05
232.701	21992.24
232.773	21981.35
232.846	21965.78
232.918	21938.88
232.99	21919.6
233.062	21912.46
233.135	21897.9
233.207	21857.32
233.279	21858.57
233.351	21856.11
233.424	21833.94
233.496	21800.78
233.568	21791.38
233.64	21742.84
233.713	21711.22
233.785	21690.78
233.857	21671.07
233.929	21623.79
234.001	21624.17
234.074	21608.65
234.146	21549.03
234.218	21512.44
234.29	21482.27
234.362	21449.2
234.434	21402.16
234.507	21358.88
234.579	21308.17
234.651	21257.76
234.723	21239.06
234.795	21205.9
234.867	21165.22
234.939	21158.66
235.012	21135.14
235.084	21109.02
235.156	21105.02
235.228	21080.15
235.3	21054.8
235.372	21032
235.444	21030.27
235.516	20973.44
235.588	20949.73
235.66	20934.16
235.732	20888.57
235.804	20921.15
235.876	20905.78
235.948	20908.43
236.02	20885.97
236.092	20858.98
236.164	20839.32
236.236	20807.8
236.308	20769.77
236.38	20750.5
236.452	20703.22
236.524	20676.47
236.596	20661.53
236.668	20631.46
236.74	20602.25
236.812	20570.73
236.884	20539.79
236.956	20506.88
237.028	20466.78
237.1	20422.69
237.172	20406.15
237.244	20401.91
237.316	20326.15
237.388	20286.44
237.46	20232.17
237.532	20215.07
237.604	20178.97
237.675	20160.9
237.747	20144.71
237.819	20111.45
237.891	20078.73
237.963	20039.6
238.035	20005.53
238.107	19927.51
238.178	19906.5
238.25	19870.93
238.322	19863.94
238.394	19814.41
238.466	19775.27
238.538	19749.73
238.609	19724.05
238.681	19657.3
238.753	19616.29
238.825	19584.78
238.897	19553.65
238.968	19540.83
239.04	19494.81
239.112	19491.58
239.184	19444.78
239.255	19395.1
239.327	19363.01
239.399	19332.16
239.471	19313.32
239.542	19280.31
239.614	19269.08
239.686	19200.41
239.758	19185.76
239.829	19123.55
239.901	19105.91
239.973	19076.32
240.044	19048.09
240.116	19015.36
240.188	18988.52
240.259	18954.07
240.331	18905.3
240.403	18878.22
240.474	18823.62
240.546	18776.87
240.618	18720.59
240.689	18683.91
240.761	18668.11
240.833	18659.19
240.904	18621.75
240.976	18580.55
241.048	18540.26
241.119	18513.03
241.191	18493.18
241.262	18479.73
241.334	18440.8
241.405	18397.23
241.477	18357.57
241.549	18323.45
241.62	18288.32
241.692	18253.96
241.763	18236.08
241.835	18211.89
241.906	18179.75
241.978	18134.26
242.049	18118.11
242.121	18086.74
242.192	18066.5
242.264	18009.01
242.335	17949.01
242.407	17922.26
242.478	17879.71
242.55	17851.23
242.621	17809.54
242.693	17766.41
242.764	17710.65
242.836	17671.43
242.907	17641.4
242.979	17615.09
243.05	17579.86
243.122	17550.46
243.193	17516.87
243.264	17448.3
243.336	17406.27
243.407	17378.22
243.479	17362.75
243.55	17334.32
243.622	17306.9
243.693	17271.72
243.764	17259.67
243.836	17214.17
243.907	17175.23
243.978	17141.5
244.05	17117.64
244.121	17065.5
244.192	17052.87
244.264	17001.3
244.335	16977.35
244.407	16924.24
244.478	16888.48
244.549	16846.21
244.62	16795.22
244.692	16757.87
244.763	16741.05
244.834	16695.65
244.906	16654.63
244.977	16623.45
245.048	16600.03
245.119	16550.24
245.191	16503.97
245.262	16441.94
245.333	16424.35
245.405	16386.13
245.476	16362.18
245.547	16326.85
245.618	16310.89
245.689	16267.86
245.761	16248.82
245.832	16208.04
245.903	16194.35
245.974	16167.6
246.045	16139.94
246.117	16131.65
246.188	16086.82
246.259	16037.56
246.33	16010.28
246.401	15967.14
246.473	15915.23
246.544	15864.96
246.615	15847.13
246.686	15815.46
246.757	15801.48
246.828	15761.72
246.899	15745.43
246.97	15691.01
247.042	15650.81
247.113	15615.09
247.184	15609.45
247.255	15566.51
247.326	15540
247.397	15504.71
247.468	15468.23
247.539	15434.15
247.61	15380.35
247.681	15360.06
247.752	15342.66
247.823	15297.93
247.894	15274.21
247.965	15234.93
248.037	15208.46
248.108	15158.14
248.179	15129.17
248.25	15096.68
248.321	15073.11
248.392	15033.39
248.463	15029.34
248.534	15001.39
248.605	14990.49
248.675	14949.13
248.746	14930.09
248.817	14902.62
248.888	14874.32
248.959	14831.13
249.03	14805.92
249.101	14778.88
249.172	14749.81
249.243	14702.86
249.314	14695.97
249.385	14666.9
249.456	14655.09
249.527	14622.7
249.598	14608.62
249.669	14576.08
249.739	14545.86
249.81	14523.97
249.881	14485.21
249.952	14455.95
250.023	14420.23
250.094	14371.64
250.165	14340.17
250.235	14307.72
250.306	14286.95
250.377	14257.64
250.448	14234.36
250.519	14188.66
250.59	14180.51
250.66	14154.62
250.731	14143.97
250.802	14119.34
250.873	14097.6
250.944	14069.35
251.014	14038.69
251.085	14035.36
251.156	14020.37
251.227	14016.75
251.297	14002.92
251.368	13987.4
251.439	13968.11
251.51	13957.46
251.58	13918.85
251.651	13876.57
251.722	13862.73
251.792	13819.45
251.863	13785.6
251.934	13779
252.005	13785.12
252.075	13757.98
252.146	13735.86
252.217	13726.65
252.287	13706.45
252.358	13689.43
252.429	13691.99
252.499	13656.51
252.57	13635.25
252.641	13615.82
252.711	13587.14
252.782	13549.92
252.852	13545.49
252.923	13525.39
252.994	13505.09
253.064	13500.99
253.135	13474.43
253.205	13446.37
253.276	13446.86
253.347	13447.1
253.417	13409.3
253.488	13382.21
253.558	13350.73
253.629	13336.03
253.699	13312.26
253.77	13297.32
253.841	13268.49
253.911	13242.56
253.982	13229.06
254.052	13217.49
254.123	13201.05
254.193	13178.01
254.264	13195.75
254.334	13158.92
254.405	13128.55
254.475	13089.84
254.546	13064.19
254.616	13058.65
254.687	13038.84
254.757	13018.4
254.827	12984.12
254.898	12969.57
254.968	12949.13
255.039	12924.98
255.109	12904.44
255.18	12871.9
255.25	12831.17
255.321	12815.84
255.391	12779.83
255.461	12782.77
255.532	12737.12
255.602	12706.03
255.673	12660.95
255.743	12625.04
255.813	12585.18
255.884	12576.74
255.954	12574.57
256.024	12579.68
256.095	12561.41
256.165	12531.33
256.235	12514.8
256.306	12492.82
256.376	12490.6
256.446	12479.66
256.517	12466.16
256.587	12459.12
256.657	12444.37
256.728	12427.21
256.798	12406.77
256.868	12382.28
256.938	12350.52
257.009	12332.54
257.079	12321.4
257.149	12338.61
257.219	12297.45
257.29	12280.67
257.36	12233.1
257.43	12216.56
257.5	12164.17
257.571	12138.86
257.641	12127.92
257.711	12094.42
257.781	12083.48
257.852	12063.23
257.922	12021.29
257.992	11999.94
258.062	11975.89
258.132	11966.39
258.202	11940.41
258.273	11923.83
258.343	11925.86
258.413	11901.56
258.483	11881.13
258.553	11850.52
258.623	11820.78
258.693	11808.73
258.764	11810.75
258.834	11813.6
258.904	11794.85
258.974	11775.33
259.044	11757.4
259.114	11744.48
259.184	11724.38
259.254	11706.5
259.324	11660.66
259.394	11648.18
259.464	11650.01
259.535	11627.55
259.605	11603.88
259.675	11580.94
259.745	11568.12
259.815	11535.11
259.885	11510.91
259.955	11526.19
260.025	11503.25
260.095	11481.37
260.165	11468.69
260.235	11471.63
260.305	11448.79
260.375	11421.08
260.445	11424.02
260.515	11423.39
260.585	11416.11
260.655	11407.34
260.725	11404.11
260.795	11403.82
260.865	11411.48
260.934	11379.53
261.004	11374.86
261.074	11364.59
261.144	11367.58
261.214	11359.1
261.284	11340.11
261.354	11337.6
261.424	11306.13
261.494	11304.92
261.564	11287.09
261.634	11272.97
261.703	11225.07
261.773	11211.67
261.843	11197.93
261.913	11181.16
261.983	11149.45
262.053	11138.66
262.123	11114.95
262.192	11076.93
262.262	11072.97
262.332	11043.09
262.402	11036.83
262.472	11016.15
262.541	10968.16
262.611	10960.11
262.681	10937.61
262.751	10932.55
262.821	10912.21
262.89	10882.04
262.96	10873.71
263.03	10876.41
263.1	10865.23
263.169	10852.79
263.239	10850.63
263.309	10858.48
263.379	10853.66
263.448	10837.23
263.518	10826.72
263.588	10813.14
263.657	10823.21
263.727	10812.56
263.797	10790.63
263.867	10776.42
263.936	10753.72
264.006	10757.87
264.076	10743.03
264.145	10726.98
264.215	10703.61
264.285	10700.14
264.354	10668.87
264.424	10647.43
264.494	10621.75
264.563	10604.16
264.633	10621.12
264.702	10607.05
264.772	10576.5
264.842	10548.55
264.911	10551.11
264.981	10520.22
265.05	10506.63
265.12	10477.05
265.19	10466.5
265.259	10464.23
265.329	10451.56
265.398	10435.13
265.468	10450.41
265.537	10426.27
265.607	10419.76
265.676	10417.07
265.746	10409.89
265.815	10411.19
265.885	10394.33
265.955	10366.34
266.024	10346.68
266.094	10301.97
266.163	10303.7
266.232	10302.6
266.302	10293.39
266.371	10271.62
266.441	10258.42
266.51	10259.67
266.58	10246.47
266.649	10215.16
266.719	10211.59
266.788	10205.76
266.858	10224.79
266.927	10181.96
266.996	10178.3
267.066	10159.61
267.135	10132.39
267.205	10121.84
267.274	10109.75
267.343	10111.82
267.413	10103.54
267.482	10109.99
267.552	10118.09
267.621	10081.52
267.69	10048.57
267.76	10035.37
267.829	10036.14
267.898	10025.5
267.968	9994.77
268.037	9991.88
268.106	10001.7
268.176	9982.24
268.245	9967.31
268.314	9936.14
268.384	9938.11
268.453	9927.95
268.522	9929.78
268.592	9933.63
268.661	9912.05
268.73	9906.03
268.799	9884.65
268.869	9893.94
268.938	9859.16
269.007	9833.68
269.076	9828.05
269.146	9829.74
269.215	9824.82
269.284	9824.92
269.353	9810.76
269.422	9804.35
269.492	9786.53
269.561	9739.29
269.63	9727.34
269.699	9712.46
269.768	9706.58
269.838	9702.1
269.907	9697.77
269.976	9664.92
270.045	9631.84
270.114	9626.68
270.183	9616.04
270.253	9612.09
270.322	9577.9
270.391	9570.67
270.46	9579.39
270.529	9574.14
270.598	9571.44
270.667	9555.7
270.736	9527.33
270.806	9520.1
270.875	9522.75
270.944	9513.51
271.013	9540.09
271.082	9534.36
271.151	9533.35
271.22	9498.72
271.289	9481.1
271.358	9466.22
271.427	9466.22
271.496	9459.19
271.565	9443.49
271.634	9431.11
271.703	9455.73
271.772	9459.1
271.841	9446.29
271.91	9421.97
271.979	9412.43
272.048	9384.55
272.117	9388.16
272.186	9373.67
272.255	9376.94
272.324	9373.81
272.393	9366.78
272.462	9352.77
272.531	9343.14
272.6	9323.54
272.669	9332.01
272.738	9323.54
272.807	9318.15
272.876	9292.24
272.945	9325.47
273.013	9329.27
273.082	9331.73
273.151	9281.07
273.22	9274.37
273.289	9272.4
273.358	9280.25
273.427	9267.44
273.496	9268.79
273.564	9264.07
273.633	9267.2
273.702	9242.84
273.771	9230.27
273.84	9226.18
273.909	9227.04
273.977	9220.21
274.046	9207.45
274.115	9211.35
274.184	9192.19
274.253	9188.77
274.322	9200.18
274.39	9167.05
274.459	9149.04
274.528	9117.94
274.597	9114.76
274.665	9116.16
274.734	9124.59
274.803	9108.12
274.872	9099.6
274.94	9090.11
275.009	9142.57
275.078	9125.53
275.147	9123.22
275.215	9121.24
275.284	9128.56
275.353	9108.67
275.421	9087.68
275.49	9110.31
275.559	9099.53
275.627	9096.69
275.696	9079.02
275.765	9081.14
275.833	9069.01
275.902	9068.05
275.971	9085.13
276.039	9099.34
276.108	9098.81
276.177	9091.1
276.245	9083.55
276.314	9085.18
276.383	9088.12
276.451	9022.86
276.52	9029.5
276.588	9045.48
276.657	9050.97
276.725	9042.69
276.794	9046.45
276.863	9053.76
276.931	9026.23
277	9032.68
277.068	9041.39
277.137	9067.68
277.205	9062.28
277.274	9077.26
277.342	9092.42
277.411	9067.54
277.48	9056.17
277.548	9043.22
277.617	9045.2
277.685	9042.79
277.754	9045.29
277.822	9035.57
277.89	9051.99
277.959	9044.33
278.027	9020.26
278.096	9006.64
278.164	9039.38
278.233	9025.61
278.301	9020.7
278.37	9028.41
278.438	9007.27
278.507	9009.73
278.575	8979.06
278.643	8976.89
278.712	8960.77
278.78	8942.76
278.849	8959.42
278.917	8970.49
278.985	8963.89
279.054	8963.65
279.122	8971.45
279.191	8965.19
279.259	8963.08
279.327	8938.14
279.396	8954.26
279.464	8950.41
279.532	8950.27
279.601	8938.37
279.669	8938.57
279.737	8949.06
279.806	8951.56
279.874	8968.08
279.942	8964.37
280.011	8960.76
280.079	8971.69
280.147	8986.8
280.215	8992.96
280.284	8984.59
280.352	8964.61
280.42	8979.44
280.488	8972.26
280.557	8964.75
280.625	8967.31
280.693	8967.74
280.761	8971.11
280.83	8949.16
280.898	8969.13
280.966	8953.3
281.034	8916.85
281.102	8900.73
281.171	8893.99
281.239	8899
281.307	8894.09
281.375	8883.88
281.443	8907.52
281.512	8901.74
281.58	8912.52
281.648	8894.67
281.716	8897.07
281.784	8898.23
281.852	8893.08
281.92	8890.91
281.989	8904.39
282.057	8889.85
282.125	8939.69
282.193	8933.82
282.261	8938
282.329	8925.58
282.397	8927.32
282.465	8931.5
282.533	8943.63
282.601	8933.57
282.67	8914.99
282.738	8906.28
282.806	8916.43
282.874	8906.47
282.942	8904.98
283.01	8896.16
283.078	8903.96
283.146	8905.55
283.214	8912.77
283.282	8909.3
283.35	8921.48
283.418	8910.12
283.486	8917.73
283.554	8865.77
283.622	8869.67
283.69	8866.45
283.758	8860.62
283.826	8868.81
283.894	8878.53
283.962	8908.72
284.03	8925.95
284.098	8925.08
284.165	8915.55
284.233	8916.66
284.301	8904.34
284.369	8894.57
284.437	8883.98
284.505	8876.71
284.573	8888.65
284.641	8875.7
284.709	8884.84
284.777	8865.83
284.845	8873.05
284.912	8879.84
284.98	8885.66
285.048	8876.85
285.116	8881.23
285.184	8899.81
285.252	8903.91
285.319	8887.49
285.387	8866.69
285.455	8847.34
285.523	8851.48
285.591	8853.31
285.659	8852.3
285.726	8867.51
285.794	8857.64
285.862	8853.84
285.93	8856.06
285.997	8845.95
286.065	8846.19
286.133	8838.2
286.201	8836.51
286.269	8826.06
286.336	8809.12
286.404	8803.3
286.472	8818.08
286.539	8797.28
286.607	8777.36
286.675	8771.77
286.743	8776.92
286.81	8776.01
286.878	8792.04
286.946	8785.83
287.013	8783.95
287.081	8783.66
287.149	8771.29
287.216	8788.52
287.284	8784.62
287.352	8784.67
287.419	8781.49
287.487	8793.72
287.555	8797.91
287.622	8795.89
287.69	8796.7
287.758	8813.89
287.825	8806.77
287.893	8791.99
287.96	8797.76
288.028	8807.63
288.096	8809.6
288.163	8818.65
288.231	8798.82
288.298	8798.77
288.366	8814.85
288.433	8807.1
288.501	8798.87
288.569	8805.03
288.636	8801.18
288.704	8818.8
288.771	8825.88
288.839	8824.48
288.906	8819.23
288.974	8827.51
289.041	8820.34
289.109	8815.67
289.176	8825.4
289.244	8831.8
289.311	8849.76
289.379	8862.27
289.446	8864.05
289.514	8861.93
289.581	8859.09
289.649	8868.04
289.716	8866.31
289.783	8858.8
289.851	8886
289.918	8879.64
289.986	8884.46
290.053	8884.99
290.121	8876.66
290.188	8876.51
290.255	8901.21
290.323	8898.03
290.39	8888.16
290.458	8902.03
290.525	8914.35
290.592	8899.28
290.66	8906.07
290.727	8896.68
290.794	8910.93
290.862	8914.97
290.929	8923.88
290.996	8922.39
291.064	8937.12
291.131	8945.73
291.198	8956.56
291.266	8957.19
291.333	8966.14
291.4	8969.85
291.468	8991.03
291.535	8988.43
291.602	8999.03
291.669	8986.89
291.737	8989.59
291.804	8996.23
291.871	9006.53
291.938	9012.31
292.006	9050.06
292.073	9062.53
292.14	9074.85
292.207	9070.04
292.275	9065.32
292.342	9073.84
292.409	9102.01
292.476	9125.36
292.543	9118.76
292.611	9119.05
292.678	9133.93
292.745	9163.49
292.812	9171.72
292.879	9164.02
292.946	9172.11
293.014	9185.11
293.081	9197.96
293.148	9210.91
293.215	9217.75
293.282	9214.33
293.349	9226.08
293.416	9200.41
293.484	9212.6
293.551	9220.49
293.618	9232.34
293.685	9265.56
293.752	9256.75
293.819	9253.86
293.886	9234.41
293.953	9244.71
294.02	9256.89
294.087	9264.74
294.154	9256.32
294.221	9276.54
294.288	9280.15
294.356	9301.53
294.423	9302.49
294.49	9287.76
294.557	9304.66
294.624	9301.39
294.691	9322.86
294.758	9320.55
294.825	9330.23
294.892	9320.65
294.959	9318.57
295.026	9332.01
295.093	9320.64
295.16	9322.28
295.226	9324.06
295.293	9359.75
295.36	9364.61
295.427	9376.12
295.494	9386.72
295.561	9394.9
295.628	9416.38
295.695	9430.73
295.762	9429.05
295.829	9447.64
295.896	9470.56
295.963	9478.46
296.03	9485.48
296.096	9493.14
296.163	9512.5
296.23	9531.67
296.297	9553.82
296.364	9555.22
296.431	9558.3
296.498	9555.26
296.564	9587.86
296.631	9583.92
296.698	9560.65
296.765	9584.25
296.832	9571.35
296.899	9554.1
296.965	9570.58
297.032	9546.06
297.099	9563.3
297.166	9576.64
297.233	9569.9
297.299	9564.36
297.366	9566.14
297.433	9572.02
297.5	9583.96
297.566	9575.58
297.633	9572.74
297.7	9570.28
297.767	9562.19
297.833	9573.71
297.9	9574.91
297.967	9554.73
298.033	9569.95
298.1	9605.98
298.167	9597.45
298.234	9606.65
298.3	9625
298.367	9622.59
298.434	9631.88
298.5	9623.74
298.567	9610.55
298.634	9605.16
298.7	9621.1
298.767	9628.9
298.834	9642.19
298.9	9635.88
298.967	9633.52
299.033	9641.03
299.1	9655.97
299.167	9685.34
299.233	9675.52
299.3	9694.39
299.366	9711.15
299.433	9736.34
299.5	9702.92
299.566	9704.03
299.633	9717.85
299.699	9724.78
299.766	9719.63
299.832	9727.58
299.899	9732.83
299.965	9749.2
300.032	9746.84
300.099	9761.1
300.165	9757.68
300.232	9756.86
300.298	9756.52
300.365	9773.29
300.431	9779.4
300.498	9767.22
300.564	9772.03
300.631	9784.36
300.697	9794.43
300.763	9798.19
300.83	9790.19
300.896	9812.15
300.963	9821.21
301.029	9825.35
301.096	9829.64
301.162	9846.35
301.229	9840.23
301.295	9831.32
301.361	9841.1
301.428	9847.89
301.494	9826.79
301.561	9836.76
301.627	9840.23
301.693	9839.65
301.76	9839.8
301.826	9835.75
301.892	9855.6
301.959	9862.39
302.025	9857.48
302.092	9851.99
302.158	9851.6
302.224	9852.76
302.291	9840.14
302.357	9838.02
302.423	9835.51
302.49	9826.07
302.556	9837.97
302.622	9836.57
302.688	9845.63
302.755	9857.62
302.821	9863.93
302.887	9874.19
302.954	9864.13
303.02	9872.27
303.086	9886.43
303.152	9885.27
303.219	9879.11
303.285	9877.85
303.351	9885.13
303.417	9879.54
303.483	9867.02
303.55	9862.54
303.616	9855.94
303.682	9858.35
303.748	9852.76
303.815	9871.5
303.881	9883.3
303.947	9867.93
304.013	9870.05
304.079	9865.24
304.145	9835.56
304.212	9833.83
304.278	9829.26
304.344	9829.16
304.41	9812.78
304.476	9799.73
304.542	9793.71
304.608	9800.4
304.674	9787.06
304.741	9778.49
304.807	9787.3
304.873	9798.23
304.939	9820.44
305.005	9809.7
305.071	9809.41
305.137	9810.23
305.203	9771.6
305.269	9763.51
305.335	9776.95
305.401	9778.2
305.467	9773.53
305.533	9790.19
305.599	9802.86
305.666	9809.22
305.732	9812.83
305.798	9827.81
305.864	9856.52
305.93	9862.3
305.996	9857.05
306.062	9859.26
306.128	9857.72
306.194	9844.67
306.259	9844.28
306.325	9827.04
306.391	9837.64
306.457	9841.06
306.523	9841.54
306.589	9881.23
306.655	9876.22
306.721	9851.41
306.787	9836.48
306.853	9854.78
306.919	9832.44
306.985	9818.23
307.051	9813.51
307.117	9800.94
307.183	9797.08
307.248	9761.15
307.314	9767.22
307.38	9773.91
307.446	9776.61
307.512	9766.59
307.578	9774.3
307.644	9774.39
307.709	9773
307.775	9770.88
307.841	9766.35
307.907	9770.44
307.973	9744.1
308.039	9747.03
308.104	9754.02
308.17	9750.02
308.236	9735.23
308.302	9739.28
308.368	9733.35
308.433	9735.47
308.499	9736.34
308.565	9725.45
308.631	9727.81
308.696	9699.01
308.762	9682.83
308.828	9679.46
308.894	9656.15
308.959	9637.95
309.025	9623.79
309.091	9622.49
309.156	9610.93
309.222	9618.83
309.288	9608.81
309.354	9583.24
309.419	9583.43
309.485	9565.52
309.551	9573.85
309.616	9557.62
309.682	9560.84
309.748	9550.59
309.813	9541.48
309.879	9528.24
309.945	9518.18
310.01	9514.47
310.076	9521.84
310.141	9522.56
310.207	9507.97
310.273	9516.05
310.338	9521.35
310.404	9508.11
310.469	9499.78
310.535	9485.72
310.601	9459.23
310.666	9465.25
310.732	9481.57
310.797	9465.63
310.863	9461.15
310.928	9456.63
310.994	9461.06
311.059	9453.54
311.125	9450.41
311.191	9463.51
311.256	9453.26
311.322	9458.41
311.387	9443.15
311.453	9829.2
311.518	9803.63
311.584	9805.56
311.649	9807.87
311.715	9794.82
311.78	9792.89
311.846	9781.19
311.911	9792.75
311.976	9795.78
312.042	9774.79
312.107	9755.29
312.173	9745.85
312.238	9739.3
312.304	9731.59
312.369	9717.68
312.434	9708.58
312.5	9705.83
312.565	9670.58
312.631	9678.72
312.696	9667.26
312.761	9669.57
312.827	9272.73
312.892	9315.49
312.958	9308.37
313.023	9306.25
313.088	9302.4
313.154	9286.12
313.219	9271.49
313.284	9266.38
313.35	9263.59
313.415	9254.92
313.48	9249.19
313.546	9251.02
313.611	9261.14
313.676	9249.77
313.741	9244.81
313.807	9253.19
313.872	9259.21
313.937	9264.7
314.003	9275.34
314.068	9276.21
314.133	9281.79
314.198	9272.93
314.264	9248.52
314.329	9235.56
314.394	9228.25
314.459	9228.58
314.525	9254.53
314.59	9257.61
314.655	9237.39
314.72	9242.21
314.785	9240.33
314.851	9235.08
314.916	9219.29
314.981	9206.67
315.046	9200.08
315.111	9188.96
315.176	9173.74
315.242	9174.71
315.307	9171.14
315.372	9142.83
315.437	9129.59
315.502	9115.34
315.567	9124.25
315.632	9107.35
315.698	9114.47
315.763	9111.87
315.828	9101.67
315.893	9096.42
315.958	9093.96
316.023	9081.06
316.088	9068.98
316.153	9048.42
316.218	9049.53
316.283	9030.13
316.348	9008.33
316.413	9011.07
316.479	8994.95
316.544	8960.53
316.609	8928.28
316.674	8890.25
316.739	8863.64
316.804	8835.82
316.869	8799.58
316.934	8763.28
316.999	8733.39
317.064	8679.15
317.129	8633.14
317.194	8598.59
317.259	8544.05
317.324	8489.01
317.389	8453.3
317.454	8408.45
317.518	8382.23
317.583	8353.64
317.648	8333.86
317.713	8294.46
317.778	8229.46
317.843	8200.11
317.908	8166.82
317.973	8119.87
318.038	8091.06
318.103	8054.12
318.168	8021.94
318.233	7997.74
318.297	7951.66
318.362	7911.98
318.427	7874.76
318.492	7852.87
318.557	7798.83
318.622	7774.78
318.687	7756.22
318.751	7717.57
318.816	7677.42
318.881	7642.6
318.946	7589.42
319.011	7542.11
319.075	7507.49
319.14	7470.77
319.205	7428.9
319.27	7393.81
319.335	7353.25
319.399	7320.18
319.464	7295.72
319.529	7241.41
319.594	7199.21
319.658	7164.56
319.723	7118.53
319.788	7093.06
319.853	7032.85
319.917	7009.75
319.982	6956.22
320.047	6920.95
320.112	6894.29
320.176	6848.17
320.241	6812.14
320.306	6779.86
320.37	6738.85
320.435	6704.89
320.5	6686.88
320.564	6650.05
320.629	6607.03
320.694	6583.35
320.758	6537.36
320.823	6490.35
320.888	6465.63
320.952	6418.15
321.017	6373.31
321.082	6338.52
321.146	6299.44
321.211	6271.17
321.275	6235.42
321.34	6194.97
321.405	6146.21
321.469	6099.04
321.534	6057.31
321.598	6007.27
321.663	5980.39
321.727	5950.31
321.792	5900.28
321.857	5848.47
321.921	5809.62
321.986	5771.21
322.05	5706.76
322.115	5671.95
322.179	5627.31
322.244	5569.74
322.308	5539.01
322.373	5495.78
322.437	5452.93
322.502	5431.92
322.566	5384.09
322.631	5339.47
322.695	5296.83
322.76	5253.42
322.824	5219.02
322.889	5174.86
322.953	5128.31
323.018	5053.38
323.082	4986.77
323.146	4939.61
323.211	4886.46
323.275	4836.75
323.34	4788.36
323.404	4754
323.468	4706.26
323.533	4661.37
323.597	4618.18
323.662	4560.31
323.726	4526.38
323.79	4480.69
323.855	4410.89
323.919	4360.52
323.983	4317.32
324.048	4248.92
324.112	4423.54
324.177	4289.35
324.241	4071.63
324.305	3855.63
324.37	3646.95
324.434	3443.29
324.498	3398.29
324.562	3347.97
324.627	3289.38
324.691	3232.88
324.755	3167.12
324.82	3089.78
324.884	3011.72
324.948	2936.71
325.012	2842.83
325.077	2713.27
