Data from 20250703_urea_0.1M_MAYP1162681_09-41-05-229.txt Node
Date: Fri Jul 04 09:41:05 BST 2025
User: adleo
Spectrometer: MAYP116268
Trigger mode: 0
Integration Time (sec): 1.000000E0
Scans to average: 1
Electric dark correction enabled: true
Nonlinearity correction enabled: true
Boxcar width: 10
XAxis mode: Wavelengths
Number of Pixels in Spectrum: 2068
>>>>>Begin Spectral Data<<<<<
179.565	1208.53
179.642	1266.36
179.718	1312.68
179.795	1351.03
179.871	1384.07
179.948	1402.06
180.024	1421.87
180.101	1445.57
180.177	1460.69
180.254	1482.68
180.33	1504
180.407	1557.6
180.483	1653.38
180.56	1744.99
180.636	1830.06
180.712	1821.41
180.789	1830.35
180.865	1842.41
180.942	1852.92
181.018	1864.75
181.095	1879.11
181.171	1882.92
181.248	1882.77
181.324	1895.66
181.4	1904.08
181.477	1914.96
181.553	1928.32
181.63	1952.1
181.706	1967.22
181.782	1974.39
181.859	1973.25
181.935	1982.24
182.011	1980.05
182.088	1997.17
182.164	2014.78
182.24	2026.85
182.317	2034.17
182.393	2034.17
182.469	2050.34
182.546	2062.8
182.622	2067.89
182.698	2060.52
182.775	2070.6
182.851	2082.92
182.927	2077.73
183.003	2073.41
183.08	2067.37
183.156	2075.88
183.232	2070.84
183.308	2059.09
183.385	2067.27
183.461	2087.82
183.537	2086.82
183.613	2098.37
183.69	2090.1
183.766	2080.34
183.842	2088.43
183.918	2094.09
183.995	2106.93
184.071	2110.12
184.147	2105.31
184.223	2095.62
184.299	2111.55
184.375	2101.38
184.452	2112.51
184.528	2158.99
184.604	2168.55
184.68	2180.91
184.756	2188.43
184.832	2191.81
184.908	2196.8
184.985	2197.09
185.061	2177.16
185.137	2186.24
185.213	2175.21
185.289	2174.97
185.365	2167.27
185.441	2166.79
185.517	2178.97
185.593	2176.36
185.669	2174.26
185.745	2182.83
185.822	2198
185.898	2189.38
185.974	2199.09
186.05	2187.66
186.126	2158.17
186.202	2150.47
186.278	2147.95
186.354	2138.19
186.43	2147.57
186.506	2149.04
186.582	2148.66
186.658	2160.41
186.734	2139.01
186.81	2143.33
186.886	2146.95
186.962	2160.74
187.038	2157.37
187.114	2150.08
187.19	2156.32
187.266	2145.62
187.341	2147.23
187.417	2140.34
187.493	2139.91
187.569	2143.05
187.645	2137.53
187.721	2125.06
187.797	2135.76
187.873	2139.95
187.949	2135.48
188.025	2129.44
188.101	2129.06
188.176	2131.58
188.252	2123.68
188.328	2132.81
188.404	2131.1
188.48	2126.82
188.556	2120.06
188.632	2118.02
188.707	2119.3
188.783	2117.73
188.859	2112.93
188.935	2101.8
189.011	2111.31
189.086	2104.22
189.162	2097.04
189.238	2094.85
189.314	2091.9
189.39	2083.77
189.465	2075.35
189.541	2091.62
189.617	2073.4
189.693	2068.17
189.768	2073.07
189.844	2098.01
189.92	2088.78
189.996	2095.82
190.071	2104.48
190.147	2101.96
190.223	2110.33
190.298	2104.76
190.374	2090.54
190.45	2103.67
190.526	2113.42
190.601	2105.62
190.677	2107.85
190.753	2133.79
190.828	2138.88
190.904	2154.68
190.98	2170.33
191.055	2179.28
191.131	2169.52
191.207	2192.4
191.282	2204.77
191.358	2195.45
191.433	2180.17
191.509	2195.29
191.585	2194.29
191.66	2196.48
191.736	2207.52
191.811	2199.9
191.887	2213.18
191.963	2235.5
192.038	2239.25
192.114	2238.4
192.189	2243.06
192.265	2238.16
192.34	2216.6
192.416	2216.07
192.491	2208.98
192.567	2208.75
192.642	2213.31
192.718	2212.84
192.793	2199.66
192.869	2196.14
192.944	2198.9
193.02	2209.89
193.095	2211.89
193.171	2215.88
193.246	2215.55
193.322	2211.7
193.397	2212.55
193.473	2198.04
193.548	2184
193.624	2189.99
193.699	2187.71
193.775	2205.23
193.85	2207.41
193.925	2219.03
194.001	2216.22
194.076	2208.99
194.152	2199
194.227	2191
194.302	2185.01
194.378	2188.67
194.453	2183.49
194.529	2198.38
194.604	2178.4
194.679	2173.21
194.755	2156.42
194.83	2170.61
194.905	2165
194.981	2174.42
195.056	2168.42
195.131	2172.56
195.207	2170.75
195.282	2162.43
195.357	2141.06
195.433	2156.43
195.508	2141.72
195.583	2151.28
195.659	2166.04
195.734	2177.31
195.809	2177.46
195.884	2181.88
195.96	2181.55
196.035	2198.72
196.11	2193.34
196.185	2210.71
196.261	2215.08
196.336	2246.49
196.411	2230.26
196.486	2239.06
196.561	2234.16
196.637	2239.77
196.712	2255.95
196.787	2257.24
196.862	2272.04
196.937	2283.17
197.013	2290.45
197.088	2299.4
197.163	2317.82
197.238	2334.11
197.313	2329.78
197.388	2343.82
197.464	2377.48
197.539	2389.57
197.614	2382.57
197.689	2393.71
197.764	2407.71
197.839	2429.13
197.914	2421.04
197.989	2444.75
198.065	2458.36
198.14	2505.57
198.215	2535.85
198.29	2546.38
198.365	2560
198.44	2573.48
198.515	2601.29
198.59	2613.49
198.665	2642.35
198.74	2652.16
198.815	2655.16
198.89	2681.17
198.965	2709.9
199.04	2705.9
199.115	2721.47
199.19	2763.78
199.265	2767.35
199.34	2779.21
199.415	2812.35
199.49	2835.55
199.565	2844.7
199.64	2867.19
199.715	2865.95
199.79	2871.38
199.865	2878.77
199.94	2880.29
200.015	2907.56
200.09	2915.04
200.165	2925.58
200.24	2930.44
200.315	2974.77
200.39	2989.93
200.464	2994.6
200.539	2997.03
200.614	3012.85
200.689	3036.93
200.764	3044.37
200.839	3064.01
200.914	3067.06
200.989	3054.42
201.063	3069.05
201.138	3051.52
201.213	3051.52
201.288	3036.69
201.363	3043.27
201.438	3044.18
201.512	3060.72
201.587	3046.98
201.662	3049.8
201.737	3061.24
201.812	3069.3
201.886	3032.03
201.961	3040.85
202.036	3030.08
202.111	3027.99
202.186	2997.83
202.26	2981.37
202.335	2959.44
202.41	2953
202.485	2939.09
202.559	2921.98
202.634	2899.29
202.709	2910.15
202.784	2897.61
202.858	2897.08
202.933	2880.31
203.008	2876.92
203.082	2859.67
203.157	2860.67
203.232	2823.65
203.306	2805.2
203.381	2779.94
203.456	2764.12
203.53	2746.04
203.605	2735.04
203.68	2715.64
203.754	2719.54
203.829	2709.49
203.904	2697.43
203.978	2694.76
204.053	2710.4
204.127	2707.25
204.202	2713.88
204.277	2710.68
204.351	2710.21
204.426	2715.64
204.5	2724.5
204.575	2702.54
204.65	2728
204.724	2741.73
204.799	2767.36
204.873	2785.05
204.948	2804.63
205.022	2815.74
205.097	2832.76
205.171	2871.85
205.246	2911.67
205.32	2943.36
205.395	2978.94
205.469	3002.81
205.544	3040.35
205.618	3057.72
205.693	3105.03
205.767	3131.02
205.842	3191.43
205.916	3229.87
205.991	3259.74
206.065	3309.28
206.14	3376.57
206.214	3425.29
206.289	3466.02
206.363	3531.15
206.438	3582.77
206.512	3645.72
206.586	3720.46
206.661	3786.93
206.735	3820.17
206.81	3875.05
206.884	3945.38
206.958	3993.36
207.033	4074.73
207.107	4147.57
207.181	4246.1
207.256	4311.43
207.33	4399.91
207.405	4486.18
207.479	4574.73
207.553	4651.55
207.628	4706.47
207.702	4788.61
207.776	4853.48
207.851	4929.95
207.925	5017.71
207.999	5098.13
208.073	5176.84
208.148	5259.12
208.222	5326.79
208.296	5445.51
208.371	5546.4
208.445	5642.96
208.519	5757.31
208.593	5848.13
208.668	5932.28
208.742	6015.8
208.816	6106.56
208.89	6211.58
208.965	6294.02
209.039	6390.18
209.113	6502.65
209.187	6612.49
209.261	6700.49
209.336	6809.55
209.41	6921.04
209.484	7010.74
209.558	7122.6
209.632	7222.58
209.707	7324.89
209.781	7438.41
209.855	7541.96
209.929	7656.1
210.003	7752.26
210.077	7841.27
210.151	7987.65
210.226	8109.5
210.3	8231.42
210.374	8343.21
210.448	8434.05
210.522	8535.88
210.596	8641.31
210.67	8739.73
210.744	8877.38
210.818	8995.28
210.892	9105.09
210.966	9188.99
211.041	9296.06
211.115	9378.62
211.189	9485.46
211.263	9591.64
211.337	9680.48
211.411	9781.04
211.485	9854.64
211.559	9947.93
211.633	10032.5
211.707	10079.57
211.781	10168.45
211.855	10213.59
211.929	10289.8
212.003	10352.71
212.077	10440.79
212.151	10526.93
212.225	10614.58
212.299	10685.32
212.373	10753.83
212.447	10829.92
212.52	10944.66
212.594	11032.37
212.668	11127.69
212.742	11199.3
212.816	11271.44
212.89	11345.95
212.964	11419.5
213.038	11502.68
213.112	11594.74
213.186	11699.04
213.26	11758.61
213.333	11795.14
213.407	11877.36
213.481	11952.07
213.555	12040.61
213.629	12102.02
213.703	12167.23
213.777	12243.49
213.85	12297.14
213.924	12405.74
213.998	12483.21
214.072	12537.58
214.146	12586.56
214.219	12652.07
214.293	12714.68
214.367	12774.84
214.441	12854.72
214.515	12909.1
214.588	12947.71
214.662	12979.28
214.736	13015.1
214.81	13084.9
214.883	13156.2
214.957	13212.69
215.031	13260.56
215.105	13294.07
215.178	13341.12
215.252	13395.25
215.326	13433.05
215.4	13470.26
215.473	13476.82
215.547	13509.65
215.621	13554.24
215.694	13620.57
215.768	13653.16
215.842	13695.05
215.915	13740.94
215.989	13764.27
216.063	13815.13
216.136	13869.31
216.21	13923.74
216.284	13982.12
216.357	14034.37
216.431	14079.93
216.504	14135.89
216.578	14217.46
216.652	14287.26
216.725	14341.68
216.799	14403.48
216.873	14459.4
216.946	14520.81
217.02	14570.32
217.093	14624.94
217.167	14656.46
217.24	14686.83
217.314	14722.6
217.387	14766.71
217.461	14804.93
217.535	14868.37
217.608	14906.74
217.682	14961.69
217.755	15021.32
217.829	15058.1
217.902	15107.26
217.976	15157.78
218.049	15189.64
218.123	15217.12
218.196	15264.89
218.27	15308.56
218.343	15330.73
218.417	15370.35
218.49	15411.08
218.563	15475.43
218.637	15515
218.71	15589.62
218.784	15644.8
218.857	15713.15
218.931	15762.42
219.004	15820.79
219.077	15872.79
219.151	15922.87
219.224	15965.29
219.298	16003.94
219.371	16066.84
219.444	16106.7
219.518	16155.53
219.591	16217.03
219.665	16292.12
219.738	16343.02
219.811	16379.65
219.885	16446.06
219.958	16502.07
220.031	16555.52
220.105	16600.29
220.178	16654.94
220.251	16686.9
220.325	16743.62
220.398	16800.35
220.471	16857.75
220.544	16911.39
220.618	16952.6
220.691	17002.09
220.764	17045.95
220.838	17100.84
220.911	17138.44
220.984	17203.55
221.057	17262.68
221.131	17305.72
221.204	17310.44
221.277	17373.67
221.35	17455.93
221.424	17490.82
221.497	17539.11
221.57	17580.13
221.643	17630.54
221.716	17680.32
221.79	17723.55
221.863	17766.63
221.936	17797.81
222.009	17838.68
222.082	17878.58
222.155	17910.87
222.229	17968.17
222.302	18019.06
222.375	18057.22
222.448	18113.27
222.521	18149.89
222.594	18173.51
222.667	18209.07
222.74	18271.19
222.814	18302.42
222.887	18316.34
222.96	18365.21
223.033	18409.69
223.106	18453.78
223.179	18496.77
223.252	18528.33
223.325	18560.96
223.398	18585.15
223.471	18624.66
223.544	18656.52
223.617	18698.83
223.69	18726.35
223.763	18742.15
223.837	18770.92
223.91	18807.74
223.983	18815.5
224.056	18829.71
224.129	18863.93
224.202	18891.49
224.275	18911.97
224.348	18921.66
224.42	18936.31
224.493	18941.42
224.566	18953.75
224.639	18984.35
224.712	18998.52
224.785	19019.92
224.858	19041.36
224.931	19063.48
225.004	19071.05
225.077	19096.59
225.15	19088.78
225.223	19126.08
225.296	19173.6
225.369	19187.52
225.442	19191.52
225.514	19215.62
225.587	19243.71
225.66	19272.1
225.733	19291.95
225.806	19306.98
225.879	19331.9
225.952	19348.19
226.025	19382.5
226.097	19419.32
226.17	19438.5
226.243	19435.75
226.316	19449.72
226.389	19468.61
226.461	19494.11
226.534	19511.02
226.607	19520.42
226.68	19547.5
226.753	19558.3
226.825	19541.04
226.898	19567.11
226.971	19585.19
227.044	19603.74
227.117	19622.58
227.189	19632.46
227.262	19663.06
227.335	19687.16
227.407	19691.73
227.48	19722.86
227.553	19732.55
227.626	19730.19
227.698	19735.92
227.771	19760.36
227.844	19759.73
227.916	19768.07
227.989	19764.98
228.062	19773.03
228.134	19801.95
228.207	19814.57
228.28	19821.8
228.352	19844.21
228.425	19850.04
228.498	19874.81
228.57	19869.41
228.643	19882.23
228.716	19890.62
228.788	19888.88
228.861	19893.07
228.934	19911.19
229.006	19906.52
229.079	19909.36
229.151	19908.21
229.224	19897.56
229.296	19906.42
229.369	19945.51
229.442	19964.69
229.514	19965.36
229.587	19989.07
229.659	19980.16
229.732	19993.36
229.804	20004.35
229.877	20023.72
229.949	20037.65
230.022	20058.52
230.094	20072.15
230.167	20078.18
230.239	20069.94
230.312	20067.43
230.384	20090.9
230.457	20100.88
230.529	20108.39
230.602	20115
230.674	20128.1
230.747	20137.31
230.819	20147.72
230.892	20117.98
230.964	20128.3
231.037	20130.75
231.109	20114.13
231.181	20124.3
231.254	20117.5
231.326	20124.34
231.399	20108.54
231.471	20090.08
231.544	20053.12
231.616	20054.47
231.688	20045.26
231.761	20031.09
231.833	20023.14
231.905	19993.46
231.978	19983.1
232.05	19979.67
232.122	19977.84
232.195	19957.99
232.267	19963.77
232.339	19948.06
232.412	19958.37
232.484	19941.12
232.556	19925.7
232.629	19954.08
232.701	19955.29
232.773	19953.26
232.846	19932.98
232.918	19932.16
232.99	19937.31
233.062	19947.63
233.135	19947.05
233.207	19928.06
233.279	19935.96
233.351	19938.37
233.424	19922.9
233.496	19906.62
233.568	19913.99
233.64	19885.75
233.713	19875.82
233.785	19867.58
233.857	19866.04
233.929	19837.27
234.001	19839.97
234.074	19846.23
234.146	19814.38
234.218	19785.13
234.29	19759.63
234.362	19739.97
234.434	19704.6
234.507	19671.98
234.579	19641.62
234.651	19618.53
234.723	19617.52
234.795	19602.73
234.867	19577.09
234.939	19580.51
235.012	19568.95
235.084	19549.28
235.156	19542.3
235.228	19525
235.3	19498.4
235.372	19469.48
235.444	19465.87
235.516	19423.65
235.588	19399.89
235.66	19379.12
235.732	19357.87
235.804	19391.9
235.876	19378.26
235.948	19377.34
236.02	19360.72
236.092	19333.25
236.164	19308.43
236.236	19280.77
236.308	19250.6
236.38	19235.91
236.452	19205.5
236.524	19187.04
236.596	19175.96
236.668	19166.08
236.74	19148.3
236.812	19129.55
236.884	19119.91
236.956	19096.4
237.028	19064.45
237.1	19033.94
237.172	19027.68
237.244	19025.65
237.316	18966.48
237.388	18942.48
237.46	18911.2
237.532	18903.06
237.604	18874.77
237.675	18863.93
237.747	18850.15
237.819	18820.12
237.891	18790.73
237.963	18753.28
238.035	18716.47
238.107	18659.55
238.178	18643.12
238.25	18617.05
238.322	18617.1
238.394	18559.95
238.466	18526.26
238.538	18509.49
238.609	18486.12
238.681	18444.77
238.753	18406.85
238.825	18387.76
238.897	18362.41
238.968	18348.34
239.04	18316.83
239.112	18320.49
239.184	18285.26
239.255	18241.02
239.327	18218.42
239.399	18189.7
239.471	18171.68
239.542	18155.68
239.614	18150.67
239.686	18089.9
239.758	18065.85
239.829	18022.09
239.901	18013.8
239.973	17989.08
240.044	17967.64
240.116	17942.48
240.188	17900.99
240.259	17864.55
240.331	17823.3
240.403	17794.48
240.474	17749.04
240.546	17704.22
240.618	17649.81
240.689	17611.36
240.761	17587.21
240.833	17574.63
240.904	17554.15
240.976	17523.07
241.048	17490.49
241.119	17461.33
241.191	17437.09
241.262	17422.44
241.334	17385.24
241.405	17357.86
241.477	17315.12
241.549	17270.92
241.62	17234.39
241.692	17210.29
241.763	17195.4
241.835	17166.29
241.906	17139.98
241.978	17097.33
242.049	17078.48
242.121	17063.11
242.192	17050.63
242.264	17007.78
242.335	16957.56
242.407	16933.56
242.478	16900.84
242.55	16871.39
242.621	16829.9
242.693	16795.63
242.764	16755.1
242.836	16720.16
242.907	16694.08
242.979	16675.14
243.05	16655.19
243.122	16641.07
243.193	16615.38
243.264	16562.99
243.336	16526.22
243.407	16502.79
243.479	16487.27
243.55	16461.78
243.622	16427.99
243.693	16389.24
243.764	16375.12
243.836	16331.6
243.907	16285.86
243.978	16249.61
244.05	16224.6
244.121	16177.8
244.192	16162.32
244.264	16116.01
244.335	16087.81
244.407	16035.85
244.478	16003.8
244.549	15967.36
244.62	15919.84
244.692	15874.96
244.763	15850.19
244.834	15808.45
244.906	15773.45
244.977	15746.22
245.048	15722.03
245.119	15685.49
245.191	15644.28
245.262	15588.8
245.333	15582.29
245.405	15555.64
245.476	15533.51
245.547	15497.56
245.618	15478.42
245.689	15442.17
245.761	15419.52
245.832	15386.12
245.903	15363.94
245.974	15341.14
246.045	15309.09
246.117	15293.52
246.188	15257.27
246.259	15213.16
246.33	15183.47
246.401	15147.32
246.473	15102.06
246.544	15065.81
246.615	15044.5
246.686	15009.22
246.757	14995.29
246.828	14947.52
246.899	14926.74
246.97	14867.74
247.042	14830.82
247.113	14805.61
247.184	14797.75
247.255	14760.34
247.326	14736.05
247.397	14702.74
247.468	14670.01
247.539	14643.35
247.61	14603.82
247.681	14591.29
247.752	14581.89
247.823	14545.45
247.894	14513.87
247.965	14475.69
248.037	14440.36
248.108	14390.52
248.179	14363.86
248.25	14336.04
248.321	14317.92
248.392	14284.32
248.463	14287.5
248.534	14259.4
248.605	14240.31
248.675	14205.55
248.746	14181.93
248.817	14160.91
248.888	14149.68
248.959	14102.25
249.03	14083.78
249.101	14053.99
249.172	14008.68
249.243	13961.49
249.314	13956.09
249.385	13940.76
249.456	13928.13
249.527	13909.52
249.598	13891.78
249.669	13860.2
249.739	13834.9
249.81	13807.9
249.881	13765.43
249.952	13731.64
250.023	13704.88
250.094	13652.58
250.165	13612.95
250.235	13584.12
250.306	13553.9
250.377	13513.55
250.448	13500.63
250.519	13446.83
250.59	13435.26
250.66	13418.78
250.731	13412.51
250.802	13388.41
250.873	13350.37
250.944	13327.57
251.014	13289.82
251.085	13294.02
251.156	13282.35
251.227	13268.13
251.297	13266.83
251.368	13245.67
251.439	13243.93
251.51	13224.36
251.58	13198.95
251.651	13172.54
251.722	13163.67
251.792	13121.29
251.863	13095.12
251.934	13082.54
252.005	13086.92
252.075	13060.02
252.146	13047.01
252.217	13034.67
252.287	13019.92
252.358	13002.85
252.429	12994.66
252.499	12962.55
252.57	12931.41
252.641	12916.08
252.711	12890.15
252.782	12839.14
252.852	12846.95
252.923	12812
252.994	12797.74
253.064	12788.43
253.135	12759.32
253.205	12723.16
253.276	12717.76
253.347	12712.65
253.417	12677.22
253.488	12647.53
253.558	12623.23
253.629	12595.32
253.699	12573.15
253.77	12551.84
253.841	12520.08
253.911	12497.8
253.982	12476.02
254.052	12466.91
254.123	12443.29
254.193	12423.47
254.264	12455.14
254.334	12418.41
254.405	12384.33
254.475	12354.45
254.546	12335.21
254.616	12330.01
254.687	12314.15
254.757	12304.7
254.827	12278.33
254.898	12265.22
254.968	12247.1
255.039	12215.24
255.109	12206.13
255.18	12179.04
255.25	12136.91
255.321	12131.65
255.391	12098.78
255.461	12105.87
255.532	12054.38
255.602	12035.35
255.673	11994.09
255.743	11958.9
255.813	11919.52
255.884	11912.24
255.954	11900.53
256.024	11892.28
256.095	11869.68
256.165	11843.65
256.235	11825.19
256.306	11799.79
256.376	11796.37
256.446	11792.32
256.517	11781.71
256.587	11765.95
256.657	11744.17
256.728	11730.04
256.798	11708.16
256.868	11683.68
256.938	11651.34
257.009	11650.47
257.079	11633.12
257.149	11639.14
257.219	11596.77
257.29	11585.45
257.36	11554.22
257.43	11546.7
257.5	11508.43
257.571	11488.81
257.641	11477.44
257.711	11441.44
257.781	11429.58
257.852	11408.37
257.922	11356.85
257.992	11336.27
258.062	11318.92
258.132	11304.32
258.202	11281.09
258.273	11263.98
258.343	11265.67
258.413	11241.57
258.483	11216.27
258.553	11186.49
258.623	11165.52
258.693	11150.01
258.764	11146.73
258.834	11138.39
258.904	11119.07
258.974	11098.39
259.044	11075.69
259.114	11061.86
259.184	11047.6
259.254	11031.31
259.324	10991.07
259.394	10993.63
259.464	10997.14
259.535	10981.91
259.605	10958.83
259.675	10932.38
259.745	10922.26
259.815	10895.99
259.885	10872.24
259.955	10892.87
260.025	10873.54
260.095	10858.89
260.165	10851.14
260.235	10847.76
260.305	10827.48
260.375	10795.34
260.445	10798.13
260.515	10798.76
260.585	10794.52
260.655	10784.16
260.725	10772.06
260.795	10771.15
260.865	10772.59
260.934	10752.35
261.004	10735.29
261.074	10720.84
261.144	10727.82
261.214	10723.34
261.284	10704.89
261.354	10704.89
261.424	10671.44
261.494	10676.21
261.564	10653.9
261.634	10643.83
261.703	10606.2
261.773	10596.86
261.843	10589.48
261.913	10574.07
261.983	10534.89
262.053	10525.55
262.123	10503.19
262.192	10478.57
262.262	10472.98
262.332	10442.39
262.402	10429.86
262.472	10413.57
262.541	10378.99
262.611	10369.83
262.681	10343.81
262.751	10341.36
262.821	10319.44
262.89	10287.25
262.96	10273.47
263.03	10287.01
263.1	10278.19
263.169	10265.57
263.239	10255.6
263.309	10261.91
263.379	10250.11
263.448	10246.64
263.518	10230.5
263.588	10220.77
263.657	10223.27
263.727	10219.18
263.797	10205.4
263.867	10187.72
263.936	10160.17
264.006	10162.91
264.076	10149.18
264.145	10127.5
264.215	10107.13
264.285	10099.47
264.354	10075.24
264.424	10055.87
264.494	10016.56
264.563	9992.09
264.633	10000.42
264.702	9994.69
264.772	9956.92
264.842	9934.24
264.911	9921.76
264.981	9893.34
265.05	9879.47
265.12	9858.23
265.19	9842.86
265.259	9837.99
265.329	9830.33
265.398	9824.36
265.468	9839.05
265.537	9821.14
265.607	9817.14
265.676	9807.55
265.746	9803.94
265.815	9799.99
265.885	9783.33
265.955	9761.42
266.024	9744.75
266.094	9707.38
266.163	9705.35
266.232	9709.78
266.302	9697.79
266.371	9690.18
266.441	9679.2
266.51	9680.26
266.58	9663.79
266.649	9639.32
266.719	9632.24
266.788	9625.26
266.858	9622.23
266.927	9582.68
266.996	9573.73
267.066	9562.89
267.135	9537.13
267.205	9530.24
267.274	9518.2
267.343	9526.44
267.413	9518.35
267.482	9521.81
267.552	9527.16
267.621	9491.96
267.69	9460.7
267.76	9455.5
267.829	9448.76
267.898	9443.32
267.968	9418.57
268.037	9421.65
268.106	9424.68
268.176	9407.25
268.245	9392.9
268.314	9380.91
268.384	9377.49
268.453	9363.72
268.522	9356.54
268.592	9357.02
268.661	9337.33
268.73	9333.14
268.799	9307.14
268.869	9311.57
268.938	9279.35
269.007	9259.76
269.076	9262.26
269.146	9259.42
269.215	9246.8
269.284	9250.9
269.353	9235.54
269.422	9224.99
269.492	9201.64
269.561	9154.51
269.63	9148.59
269.699	9128.7
269.768	9118.25
269.838	9113.39
269.907	9111.42
269.976	9085.76
270.045	9063.9
270.114	9064.43
270.183	9049.36
270.253	9043.78
270.322	9020.24
270.391	9014.6
270.46	9019.95
270.529	9014.99
270.598	9016.53
270.667	9012.2
270.736	8989.57
270.806	8982.83
270.875	8985.47
270.944	8974.74
271.013	8996.02
271.082	8982.44
271.151	8983.16
271.22	8954.04
271.289	8947.11
271.358	8931.46
271.427	8931.32
271.496	8914.96
271.565	8899.31
271.634	8891.75
271.703	8914.48
271.772	8913.61
271.841	8895.57
271.91	8870.25
271.979	8861.19
272.048	8840.93
272.117	8840.93
272.186	8823.84
272.255	8819.75
272.324	8808.53
272.393	8806.17
272.462	8795.97
272.531	8790.77
272.6	8776.04
272.669	8787.83
272.738	8772.38
272.807	8768.43
272.876	8745.86
272.945	8783.5
273.013	8778.55
273.082	8783.12
273.151	8738.68
273.22	8735.94
273.289	8740.37
273.358	8753.22
273.427	8740.22
273.496	8740.56
273.564	8731.61
273.633	8736.71
273.702	8719
273.771	8708.17
273.84	8703.6
273.909	8695.85
273.977	8693.3
274.046	8682.08
274.115	8688
274.184	8677.08
274.253	8672.7
274.322	8686.56
274.39	8648.63
274.459	8635.54
274.528	8614.7
274.597	8610.18
274.665	8608.88
274.734	8611.28
274.803	8596.17
274.872	8584.72
274.94	8568.11
275.009	8598.2
275.078	8581.5
275.147	8580.11
275.215	8577.75
275.284	8582.47
275.353	8576.6
275.421	8556.05
275.49	8573.42
275.559	8556.62
275.627	8547.72
275.696	8538
275.765	8537.18
275.833	8525.78
275.902	8524
275.971	8530.16
276.039	8546.86
276.108	8550.33
276.177	8547.87
276.245	8538.78
276.314	8540.7
276.383	8547.44
276.451	8510.27
276.52	8515.13
276.588	8528.27
276.657	8535.11
276.725	8526.06
276.794	8520.43
276.863	8534.48
276.931	8507.43
277	8512.49
277.068	8523.79
277.137	8542.8
277.205	8534.43
277.274	8560.22
277.342	8567.78
277.411	8549.3
277.48	8532.5
277.548	8519.32
277.617	8521
277.685	8515.85
277.754	8517.63
277.822	8510.46
277.89	8523.32
277.959	8512.78
278.027	8489.44
278.096	8477.26
278.164	8500.51
278.233	8496.18
278.301	8477.37
278.37	8484.73
278.438	8471.25
278.507	8473.18
278.575	8446.28
278.643	8443.15
278.712	8422.65
278.78	8412.02
278.849	8424.09
278.917	8432.61
278.985	8431.07
279.054	8430.49
279.122	8444.06
279.191	8441.13
279.259	8434.39
279.327	8414.18
279.396	8434.77
279.464	8434.1
279.532	8440.74
279.601	8439.54
279.669	8434.58
279.737	8449.11
279.806	8449.45
279.874	8462.1
279.942	8458.25
280.011	8453.06
280.079	8466.44
280.147	8482.89
280.215	8488.81
280.284	8482.65
280.352	8469.42
280.42	8471.54
280.488	8464.37
280.557	8452.96
280.625	8452.82
280.693	8458.69
280.761	8455.22
280.83	8434.15
280.898	8445.36
280.966	8429.96
281.034	8400.46
281.102	8393.15
281.171	8389.63
281.239	8399.88
281.307	8390.93
281.375	8381.65
281.443	8408.31
281.512	8398.58
281.58	8402.48
281.648	8386.99
281.716	8386.17
281.784	8390.21
281.852	8390.98
281.92	8387.04
281.989	8399.4
282.057	8385.79
282.125	8423.91
282.193	8427.85
282.261	8428.14
282.329	8426.07
282.397	8428.19
282.465	8430.36
282.533	8441.18
282.601	8426.55
282.67	8404.71
282.738	8398.36
282.806	8404.8
282.874	8388.87
282.942	8390.65
283.01	8384.49
283.078	8396.43
283.146	8397.63
283.214	8400.18
283.282	8398.06
283.35	8414.09
283.418	8405.14
283.486	8406.77
283.554	8365.09
283.622	8362.25
283.69	8361
283.758	8354.89
283.826	8360.18
283.894	8373.8
283.962	8393.29
284.03	8412.49
284.098	8410.76
284.165	8405.13
284.233	8406.72
284.301	8403.97
284.369	8392.91
284.437	8382.13
284.505	8369.04
284.573	8381.94
284.641	8371.83
284.709	8380.93
284.777	8362.74
284.845	8368.22
284.912	8373.52
284.98	8378.91
285.048	8373.52
285.116	8382.47
285.184	8396.13
285.252	8395.7
285.319	8370.44
285.387	8367.45
285.455	8347.68
285.523	8358.31
285.591	8355.18
285.659	8357.73
285.726	8366.68
285.794	8360.77
285.862	8358.36
285.93	8363.61
285.997	8359.37
286.065	8359.27
286.133	8348.11
286.201	8345.18
286.269	8330.5
286.336	8321.17
286.404	8315.2
286.472	8323.86
286.539	8303.08
286.607	8287.01
286.675	8286.57
286.743	8301.49
286.81	8290.23
286.878	8304.61
286.946	8292.63
287.013	8292.83
287.081	8289.46
287.149	8283.11
287.216	8299.85
287.284	8295.86
287.352	8293.55
287.419	8288.21
287.487	8298.31
287.555	8300.19
287.622	8296
287.69	8304.95
287.758	8320.11
287.825	8317.99
287.893	8307.36
287.96	8318.42
288.028	8333.67
288.096	8341.23
288.163	8340.55
288.231	8326.46
288.298	8326.84
288.366	8348.45
288.433	8350.13
288.501	8348.4
288.569	8341.18
288.636	8333.82
288.704	8350.95
288.771	8357.97
288.839	8351
288.906	8352.49
288.974	8362.02
289.041	8366.25
289.109	8351.62
289.176	8360.24
289.244	8363.75
289.311	8372.6
289.379	8377.22
289.446	8371.83
289.514	8363.89
289.581	8367.84
289.649	8375.06
289.716	8374.38
289.783	8365.72
289.851	8385.98
289.918	8383.09
289.986	8400.51
290.053	8402.1
290.121	8394.44
290.188	8398.01
290.255	8423.7
290.323	8413.65
290.39	8407.49
290.458	8410.56
290.525	8426.68
290.592	8423.02
290.66	8426.58
290.727	8420.86
290.794	8436.79
290.862	8439.05
290.929	8444.25
290.996	8439.72
291.064	8448.82
291.131	8462.15
291.198	8474.95
291.266	8471.48
291.333	8471.96
291.4	8465.47
291.468	8490.64
291.535	8486.07
291.602	8492.8
291.669	8485.73
291.737	8486.6
291.804	8488.76
291.871	8501.71
291.938	8509.5
292.006	8536.17
292.073	8548.15
292.14	8565.71
292.207	8554.93
292.275	8554.84
292.342	8569.32
292.409	8594.74
292.476	8620.49
292.543	8611.05
292.611	8603.16
292.678	8623.71
292.745	8652.35
292.812	8673.14
292.879	8665.1
292.946	8674.39
293.014	8686.32
293.081	8697.54
293.148	8717.07
293.215	8730.6
293.282	8732.48
293.349	8742.44
293.416	8724.68
293.484	8737.57
293.551	8745.81
293.618	8764.53
293.685	8790.76
293.752	8783.92
293.819	8779.59
293.886	8763.71
293.953	8766.98
294.02	8781.08
294.087	8781.52
294.154	8773.57
294.221	8787.39
294.288	8790.47
294.356	8810.49
294.423	8818.19
294.49	8810.78
294.557	8818.58
294.624	8811.36
294.691	8827.63
294.758	8830.57
294.825	8835.72
294.892	8830.81
294.959	8834.03
295.026	8846.98
295.093	8840.92
295.16	8843.42
295.226	8848.38
295.293	8874.08
295.36	8887.85
295.427	8901.04
295.494	8918.03
295.561	8925.54
295.628	8946.49
295.695	8961.99
295.762	8961.36
295.829	8971.57
295.896	8984.37
295.963	8999.78
296.03	9005.56
296.096	9010.95
296.163	9019.85
296.23	9034.05
296.297	9045.03
296.364	9043.1
296.431	9040.12
296.498	9032.13
296.564	9050.66
296.631	9056.63
296.698	9041.37
296.765	9059.47
296.832	9053.6
296.899	9033.23
296.965	9054.8
297.032	9036.89
297.099	9053.5
297.166	9064.77
297.233	9057.74
297.299	9055.19
297.366	9050.66
297.433	9057.45
297.5	9070.93
297.566	9071.22
297.633	9070.93
297.7	9072.76
297.767	9072.85
297.833	9080.75
297.9	9093.17
297.967	9083.44
298.033	9095.87
298.1	9130.97
298.167	9122.98
298.234	9124.61
298.3	9137.61
298.367	9133.9
298.434	9141.66
298.5	9127.35
298.567	9123.84
298.634	9123.45
298.7	9138.67
298.767	9146.9
298.834	9165.1
298.9	9158.17
298.967	9151.67
299.033	9165.92
299.1	9184.12
299.167	9195.72
299.233	9190.43
299.3	9201.84
299.366	9219.94
299.433	9234.96
299.5	9207.71
299.566	9212.38
299.633	9228.85
299.699	9240.69
299.766	9235.25
299.832	9234.77
299.899	9244.3
299.965	9253.88
300.032	9247.72
300.099	9253.69
300.165	9257.88
300.232	9247.24
300.298	9244.64
300.365	9264.33
300.431	9261.54
300.498	9253.74
300.564	9262.4
300.631	9279.21
300.697	9296.5
300.763	9298.76
300.83	9290.62
300.896	9305.21
300.963	9322.35
301.029	9327.7
301.096	9332.18
301.162	9345.42
301.229	9340.7
301.295	9337.04
301.361	9339.73
301.428	9354.52
301.494	9342.77
301.561	9343.15
301.627	9350.76
301.693	9355.53
301.76	9359.57
301.826	9359.33
301.892	9370.79
301.959	9382.64
302.025	9374.45
302.092	9364.29
302.158	9364.58
302.224	9367.28
302.291	9353.22
302.357	9342.43
302.423	9335.25
302.49	9324.08
302.556	9336.51
302.622	9340.55
302.688	9347.63
302.755	9361.89
302.821	9365.06
302.887	9373.78
302.954	9373.83
303.02	9384.52
303.086	9391.31
303.152	9392.8
303.219	9384.56
303.285	9382.59
303.351	9387.6
303.417	9392.37
303.483	9384.37
303.55	9376.33
303.616	9378.21
303.682	9383.99
303.748	9377.68
303.815	9392.27
303.881	9404.7
303.947	9383.6
304.013	9385.48
304.079	9379.7
304.145	9360.87
304.212	9355.24
304.278	9345.85
304.344	9343.35
304.41	9331.07
304.476	9320.19
304.542	9311.23
304.608	9320.33
304.674	9308
304.741	9301.36
304.807	9310.41
304.873	9310.51
304.939	9326.78
305.005	9305.64
305.071	9302.71
305.137	9302.56
305.203	9279.35
305.269	9277.96
305.335	9291.73
305.401	9286.91
305.467	9285.66
305.533	9293.75
305.599	9302.18
305.666	9312.05
305.732	9307.95
305.798	9317.25
305.864	9348.84
305.93	9354.66
305.996	9354.52
306.062	9354.28
306.128	9346.24
306.194	9326.3
306.259	9326.69
306.325	9317.35
306.391	9332.22
306.457	9339.25
306.523	9341.18
306.589	9364.24
306.655	9354.08
306.721	9338.87
306.787	9326.69
306.853	9343.93
306.919	9327.56
306.985	9322.74
307.051	9316.92
307.117	9315.04
307.183	9313.98
307.248	9281.42
307.314	9280.32
307.38	9280.41
307.446	9290.77
307.512	9280.03
307.578	9290.04
307.644	9290.52
307.709	9292.21
307.775	9284.46
307.841	9285.76
307.907	9290.81
307.973	9267.6
308.039	9267.03
308.104	9275.36
308.17	9277.91
308.236	9261.39
308.302	9268.76
308.368	9260.04
308.433	9259.99
308.499	9254.75
308.565	9242.03
308.631	9241.74
308.696	9220.08
308.762	9200.48
308.828	9198.22
308.894	9184.11
308.959	9157.11
309.025	9143
309.091	9143.77
309.156	9132.7
309.222	9132.94
309.288	9118.3
309.354	9099.53
309.419	9098.95
309.485	9080.94
309.551	9087.06
309.616	9071.7
309.682	9066.79
309.748	9062.98
309.813	9059.85
309.879	9051.72
309.945	9042.48
310.01	9038.72
310.076	9044.93
310.141	9050.61
310.207	9028.17
310.273	9033.61
310.338	9042.57
310.404	9033.57
310.469	9014.98
310.535	9011.32
310.601	8987.97
310.666	8989.85
310.732	9003.76
310.797	8988.89
310.863	8983.4
310.928	8975.17
310.994	8978.73
311.059	8976.75
311.125	8975.55
311.191	8981.43
311.256	8971.75
311.322	8973.1
311.387	8958.56
311.453	9175.98
311.518	9150.95
311.584	9155.19
311.649	9155.09
311.715	9141.09
311.78	9138.39
311.846	9131.75
311.911	9130.64
311.976	9131.89
312.042	9123.28
312.107	9101.76
312.173	9098.39
312.238	9087.99
312.304	9080.63
312.369	9067.78
312.434	9057.28
312.5	9046.45
312.565	9019.11
312.631	9020.65
312.696	9012.18
312.761	9015.35
312.827	8789.17
312.892	8822.24
312.958	8817.28
313.023	8815.5
313.088	8816.41
313.154	8808.04
313.219	8801.93
313.284	8800.48
313.35	8794.27
313.415	8776.32
313.48	8778.39
313.546	8782
313.611	8790.57
313.676	8785.61
313.741	8779.88
313.807	8780.8
313.872	8782.24
313.937	8784.02
314.003	8793.31
314.068	8793.65
314.133	8792.59
314.198	8779.84
314.264	8759.13
314.329	8749.46
314.394	8743.63
314.459	8740.7
314.525	8758.03
314.59	8748.88
314.655	8735.79
314.72	8739.74
314.785	8750.08
314.851	8742.05
314.916	8726.6
314.981	8712.83
315.046	8696.28
315.111	8684.39
315.176	8680.88
315.242	8678.57
315.307	8680.11
315.372	8666.48
315.437	8660.08
315.502	8653.3
315.567	8660.52
315.632	8642.52
315.698	8644.15
315.763	8644.15
315.828	8640.59
315.893	8633.18
315.958	8634.81
316.023	8627.79
316.088	8612.63
316.153	8588.47
316.218	8582.79
316.283	8560.76
316.348	8543.34
316.413	8548.25
316.479	8535.4
316.544	8499.46
316.609	8474.63
316.674	8438.97
316.739	8401.4
316.804	8370.94
316.869	8337.89
316.934	8306.47
316.999	8284.24
317.064	8233.87
317.129	8190.09
317.194	8156.22
317.259	8115.8
317.324	8061.89
317.389	8019.17
317.454	7976.32
317.518	7942.6
317.583	7922.83
317.648	7902.49
317.713	7871.37
317.778	7813.41
317.843	7783.12
317.908	7743.6
317.973	7707.82
318.038	7680.12
318.103	7642.24
318.168	7610.17
318.233	7582.47
318.297	7535.31
318.362	7499.92
318.427	7465.46
318.492	7440.84
318.557	7393.45
318.622	7363.11
318.687	7345.91
318.751	7306.84
318.816	7278.1
318.881	7254.07
318.946	7196.1
319.011	7147.47
319.075	7107.54
319.14	7073.72
319.205	7031.82
319.27	6997.38
319.335	6954.71
319.399	6915.85
319.464	6887.99
319.529	6837.27
319.594	6795.8
319.658	6766.22
319.723	6720.01
319.788	6696.82
319.853	6640.34
319.917	6606.87
319.982	6554.04
320.047	6517.31
320.112	6489.65
320.176	6440.4
320.241	6400.49
320.306	6375.19
320.37	6339.58
320.435	6311.4
320.5	6285.09
320.564	6246.36
320.629	6210.18
320.694	6178.46
320.758	6135.8
320.823	6101.06
320.888	6071.89
320.952	6025.07
321.017	5984.09
321.082	5954.69
321.146	5916.69
321.211	5885.75
321.275	5847.91
321.34	5808.3
321.405	5765.33
321.469	5721.64
321.534	5683.24
321.598	5632.95
321.663	5600.67
321.727	5571.28
321.792	5525.63
321.857	5477.5
321.921	5444.62
321.986	5404.46
322.05	5346.63
322.115	5313.42
322.179	5265.69
322.244	5212.19
322.308	5179.32
322.373	5133.91
322.437	5087.82
322.502	5058.88
322.566	5013.57
322.631	4974.35
322.695	4935.66
322.76	4892.47
322.824	4859.29
322.889	4817.45
322.953	4772.23
323.018	4707.31
323.082	4644.86
323.146	4588.87
323.211	4540.5
323.275	4493.69
323.34	4446.77
323.404	4412.86
323.468	4367.46
323.533	4323.99
323.597	4282.83
323.662	4230.12
323.726	4198.75
323.79	4155.1
323.855	4092.01
323.919	4046.64
323.983	4005.05
324.048	3939.89
324.112	4087.54
324.177	3960.32
324.241	3756.28
324.305	3558.16
324.37	3360.87
324.434	3170.22
324.498	3130.95
324.562	3082.58
324.627	3023.87
324.691	2972.31
324.755	2910.04
324.82	2836.19
324.884	2763.75
324.948	2692.68
325.012	2605.66
325.077	2480.29
