Data from 20250703_urea_0.1M_MAYP1162681_15-21-05-518.txt Node
Date: Thu Jul 03 15:21:05 BST 2025
User: adleo
Spectrometer: MAYP116268
Trigger mode: 0
Integration Time (sec): 1.000000E0
Scans to average: 1
Electric dark correction enabled: true
Nonlinearity correction enabled: true
Boxcar width: 10
XAxis mode: Wavelengths
Number of Pixels in Spectrum: 2068
>>>>>Begin Spectral Data<<<<<
179.565	1273.19
179.642	1331.58
179.718	1380.07
179.795	1422.77
179.871	1458.71
179.948	1477.49
180.024	1502.29
180.101	1524.83
180.177	1539.32
180.254	1563.04
180.33	1590.83
180.407	1647.19
180.483	1748.34
180.56	1843.94
180.636	1933.06
180.712	1918.88
180.789	1930.34
180.865	1944.41
180.942	1951.16
181.018	1964.04
181.095	1983.93
181.171	1989.68
181.248	1992.58
181.324	2007.9
181.4	2013.99
181.477	2024.55
181.553	2038.67
181.63	2060.69
181.706	2080.05
181.782	2090.89
181.859	2089.89
181.935	2092.84
182.011	2091.79
182.088	2110.21
182.164	2131.62
182.24	2148.03
182.317	2157.63
182.393	2156.02
182.469	2170.14
182.546	2186.51
182.622	2191.31
182.698	2181.32
182.775	2195.97
182.851	2210.58
182.927	2203.49
183.003	2200.26
183.08	2194.55
183.156	2203.3
183.232	2197.83
183.308	2183.6
183.385	2191.45
183.461	2212.96
183.537	2212.44
183.613	2227.04
183.69	2215.96
183.766	2204.2
183.842	2211.15
183.918	2215.81
183.995	2228.7
184.071	2234.13
184.147	2227.56
184.223	2211.15
184.299	2224.43
184.375	2210.97
184.452	2213.82
184.528	2264.36
184.604	2274.16
184.68	2285.96
184.756	2293.39
184.832	2292.82
184.908	2297.95
184.985	2297.57
185.061	2278.49
185.137	2288.63
185.213	2277.49
185.289	2279.87
185.365	2272.21
185.441	2268.12
185.517	2281.93
185.593	2277.12
185.669	2271.74
185.745	2285.11
185.822	2304.38
185.898	2294.19
185.974	2304.04
186.05	2296.33
186.126	2259.97
186.202	2251.6
186.278	2251.12
186.354	2244.12
186.43	2256.45
186.506	2253.84
186.582	2251.12
186.658	2257.02
186.734	2235.52
186.81	2234.14
186.886	2236.56
186.962	2246.65
187.038	2245.94
187.114	2237.61
187.19	2255.6
187.266	2245.37
187.341	2243.89
187.417	2237.23
187.493	2238.85
187.569	2241.28
187.645	2238.95
187.721	2228.19
187.797	2237.37
187.873	2236.42
187.949	2229.66
188.025	2222.9
188.101	2228.23
188.176	2235.18
188.252	2232.61
188.328	2241.22
188.404	2245.21
188.48	2238.84
188.556	2234.08
188.632	2230.65
188.707	2235.18
188.783	2219.75
188.859	2216.71
188.935	2207.33
189.011	2214.9
189.086	2208.43
189.162	2199.72
189.238	2194.39
189.314	2191.87
189.39	2183.69
189.465	2180.07
189.541	2195.63
189.617	2181.36
189.693	2175.51
189.768	2178.79
189.844	2205.12
189.92	2196.89
189.996	2204.5
190.071	2219.06
190.147	2217.78
190.223	2229.06
190.298	2216.49
190.374	2208.45
190.45	2218.78
190.526	2226.1
190.601	2219.73
190.677	2222.06
190.753	2251.91
190.828	2257.43
190.904	2271.75
190.98	2290.93
191.055	2302.17
191.131	2295.26
191.207	2314.87
191.282	2325.81
191.358	2319.39
191.433	2303.44
191.509	2318.85
191.585	2316.94
191.66	2316.61
191.736	2323.99
191.811	2317.99
191.887	2337.84
191.963	2358.68
192.038	2366.16
192.114	2365.01
192.189	2368.49
192.265	2366.25
192.34	2343.63
192.416	2341.21
192.491	2337.49
192.567	2340.68
192.642	2339.35
192.718	2338.68
192.793	2324.6
192.869	2319.12
192.944	2319.88
193.02	2325.79
193.095	2329.79
193.171	2332.4
193.246	2333.45
193.322	2332.78
193.397	2331.07
193.473	2316.88
193.548	2301.75
193.624	2306.41
193.699	2305.51
193.775	2323.93
193.85	2323.31
193.925	2329.98
194.001	2328.88
194.076	2322.03
194.152	2308.56
194.227	2302.7
194.302	2292.48
194.378	2297.52
194.453	2295
194.529	2305.71
194.604	2291.19
194.679	2282.63
194.755	2266.97
194.83	2277.35
194.905	2276.45
194.981	2286.21
195.056	2280.02
195.131	2287.54
195.207	2286.4
195.282	2277.17
195.357	2256.03
195.433	2273.07
195.508	2262.64
195.583	2273.06
195.659	2289.68
195.734	2298.15
195.809	2296.82
195.884	2306.43
195.96	2308.85
196.035	2326.18
196.11	2323.37
196.185	2335.08
196.261	2340.93
196.336	2370.87
196.411	2357.44
196.486	2361.77
196.561	2354.77
196.637	2362.2
196.712	2378.67
196.787	2381.48
196.862	2396.43
196.937	2409.56
197.013	2414.61
197.088	2428.03
197.163	2449.61
197.238	2466.05
197.313	2467.9
197.388	2483.28
197.464	2519.1
197.539	2529.15
197.614	2518.82
197.689	2533.39
197.764	2553.63
197.839	2575.3
197.914	2569.68
197.989	2591.59
198.065	2606.88
198.14	2657.73
198.215	2682.69
198.29	2694.65
198.365	2709.18
198.44	2718.84
198.515	2747.1
198.59	2767.11
198.665	2790.99
198.74	2798.23
198.815	2801.14
198.89	2821.72
198.965	2852.28
199.04	2844.74
199.115	2860.75
199.19	2910.07
199.265	2910.17
199.34	2921.75
199.415	2954.71
199.49	2975.82
199.565	2987.07
199.64	3011
199.715	3012.72
199.79	3020.87
199.865	3025.3
199.94	3025.83
200.015	3060.78
200.09	3063.21
200.165	3065.45
200.24	3073.79
200.315	3117.61
200.39	3131.34
200.464	3141.88
200.539	3144.7
200.614	3160.34
200.689	3185.52
200.764	3191.25
200.839	3212.55
200.914	3213.75
200.989	3203.44
201.063	3217.22
201.138	3198.11
201.213	3196.06
201.288	3172.35
201.363	3179.46
201.438	3184.04
201.512	3198.77
201.587	3182.69
201.662	3189.99
201.737	3205.02
201.812	3211.84
201.886	3178.33
201.961	3190.55
202.036	3178.67
202.111	3175.05
202.186	3148.35
202.26	3132.32
202.335	3113.15
202.41	3110.05
202.485	3099.18
202.559	3082.68
202.634	3060.36
202.709	3076.8
202.784	3066.17
202.858	3070.65
202.933	3056.2
203.008	3054.53
203.082	3041.09
203.157	3047.38
203.232	3012.16
203.306	2996.23
203.381	2973.81
203.456	2959.84
203.53	2948.67
203.605	2939.76
203.68	2930.08
203.754	2936.84
203.829	2939.52
203.904	2932.22
203.978	2937.85
204.053	2963.22
204.127	2971.85
204.202	2997.6
204.277	3005.76
204.351	3023.12
204.426	3044.54
204.5	3068.96
204.575	3065.24
204.65	3111.57
204.724	3137.78
204.799	3185.51
204.873	3224.45
204.948	3268.4
205.022	3302.99
205.097	3340.43
205.171	3403.95
205.246	3470.48
205.32	3526.98
205.395	3586.35
205.469	3644.4
205.544	3716.03
205.618	3765.05
205.693	3852.65
205.767	3915.36
205.842	4018.83
205.916	4099
205.991	4180.68
206.065	4273.32
206.14	4384.62
206.214	4480.47
206.289	4578.02
206.363	4699.23
206.438	4812.2
206.512	4933.84
206.586	5072.11
206.661	5197.86
206.735	5298.73
206.81	5424.99
206.884	5567.33
206.958	5683.77
207.033	5832.73
207.107	5978.37
207.181	6155.54
207.256	6285.75
207.33	6451.73
207.405	6608.13
207.479	6775
207.553	6931.76
207.628	7065.32
207.702	7228.33
207.776	7374
207.851	7531.79
207.925	7701.58
207.999	7854.97
208.073	8010.6
208.148	8177.81
208.222	8331.86
208.296	8539.48
208.371	8729.23
208.445	8913.52
208.519	9114.6
208.593	9307.55
208.668	9484.62
208.742	9655.79
208.816	9839.01
208.89	10029.8
208.965	10209.55
209.039	10391.84
209.113	10584.49
209.187	10783.14
209.261	10964.68
209.336	11170.19
209.41	11374.21
209.484	11548.67
209.558	11752.57
209.632	11955.9
209.707	12152.5
209.781	12361.96
209.855	12552.55
209.929	12742.57
210.003	12932.29
210.077	13117.1
210.151	13342.26
210.226	13546.5
210.3	13752.38
210.374	13947.75
210.448	14127.94
210.522	14303.88
210.596	14484.17
210.67	14667.29
210.744	14896.83
210.818	15101.31
210.892	15294.36
210.966	15463.06
211.041	15661.51
211.115	15830.21
211.189	16011.54
211.263	16186.64
211.337	16350.37
211.411	16530.97
211.485	16684.76
211.559	16849.45
211.633	17002.04
211.707	17122.09
211.781	17281.71
211.855	17401.08
211.929	17544.03
212.003	17671.41
212.077	17832.46
212.151	17997.28
212.225	18145.57
212.299	18277.95
212.373	18403.49
212.447	18529.89
212.52	18687.96
212.594	18817.4
212.668	18960.96
212.742	19080.08
212.816	19203.98
212.89	19329.33
212.964	19454
213.038	19585.61
213.112	19720.16
213.186	19861.31
213.26	19963.09
213.333	20045.5
213.407	20170.65
213.481	20296.04
213.555	20425.73
213.629	20526.65
213.703	20627.81
213.777	20746.46
213.85	20843.1
213.924	20991.84
213.998	21110.11
214.072	21221.6
214.146	21318.24
214.219	21422.11
214.293	21528.82
214.367	21638.19
214.441	21746.54
214.515	21833.89
214.588	21907.97
214.662	21973.63
214.736	22045.64
214.81	22145.9
214.883	22246.65
214.957	22317.89
215.031	22395.21
215.105	22450.84
215.178	22528.41
215.252	22599.66
215.326	22651.25
215.4	22711.32
215.473	22732.1
215.547	22789.33
215.621	22845.89
215.694	22927.86
215.768	22978.78
215.842	23030.32
215.915	23084.96
215.989	23124.3
216.063	23174.07
216.136	23235.45
216.21	23302.09
216.284	23383.3
216.357	23447.1
216.431	23500.53
216.504	23578.65
216.578	23663.39
216.652	23742.57
216.725	23796.92
216.799	23862.32
216.873	23915.76
216.946	23961.48
217.02	24018.72
217.093	24058.13
217.167	24084.37
217.24	24106.89
217.314	24145.67
217.387	24182.91
217.461	24222.31
217.535	24290.23
217.608	24333.84
217.682	24380.87
217.755	24436.11
217.829	24449.42
217.902	24481.07
217.976	24519.13
218.049	24545.52
218.123	24561.15
218.196	24601.09
218.27	24627.39
218.343	24645.91
218.417	24683.4
218.49	24729.04
218.563	24769.56
218.637	24815.06
218.71	24876.2
218.784	24922.81
218.857	24979.5
218.931	25028.04
219.004	25060.56
219.077	25087.1
219.151	25124.01
219.224	25151.32
219.298	25181.05
219.371	25241.95
219.444	25269.84
219.518	25300.97
219.591	25334.6
219.665	25389.19
219.738	25411.38
219.811	25434.11
219.885	25470.93
219.958	25507.61
220.031	25529.57
220.105	25570.83
220.178	25601.19
220.251	25610.07
220.325	25640.91
220.398	25656.41
220.471	25681.17
220.544	25707.95
220.618	25728.08
220.691	25739.86
220.764	25761.77
220.838	25781.13
220.911	25788.22
220.984	25826.26
221.057	25844.6
221.131	25862.51
221.204	25848.6
221.277	25888.23
221.35	25934.04
221.424	25931.92
221.497	25953.4
221.57	25967.93
221.643	25980.09
221.716	25985.07
221.79	25988.59
221.863	25985.4
221.936	25988.3
222.009	25998.19
222.082	26003.31
222.155	26002.59
222.229	26040.53
222.302	26060.71
222.375	26065.54
222.448	26074.52
222.521	26068.2
222.594	26063.46
222.667	26051.64
222.74	26068.78
222.814	26064.77
222.887	26059.65
222.96	26087.7
223.033	26089.15
223.106	26082.15
223.179	26080.65
223.252	26074.57
223.325	26078.72
223.398	26077.61
223.471	26083.55
223.544	26069.4
223.617	26075.73
223.69	26069.4
223.763	26035.17
223.837	26016.83
223.91	26012.92
223.983	25989.56
224.056	25977.39
224.129	25985.6
224.202	25992.89
224.275	25971.6
224.348	25944.23
224.42	25921.73
224.493	25890.94
224.566	25879.49
224.639	25878.87
224.712	25855.94
224.785	25844.93
224.858	25831.13
224.931	25813.7
225.004	25785.56
225.077	25775.52
225.15	25728.22
225.223	25718.57
225.296	25728.18
225.369	25691.54
225.442	25652.69
225.514	25640.38
225.587	25614.47
225.66	25594.39
225.733	25571.7
225.806	25549.26
225.879	25526.67
225.952	25492.75
226.025	25486.33
226.097	25472.62
226.17	25443.91
226.243	25403.37
226.316	25381.55
226.389	25355.83
226.461	25337.98
226.534	25322.15
226.607	25297.59
226.68	25311.44
226.753	25285.09
226.825	25233.64
226.898	25234.27
226.971	25218.87
227.044	25191.75
227.117	25174.53
227.189	25151.12
227.262	25129.89
227.335	25116.38
227.407	25094.57
227.48	25080.1
227.553	25048.97
227.626	25006.8
227.698	24984.51
227.771	24966.17
227.844	24930.81
227.916	24900.94
227.989	24857.76
228.062	24820.27
228.134	24815.4
228.207	24776.75
228.28	24745.29
228.352	24726.53
228.425	24691.4
228.498	24671.62
228.57	24625.65
228.643	24605.39
228.716	24568.77
228.788	24542.72
228.861	24503.4
228.934	24484.73
229.006	24450.82
229.079	24421.29
229.151	24394.04
229.224	24355.78
229.296	24328.77
229.369	24337.6
229.442	24324.43
229.514	24299.4
229.587	24286.62
229.659	24234.42
229.732	24203.79
229.804	24187.78
229.877	24182.81
229.949	24170.84
230.022	24160.62
230.094	24148.03
230.167	24131.97
230.239	24100.38
230.312	24073.75
230.384	24078.67
230.457	24059.81
230.529	24040.66
230.602	24012.3
230.674	23994.36
230.747	23984.09
230.819	23969.38
230.892	23896.69
230.964	23877.16
231.037	23859.89
231.109	23827.24
231.181	23807.62
231.254	23763.44
231.326	23734.51
231.399	23701.71
231.471	23656.57
231.544	23596.14
231.616	23569.71
231.688	23533.69
231.761	23500.22
231.833	23464.73
231.905	23409.41
231.978	23367.6
232.05	23331.68
232.122	23308.68
232.195	23267.3
232.267	23240.83
232.339	23196.76
232.412	23183.21
232.484	23139.81
232.556	23095.3
232.629	23080.65
232.701	23055.81
232.773	23029.49
232.846	22986.34
232.918	22944.38
232.99	22921.05
233.062	22914.39
233.135	22892.79
233.207	22845.64
233.279	22820.91
233.351	22792.6
233.424	22750.47
233.496	22704.86
233.568	22687.02
233.64	22631.1
233.713	22592.14
233.785	22556.51
233.857	22532.46
233.929	22478.37
234.001	22455.9
234.074	22430.78
234.146	22373.41
234.218	22331.23
234.29	22296.33
234.362	22253.48
234.434	22199.48
234.507	22155.32
234.579	22093.81
234.651	22039.97
234.723	22009.45
234.795	21971.81
234.867	21928.42
234.939	21909.33
235.012	21873.52
235.084	21841.99
235.156	21813.12
235.228	21779.67
235.3	21733.05
235.372	21698.49
235.444	21684.51
235.516	21621.61
235.588	21599.87
235.66	21564.98
235.732	21517.6
235.804	21544.3
235.876	21518.47
235.948	21497.84
236.02	21457.54
236.092	21414.84
236.164	21387.37
236.236	21349.44
236.308	21308.95
236.38	21273.77
236.452	21223.3
236.524	21192.02
236.596	21173.8
236.668	21159.97
236.74	21121.03
236.812	21088.93
236.884	21053.65
236.956	21007.96
237.028	20960.39
237.1	20905.45
237.172	20895.04
237.244	20875.86
237.316	20791.17
237.388	20746.16
237.46	20697.43
237.532	20671.94
237.604	20637.24
237.675	20608.8
237.747	20578.1
237.819	20537.09
237.891	20498.25
237.963	20449.05
238.035	20410.59
238.107	20322.78
238.178	20283.5
238.25	20234.97
238.322	20217.82
238.394	20155.55
238.466	20112.9
238.538	20091.36
238.609	20061.96
238.681	19985.34
238.753	19940.09
238.825	19900.47
238.897	19868.04
238.968	19847.61
239.04	19792.38
239.112	19765.78
239.184	19707.04
239.255	19656.97
239.327	19623.47
239.399	19582.56
239.471	19558.47
239.542	19523.29
239.614	19506.23
239.686	19453.22
239.758	19428.5
239.829	19373.32
239.901	19348.36
239.973	19310.33
240.044	19278.38
240.116	19227.74
240.188	19195.45
240.259	19154.78
240.331	19103.99
240.403	19062.93
240.474	19001.97
240.546	18961.39
240.618	18916.09
240.689	18887.08
240.761	18853.49
240.833	18829.98
240.904	18789.64
240.976	18744.59
241.048	18708.11
241.119	18670.47
241.191	18635.24
241.262	18614.76
241.334	18569.13
241.405	18531.59
241.477	18480.99
241.549	18431.78
241.62	18405.67
241.692	18380.22
241.763	18348.37
241.835	18316.47
241.906	18285.09
241.978	18238.01
242.049	18217.39
242.121	18189.24
242.192	18158.06
242.264	18105.78
242.335	18046.5
242.407	18022.16
242.478	17978.02
242.55	17944.14
242.621	17897.64
242.693	17848.24
242.764	17798.32
242.836	17760.87
242.907	17731.57
242.979	17703.81
243.05	17681.98
243.122	17651.43
243.193	17612.39
243.264	17555.48
243.336	17511.19
243.407	17477.93
243.479	17453.65
243.55	17409.98
243.622	17379.43
243.693	17340.2
243.764	17328.54
243.836	17284.44
243.907	17232.54
243.978	17199.14
244.05	17165.35
244.121	17115.71
244.192	17094.31
244.264	17038.94
244.335	17006.36
244.407	16953.64
244.478	16920.48
244.549	16868.67
244.62	16813.39
244.692	16767.7
244.763	16747.31
244.834	16710.73
244.906	16669.53
244.977	16652.66
245.048	16634.1
245.119	16584.6
245.191	16537.13
245.262	16473.61
245.333	16458.04
245.405	16433.65
245.476	16407.96
245.547	16376.83
245.618	16352.1
245.689	16316.82
245.761	16296.58
245.832	16256.58
245.903	16237.92
245.974	16203.61
246.045	16171.17
246.117	16153.38
246.188	16108.12
246.259	16059.64
246.33	16027.63
246.401	15986.66
246.473	15931.86
246.544	15891.71
246.615	15871.13
246.686	15839.18
246.757	15820.23
246.828	15773.14
246.899	15753.24
246.97	15710.48
247.042	15662.72
247.113	15645.51
247.184	15625.55
247.255	15580.2
247.326	15544.77
247.397	15500.66
247.468	15474.39
247.539	15442.73
247.61	15399.63
247.681	15383.53
247.752	15367.1
247.823	15322.41
247.894	15297.83
247.965	15247.84
248.037	15207.93
248.108	15161.03
248.179	15127
248.25	15099.19
248.321	15074.85
248.392	15030.93
248.463	15023.85
248.534	14999.94
248.605	14974.73
248.675	14940.31
248.746	14926.33
248.817	14912.4
248.888	14892.93
248.959	14847.47
249.03	14834.7
249.101	14800.28
249.172	14763.89
249.243	14706.76
249.314	14690.62
249.385	14659.91
249.456	14649.59
249.527	14626.94
249.598	14598.16
249.669	14564.8
249.739	14542.58
249.81	14522.86
249.881	14473.4
249.952	14434.94
250.023	14404.86
250.094	14361.47
250.165	14327.2
250.235	14294.03
250.306	14260.77
250.377	14226.4
250.448	14206.25
250.519	14149.46
250.59	14142.23
250.66	14116.44
250.731	14110.66
250.802	14090.12
250.873	14071.76
250.944	14042.59
251.014	14003.64
251.085	14011.07
251.156	13998.05
251.227	13981.51
251.297	13968.98
251.368	13964.93
251.439	13953.56
251.51	13936.97
251.58	13899.37
251.651	13870.83
251.722	13855.31
251.792	13811.35
251.863	13777.07
251.934	13770.32
252.005	13777.36
252.075	13749.88
252.146	13735.18
252.217	13722.36
252.287	13708.57
252.358	13674.73
252.429	13672.27
252.499	13637.8
252.57	13605.46
252.641	13599.77
252.711	13562.79
252.782	13520.08
252.852	13512.13
252.923	13484.65
252.994	13462.09
253.064	13454.52
253.135	13428.59
253.205	13401.88
253.276	13399.81
253.347	13396.67
253.417	13363.8
253.488	13336.08
253.558	13310.58
253.629	13290.28
253.699	13274.66
253.77	13256.78
253.841	13239.42
253.911	13223.66
253.982	13207.56
254.052	13201.77
254.123	13172.13
254.193	13161.76
254.264	13176.9
254.334	13144.99
254.405	13107.15
254.475	13075.96
254.546	13054.55
254.616	13037.3
254.687	13013.43
254.757	12996.75
254.827	12966.48
254.898	12946.28
254.968	12918.9
255.039	12885.69
255.109	12869.01
255.18	12830.11
255.25	12778.48
255.321	12758.23
255.391	12717.88
255.461	12718.66
255.532	12666.55
255.602	12640.56
255.673	12593.08
255.743	12562.9
255.813	12510.6
255.884	12506.31
255.954	12489.73
256.024	12475.46
256.095	12454.16
256.165	12425.09
256.235	12411.01
256.306	12384.98
256.376	12382.67
256.446	12376.07
256.517	12360.59
256.587	12346.52
256.657	12335.82
256.728	12325.26
256.798	12307.04
256.868	12284.09
256.938	12257.63
257.009	12250.74
257.079	12242.25
257.149	12261.29
257.219	12215.5
257.29	12216.42
257.36	12174.91
257.43	12171.39
257.5	12133.17
257.571	12106.71
257.641	12096.01
257.711	12058.8
257.781	12050.79
257.852	12028.33
257.922	11991.89
257.992	11969.96
258.062	11952.08
258.132	11938.63
258.202	11918.77
258.273	11906.77
258.343	11907.73
258.413	11878.96
258.483	11855.68
258.553	11821.94
258.623	11789.64
258.693	11777.88
258.764	11770.17
258.834	11775.37
258.904	11750.12
258.974	11729.73
259.044	11714.21
259.114	11698.98
259.184	11688.52
259.254	11671.99
259.324	11641.57
259.394	11627.64
259.464	11642.39
259.535	11615.93
259.605	11595.26
259.675	11567.25
259.745	11542.29
259.815	11511.06
259.885	11485.8
259.955	11493.42
260.025	11468.6
260.095	11436.74
260.165	11423.97
260.235	11422.76
260.305	11387.82
260.375	11361.99
260.445	11371.48
260.515	11373.12
260.585	11367.97
260.655	11353.17
260.725	11348.59
260.795	11329.27
260.865	11333.7
260.934	11298.47
261.004	11296.3
261.074	11276.15
261.144	11282.03
261.214	11280.88
261.284	11268.39
261.354	11270.95
261.424	11244.34
261.494	11247.62
261.564	11244.01
261.634	11236.05
261.703	11196.58
261.773	11184.05
261.843	11172.2
261.913	11145.6
261.983	11104.2
262.053	11089.98
262.123	11066.9
262.192	11027.39
262.262	11027.05
262.332	10994.71
262.402	10987.24
262.472	10966.9
262.541	10935.58
262.611	10931.1
262.681	10900.41
262.751	10887.68
262.821	10867.88
262.89	10833.28
262.96	10819.26
263.03	10820.22
263.1	10809.57
263.169	10796.46
263.239	10787.79
263.309	10785.67
263.379	10775.21
263.448	10764.81
263.518	10751.65
263.588	10738.93
263.657	10746.88
263.727	10733.96
263.797	10717.15
263.867	10702.5
263.936	10669.69
264.006	10662.89
264.076	10640.82
264.145	10627.53
264.215	10604.83
264.285	10598.42
264.354	10574.14
264.424	10557.08
264.494	10527.98
264.563	10502.15
264.633	10513.33
264.702	10502.78
264.772	10478.21
264.842	10464.48
264.911	10458.74
264.981	10430.56
265.05	10416.49
265.12	10390.81
265.19	10375.53
265.259	10375.05
265.329	10358.38
265.398	10352.7
265.468	10370.09
265.537	10348.89
265.607	10346.24
265.676	10338.1
265.746	10325.76
265.815	10320.51
265.885	10301.87
265.955	10277.25
266.024	10258.95
266.094	10214.09
266.163	10221.75
266.232	10224.64
266.302	10203.69
266.371	10190.06
266.441	10180.32
266.51	10182.59
266.58	10165.83
266.649	10144.97
266.719	10135.52
266.788	10130.56
266.858	10138.56
266.927	10096.31
266.996	10088.17
267.066	10074.82
267.135	10056.42
267.205	10050.02
267.274	10039.71
267.343	10039.42
267.413	10028.73
267.482	10037.69
267.552	10043.42
267.621	10007
267.69	9974.82
267.76	9967.64
267.829	9964.56
267.898	9952.66
267.968	9923.86
268.037	9921.21
268.106	9921.26
268.176	9901.51
268.245	9888.6
268.314	9866.44
268.384	9870.43
268.453	9858.06
268.522	9850.06
268.592	9849.63
268.661	9835.75
268.73	9826.6
268.799	9806.23
268.869	9812.25
268.938	9774.82
269.007	9754.64
269.076	9747.27
269.146	9742.89
269.215	9736.53
269.284	9741.4
269.353	9727.87
269.422	9716.5
269.492	9703.11
269.561	9657.6
269.63	9646.38
269.699	9626.39
269.768	9613.53
269.838	9606.89
269.907	9609.44
269.976	9586.23
270.045	9560.41
270.114	9555.21
270.183	9541.78
270.253	9537.2
270.322	9506.09
270.391	9498.58
270.46	9503.73
270.529	9502.24
270.598	9506.91
270.667	9500.31
270.736	9478.69
270.806	9471.85
270.875	9468.82
270.944	9453.55
271.013	9484.27
271.082	9479.36
271.151	9478.88
271.22	9448.79
271.289	9431.64
271.358	9414.79
271.427	9408.96
271.496	9396.64
271.565	9377.18
271.634	9372.66
271.703	9404.35
271.772	9407.67
271.841	9401.07
271.91	9377.14
271.979	9364.09
272.048	9333.75
272.117	9326.67
272.186	9307.61
272.255	9310.88
272.324	9314.97
272.393	9306.02
272.462	9285.65
272.531	9274.38
272.6	9262.73
272.669	9276.5
272.738	9267.78
272.807	9264.31
272.876	9245.92
272.945	9273.95
273.013	9272.79
273.082	9271.11
273.151	9218.08
273.22	9220.3
273.289	9212.6
273.358	9219
273.427	9210.33
273.496	9210.86
273.564	9209.13
273.633	9209.18
273.702	9186.21
273.771	9170.51
273.84	9171.62
273.909	9166.85
273.977	9165.6
274.046	9151.83
274.115	9153.57
274.184	9140.86
274.253	9133.92
274.322	9145.86
274.39	9113.6
274.459	9097.67
274.528	9074.42
274.597	9067.48
274.665	9055.54
274.734	9059.4
274.803	9046.49
274.872	9036.48
274.94	9021.94
275.009	9080.51
275.078	9065.01
275.147	9057.02
275.215	9054.8
275.284	9066.02
275.353	9056.73
275.421	9033.43
275.49	9046.53
275.559	9036.22
275.627	9023.18
275.696	9007.92
275.765	9004.26
275.833	8993.57
275.902	8995.31
275.971	9007.68
276.039	9019.57
276.108	9032.18
276.177	9032.14
276.245	9022.75
276.314	9018.95
276.383	9024.48
276.451	8954.5
276.52	8958.01
276.588	8971.4
276.657	8975.3
276.725	8960.8
276.794	8963.69
276.863	8970.48
276.931	8950.36
277	8959.22
277.068	8969.76
277.137	8989.78
277.205	8982.18
277.274	8998.69
277.342	9005.91
277.411	8986.22
277.48	8972.93
277.548	8945.69
277.617	8941.69
277.685	8936.59
277.754	8942.56
277.822	8930.62
277.89	8942.27
277.959	8932.84
278.027	8916.57
278.096	8906.6
278.164	8936.36
278.233	8924.66
278.301	8910.85
278.37	8914.65
278.438	8898.96
278.507	8909.06
278.575	8882.35
278.643	8878.26
278.712	8858.18
278.78	8844.46
278.849	8856.79
278.917	8868.39
278.985	8875.13
279.054	8874.11
279.122	8884.66
279.191	8878.45
279.259	8872
279.327	8845.57
279.396	8864.53
279.464	8857.89
279.532	8865.6
279.601	8858.85
279.669	8856.83
279.737	8877.38
279.806	8881.48
279.874	8886.82
279.942	8880.22
280.011	8875.56
280.079	8885.67
280.147	8906.94
280.215	8912.96
280.284	8905.55
280.352	8894.09
280.42	8897.75
280.488	8893.65
280.557	8887.11
280.625	8895.05
280.693	8903.18
280.761	8910.84
280.83	8889.95
280.898	8902.7
280.966	8881.04
281.034	8844.26
281.102	8828.43
281.171	8820.53
281.239	8825.35
281.307	8816.1
281.375	8812.59
281.443	8838.92
281.512	8834.4
281.58	8842.92
281.648	8829.34
281.716	8828.19
281.784	8820.78
281.852	8810.52
281.92	8804.8
281.989	8819.96
282.057	8799.6
282.125	8848.71
282.193	8845.92
282.261	8844.62
282.329	8843.22
282.397	8847.8
282.465	8849.38
282.533	8867.77
282.601	8856.84
282.67	8835.42
282.738	8826.9
282.806	8822.43
282.874	8810.58
282.942	8812.7
283.01	8801.15
283.078	8803.55
283.146	8798.55
283.214	8809.57
283.282	8816.02
283.35	8830.85
283.418	8821.75
283.486	8830.6
283.554	8780.87
283.622	8781.35
283.69	8787.12
283.758	8781.73
283.826	8786.59
283.894	8798.58
283.962	8815.77
284.03	8833.48
284.098	8838.72
284.165	8838.44
284.233	8844.21
284.301	8834.15
284.369	8827.46
284.437	8813.21
284.505	8815.09
284.573	8832.85
284.641	8822.45
284.709	8832.85
284.777	8813.12
284.845	8816.97
284.912	8824.72
284.98	8833
285.048	8831.46
285.116	8833.19
285.184	8845.51
285.252	8839.06
285.319	8824.04
285.387	8813.6
285.455	8790.78
285.523	8791.26
285.591	8786.55
285.659	8786.64
285.726	8797.09
285.794	8778.66
285.862	8783.81
285.93	8776.49
285.997	8774.81
286.065	8770.28
286.133	8758.06
286.201	8755.65
286.269	8743.76
286.336	8728.98
286.404	8714.35
286.472	8719.02
286.539	8697.41
286.607	8681.29
286.675	8685.28
286.743	8691.97
286.81	8680.66
286.878	8700.39
286.946	8696.54
287.013	8698.42
287.081	8698.32
287.149	8690.24
287.216	8709.97
287.284	8700.97
287.352	8705.25
287.419	8698.8
287.487	8713.29
287.555	8714.06
287.622	8713.67
287.69	8720.22
287.758	8740.15
287.825	8743.18
287.893	8728.64
287.96	8739.66
288.028	8747.17
288.096	8749.92
288.163	8753.48
288.231	8746.98
288.298	8735.67
288.366	8749.82
288.433	8739.48
288.501	8730.33
288.569	8733.17
288.636	8730.81
288.704	8746.12
288.771	8752.18
288.839	8740.39
288.906	8735.58
288.974	8745.69
289.041	8738.71
289.109	8728.26
289.176	8726.87
289.244	8724.9
289.311	8742.37
289.379	8751.32
289.446	8754.98
289.514	8758.01
289.581	8750.69
289.649	8756.18
289.716	8765.61
289.783	8758.49
289.851	8788.96
289.918	8791.99
289.986	8798.87
290.053	8797.81
290.121	8798.82
290.188	8801.13
290.255	8832.85
290.323	8824.96
290.39	8815.96
290.458	8827.51
290.525	8840.6
290.592	8836.22
290.66	8841.95
290.727	8833.67
290.794	8844.79
290.862	8842.77
290.929	8835.26
290.996	8838.05
291.064	8845.51
291.131	8857.35
291.198	8861.25
291.266	8854.27
291.333	8854.32
291.4	8862.41
291.468	8879.35
291.535	8873.24
291.602	8881.76
291.669	8872.03
291.737	8875.5
291.804	8883.64
291.871	8905.68
291.938	8910.4
292.006	8941.65
292.073	8951.13
292.14	8967.5
292.207	8952.63
292.275	8960.42
292.342	8976.84
292.409	9002.4
292.476	9029.22
292.543	9020.22
292.611	9030.95
292.678	9050.35
292.745	9073.22
292.812	9078.95
292.879	9077.94
292.946	9086.99
293.014	9095.85
293.081	9106.73
293.148	9123.86
293.215	9131.23
293.282	9121.36
293.349	9137.2
293.416	9116.45
293.484	9138.4
293.551	9145.24
293.618	9174.32
293.685	9190.59
293.752	9181.97
293.819	9183.8
293.886	9170.75
293.953	9176.43
294.02	9186.74
294.087	9190.73
294.154	9187.56
294.221	9203.35
294.288	9202.39
294.356	9217.75
294.423	9219.19
294.49	9215.05
294.557	9227.47
294.624	9220.83
294.691	9237.44
294.758	9238.31
294.825	9244.66
294.892	9237.97
294.959	9239.99
295.026	9242.25
295.093	9241.68
295.16	9245.62
295.226	9248.08
295.293	9266.47
295.36	9275.28
295.427	9285.73
295.494	9301.29
295.561	9309.86
295.628	9331.05
295.695	9350.12
295.762	9349.93
295.829	9372.95
295.896	9384.4
295.963	9396.64
296.03	9407.81
296.096	9416.47
296.163	9420.86
296.23	9438.82
296.297	9445.66
296.364	9447.87
296.431	9449.12
296.498	9444.4
296.564	9471.75
296.631	9470.98
296.698	9463.81
296.765	9483.36
296.832	9471.27
296.899	9455.19
296.965	9469.34
297.032	9444.73
297.099	9459.18
297.166	9469.34
297.233	9456.82
297.299	9453.16
297.366	9455.71
297.433	9465.92
297.5	9478.3
297.566	9482.01
297.633	9476.9
297.7	9483.55
297.767	9474.5
297.833	9483.45
297.9	9488.41
297.967	9473.2
298.033	9490.53
298.1	9523.24
298.167	9511.77
298.234	9514.71
298.3	9522.85
298.367	9520.59
298.434	9528.15
298.5	9525.06
298.567	9519.67
298.634	9519.91
298.7	9531.42
298.767	9528.96
298.834	9533.83
298.9	9523.38
298.967	9514.56
299.033	9525.3
299.1	9537.3
299.167	9555.93
299.233	9553.77
299.3	9564.36
299.366	9579.77
299.433	9590.89
299.5	9559.88
299.566	9569.85
299.633	9587.42
299.699	9602.79
299.766	9601.05
299.832	9605.39
299.899	9608.47
299.965	9617.72
300.032	9609.72
300.099	9621.43
300.165	9628.65
300.232	9626.34
300.298	9632.7
300.365	9651.09
300.431	9652.39
300.498	9644.4
300.564	9651.62
300.631	9666.84
300.697	9683.31
300.763	9684.33
300.83	9676.96
300.896	9693.43
300.963	9702.05
301.029	9708.98
301.096	9712.5
301.162	9725.07
301.229	9724.06
301.295	9714.33
301.361	9717.32
301.428	9727.62
301.494	9718.66
301.561	9719.77
301.627	9726.95
301.693	9728.63
301.76	9734.32
301.826	9723
301.892	9741.16
301.959	9751.37
302.025	9747.18
302.092	9738.36
302.158	9751.75
302.224	9755.94
302.291	9751.8
302.357	9748.96
302.423	9741.73
302.49	9733.88
302.556	9748.86
302.622	9754.11
302.688	9767.12
302.755	9786.05
302.821	9795.49
302.887	9798.38
302.954	9801.03
303.02	9808.2
303.086	9811.72
303.152	9807.48
303.219	9807.72
303.285	9809.74
303.351	9817.02
303.417	9819.18
303.483	9816.05
303.55	9805.31
303.616	9808.97
303.682	9805.31
303.748	9798.23
303.815	9809.89
303.881	9818.27
303.947	9801.8
304.013	9801.94
304.079	9794.09
304.145	9776.37
304.212	9770.2
304.278	9765.05
304.344	9760.52
304.41	9746.75
304.476	9742.27
304.542	9736.39
304.608	9746.31
304.674	9731.81
304.741	9718.42
304.807	9717.46
304.873	9721.46
304.939	9736.73
305.005	9714.47
305.071	9714.76
305.137	9716.21
305.203	9690.78
305.269	9690.34
305.335	9703.25
305.401	9699.54
305.467	9693.81
305.533	9706.72
305.599	9713.99
305.666	9729.94
305.732	9726.61
305.798	9742.89
305.864	9763.99
305.93	9768.76
305.996	9765.34
306.062	9762.93
306.128	9763.07
306.194	9756.67
306.259	9749.49
306.325	9731.77
306.391	9743.81
306.457	9751.61
306.523	9751.51
306.589	9775.79
306.655	9765.96
306.721	9742.41
306.787	9727.34
306.853	9743.71
306.919	9715.92
306.985	9712.84
307.051	9699.11
307.117	9696.32
307.183	9684.42
307.248	9657.4
307.314	9659.95
307.38	9662.36
307.446	9665.93
307.512	9652.78
307.578	9654.61
307.644	9652.88
307.709	9660.77
307.775	9657.31
307.841	9645.31
307.907	9647.1
307.973	9627.44
308.039	9628.7
308.104	9635.73
308.17	9636.93
308.236	9627.11
308.302	9633.8
308.368	9622.63
308.433	9620.85
308.499	9616.8
308.565	9604.76
308.631	9607.41
308.696	9584.2
308.762	9573.46
308.828	9572.16
308.894	9559.78
308.959	9541
309.025	9536.23
309.091	9532.47
309.156	9528.19
309.222	9535.75
309.288	9525.83
309.354	9507.96
309.419	9502.28
309.485	9493.03
309.551	9498.86
309.616	9481.48
309.682	9472.23
309.748	9460.72
309.813	9457.54
309.879	9442.66
309.945	9436.74
310.01	9430
310.076	9434.04
310.141	9428.46
310.207	9410.54
310.273	9412.76
310.338	9415.99
310.404	9396.39
310.469	9383
310.535	9375.78
310.601	9352.71
310.666	9353.77
310.732	9364.84
310.797	9348.33
310.863	9338.99
310.928	9336.67
310.994	9341.15
311.059	9346.06
311.125	9349.15
311.191	9358.25
311.256	9352.04
311.322	9355.55
311.387	9334.56
311.453	9725.48
311.518	9695.96
311.584	9696.44
311.649	9700.68
311.715	9685.03
311.78	9685.32
311.846	9674.92
311.911	9681.18
311.976	9685.28
312.042	9671.21
312.107	9658.21
312.173	9660.09
312.238	9649.45
312.304	9635.92
312.369	9622.68
312.434	9602.84
312.5	9592.01
312.565	9555.08
312.631	9558.93
312.696	9547.28
312.761	9550.74
312.827	9146.73
312.892	9187.03
312.958	9185.06
313.023	9185.44
313.088	9188.09
313.154	9181.78
313.219	9173.07
313.284	9154.19
313.35	9146.68
313.415	9134.45
313.48	9128.92
313.546	9129.4
313.611	9138.55
313.676	9135.61
313.741	9128.58
313.807	9143.36
313.872	9147.89
313.937	9157.56
314.003	9168.11
314.068	9174.95
314.133	9176.68
314.198	9168.35
314.264	9146.34
314.329	9134.88
314.394	9129.06
314.459	9125.59
314.525	9146.01
314.59	9141.29
314.655	9135.56
314.72	9140.08
314.785	9143.89
314.851	9132.14
314.916	9111.63
314.981	9097.72
315.046	9086.6
315.111	9075.91
315.176	9061.66
315.242	9056.03
315.307	9056.7
315.372	9037.49
315.437	9021.84
315.502	9012.84
315.567	9023.96
315.632	9006.58
315.698	9004.27
315.763	8992
315.828	8982.51
315.893	8966
315.958	8963.74
316.023	8949.87
316.088	8932.16
316.153	8906.5
316.218	8906.65
316.283	8890.96
316.348	8871.37
316.413	8868.19
316.479	8850.05
316.544	8818.18
316.609	8792.72
316.674	8751.72
316.739	8714.23
316.804	8684.63
316.869	8656.38
316.934	8618.11
316.999	8593.76
317.064	8542.51
317.129	8499.68
317.194	8463.45
317.259	8416.48
317.324	8364.28
317.389	8319.63
317.454	8281.47
317.518	8249.29
317.583	8222.25
317.648	8193.04
317.713	8162.69
317.778	8103.18
317.843	8079.17
317.908	8040.6
317.973	8004.23
318.038	7974.65
318.103	7941.23
318.168	7907.56
318.233	7875.91
318.297	7828.3
318.362	7788.76
318.427	7751.31
318.492	7727.12
318.557	7679.33
318.622	7656.92
318.687	7637.02
318.751	7596.98
318.816	7558.42
318.881	7524.58
318.946	7464.62
319.011	7424.53
319.075	7381.12
319.14	7347.14
319.205	7299.13
319.27	7268.99
319.335	7223.72
319.399	7186.14
319.464	7150.15
319.529	7094.9
319.594	7051.74
319.658	7020.22
319.723	6975.35
319.788	6951.28
319.853	6894.82
319.917	6863.99
319.982	6805.67
320.047	6766.61
320.112	6742.65
320.176	6695.82
320.241	6666.23
320.306	6640.11
320.37	6598.57
320.435	6565.34
320.5	6542.63
320.564	6506.33
320.629	6463.74
320.694	6436.14
320.758	6399.12
320.823	6363.17
320.888	6340.09
320.952	6290.7
321.017	6249.37
321.082	6211.56
321.146	6172.01
321.211	6139.53
321.275	6098.65
321.34	6059.61
321.405	6013.41
321.469	5965.29
321.534	5921.55
321.598	5869.12
321.663	5834.87
321.727	5801.63
321.792	5753.76
321.857	5704.93
321.921	5668.05
321.986	5622.37
322.05	5562.35
322.115	5522.98
322.179	5478.02
322.244	5420.37
322.308	5388.93
322.373	5338.42
322.437	5300.51
322.502	5273.28
322.566	5227.62
322.631	5192.93
322.695	5156.33
322.76	5114.04
322.824	5080.32
322.889	5041.15
322.953	4994.27
323.018	4931.77
323.082	4868.2
323.146	4816.02
323.211	4760.58
323.275	4714.52
323.34	4667.29
323.404	4631.69
323.468	4582.54
323.533	4538.51
323.597	4497.24
323.662	4445.47
323.726	4413.27
323.79	4362.43
323.855	4294.44
323.919	4246.42
323.983	4200.74
324.048	4132.54
324.112	4278.99
324.177	4149.1
324.241	3934.25
324.305	3725.52
324.37	3517.46
324.434	3319.3
324.498	3276.62
324.562	3225.85
324.627	3161.69
324.691	3107.99
324.755	3040.62
324.82	2963.19
324.884	2882.02
324.948	2806.49
325.012	2707.6
325.077	2577.95
