Data from 20250703_urea_0.1M_MAYP1162681_05-01-05-563.txt Node
Date: Fri Jul 04 05:01:05 BST 2025
User: adleo
Spectrometer: MAYP116268
Trigger mode: 0
Integration Time (sec): 1.000000E0
Scans to average: 1
Electric dark correction enabled: true
Nonlinearity correction enabled: true
Boxcar width: 10
XAxis mode: Wavelengths
Number of Pixels in Spectrum: 2068
>>>>>Begin Spectral Data<<<<<
179.565	1266.26
179.642	1322.68
179.718	1370.11
179.795	1410.19
179.871	1444
179.948	1462.54
180.024	1483.83
180.101	1509.35
180.177	1525.31
180.254	1549.3
180.33	1572.81
180.407	1630.5
180.483	1729.66
180.56	1826.06
180.636	1916.8
180.712	1900.2
180.789	1910.47
180.865	1924.53
180.942	1931.76
181.018	1942.93
181.095	1957.96
181.171	1962.34
181.248	1965.52
181.324	1981.89
181.4	1989.69
181.477	2003
181.553	2015.12
181.63	2038.52
181.706	2053.46
181.782	2061.49
181.859	2060.54
181.935	2065.35
182.011	2062.4
182.088	2081.85
182.164	2099.74
182.24	2111.4
182.317	2124.71
182.393	2121.43
182.469	2138.5
182.546	2151.92
182.622	2159.72
182.698	2154.11
182.775	2167.95
182.851	2183.36
182.927	2173.42
183.003	2170.04
183.08	2165.14
183.156	2175.94
183.232	2169.95
183.308	2157.82
183.385	2165.05
183.461	2186.03
183.537	2188.22
183.613	2202.87
183.69	2193.5
183.766	2183.55
183.842	2191.02
183.918	2194.63
183.995	2210.29
184.071	2212.14
184.147	2206.2
184.223	2193.88
184.299	2208.25
184.375	2194.55
184.452	2200.83
184.528	2254.8
184.604	2266.22
184.68	2276.02
184.756	2284.97
184.832	2290.96
184.908	2296.29
184.985	2296.53
185.061	2278.16
185.137	2286.35
185.213	2272.93
185.289	2272.07
185.365	2263.27
185.441	2262.8
185.517	2277.36
185.593	2272.27
185.669	2269.22
185.745	2280.22
185.822	2294.58
185.898	2286.16
185.974	2297.72
186.05	2287.62
186.126	2250.07
186.202	2240.56
186.278	2236.66
186.354	2226.38
186.43	2232.04
186.506	2233.04
186.582	2233.23
186.658	2238.75
186.734	2219.34
186.81	2221.62
186.886	2223.9
186.962	2239.08
187.038	2233.47
187.114	2225.75
187.19	2232.56
187.266	2221.14
187.341	2222.38
187.417	2218.53
187.493	2216.05
187.569	2219.05
187.645	2217.34
187.721	2205.11
187.797	2214.95
187.873	2221.38
187.949	2217.81
188.025	2212.1
188.101	2213.72
188.176	2218.47
188.252	2215.43
188.328	2222.47
188.404	2223.18
188.48	2221.14
188.556	2213.19
188.632	2215
188.707	2216.14
188.783	2212.33
188.859	2209.43
188.935	2198.15
189.011	2205.43
189.086	2198.49
189.162	2186.69
189.238	2180.41
189.314	2178.46
189.39	2172.46
189.465	2163.04
189.541	2177.13
189.617	2161.62
189.693	2152.96
189.768	2158.2
189.844	2184.23
189.92	2177.77
189.996	2188.47
190.071	2199.42
190.147	2200.65
190.223	2208.22
190.298	2197.7
190.374	2184.29
190.45	2196.94
190.526	2206.22
190.601	2198.79
190.677	2203.46
190.753	2233.16
190.828	2237.01
190.904	2253.67
190.98	2269.95
191.055	2281.42
191.131	2270.19
191.207	2293.31
191.282	2306.25
191.358	2296.92
191.433	2279.78
191.509	2289.34
191.585	2286.53
191.66	2289.2
191.736	2294.29
191.811	2285.54
191.887	2304.96
191.963	2331.37
192.038	2338.32
192.114	2337.98
192.189	2343.03
192.265	2340.17
192.34	2316.75
192.416	2316.65
192.491	2311.61
192.567	2314.61
192.642	2318.13
192.718	2318.08
192.793	2305.04
192.869	2301.33
192.944	2302.8
193.02	2311.42
193.095	2322.08
193.171	2326.6
193.246	2324.84
193.322	2321.65
193.397	2324.22
193.473	2309.32
193.548	2289.71
193.624	2292.71
193.699	2294.37
193.775	2310.08
193.85	2309.32
193.925	2321.51
194.001	2322.27
194.076	2315.8
194.152	2306.08
194.227	2297.28
194.302	2289.57
194.378	2293.52
194.453	2291.38
194.529	2302.99
194.604	2286.62
194.679	2275.77
194.755	2256.74
194.83	2268.12
194.905	2267.46
194.981	2275.12
195.056	2266.37
195.131	2275.41
195.207	2274.69
195.282	2263.13
195.357	2243.52
195.433	2257.79
195.508	2242.09
195.583	2246.61
195.659	2261.93
195.734	2267.27
195.809	2267.69
195.884	2280.44
195.96	2279.44
196.035	2294.77
196.11	2291.25
196.185	2303.71
196.261	2309.99
196.336	2339.83
196.411	2324.84
196.486	2329.21
196.561	2323.74
196.637	2335.49
196.712	2349.3
196.787	2352.73
196.862	2370.24
196.937	2384
197.013	2392.66
197.088	2404.04
197.163	2429.75
197.238	2447.62
197.313	2446.1
197.388	2457.67
197.464	2484.77
197.539	2497.29
197.614	2490.43
197.689	2502.57
197.764	2521.53
197.839	2540.77
197.914	2536.15
197.989	2562.48
198.065	2577.43
198.14	2628
198.215	2653.76
198.29	2665.15
198.365	2678.35
198.44	2688.54
198.515	2716.75
198.59	2731.52
198.665	2761.06
198.74	2766.01
198.815	2766.97
198.89	2792.84
198.965	2827.39
199.04	2825.68
199.115	2840.83
199.19	2887.58
199.265	2893.34
199.34	2903.16
199.415	2937.92
199.49	2962.46
199.565	2974.05
199.64	2998.41
199.715	2993.25
199.79	3000.69
199.865	3007.99
199.94	3007.56
200.015	3040.13
200.09	3044.75
200.165	3052.28
200.24	3059.63
200.315	3105.54
200.39	3119.7
200.464	3128.34
200.539	3130.05
200.614	3147.79
200.689	3175.79
200.764	3181.37
200.839	3199.44
200.914	3209.02
200.989	3197.14
201.063	3211.88
201.138	3188.91
201.213	3190.77
201.288	3173.41
201.363	3179.95
201.438	3180.99
201.512	3195.06
201.587	3178.98
201.662	3180.27
201.737	3196.01
201.812	3203.83
201.886	3167.51
201.961	3179.15
202.036	3163.27
202.111	3160.6
202.186	3132.14
202.26	3113.21
202.335	3090.17
202.41	3085.92
202.485	3066.76
202.559	3048.35
202.634	3022.08
202.709	3036.9
202.784	3022.78
202.858	3026.88
202.933	3010.1
203.008	3004.76
203.082	2990.22
203.157	2992.41
203.232	2955.01
203.306	2936.74
203.381	2909.22
203.456	2893.54
203.53	2874.79
203.605	2862.5
203.68	2846.47
203.754	2845.24
203.829	2838.23
203.904	2829.31
203.978	2826.41
204.053	2845.48
204.127	2845.86
204.202	2857.2
204.277	2853.15
204.351	2857.39
204.426	2868.51
204.5	2880.38
204.575	2866.56
204.65	2895.88
204.724	2910.24
204.799	2942.5
204.873	2960.86
204.948	2983.89
205.022	2997.72
205.097	3019.67
205.171	3063.3
205.246	3103.09
205.32	3135.55
205.395	3172
205.469	3199.37
205.544	3249.4
205.618	3270.83
205.693	3328.25
205.767	3358.16
205.842	3427.58
205.916	3470.92
205.991	3508.74
206.065	3558.63
206.14	3630.84
206.214	3684.55
206.289	3730.09
206.363	3802.7
206.438	3867.28
206.512	3939.87
206.586	4025.37
206.661	4101.65
206.735	4147.62
206.81	4221.26
206.884	4314.45
206.958	4374.27
207.033	4466.56
207.107	4549.01
207.181	4660.55
207.256	4732.5
207.33	4836.31
207.405	4932.34
207.479	5037.74
207.553	5130.98
207.628	5206.39
207.702	5308.15
207.776	5387.17
207.851	5487.72
207.925	5597.63
207.999	5681.43
208.073	5773.69
208.148	5876.01
208.222	5958.29
208.296	6085.66
208.371	6198.57
208.445	6308.06
208.519	6440.52
208.593	6555.3
208.668	6655.88
208.742	6757.73
208.816	6869.09
208.89	6994.22
208.965	7100.35
209.039	7211.07
209.113	7334.43
209.187	7467.23
209.261	7570.72
209.336	7700.22
209.41	7826.73
209.484	7934.81
209.558	8069.17
209.632	8189.7
209.707	8307.42
209.781	8435.96
209.855	8565.01
209.929	8689.1
210.003	8799.84
210.077	8898.79
210.151	9057.29
210.226	9193.21
210.3	9338.74
210.374	9467.82
210.448	9570.05
210.522	9676.97
210.596	9794.14
210.67	9907.22
210.744	10055.48
210.818	10191.69
210.892	10312.65
210.966	10418.3
211.041	10531.08
211.115	10630.42
211.189	10762.29
211.263	10870.27
211.337	10975.5
211.411	11085.27
211.485	11179.34
211.559	11294.46
211.633	11402.6
211.707	11471.38
211.781	11579.39
211.855	11635.54
211.929	11723.64
212.003	11800.75
212.077	11913.49
212.151	12021.51
212.225	12123.16
212.299	12203.52
212.373	12281.94
212.447	12376.32
212.52	12490.04
212.594	12591.7
212.668	12693.31
212.742	12760.99
212.816	12845.2
212.89	12930.09
212.964	13022.74
213.038	13112.55
213.112	13212.39
213.186	13317.57
213.26	13379.42
213.333	13415.86
213.407	13501.67
213.481	13586.32
213.555	13680.27
213.629	13740.77
213.703	13801.85
213.777	13883.08
213.85	13938.18
213.924	14053.68
213.998	14133.89
214.072	14203.02
214.146	14259.61
214.219	14337.12
214.293	14411.79
214.367	14496.83
214.441	14582.87
214.515	14634.45
214.588	14690.75
214.662	14727.58
214.736	14773.57
214.81	14840.62
214.883	14918.95
214.957	14972.03
215.031	15021.15
215.105	15070.94
215.178	15125.99
215.252	15187.69
215.326	15234.64
215.4	15285.11
215.473	15296.05
215.547	15338.61
215.621	15384.88
215.694	15462.44
215.768	15495.31
215.842	15536.14
215.915	15571.37
215.989	15606.08
216.063	15653.36
216.136	15705.22
216.21	15755.35
216.284	15824.08
216.357	15889.11
216.431	15939.52
216.504	16000.16
216.578	16086.38
216.652	16148.8
216.725	16206.35
216.799	16269.2
216.873	16312.29
216.946	16381.26
217.02	16439.05
217.093	16483
217.167	16510.14
217.24	16537.27
217.314	16589.18
217.387	16641.33
217.461	16693.67
217.535	16758.49
217.608	16798.26
217.682	16845.1
217.755	16905.15
217.829	16944.77
217.902	16991.52
217.976	17041.11
218.049	17089.4
218.123	17120.87
218.196	17171.18
218.27	17209.5
218.343	17240.58
218.417	17294.27
218.49	17333.11
218.563	17390.27
218.637	17444.44
218.71	17515.81
218.784	17557.45
218.857	17615.86
218.931	17663.91
219.004	17709.88
219.077	17765.21
219.151	17831.18
219.224	17875.76
219.298	17915.85
219.371	17968.38
219.444	18000
219.518	18044.04
219.591	18083.56
219.665	18154.59
219.738	18199.51
219.811	18238.73
219.885	18297.62
219.958	18346.63
220.031	18397.38
220.105	18441.42
220.178	18490.91
220.251	18522.96
220.325	18581.17
220.398	18617.12
220.471	18669.75
220.544	18726.9
220.618	18754.46
220.691	18797.21
220.764	18832.53
220.838	18889.44
220.911	18921.68
220.984	18991.85
221.057	19043.46
221.131	19097.62
221.204	19106.01
221.277	19169.04
221.35	19243.3
221.424	19270.96
221.497	19314.29
221.57	19355.44
221.643	19402.23
221.716	19441.03
221.79	19482.47
221.863	19520.11
221.936	19559.48
222.009	19594.08
222.082	19632.1
222.155	19660.58
222.229	19699.42
222.302	19751.51
222.375	19779.32
222.448	19820.72
222.521	19845.05
222.594	19869.39
222.667	19881.2
222.74	19932.18
222.814	19959.12
222.887	19977.1
222.96	20021.24
223.033	20065.96
223.106	20088.66
223.179	20110.2
223.252	20137.53
223.325	20172.42
223.398	20196.37
223.471	20230.05
223.544	20251.64
223.617	20277.91
223.69	20312.61
223.763	20331.79
223.837	20355.79
223.91	20386.77
223.983	20384.12
224.056	20399.35
224.129	20426.97
224.202	20471.54
224.275	20478.48
224.348	20479.98
224.42	20489.86
224.493	20496.7
224.566	20505.47
224.639	20530.39
224.712	20552.94
224.785	20569.14
224.858	20576.94
224.931	20583.5
225.004	20592.46
225.077	20609.52
225.15	20598.73
225.223	20603.16
225.296	20638.83
225.369	20628.66
225.442	20630.39
225.514	20660.9
225.587	20669.67
225.66	20681.62
225.733	20685.77
225.806	20706.34
225.879	20722.44
225.952	20731.98
226.025	20750.78
226.097	20776.08
226.17	20784.47
226.243	20770.97
226.316	20778.93
226.389	20789.14
226.461	20815.31
226.534	20824.95
226.607	20842.78
226.68	20877.48
226.753	20899.56
226.825	20889.34
226.898	20919.41
226.971	20927.46
227.044	20936.57
227.117	20946.84
227.189	20965.44
227.262	20989.73
227.335	20992.19
227.407	20990.41
227.48	20997.73
227.553	21005.88
227.626	21002.74
227.698	21004.38
227.771	21014.31
227.844	21004.57
227.916	21014.07
227.989	21004.53
228.062	21000.14
228.134	21019.28
228.207	21012.38
228.28	20997.88
228.352	20993.88
228.425	20991.51
228.498	21004.24
228.57	20997.01
228.643	21011.37
228.716	21009.01
228.788	20997.54
228.861	20988.62
228.934	21007.03
229.006	21004.14
229.079	20996.96
229.151	20989.63
229.224	20972.43
229.296	20980.38
229.369	21018.26
229.442	21035.52
229.514	21017.01
229.587	21031.76
229.659	21014.36
229.732	21021.25
229.804	21033.54
229.877	21052.24
229.949	21067.09
230.022	21088.2
230.094	21087.48
230.167	21093.93
230.239	21084.05
230.312	21074.46
230.384	21099.86
230.457	21094.13
230.529	21104.44
230.602	21103.28
230.674	21096.3
230.747	21115.33
230.819	21118.47
230.892	21080.82
230.964	21076.73
231.037	21086.8
231.109	21082.65
231.181	21086.8
231.254	21054.51
231.326	21042.56
231.399	21032
231.471	21018.55
231.544	20982.21
231.616	20981.2
231.688	20957.78
231.761	20938.6
231.833	20933.34
231.905	20893.48
231.978	20885.92
232.05	20856.42
232.122	20844.28
232.195	20834.25
232.267	20833.63
232.339	20810.88
232.412	20820.61
232.484	20790.06
232.556	20771.41
232.629	20767.99
232.701	20750.06
232.773	20755.79
232.846	20745.38
232.918	20739.16
232.99	20725.48
233.062	20723.79
233.135	20722.49
233.207	20705.33
233.279	20698.25
233.351	20688.22
233.424	20669.81
233.496	20638.87
233.568	20656.95
233.64	20637.77
233.713	20619.84
233.785	20601.14
233.857	20600.46
233.929	20560.27
234.001	20567.69
234.074	20565.96
234.146	20530.78
234.218	20521.19
234.29	20496.61
234.362	20472.75
234.434	20432.12
234.507	20394.49
234.579	20351.45
234.651	20321.23
234.723	20310.49
234.795	20299.21
234.867	20280.13
234.939	20282.49
235.012	20271.64
235.084	20249.14
235.156	20229.72
235.228	20208.17
235.3	20175.69
235.372	20148.03
235.444	20135.65
235.516	20092.42
235.588	20075.98
235.66	20061.48
235.732	20027.89
235.804	20063.98
235.876	20035.75
235.948	20025.72
236.02	20002.93
236.092	19984.42
236.164	19955.89
236.236	19924.47
236.308	19892.67
236.38	19868.72
236.452	19837.83
236.524	19808.48
236.596	19795.27
236.668	19775.13
236.74	19741.73
236.812	19716.72
236.884	19699.9
236.956	19678.41
237.028	19638.03
237.1	19595.91
237.172	19588.92
237.244	19576.59
237.316	19508.83
237.388	19483
237.46	19448.3
237.532	19433.94
237.604	19394.52
237.675	19384.84
237.747	19362.76
237.819	19325.85
237.891	19297.66
237.963	19253.37
238.035	19223.83
238.107	19160.46
238.178	19145.57
238.25	19115.98
238.322	19118.01
238.394	19067.41
238.466	19036.57
238.538	19010.02
238.609	18989.05
238.681	18927.76
238.753	18880.1
238.825	18844.1
238.897	18820.15
238.968	18810.99
239.04	18774.56
239.112	18772.54
239.184	18727.43
239.255	18696.11
239.327	18662.13
239.399	18623.58
239.471	18611.49
239.542	18590.91
239.614	18572.93
239.686	18513.95
239.758	18483.73
239.829	18433.13
239.901	18416.85
239.973	18386.44
240.044	18358.44
240.116	18321.28
240.188	18292.42
240.259	18260.18
240.331	18220.95
240.403	18200.95
240.474	18145.68
240.546	18105.34
240.618	18054.07
240.689	18019.71
240.761	17983.66
240.833	17980.82
240.904	17948.96
240.976	17906.6
241.048	17870.94
241.119	17851.38
241.191	17833.64
241.262	17831.52
241.334	17795.38
241.405	17761.98
241.477	17714.7
241.549	17680.1
241.62	17649.5
241.692	17628.05
241.763	17610.56
241.835	17576.83
241.906	17532.44
241.978	17485.4
242.049	17466.85
242.121	17451.04
242.192	17432.2
242.264	17394.9
242.335	17336.44
242.407	17312.82
242.478	17273.55
242.55	17235.76
242.621	17182.12
242.693	17138.99
242.764	17099.62
242.836	17062.07
242.907	17032.44
242.979	17012.63
243.05	16983.81
243.122	16956.58
243.193	16920.14
243.264	16860.86
243.336	16829.68
243.407	16810.98
243.479	16797.29
243.55	16765.29
243.622	16733.96
243.693	16697.38
243.764	16677.53
243.836	16632.41
243.907	16594.97
243.978	16565.37
244.05	16538.58
244.121	16487.54
244.192	16466.38
244.264	16416.11
244.335	16386.52
244.407	16332.87
244.478	16304.29
244.549	16274.07
244.62	16229.63
244.692	16203.7
244.763	16192.42
244.834	16157.05
244.906	16111.5
244.977	16089.71
245.048	16072.27
245.119	16032.6
245.191	15989.17
245.262	15939.19
245.333	15932.06
245.405	15904.15
245.476	15874.31
245.547	15848.24
245.618	15828.62
245.689	15800.13
245.761	15769.53
245.832	15732.12
245.903	15712.65
245.974	15680.16
246.045	15646.52
246.117	15636.21
246.188	15580.1
246.259	15525.2
246.33	15491.75
246.401	15455.26
246.473	15404.98
246.544	15366.52
246.615	15335.33
246.686	15302.46
246.757	15279.61
246.828	15232.37
246.899	15214.44
246.97	15164.7
247.042	15123.87
247.113	15102.8
247.184	15085.89
247.255	15044.53
247.326	15021.58
247.397	14986.39
247.468	14955.83
247.539	14923.44
247.61	14872.54
247.681	14859.62
247.752	14850.99
247.823	14816.43
247.894	14794.98
247.965	14755.55
248.037	14713.22
248.108	14670.22
248.179	14645.06
248.25	14612.52
248.321	14593.87
248.392	14545.71
248.463	14551.02
248.534	14517.42
248.605	14499.1
248.675	14469.65
248.746	14448.68
248.817	14426.6
248.888	14408.47
248.959	14362.24
249.03	14344.51
249.101	14322.76
249.172	14287
249.243	14229.68
249.314	14214.88
249.385	14187.35
249.456	14170.39
249.527	14144.11
249.598	14132.4
249.669	14098.66
249.739	14081.93
249.81	14057.78
249.881	14019.69
249.952	13983.54
250.023	13966.04
250.094	13917.26
250.165	13874.93
250.235	13855.7
250.306	13827.35
250.377	13785.36
250.448	13764.35
250.519	13716.09
250.59	13694.59
250.66	13665.28
250.731	13667.31
250.802	13643.78
250.873	13629.8
250.944	13606.52
251.014	13581.74
251.085	13579.14
251.156	13564.58
251.227	13544.19
251.297	13535.07
251.368	13524.28
251.439	13512.61
251.51	13493.52
251.58	13469.66
251.651	13444.35
251.722	13429.5
251.792	13386.07
251.863	13363.12
251.934	13359.89
252.005	13363.36
252.075	13343.31
252.146	13332.37
252.217	13312.6
252.287	13293.13
252.358	13262.08
252.429	13253.4
252.499	13215.75
252.57	13189.48
252.641	13172.47
252.711	13146.63
252.782	13103.24
252.852	13096.44
252.923	13070.75
252.994	13047.71
253.064	13035.27
253.135	13005.09
253.205	12973.04
253.276	12973.52
253.347	12964.17
253.417	12927.19
253.488	12901.5
253.558	12875.95
253.629	12852.81
253.699	12837.19
253.77	12823.02
253.841	12795.2
253.911	12779.73
253.982	12766.81
254.052	12741.17
254.123	12724.49
254.193	12713.88
254.264	12734.27
254.334	12702.94
254.405	12669.92
254.475	12643.26
254.546	12622.34
254.616	12611.59
254.687	12598.38
254.757	12580.6
254.827	12553.02
254.898	12540.59
254.968	12522.75
255.039	12489.78
255.109	12482.65
255.18	12453.43
255.25	12409.33
255.321	12391.4
255.391	12352.3
255.461	12359.58
255.532	12322.61
255.602	12299.95
255.673	12246.83
255.743	12213.48
255.813	12171.73
255.884	12167.78
255.954	12155.68
256.024	12153.22
256.095	12135.63
256.165	12099.24
256.235	12076.44
256.306	12057.83
256.376	12047.66
256.446	12022.6
256.517	12014.98
256.587	12005.15
256.657	11986.64
256.728	11973
256.798	11960.32
256.868	11947.16
256.938	11913.32
257.009	11902.38
257.079	11883.29
257.149	11895.15
257.219	11849.36
257.29	11840.83
257.36	11799.23
257.43	11791.71
257.5	11744.19
257.571	11719.85
257.641	11711.08
257.711	11688.47
257.781	11678.93
257.852	11665.29
257.922	11633.04
257.992	11615.79
258.062	11585.76
258.132	11573.76
258.202	11550.77
258.273	11534.24
258.343	11529.66
258.413	11504.6
258.483	11480.69
258.553	11450.57
258.623	11422.81
258.693	11410.81
258.764	11407.72
258.834	11402.57
258.904	11381.21
258.974	11356.45
259.044	11334.85
259.114	11319.34
259.184	11297.26
259.254	11271.77
259.324	11226.22
259.394	11220.88
259.464	11221.89
259.535	11203.67
259.605	11180.83
259.675	11152.3
259.745	11129.02
259.815	11095.14
259.885	11069.6
259.955	11089.12
260.025	11067.19
260.095	11048.45
260.165	11040.26
260.235	11038.86
260.305	11014.76
260.375	10982.33
260.445	10991.44
260.515	10991.29
260.585	10986.52
260.655	10972.45
260.725	10965.13
260.795	10963.39
260.865	10966.76
260.934	10941.13
261.004	10936.26
261.074	10921.66
261.144	10934.14
261.214	10938.23
261.284	10921.32
261.354	10916.26
261.424	10887.3
261.494	10889.51
261.564	10878
261.634	10869.8
261.703	10835.97
261.773	10829.81
261.843	10826
261.913	10806.15
261.983	10772.08
262.053	10763.26
262.123	10746.78
262.192	10721.44
262.262	10717.87
262.332	10677.64
262.402	10660.15
262.472	10637.4
262.541	10601.99
262.611	10593.99
262.681	10567.2
262.751	10565.42
262.821	10548.03
262.89	10517.52
262.96	10510.1
263.03	10515.74
263.1	10501.53
263.169	10482.16
263.239	10472.04
263.309	10471.03
263.379	10466.26
263.448	10455.56
263.518	10439.71
263.588	10428.44
263.657	10426.17
263.727	10416.87
263.797	10412.34
263.867	10402.37
263.936	10375.63
264.006	10373.22
264.076	10352.22
264.145	10337.77
264.215	10313.29
264.285	10304.76
264.354	10275.67
264.424	10247.82
264.494	10212.8
264.563	10194.97
264.633	10196.41
264.702	10184.23
264.772	10153.73
264.842	10135.62
264.911	10127.09
264.981	10101.03
265.05	10083.97
265.12	10069.57
265.19	10057.81
265.259	10053.53
265.329	10045.43
265.398	10035.12
265.468	10051.36
265.537	10032.28
265.607	10023.32
265.676	10019.76
265.746	10017.93
265.815	10015.57
265.885	10005.4
265.955	9988.59
266.024	9971.74
266.094	9942.21
266.163	9945.24
266.232	9945.82
266.302	9927.81
266.371	9915.72
266.441	9903.77
266.51	9900.93
266.58	9884.65
266.649	9864.75
266.719	9860.71
266.788	9848.18
266.858	9853.19
266.927	9809.7
266.996	9800.5
267.066	9795.25
267.135	9767.36
267.205	9759.85
267.274	9743.76
267.343	9750.31
267.413	9732.4
267.482	9736.11
267.552	9740.15
267.621	9706.34
267.69	9673.64
267.76	9669.93
267.829	9663.67
267.898	9649.66
267.968	9629.43
268.037	9623.51
268.106	9614.16
268.176	9585.55
268.245	9580.01
268.314	9562.92
268.384	9568.55
268.453	9560.12
268.522	9542.83
268.592	9544.9
268.661	9519.09
268.73	9517.21
268.799	9488.56
268.869	9501.17
268.938	9470.35
269.007	9451.57
269.076	9443.29
269.146	9446.32
269.215	9432.89
269.284	9434.81
269.353	9424.99
269.422	9407.8
269.492	9393.21
269.561	9356.42
269.63	9355.12
269.699	9336.82
269.768	9326.18
269.838	9316.6
269.907	9310.82
269.976	9285.06
270.045	9251.75
270.114	9252.42
270.183	9237.01
270.253	9233.5
270.322	9204.22
270.391	9193.2
270.46	9195.08
270.529	9195.32
270.598	9192.57
270.667	9181.98
270.736	9163.01
270.806	9155.3
270.875	9164.55
270.944	9152.66
271.013	9175.14
271.082	9165.61
271.151	9161.13
271.22	9130.41
271.289	9115.58
271.358	9102.25
271.427	9100.42
271.496	9099.41
271.565	9085.4
271.634	9084.24
271.703	9110.87
271.772	9112.36
271.841	9100.33
271.91	9073.66
271.979	9062.15
272.048	9036.78
272.117	9035.48
272.186	9015.84
272.255	9018.82
272.324	9015.07
272.393	9012.85
272.462	8998.65
272.531	8992.05
272.6	8973.18
272.669	8985.89
272.738	8980.21
272.807	8972.8
272.876	8952.68
272.945	8978
273.013	8980.5
273.082	8978.48
273.151	8928.84
273.22	8925.13
273.289	8923.06
273.358	8938.32
273.427	8931.92
273.496	8932.55
273.564	8931.06
273.633	8933.75
273.702	8910.16
273.771	8895.19
273.84	8885.9
273.909	8882.05
273.977	8881.23
274.046	8873.15
274.115	8874.98
274.184	8856.54
274.253	8850.96
274.322	8860.39
274.39	8829.97
274.459	8812.11
274.528	8779.96
274.597	8779.86
274.665	8780.97
274.734	8785.35
274.803	8769.8
274.872	8759.4
274.94	8746.65
275.009	8803.43
275.078	8790.24
275.147	8789.9
275.215	8779.07
275.284	8787.98
275.353	8770.65
275.421	8744.71
275.49	8760.98
275.559	8748.99
275.627	8747.02
275.696	8739.94
275.765	8747.07
275.833	8740.19
275.902	8741.87
275.971	8759.1
276.039	8766.94
276.108	8763.86
276.177	8760.49
276.245	8754.38
276.314	8750.58
276.383	8760.25
276.451	8695.24
276.52	8696.88
276.588	8709.1
276.657	8719.26
276.725	8703.62
276.794	8713.24
276.863	8718.44
276.931	8692.26
277	8700.2
277.068	8705.73
277.137	8728.02
277.205	8720.41
277.274	8740.2
277.342	8741.5
277.411	8719.6
277.48	8709.2
277.548	8697.89
277.617	8695.25
277.685	8692.41
277.754	8698.52
277.822	8689.28
277.89	8699.82
277.959	8700.11
278.027	8677.58
278.096	8664.45
278.164	8696.79
278.233	8685.77
278.301	8685.96
278.37	8695.49
278.438	8678.5
278.507	8680.09
278.575	8647.46
278.643	8645.1
278.712	8621.71
278.78	8612.23
278.849	8623.73
278.917	8632.68
278.985	8631.81
279.054	8636.44
279.122	8641.15
279.191	8631
279.259	8626.28
279.327	8599.42
279.396	8614.25
279.464	8613.57
279.532	8620.7
279.601	8617.66
279.669	8613.77
279.737	8620.07
279.806	8625.08
279.874	8632.92
279.942	8630.85
280.011	8629.26
280.079	8631.86
280.147	8648.51
280.215	8651.93
280.284	8647.07
280.352	8630.37
280.42	8635.71
280.488	8627.72
280.557	8622.86
280.625	8632.1
280.693	8626.91
280.761	8633.84
280.83	8616.32
280.898	8625.51
280.966	8608.23
281.034	8569.77
281.102	8558.42
281.171	8549.37
281.239	8553.56
281.307	8547.93
281.375	8537.44
281.443	8564.24
281.512	8562.9
281.58	8563.28
281.648	8547.69
281.716	8550.1
281.784	8556.83
281.852	8550.24
281.92	8547.35
281.989	8553.08
282.057	8536.77
282.125	8585.91
282.193	8580.81
282.261	8577.88
282.329	8576.34
282.397	8587.26
282.465	8589.38
282.533	8599
282.601	8594.43
282.67	8572.53
282.738	8563.1
282.806	8577.97
282.874	8560.21
282.942	8562.81
283.01	8562.47
283.078	8569.45
283.146	8563.91
283.214	8569.35
283.282	8573.49
283.35	8588.6
283.418	8583.84
283.486	8587.69
283.554	8543.16
283.622	8547.83
283.69	8551.49
283.758	8545.37
283.826	8542.68
283.894	8553.7
283.962	8578.25
284.03	8582.38
284.098	8583.73
284.165	8577.77
284.233	8574.64
284.301	8567.85
284.369	8558.66
284.437	8552.69
284.505	8547.21
284.573	8564.05
284.641	8550.05
284.709	8555
284.777	8535.75
284.845	8543.4
284.912	8544.37
284.98	8549.56
285.048	8538.83
285.116	8541.09
285.184	8555.24
285.252	8557.02
285.319	8544.9
285.387	8534.36
285.455	8523.43
285.523	8530.7
285.591	8531.23
285.659	8534.31
285.726	8551.01
285.794	8536.57
285.862	8533.01
285.93	8534.21
285.997	8530.27
286.065	8527.33
286.133	8511.35
286.201	8507.89
286.269	8496.29
286.336	8490.37
286.404	8481.66
286.472	8498.51
286.539	8471.66
286.607	8450.29
286.675	8446.3
286.743	8453.23
286.81	8447.93
286.878	8459.87
286.946	8450.19
287.013	8447.98
287.081	8443.89
287.149	8429.45
287.216	8449.71
287.284	8444.51
287.352	8448.27
287.419	8447.26
287.487	8461.26
287.555	8472.91
287.622	8471.41
287.69	8472.47
287.758	8485.56
287.825	8481.42
287.893	8463.23
287.96	8476.27
288.028	8487.29
288.096	8492.39
288.163	8497.35
288.231	8488.44
288.298	8487.34
288.366	8499.56
288.433	8497.64
288.501	8489.46
288.569	8491.38
288.636	8488.69
288.704	8508.51
288.771	8515.4
288.839	8501.73
288.906	8491.58
288.974	8497.69
289.041	8498.12
289.109	8485.23
289.176	8489.7
289.244	8496.58
289.311	8510.59
289.379	8520.74
289.446	8522.52
289.514	8522.9
289.581	8522.86
289.649	8521.41
289.716	8526.27
289.783	8520.55
289.851	8545.57
289.918	8548.46
289.986	8558.51
290.053	8557.46
290.121	8548.26
290.188	8549.66
290.255	8578.97
290.323	8575.69
290.39	8569.63
290.458	8579.25
290.525	8597.68
290.592	8593.21
290.66	8596.14
290.727	8589.55
290.794	8599.37
290.862	8603.41
290.929	8607.21
290.996	8603.17
291.064	8613.37
291.131	8626.47
291.198	8639.36
291.266	8638.02
291.333	8637.97
291.4	8642.16
291.468	8661.99
291.535	8656.64
291.602	8660.01
291.669	8651.97
291.737	8657.89
291.804	8659.53
291.871	8676.18
291.938	8683.74
292.006	8709.49
292.073	8724.46
292.14	8734.76
292.207	8726.67
292.275	8730.09
292.342	8738.76
292.409	8766.19
292.476	8784.92
292.543	8779
292.611	8776.25
292.678	8793.15
292.745	8818.66
292.812	8828.96
292.879	8828.04
292.946	8832.13
293.014	8847.73
293.081	8855.86
293.148	8871.03
293.215	8886.67
293.282	8874.49
293.349	8885.56
293.416	8869.53
293.484	8881.33
293.551	8896.59
293.618	8922.15
293.685	8946.65
293.752	8941.84
293.819	8941.84
293.886	8932.21
293.953	8933.17
294.02	8948
294.087	8953.63
294.154	8945.78
294.221	8962.39
294.288	8961.29
294.356	8984.44
294.423	8984.68
294.49	8977.75
294.557	8999.22
294.624	8991.28
294.691	9016.74
294.758	9021.12
294.825	9027.19
294.892	9013.86
294.959	9017.76
295.026	9020.45
295.093	9013.18
295.16	9012.84
295.226	9012.31
295.293	9037.88
295.36	9047.27
295.427	9054.68
295.494	9066.38
295.561	9081.79
295.628	9103.6
295.695	9118.77
295.762	9122.23
295.829	9133.79
295.896	9155.36
295.963	9156.42
296.03	9167.63
296.096	9167.87
296.163	9176.73
296.23	9190.02
296.297	9207.78
296.364	9197.43
296.431	9200.71
296.498	9196.47
296.564	9220.01
296.631	9221.6
296.698	9207.06
296.765	9225.93
296.832	9220.35
296.899	9202.24
296.965	9215.34
297.032	9191.41
297.099	9206.14
297.166	9213.94
297.233	9209.03
297.299	9196.03
297.366	9201.23
297.433	9197.81
297.5	9213.85
297.566	9210.53
297.633	9216.35
297.7	9220.98
297.767	9224.92
297.833	9238.12
297.9	9246.49
297.967	9233.4
298.033	9246.83
298.1	9276.4
298.167	9264.36
298.234	9267.92
298.3	9283.33
298.367	9281.74
298.434	9288.53
298.5	9281.31
298.567	9274.09
298.634	9272.83
298.7	9294.74
298.767	9292.62
298.834	9312.89
298.9	9307.69
298.967	9297.24
299.033	9308.03
299.1	9323.63
299.167	9341.74
299.233	9334.56
299.3	9343.33
299.366	9369.47
299.433	9387.48
299.5	9361.19
299.566	9368.99
299.633	9383.92
299.699	9396.73
299.766	9397.02
299.832	9406.84
299.899	9411.41
299.965	9424.61
300.032	9426.58
300.099	9431.11
300.165	9442.23
300.232	9432.51
300.298	9434.48
300.365	9453.74
300.431	9451.86
300.498	9441.51
300.564	9447
300.631	9456.48
300.697	9471.46
300.763	9463.42
300.83	9457.06
300.896	9472.81
300.963	9485.04
301.029	9493.47
301.096	9496.6
301.162	9504.74
301.229	9495.3
301.295	9486.05
301.361	9490.67
301.428	9500.26
301.494	9489.57
301.561	9489.76
301.627	9497.37
301.693	9489.33
301.76	9495.92
301.826	9486.82
301.892	9499.63
301.959	9507
302.025	9504.69
302.092	9498.43
302.158	9503.05
302.224	9502.76
302.291	9496.45
302.357	9493.23
302.423	9484.61
302.49	9469.44
302.556	9481.19
302.622	9482.15
302.688	9497.03
302.755	9510.42
302.821	9513.17
302.887	9518.27
302.954	9515.43
303.02	9521.88
303.086	9535.27
303.152	9531.17
303.219	9529.59
303.285	9537.05
303.351	9542.93
303.417	9545.33
303.483	9537.87
303.55	9530.89
303.616	9530.12
303.682	9526.99
303.748	9521.64
303.815	9541.2
303.881	9556.65
303.947	9544.08
304.013	9542.98
304.079	9530.84
304.145	9506.18
304.212	9503.39
304.278	9497.95
304.344	9494.19
304.41	9485.28
304.476	9474.16
304.542	9468.24
304.608	9474.79
304.674	9454.32
304.741	9446.42
304.807	9449.26
304.873	9452.97
304.939	9470.93
305.005	9449.36
305.071	9449.89
305.137	9447.62
305.203	9419.93
305.269	9418.34
305.335	9428.65
305.401	9427.45
305.467	9430.24
305.533	9442.42
305.599	9453.5
305.666	9461.44
305.732	9464.38
305.798	9474.93
305.864	9505.32
305.93	9510.95
305.996	9512.78
306.062	9512.2
306.128	9510.95
306.194	9502.09
306.259	9501.13
306.325	9493.23
306.391	9508.83
306.457	9519.62
306.523	9525.11
306.589	9552.61
306.655	9545.77
306.721	9529.63
306.787	9521.11
306.853	9530.74
306.919	9516.49
306.985	9511.96
307.051	9506.52
307.117	9494.82
307.183	9488.75
307.248	9456.97
307.314	9464.48
307.38	9462.65
307.446	9476.04
307.512	9462.02
307.578	9460.48
307.644	9459.09
307.709	9464.72
307.775	9461.64
307.841	9454.61
307.907	9458.17
307.973	9439.63
308.039	9438.86
308.104	9439.63
308.17	9439.82
308.236	9427.49
308.302	9425.71
308.368	9408.23
308.433	9409.24
308.499	9405.15
308.565	9396.92
308.631	9404.19
308.696	9378.23
308.762	9368.17
308.828	9362.49
308.894	9347.95
308.959	9328.69
309.025	9320.5
309.091	9307.64
309.156	9295.46
309.222	9300.76
309.288	9281.88
309.354	9260.17
309.419	9252.17
309.485	9242.59
309.551	9248.71
309.616	9235.9
309.682	9232.19
309.748	9228.05
309.813	9220.39
309.879	9211.44
309.945	9202.1
310.01	9193.05
310.076	9195.07
310.141	9192.85
310.207	9179.61
310.273	9183.17
310.338	9191.31
310.404	9171.04
310.469	9161.46
310.535	9154.09
310.601	9125.01
310.666	9134.74
310.732	9144.32
310.797	9134.16
310.863	9122.13
310.928	9109.37
310.994	9109.46
311.059	9108.4
311.125	9102.87
311.191	9119
311.256	9115.24
311.322	9117.89
311.387	9098.54
311.453	9482.02
311.518	9453.04
311.584	9448.56
311.649	9457.71
311.715	9445.77
311.78	9451.6
311.846	9441.15
311.911	9453.86
311.976	9462.38
312.042	9438.17
312.107	9416.79
312.173	9411.01
312.238	9411.93
312.304	9413.08
312.369	9406.25
312.434	9397.53
312.5	9390.79
312.565	9348.33
312.631	9352.95
312.696	9342.84
312.761	9345.92
312.827	8951.61
312.892	8990.56
312.958	8989.35
313.023	8983.38
313.088	8984.06
313.154	8965.14
313.219	8961.1
313.284	8945.26
313.35	8937.84
313.415	8931.25
313.48	8931.34
313.546	8932.11
313.611	8937.8
313.676	8924.75
313.741	8916.66
313.807	8921.48
313.872	8924.75
313.937	8936.16
314.003	8943.28
314.068	8948.82
314.133	8950.46
314.198	8946.27
314.264	8926.05
314.329	8914.64
314.394	8910.54
314.459	8904.09
314.525	8932.16
314.59	8923.83
314.655	8913.62
314.72	8921.76
314.785	8927.39
314.851	8921.23
314.916	8904.96
314.981	8887.2
315.046	8884.02
315.111	8871.85
315.176	8858.94
315.242	8861.11
315.307	8863.95
315.372	8838.92
315.437	8820.29
315.502	8810.62
315.567	8818.94
315.632	8802.14
315.698	8802.82
315.763	8790.59
315.828	8780.82
315.893	8771.72
315.958	8769.46
316.023	8764.07
316.088	8745.1
316.153	8723.35
316.218	8719.21
316.283	8704.01
316.348	8686.92
316.413	8681.34
316.479	8668.64
316.544	8635.77
316.609	8598.23
316.674	8557.19
316.739	8529.57
316.804	8505.17
316.869	8473.51
316.934	8436.89
316.999	8411.48
317.064	8358.94
317.129	8319.77
317.194	8284.85
317.259	8234.51
317.324	8178.96
317.389	8135.76
317.454	8099.53
317.518	8068.7
317.583	8040.55
317.648	8020.97
317.713	7980.43
317.778	7918.23
317.843	7888.8
317.908	7855.57
317.973	7832.1
318.038	7807.62
318.103	7770.65
318.168	7742.27
318.233	7711.21
318.297	7658.89
318.362	7623.5
318.427	7590.76
318.492	7568.4
318.557	7525.43
318.622	7503.46
318.687	7490.24
318.751	7448.52
318.816	7411.46
318.881	7374.78
318.946	7320.23
319.011	7270.43
319.075	7235.01
319.14	7202.2
319.205	7159.14
319.27	7129.15
319.335	7082.4
319.399	7038.82
319.464	7014.17
319.529	6957.91
319.594	6919.09
319.658	6895.98
319.723	6849.91
319.788	6823.83
319.853	6766.86
319.917	6736.75
319.982	6679.16
320.047	6639.92
320.112	6617.3
320.176	6569.57
320.241	6542.82
320.306	6519.1
320.37	6482.61
320.435	6458.7
320.5	6434.12
320.564	6398.65
320.629	6355.06
320.694	6323.96
320.758	6280.86
320.823	6240.97
320.888	6218.32
320.952	6173.36
321.017	6126.95
321.082	6093.18
321.146	6054.93
321.211	6023.27
321.275	5982.69
321.34	5946.05
321.405	5905.65
321.469	5860.37
321.534	5821.39
321.598	5769.11
321.663	5737.06
321.727	5705.07
321.792	5652.47
321.857	5612.19
321.921	5573.97
321.986	5532.66
322.05	5474.47
322.115	5447.11
322.179	5394.29
322.244	5334.26
322.308	5299.37
322.373	5253.71
322.437	5212.94
322.502	5187
322.566	5146.81
322.631	5115.1
322.695	5073.09
322.76	5026.16
322.824	4993.59
322.889	4951.02
322.953	4905.88
323.018	4838.12
323.082	4771.87
323.146	4726.98
323.211	4672.74
323.275	4629.42
323.34	4584.97
323.404	4550.82
323.468	4501.95
323.533	4462.78
323.597	4425.57
323.662	4374.82
323.726	4341.15
323.79	4292.89
323.855	4226.1
323.919	4177.04
323.983	4130.98
324.048	4064.19
324.112	4217.24
324.177	4085.83
324.241	3875.43
324.305	3668.95
324.37	3466.82
324.434	3273.68
324.498	3226.29
324.562	3177.14
324.627	3115.11
324.691	3059.06
324.755	2995.57
324.82	2919.67
324.884	2843.03
324.948	2765.65
325.012	2672.77
325.077	2549.96
