Data from 20250703_urea_0.1M_MAYP1162681_21-31-04-761.txt Node
Date: Thu Jul 03 21:31:04 BST 2025
User: adleo
Spectrometer: MAYP116268
Trigger mode: 0
Integration Time (sec): 1.000000E0
Scans to average: 1
Electric dark correction enabled: true
Nonlinearity correction enabled: true
Boxcar width: 10
XAxis mode: Wavelengths
Number of Pixels in Spectrum: 2068
>>>>>Begin Spectral Data<<<<<
179.565	1398.67
179.642	1467.47
179.718	1519.99
179.795	1564.16
179.871	1604.9
179.948	1622.2
180.024	1645.69
180.101	1670.78
180.177	1690.35
180.254	1717.64
180.33	1742.53
180.407	1809.07
180.483	1916.74
180.56	2021.71
180.636	2119.72
180.712	2101.54
180.789	2112.34
180.865	2127.17
180.942	2137.26
181.018	2148.48
181.095	2163.33
181.171	2170.42
181.248	2168.71
181.324	2188.46
181.4	2199.07
181.477	2208.92
181.553	2226.43
181.63	2250.32
181.706	2269.49
181.782	2274.92
181.859	2273.39
181.935	2280.15
182.011	2276.92
182.088	2296.14
182.164	2315.62
182.24	2328.32
182.317	2341.31
182.393	2341.5
182.469	2358.68
182.546	2374.1
182.622	2379.15
182.698	2371.34
182.775	2381.43
182.851	2398.43
182.927	2385.52
183.003	2380.24
183.08	2373.05
183.156	2381.81
183.232	2375.62
183.308	2362.15
183.385	2373.34
183.461	2392.62
183.537	2391.05
183.613	2408.04
183.69	2399.04
183.766	2388.09
183.842	2396.8
183.918	2402.66
183.995	2415.61
184.071	2416.65
184.147	2408.99
184.223	2394.81
184.299	2408.62
184.375	2397.67
184.452	2404.1
184.528	2459.01
184.604	2470.29
184.68	2485.23
184.756	2494.62
184.832	2504.85
184.908	2511.56
184.985	2508.85
185.061	2489.05
185.137	2502.86
185.213	2488.05
185.289	2490.19
185.365	2483.62
185.441	2483
185.517	2493.15
185.593	2489.29
185.669	2487.39
185.745	2502.86
185.822	2524.28
185.898	2518.47
185.974	2529.46
186.05	2520.84
186.126	2484.27
186.202	2475.79
186.278	2469.18
186.354	2456.51
186.43	2462.18
186.506	2459.56
186.582	2460.37
186.658	2469.03
186.734	2444.75
186.81	2448.75
186.886	2449.51
186.962	2463.51
187.038	2460.42
187.114	2453.08
187.19	2459.99
187.266	2448.99
187.341	2446.37
187.417	2435.85
187.493	2435.71
187.569	2438.23
187.645	2431.8
187.721	2418.09
187.797	2426.7
187.873	2433.37
187.949	2428.71
188.025	2420.61
188.101	2424.22
188.176	2431.94
188.252	2427.42
188.328	2437.22
188.404	2435.36
188.48	2434.03
188.556	2426.12
188.632	2424.08
188.707	2425.08
188.783	2424.7
188.859	2419.61
188.935	2408.04
189.011	2419.89
189.086	2411.23
189.162	2401.56
189.238	2400.13
189.314	2397.23
189.39	2388.71
189.465	2378.52
189.541	2399.33
189.617	2381.76
189.693	2378.57
189.768	2380.29
189.844	2407.82
189.92	2400.68
189.996	2410.77
190.071	2421.34
190.147	2420.39
190.223	2429.77
190.298	2421.82
190.374	2402.63
190.45	2415.53
190.526	2427.91
190.601	2421.48
190.677	2422.86
190.753	2454.21
190.828	2456.49
190.904	2474.54
190.98	2492.92
191.055	2508.16
191.131	2495.54
191.207	2518.15
191.282	2525.25
191.358	2514.01
191.433	2497.62
191.509	2510.8
191.585	2507
191.66	2504.85
191.736	2513.14
191.811	2506.09
191.887	2528.14
191.963	2557.43
192.038	2564.43
192.114	2562.09
192.189	2565.38
192.265	2564.43
192.34	2537.46
192.416	2535.7
192.491	2531.94
192.567	2536.08
192.642	2536.99
192.718	2536.99
192.793	2525.18
192.869	2520.23
192.944	2522.8
193.02	2534.08
193.095	2540.04
193.171	2547.23
193.246	2547.89
193.322	2542.42
193.397	2542.7
193.473	2526.36
193.548	2507.07
193.624	2513.98
193.699	2512.27
193.775	2531.8
193.85	2530.61
193.925	2542.61
194.001	2544.66
194.076	2535.47
194.152	2520.18
194.227	2510.6
194.302	2502.32
194.378	2508.08
194.453	2505.89
194.529	2518.47
194.604	2502.03
194.679	2493.56
194.755	2471.19
194.83	2488.86
194.905	2488.05
194.981	2497.48
195.056	2490.06
195.131	2496.29
195.207	2494.34
195.282	2486.01
195.357	2462.43
195.433	2480.71
195.508	2467.61
195.583	2474.28
195.659	2490.33
195.734	2502.67
195.809	2503.43
195.884	2509.66
195.96	2506.9
196.035	2524
196.11	2523.42
196.185	2533.66
196.261	2537.33
196.336	2574.28
196.411	2555.89
196.486	2560.03
196.561	2554.98
196.637	2560.22
196.712	2576.7
196.787	2577.32
196.862	2594.18
196.937	2608.47
197.013	2613.52
197.088	2625.66
197.163	2650.44
197.238	2668.23
197.313	2663.6
197.388	2679.42
197.464	2717.35
197.539	2728.74
197.614	2724.64
197.689	2738.08
197.764	2760.81
197.839	2782.82
197.914	2775.39
197.989	2800.41
198.065	2817.41
198.14	2873.26
198.215	2904.24
198.29	2917.87
198.365	2933.79
198.44	2944.99
198.515	2973.55
198.59	2992.53
198.665	3020.89
198.74	3031.77
198.815	3033.58
198.89	3060.61
198.965	3096.58
199.04	3091.66
199.115	3112.26
199.19	3157.42
199.265	3162.61
199.34	3168.29
199.415	3208.23
199.49	3231.07
199.565	3244.95
199.64	3271.71
199.715	3267.13
199.79	3274.42
199.865	3278.57
199.94	3276.29
200.015	3310.35
200.09	3317.18
200.165	3322.33
200.24	3331.97
200.315	3373.09
200.39	3390.89
200.464	3400.1
200.539	3395.66
200.614	3414.8
200.689	3443.58
200.764	3450.6
200.839	3468.1
200.914	3477.5
200.989	3465.71
201.063	3483.03
201.138	3463.53
201.213	3466.77
201.288	3444.44
201.363	3450.12
201.438	3456.94
201.512	3474.78
201.587	3454.25
201.662	3457.26
201.737	3471.87
201.812	3479.51
201.886	3447.31
201.961	3459.1
202.036	3445.08
202.111	3447.42
202.186	3417.37
202.26	3395.69
202.335	3374.59
202.41	3367.34
202.485	3346.5
202.559	3324.74
202.634	3297.82
202.709	3309.08
202.784	3289.56
202.858	3293.57
202.933	3276.59
203.008	3272.05
203.082	3254.5
203.157	3262.56
203.232	3223.03
203.306	3208.61
203.381	3183.04
203.456	3161.04
203.53	3142.85
203.605	3130.98
203.68	3113.75
203.754	3115.71
203.829	3110.46
203.904	3098.77
203.978	3101.3
204.053	3123.2
204.127	3126.77
204.202	3143.85
204.277	3142.42
204.351	3158.79
204.426	3175.11
204.5	3192.95
204.575	3182.03
204.65	3224.32
204.724	3243.61
204.799	3279.75
204.873	3303.38
204.948	3334.26
205.022	3359.41
205.097	3389.12
205.171	3446.06
205.246	3499.12
205.32	3544.79
205.395	3594.99
205.469	3636.85
205.544	3695
205.618	3732.12
205.693	3800.2
205.767	3843.58
205.842	3930.96
205.916	3983.58
205.991	4037.17
206.065	4113.95
206.14	4202.61
206.214	4270.84
206.289	4343.19
206.363	4437.04
206.438	4527.31
206.512	4619.69
206.586	4727.51
206.661	4824.21
206.735	4892.37
206.81	4987.72
206.884	5100.56
206.958	5186.21
207.033	5308.6
207.107	5421.61
207.181	5562.77
207.256	5663.93
207.33	5795.07
207.405	5923.36
207.479	6065.55
207.553	6187.92
207.628	6287.29
207.702	6415.71
207.776	6527.04
207.851	6649
207.925	6791.33
207.999	6913.44
208.073	7036.85
208.148	7170.2
208.222	7287.18
208.296	7454.68
208.371	7606.59
208.445	7753.92
208.519	7921.3
208.593	8071.45
208.668	8205.77
208.742	8346.68
208.816	8487.57
208.89	8646.24
208.965	8782.67
209.039	8926.41
209.113	9091.75
209.187	9255.15
209.261	9395.48
209.336	9566.46
209.41	9731.1
209.484	9867.11
209.558	10032.46
209.632	10187.41
209.707	10341.41
209.781	10510.35
209.855	10669.97
209.929	10832.32
210.003	10978.51
210.077	11119.12
210.151	11303.17
210.226	11477.15
210.3	11644.54
210.374	11810.7
210.448	11951.54
210.522	12100.71
210.596	12242.66
210.67	12384.18
210.744	12575.49
210.818	12744.05
210.892	12896.13
210.966	13018.37
211.041	13177.49
211.115	13314.59
211.189	13481.09
211.263	13633.37
211.337	13768.63
211.411	13907.7
211.485	14024.55
211.559	14164.78
211.633	14290.12
211.707	14383.39
211.781	14524.29
211.855	14609.28
211.929	14721.16
212.003	14822.87
212.077	14951.38
212.151	15096.09
212.225	15230.91
212.299	15337.38
212.373	15443.96
212.447	15561.95
212.52	15716.82
212.594	15835.25
212.668	15949.77
212.742	16039.52
212.816	16145.94
212.89	16248.46
212.964	16355.55
213.038	16466.26
213.112	16593.69
213.186	16716.54
213.26	16808.98
213.333	16859.35
213.407	16970.83
213.481	17081.63
213.555	17197.88
213.629	17290.46
213.703	17371.42
213.777	17466.36
213.85	17532.91
213.924	17670.65
213.998	17763.32
214.072	17853.39
214.146	17931.94
214.219	18028.71
214.293	18121.33
214.367	18211.4
214.441	18316.99
214.515	18397.08
214.588	18462.09
214.662	18508.74
214.736	18576.98
214.81	18665.41
214.883	18755.52
214.957	18819.66
215.031	18886.46
215.105	18931.18
215.178	18989.49
215.252	19052.66
215.326	19100.61
215.4	19159.98
215.473	19175.84
215.547	19221.91
215.621	19277.66
215.694	19355.06
215.768	19392.02
215.842	19444.79
215.915	19489.27
215.989	19517.17
216.063	19562.85
216.136	19628.05
216.21	19687.42
216.284	19757.49
216.357	19814.02
216.431	19871.42
216.504	19953.25
216.578	20040.19
216.652	20121.29
216.725	20172.47
216.799	20235.12
216.873	20289.87
216.946	20354.06
217.02	20399.45
217.093	20452.61
217.167	20473.57
217.24	20496.13
217.314	20546.15
217.387	20583.4
217.461	20630.06
217.535	20696.27
217.608	20726.73
217.682	20773.92
217.755	20829.58
217.829	20865.1
217.902	20915.32
217.976	20956.05
218.049	20979.85
218.123	20998.7
218.196	21044.54
218.27	21093.74
218.343	21120.78
218.417	21168.79
218.49	21211.44
218.563	21279.69
218.637	21319.36
218.71	21384.86
218.784	21436.58
218.857	21489.74
218.931	21539.96
219.004	21584.55
219.077	21627.64
219.151	21686.97
219.224	21732.38
219.298	21780.68
219.371	21835.3
219.444	21870
219.518	21917.77
219.591	21962.31
219.665	22026.57
219.738	22069.76
219.811	22093.96
219.885	22155.37
219.958	22197.02
220.031	22226.62
220.105	22258.1
220.178	22309.92
220.251	22340.05
220.325	22389.95
220.398	22431.6
220.471	22479.04
220.544	22519.2
220.618	22546.39
220.691	22589.39
220.764	22611.81
220.838	22647.15
220.911	22659.68
220.984	22706.88
221.057	22745.16
221.131	22778.62
221.204	22783.25
221.277	22828.28
221.35	22891.93
221.424	22906.3
221.497	22941.01
221.57	22966.76
221.643	23002.82
221.716	23026.54
221.79	23048.58
221.863	23071.82
221.936	23093.47
222.009	23112.47
222.082	23143.52
222.155	23169.27
222.229	23207.89
222.302	23243.05
222.375	23252.74
222.448	23287.41
222.521	23305.83
222.594	23316.05
222.667	23321.06
222.74	23351.93
222.814	23366.78
222.887	23373.63
222.96	23399.04
223.033	23416.64
223.106	23447.84
223.179	23469.3
223.252	23483.33
223.325	23505.18
223.398	23525.24
223.471	23538.26
223.544	23553.88
223.617	23557.11
223.69	23570.28
223.763	23565.26
223.837	23571.24
223.91	23586.58
223.983	23575.2
224.056	23565.99
224.129	23576.21
224.202	23596.8
224.275	23588.17
224.348	23580.4
224.42	23567.87
224.493	23566.71
224.566	23571.19
224.639	23580.89
224.712	23567.53
224.785	23570.13
224.858	23564.73
224.931	23548.29
225.004	23534.49
225.077	23536.42
225.15	23518.97
225.223	23516.56
225.296	23544.05
225.369	23541.11
225.442	23530.69
225.514	23537.97
225.587	23543.37
225.66	23548.53
225.733	23552.63
225.806	23560.44
225.879	23551.81
225.952	23533.83
226.025	23524.18
226.097	23531.37
226.17	23519.65
226.243	23500.89
226.316	23487.48
226.389	23487.19
226.461	23496.4
226.534	23506.53
226.607	23492.45
226.68	23509.71
226.753	23509.96
226.825	23477.01
226.898	23474.51
226.971	23470.17
227.044	23469.39
227.117	23463.32
227.189	23453.72
227.262	23454.2
227.335	23449.77
227.407	23433.13
227.48	23450.64
227.553	23454.16
227.626	23430.09
227.698	23415.09
227.771	23414.13
227.844	23392.58
227.916	23380.33
227.989	23349.56
228.062	23327.86
228.134	23340.3
228.207	23330.51
228.28	23311.32
228.352	23301.82
228.425	23279.11
228.498	23274.63
228.57	23249.65
228.643	23255.92
228.716	23245.26
228.788	23214.06
228.861	23197.33
228.934	23195.69
229.006	23168.59
229.079	23155.77
229.151	23148.63
229.224	23115.79
229.296	23106.73
229.369	23135.61
229.442	23139.38
229.514	23121.83
229.587	23128.19
229.659	23096.37
229.732	23080.16
229.804	23079.25
229.877	23086.48
229.949	23096.65
230.022	23094.77
230.094	23080.84
230.167	23058.71
230.239	23027.27
230.312	23018.06
230.384	23024.48
230.457	23021.82
230.529	23015.32
230.602	22998.82
230.674	22987.3
230.747	23002.87
230.819	22997.23
230.892	22945.69
230.964	22933.83
231.037	22915.6
231.109	22884.84
231.181	22872.26
231.254	22841.16
231.326	22809.05
231.399	22778.34
231.471	22739.96
231.544	22697.96
231.616	22688.61
231.688	22678.58
231.761	22663.44
231.833	22644.01
231.905	22606.07
231.978	22579.17
232.05	22560.66
232.122	22540.21
232.195	22497.74
232.267	22487.95
232.339	22463.56
232.412	22454.01
232.484	22415.15
232.556	22395.15
232.629	22401.46
232.701	22392.16
232.773	22383.29
232.846	22353.35
232.918	22332.62
232.99	22314.4
233.062	22299.6
233.135	22276.66
233.207	22228.5
233.279	22208.68
233.351	22193.84
233.424	22161.54
233.496	22126.06
233.568	22119.17
233.64	22081.33
233.713	22065.71
233.785	22032.06
233.857	21998.61
233.929	21956.38
234.001	21952.76
234.074	21949.73
234.146	21890.82
234.218	21860.89
234.29	21826.28
234.362	21790.9
234.434	21745.59
234.507	21708.28
234.579	21665.67
234.651	21638.63
234.723	21616.84
234.795	21596.98
234.867	21555.97
234.939	21544.01
235.012	21515.62
235.084	21490.17
235.156	21466.6
235.228	21418.6
235.3	21377.39
235.372	21351.84
235.444	21337.24
235.516	21281.81
235.588	21244.16
235.66	21227.05
235.732	21179.67
235.804	21203.1
235.876	21188.74
235.948	21170.66
236.02	21133.51
236.092	21100.44
236.164	21065.12
236.236	21032.63
236.308	20996.34
236.38	20963.62
236.452	20912.67
236.524	20892
236.596	20864.38
236.668	20842.5
236.74	20825.63
236.812	20803.65
236.884	20774.69
236.956	20747.17
237.028	20705.24
237.1	20672.42
237.172	20660.23
237.244	20646.16
237.316	20569.76
237.388	20526.34
237.46	20483.5
237.532	20474.82
237.604	20433.09
237.675	20417.14
237.747	20391.84
237.819	20347.16
237.891	20318.34
237.963	20283.69
238.035	20239.7
238.107	20164.66
238.178	20139.99
238.25	20099.07
238.322	20084.04
238.394	20038.54
238.466	20000.09
238.538	19967.08
238.609	19921.82
238.681	19861.25
238.753	19808.77
238.825	19780.62
238.897	19754.21
238.968	19734.55
239.04	19679.62
239.112	19678.51
239.184	19626.89
239.255	19585.64
239.327	19554.46
239.399	19521.7
239.471	19493.31
239.542	19477.31
239.614	19469.55
239.686	19411.97
239.758	19392.26
239.829	19346.38
239.901	19321.22
239.973	19283.83
240.044	19263.73
240.116	19238.82
240.188	19197.04
240.259	19167.64
240.331	19119.07
240.403	19095.46
240.474	19047.46
240.546	19005.92
240.618	18948.52
240.689	18918.07
240.761	18888.67
240.833	18872.48
240.904	18825.5
240.976	18780.54
241.048	18740.2
241.119	18709.07
241.191	18678.04
241.262	18658.57
241.334	18618.47
241.405	18582.04
241.477	18533.27
241.549	18487.93
241.62	18452.75
241.692	18425.91
241.763	18408.41
241.835	18369.28
241.906	18329.52
241.978	18280.13
242.049	18257.09
242.121	18239.41
242.192	18213.63
242.264	18151.03
242.335	18095.08
242.407	18072.43
242.478	18053.44
242.55	18020.91
242.621	17972.14
242.693	17936.38
242.764	17889.74
242.836	17843.91
242.907	17807.67
242.979	17773.35
243.05	17740.2
243.122	17707.38
243.193	17668.68
243.264	17599.23
243.336	17571.86
243.407	17541.93
243.479	17531.86
243.55	17511.38
243.622	17475.38
243.693	17444.92
243.764	17432.49
243.836	17385.21
243.907	17342.03
243.978	17297.89
244.05	17265.5
244.121	17208.39
244.192	17183.57
244.264	17127.86
244.335	17098.8
244.407	17051.76
244.478	17025.93
244.549	16986.36
244.62	16930.74
244.692	16890.88
244.763	16875.03
244.834	16828.52
244.906	16791.02
244.977	16750.11
245.048	16727.84
245.119	16680.32
245.191	16624.51
245.262	16571.98
245.333	16562.14
245.405	16534.48
245.476	16500.21
245.547	16465.27
245.618	16453.65
245.689	16413.94
245.761	16395.24
245.832	16359.24
245.903	16336.39
245.974	16312.58
246.045	16285.35
246.117	16271.66
246.188	16225.73
246.259	16176.33
246.33	16145.72
246.401	16107.5
246.473	16062.34
246.544	16020.21
246.615	16001.13
246.686	15966.52
246.757	15946.08
246.828	15888.68
246.899	15872.58
246.97	15822.35
247.042	15781.19
247.113	15755.45
247.184	15742.73
247.255	15706.14
247.326	15672.21
247.397	15636.98
247.468	15608.35
247.539	15576.24
247.61	15532.24
247.681	15515.46
247.752	15501.29
247.823	15463.55
247.894	15436.17
247.965	15388.69
248.037	15344.68
248.108	15296.92
248.179	15271.51
248.25	15244.04
248.321	15236.37
248.392	15187.4
248.463	15187.74
248.534	15156.36
248.605	15142.38
248.675	15107.43
248.746	15071.52
248.817	15046.65
248.888	15021.68
248.959	14970.49
249.03	14948.65
249.101	14923.3
249.172	14887.72
249.243	14830.79
249.314	14822.45
249.385	14789.77
249.456	14774.39
249.527	14742
249.598	14721.47
249.669	14693.84
249.739	14673.45
249.81	14642.46
249.881	14606.98
249.952	14571.84
250.023	14543.35
250.094	14492.06
250.165	14452.29
250.235	14429.73
250.306	14403.65
250.377	14361.18
250.448	14337.52
250.519	14279.52
250.59	14270.99
250.66	14249.01
250.731	14249.25
250.802	14210.78
250.873	14189.14
250.944	14173.09
251.014	14146.38
251.085	14148.98
251.156	14127.87
251.227	14115.96
251.297	14105.45
251.368	14097.45
251.439	14085.54
251.51	14073.4
251.58	14036.86
251.651	14005.04
251.722	13994.39
251.792	13953.8
251.863	13932.06
251.934	13929.64
252.005	13945.26
252.075	13915.86
252.146	13904.1
252.217	13884.52
252.287	13880.23
252.358	13857.58
252.429	13854.64
252.499	13826.68
252.57	13798.86
252.641	13786.28
252.711	13752.92
252.782	13705.92
252.852	13699.17
252.923	13674.58
252.994	13650.24
253.064	13639.59
253.135	13615.24
253.205	13578.61
253.276	13580.1
253.347	13577.88
253.417	13542.69
253.488	13506.3
253.558	13477.52
253.629	13444.83
253.699	13430.32
253.77	13414.75
253.841	13382.16
253.911	13350.15
253.982	13327.16
254.052	13311.49
254.123	13288.02
254.193	13265.46
254.264	13295.15
254.334	13257.02
254.405	13218.89
254.475	13187.84
254.546	13162.29
254.616	13156.27
254.687	13141.66
254.757	13116.31
254.827	13089.84
254.898	13076.1
254.968	13063.66
255.039	13036.72
255.109	13021.77
255.18	12987.93
255.25	12935.29
255.321	12927.82
255.391	12902.17
255.461	12903.19
255.532	12852.76
255.602	12823.26
255.673	12782.38
255.743	12746.08
255.813	12699.33
255.884	12695.18
255.954	12683.75
256.024	12688.09
256.095	12666.35
256.165	12633.96
256.235	12624.75
256.306	12602.38
256.376	12594.29
256.446	12584.69
256.517	12570.76
256.587	12568.06
256.657	12550.42
256.728	12539.19
256.798	12521.06
256.868	12492.57
256.938	12462.74
257.009	12459.7
257.079	12449.29
257.149	12460.23
257.219	12416.89
257.29	12406.29
257.36	12367.05
257.43	12357.31
257.5	12314.03
257.571	12282.02
257.641	12275.71
257.711	12239.75
257.781	12227.6
257.852	12208.7
257.922	12162.53
257.992	12142.57
258.062	12123.63
258.132	12116.11
258.202	12095.04
258.273	12077.88
258.343	12078.27
258.413	12055.95
258.483	12033.63
258.553	12000.57
258.623	11971.5
258.693	11956.51
258.764	11961.57
258.834	11958.53
258.904	11941.18
258.974	11907.2
259.044	11895.35
259.114	11877.61
259.184	11858.47
259.254	11836.3
259.324	11796.49
259.394	11791.23
259.464	11799.33
259.535	11772.15
259.605	11740.58
259.675	11714.79
259.745	11695.7
259.815	11665
259.885	11635.79
259.955	11646.2
260.025	11618.16
260.095	11602.97
260.165	11593.04
260.235	11584.46
260.305	11559.55
260.375	11522.63
260.445	11538.87
260.515	11534.96
260.585	11531.93
260.655	11514.87
260.725	11505.52
260.795	11496.79
260.865	11508.31
260.934	11478.48
261.004	11473.99
261.074	11468.31
261.144	11465.95
261.214	11465.66
261.284	11448.74
261.354	11453.9
261.424	11423.48
261.494	11436.83
261.564	11418.37
261.634	11412.83
261.703	11372.73
261.773	11365.12
261.843	11359.87
261.913	11343.38
261.983	11306.18
262.053	11292.35
262.123	11278.08
262.192	11243.67
262.262	11234.66
262.332	11191.09
262.402	11172.01
262.472	11147.86
262.541	11109.5
262.611	11109.5
262.681	11077.31
262.751	11069.79
262.821	11045.79
262.89	11018.52
262.96	11003.29
263.03	11005.94
263.1	10985.17
263.169	10977.6
263.239	10967.87
263.309	10972.78
263.379	10963.19
263.448	10953.8
263.518	10940.69
263.588	10928.35
263.657	10935.1
263.727	10928.59
263.797	10909.42
263.867	10890.77
263.936	10864.6
264.006	10861.76
264.076	10841.76
264.145	10823.64
264.215	10799.65
264.285	10793.62
264.354	10755.22
264.424	10727.66
264.494	10698.17
264.563	10680.05
264.633	10685.93
264.702	10673.93
264.772	10634.85
264.842	10613.02
264.911	10605.99
264.981	10581.03
265.05	10566.33
265.12	10547.06
265.19	10539.93
265.259	10544.94
265.329	10540.02
265.398	10527.69
265.468	10541.76
265.537	10520.08
265.607	10517.62
265.676	10512.75
265.746	10504.42
265.815	10512.8
265.885	10501.14
265.955	10475.56
266.024	10455.52
266.094	10422.03
266.163	10421.02
266.232	10433.59
266.302	10414.42
266.371	10404.25
266.441	10388.88
266.51	10385.75
266.58	10372.6
266.649	10345.09
266.719	10334.73
266.788	10329.48
266.858	10340.17
266.927	10303.17
266.996	10292.09
267.066	10283.8
267.135	10258.99
267.205	10255.72
267.274	10239.43
267.343	10245.02
267.413	10233.75
267.482	10242.81
267.552	10245.17
267.621	10212.65
267.69	10173.39
267.76	10166.06
267.829	10158.31
267.898	10145.93
267.968	10126.22
268.037	10118.76
268.106	10118.32
268.176	10093.42
268.245	10075.59
268.314	10056.47
268.384	10051.31
268.453	10043.65
268.522	10027.42
268.592	10034.69
268.661	10015.95
268.73	10014.46
268.799	9989.6
268.869	9996.11
268.938	9963.35
269.007	9937.29
269.076	9930.45
269.146	9930.69
269.215	9923.85
269.284	9924.38
269.353	9903.48
269.422	9886.38
269.492	9873.42
269.561	9828.68
269.63	9828.97
269.699	9814.52
269.768	9801.32
269.838	9803
269.907	9796.5
269.976	9777.43
270.045	9740.63
270.114	9731.96
270.183	9710.34
270.253	9703.88
270.322	9674.8
270.391	9666.94
270.46	9672.44
270.529	9669.02
270.598	9666.99
270.667	9653.7
270.736	9636.36
270.806	9636.7
270.875	9634.91
270.944	9618.54
271.013	9650.47
271.082	9639.83
271.151	9636.5
271.22	9607.23
271.289	9588.68
271.358	9576.93
271.427	9572.21
271.496	9568.22
271.565	9550.59
271.634	9547.99
271.703	9574.91
271.772	9574.77
271.841	9563.84
271.91	9542.5
271.979	9533.31
272.048	9509.08
272.117	9507.2
272.186	9486.93
272.255	9490.4
272.324	9494.49
272.393	9489.29
272.462	9470.26
272.531	9459.77
272.6	9445.03
272.669	9455.14
272.738	9445.13
272.807	9439.59
272.876	9415.8
272.945	9442.63
273.013	9443.93
273.082	9450.28
273.151	9398.32
273.22	9401.98
273.289	9387.24
273.358	9397.02
273.427	9384.93
273.496	9390.18
273.564	9389.03
273.633	9392.73
273.702	9369.33
273.771	9351.66
273.84	9347.85
273.909	9340.68
273.977	9339.81
274.046	9329.41
274.115	9332.25
274.184	9316.8
274.253	9306.4
274.322	9318.72
274.39	9282.66
274.459	9273.12
274.528	9240.52
274.597	9239.71
274.665	9234.36
274.734	9248.42
274.803	9237.39
274.872	9225.55
274.94	9206.43
275.009	9233.79
275.078	9218.38
275.147	9218.67
275.215	9216.12
275.284	9226.33
275.353	9215.49
275.421	9186.22
275.49	9198.4
275.559	9185.26
275.627	9174.72
275.696	9169.95
275.765	9170.38
275.833	9165.95
275.902	9159.7
275.971	9168.6
276.039	9184.73
276.108	9189.35
276.177	9181.89
276.245	9171.88
276.314	9173.51
276.383	9179.92
276.451	9146.78
276.52	9150.49
276.588	9159.59
276.657	9166.62
276.725	9156.22
276.794	9151.98
276.863	9166.57
276.931	9145.67
277	9150.58
277.068	9160.26
277.137	9178.31
277.205	9174.89
277.274	9196.18
277.342	9204.89
277.411	9186.07
277.48	9165.27
277.548	9146.35
277.617	9148.08
277.685	9130.85
277.754	9133.06
277.822	9120.5
277.89	9127.48
277.959	9120.16
278.027	9103.26
278.096	9091.08
278.164	9110.97
278.233	9105.86
278.301	9095.75
278.37	9098.4
278.438	9081.7
278.507	9089.64
278.575	9060.08
278.643	9054.73
278.712	9027.29
278.78	9011.02
278.849	9025.85
278.917	9033.36
278.985	9031.29
279.054	9037.59
279.122	9054.83
279.191	9050.83
279.259	9049.48
279.327	9025.31
279.396	9049.58
279.464	9043.08
279.532	9051.07
279.601	9047.08
279.669	9040.43
279.737	9049.48
279.806	9058.63
279.874	9071.15
279.942	9064.02
280.011	9062.48
280.079	9073.51
280.147	9094.69
280.215	9099.6
280.284	9090.65
280.352	9084.63
280.42	9089.01
280.488	9073.31
280.557	9068.26
280.625	9073.65
280.693	9078.03
280.761	9079.38
280.83	9053.43
280.898	9067.05
280.966	9043.65
281.034	9012.89
281.102	8997.3
281.171	8992.19
281.239	8998.6
281.307	8991.37
281.375	8979.15
281.443	9005
281.512	8996.86
281.58	9001.44
281.648	8987.53
281.716	8986.61
281.784	8982.66
281.852	8975.39
281.92	8971.69
281.989	8980.45
282.057	8958.64
282.125	9004.92
282.193	9005.59
282.261	9001.45
282.329	8993.61
282.397	8994.67
282.465	8997.17
282.533	9015.56
282.601	9004.87
282.67	8976.75
282.738	8968.28
282.806	8980.51
282.874	8960.34
282.942	8962.84
283.01	8956
283.078	8957.16
283.146	8954.8
283.214	8969.29
283.282	8975.02
283.35	8992.69
283.418	8985.66
283.486	8999.42
283.554	8952.33
283.622	8951.27
283.69	8954.3
283.758	8953.73
283.826	8966.63
283.894	8980.39
283.962	9001.1
284.03	9017.22
284.098	9020.06
284.165	9011.93
284.233	9010.68
284.301	9005.82
284.369	8999.65
284.437	8989.59
284.505	8986.03
284.573	8999.51
284.641	8982.71
284.709	8989.5
284.777	8971.2
284.845	8977.99
284.912	8972.12
284.98	8973.18
285.048	8965.95
285.116	8969.47
285.184	8981.55
285.252	8976.35
285.319	8950.55
285.387	8942.08
285.455	8923.11
285.523	8930.96
285.591	8934.18
285.659	8941.79
285.726	8958.88
285.794	8939.43
285.862	8936.35
285.93	8941.26
285.997	8937.65
286.065	8934.04
286.133	8928.94
286.201	8924.36
286.269	8914.4
286.336	8908.33
286.404	8903.18
286.472	8914.93
286.539	8896.25
286.607	8872.47
286.675	8875.26
286.743	8884.02
286.81	8872.47
286.878	8884.55
286.946	8880.27
287.013	8879.02
287.081	8872.47
287.149	8854.08
287.216	8879.3
287.284	8879.06
287.352	8876.41
287.419	8869.39
287.487	8883.78
287.555	8883.54
287.622	8884.5
287.69	8888.16
287.758	8906.07
287.825	8900.97
287.893	8888.59
287.96	8894.08
288.028	8911.02
288.096	8912.13
288.163	8919.26
288.231	8914.73
288.298	8916.75
288.366	8933.84
288.433	8930.52
288.501	8923.88
288.569	8929.75
288.636	8924.07
288.704	8935.67
288.771	8943.91
288.839	8935.24
288.906	8926.96
288.974	8933.89
289.041	8925.23
289.109	8910.55
289.176	8915.65
289.244	8918.49
289.311	8933.8
289.379	8944.15
289.446	8950.75
289.514	8952.58
289.581	8949.11
289.649	8945.31
289.716	8949.74
289.783	8931.97
289.851	8954.11
289.918	8956.18
289.986	8963.89
290.053	8964.22
290.121	8961.24
290.188	8958.3
290.255	8992.43
290.323	8986.95
290.39	8985.07
290.458	8999.46
290.525	9017.08
290.592	9009.09
290.66	9013.03
290.727	9001.72
290.794	9016.6
290.862	9005.23
290.929	9009.71
290.996	9014
291.064	9027.47
291.131	9032.96
291.198	9054.29
291.266	9050.01
291.333	9052.61
291.4	9058.24
291.468	9077.93
291.535	9074.03
291.602	9084.82
291.669	9076.77
291.737	9087.85
291.804	9089.29
291.871	9109.66
291.938	9119.38
292.006	9155.64
292.073	9168.16
292.14	9181.74
292.207	9170.18
292.275	9175.91
292.342	9178.32
292.409	9201.96
292.476	9229.02
292.543	9220.4
292.611	9218.38
292.678	9241.64
292.745	9263.54
292.812	9278.47
292.879	9274.52
292.946	9278.42
293.014	9288.92
293.081	9297.63
293.148	9310.92
293.215	9325.66
293.282	9312.51
293.349	9320.6
293.416	9293.83
293.484	9309.19
293.551	9319.78
293.618	9342.6
293.685	9373.57
293.752	9366.97
293.819	9374.48
293.886	9356.14
293.953	9369.33
294.02	9377.03
294.087	9375.49
294.154	9366.2
294.221	9380.69
294.288	9379.49
294.356	9401.78
294.423	9414.64
294.49	9409.01
294.557	9419.99
294.624	9408.43
294.691	9432.65
294.758	9432.51
294.825	9446.38
294.892	9444.59
294.959	9441.66
295.026	9449.8
295.093	9439.78
295.16	9448.2
295.226	9439.82
295.293	9473.2
295.36	9483.94
295.427	9494.77
295.494	9509.46
295.561	9525.69
295.628	9545.34
295.695	9560.08
295.762	9560.37
295.829	9568.89
295.896	9584.16
295.963	9594.03
296.03	9603.18
296.096	9606.17
296.163	9620.76
296.23	9629.19
296.297	9644.6
296.364	9648.93
296.431	9649.99
296.498	9640.84
296.564	9666.03
296.631	9672.48
296.698	9655.14
296.765	9671.47
296.832	9663.38
296.899	9650.9
296.965	9665.26
297.032	9637.75
297.099	9656.68
297.166	9664.1
297.233	9657.36
297.299	9652.88
297.366	9654.51
297.433	9660.78
297.5	9672.67
297.566	9671.71
297.633	9670.99
297.7	9664.15
297.767	9666.27
297.833	9671.37
297.9	9676.96
297.967	9658.37
298.033	9673.78
298.1	9704.56
298.167	9694.4
298.234	9695.55
298.3	9707.21
298.367	9704.37
298.434	9716.21
298.5	9706.63
298.567	9703.79
298.634	9699.5
298.7	9722.62
298.767	9727.34
298.834	9740.97
298.9	9730.18
298.967	9716.55
299.033	9732.49
299.1	9754.03
299.167	9765.97
299.233	9763.56
299.3	9781.81
299.366	9801.9
299.433	9822.32
299.5	9791.06
299.566	9797.42
299.633	9818.71
299.699	9829.79
299.766	9824.3
299.832	9833.93
299.899	9843.56
299.965	9849.73
300.032	9850.26
300.099	9853.63
300.165	9855.85
300.232	9853.2
300.298	9860.37
300.365	9882.38
300.431	9881.32
300.498	9873.33
300.564	9879.73
300.631	9893.41
300.697	9903.19
300.763	9904.49
300.83	9891.05
300.896	9910.22
300.963	9920.43
301.029	9921.64
301.096	9923.76
301.162	9936.13
301.229	9931.9
301.295	9922.12
301.361	9931.03
301.428	9936.47
301.494	9916.48
301.561	9919.47
301.627	9924.43
301.693	9924.53
301.76	9922.74
301.826	9914.31
301.892	9927.8
301.959	9937.92
302.025	9936.71
302.092	9936.18
302.158	9941.72
302.224	9945.38
302.291	9933.1
302.357	9927.8
302.423	9926.41
302.49	9912.63
302.556	9927.8
302.622	9927.47
302.688	9939.12
302.755	9955.74
302.821	9963.74
302.887	9978.81
302.954	9976.36
303.02	9985.85
303.086	9999.48
303.152	9999.96
303.219	10001.36
303.285	10007.19
303.351	10009.98
303.417	10007.43
303.483	9997.36
303.55	9992.11
303.616	9991.34
303.682	9988.79
303.748	9980.55
303.815	9992.06
303.881	10013.5
303.947	9994.04
304.013	9991.73
304.079	9982.62
304.145	9958.63
304.212	9962
304.278	9952.9
304.344	9954.2
304.41	9940.04
304.476	9927.47
304.542	9928.19
304.608	9929.73
304.674	9908.29
304.741	9904.06
304.807	9905.6
304.873	9913.83
304.939	9930.07
305.005	9909.5
305.071	9914.12
305.137	9920.1
305.203	9898.66
305.269	9892.3
305.335	9914.17
305.401	9920.14
305.467	9920.87
305.533	9932.19
305.599	9936.76
305.666	9947.41
305.732	9945.91
305.798	9958.34
305.864	9980.21
305.93	9978.86
305.996	9983.58
306.062	9983.25
306.128	9980.84
306.194	9969.04
306.259	9967.06
306.325	9959.69
306.391	9971.69
306.457	9982.67
306.523	9985.61
306.589	10008.97
306.655	10005.64
306.721	9977.56
306.787	9958.49
306.853	9972.7
306.919	9954.06
306.985	9943.41
307.051	9936.14
307.117	9925.73
307.183	9919.47
307.248	9887.34
307.314	9891.73
307.38	9892.74
307.446	9904.59
307.512	9893.51
307.578	9902.61
307.644	9893.32
307.709	9891.58
307.775	9888.11
307.841	9878.62
307.907	9874.72
307.973	9852.13
308.039	9842.26
308.104	9849.77
308.17	9854.01
308.236	9839.03
308.302	9845.14
308.368	9836.57
308.433	9836.91
308.499	9835.27
308.565	9823.66
308.631	9835.9
308.696	9809.17
308.762	9796.31
308.828	9789.46
308.894	9776.08
308.959	9751.18
309.025	9745.88
309.091	9741.54
309.156	9735.38
309.222	9737.02
309.288	9729.6
309.354	9712.94
309.419	9718.09
309.485	9702.87
309.551	9706.77
309.616	9685.72
309.682	9678.69
309.748	9671.28
309.813	9668.48
309.879	9657.16
309.945	9644.84
310.01	9633.18
310.076	9643.2
310.141	9636.89
310.207	9621.52
310.273	9616.03
310.338	9620.7
310.404	9602.74
310.469	9589.83
310.535	9577.79
310.601	9553.23
310.666	9549.86
310.732	9557.57
310.797	9537.39
310.863	9531.51
310.928	9521.21
310.994	9532.52
311.059	9532.81
311.125	9532.86
311.191	9542.35
311.256	9528.14
311.322	9531.9
311.387	9509.65
311.453	9899.52
311.518	9873.99
311.584	9867.64
311.649	9878.33
311.715	9864.7
311.78	9866.68
311.846	9851.7
311.911	9861.04
311.976	9865.04
312.042	9850.69
312.107	9837.69
312.173	9833.83
312.238	9824.35
312.304	9821.31
312.369	9808.89
312.434	9792.52
312.5	9783.8
312.565	9743.88
312.631	9752.79
312.696	9744.31
312.761	9751.44
312.827	9355.75
312.892	9393.84
312.958	9391.09
313.023	9387.19
313.088	9387.87
313.154	9375.49
313.219	9367.21
313.284	9355.03
313.35	9345.97
313.415	9338.85
313.48	9336.49
313.546	9343.09
313.611	9353.63
313.676	9340.34
313.741	9329.17
313.807	9335.48
313.872	9334.85
313.937	9342.46
314.003	9353.58
314.068	9358.59
314.133	9363.31
314.198	9343.52
314.264	9326.71
314.329	9320.11
314.394	9310.34
314.459	9311.69
314.525	9331.33
314.59	9332.87
314.655	9315.92
314.72	9330.42
314.785	9332.25
314.851	9321.61
314.916	9298.11
314.981	9284.72
315.046	9276.15
315.111	9270.71
315.176	9263.15
315.242	9273.07
315.307	9268.59
315.372	9246.3
315.437	9225.26
315.502	9210.52
315.567	9228.34
315.632	9203.83
315.698	9205.76
315.763	9202.44
315.828	9193.24
315.893	9191.12
315.958	9184.81
316.023	9179.52
316.088	9158
316.153	9135.51
316.218	9129.83
316.283	9110.1
316.348	9089.78
316.413	9091.04
316.479	9075.78
316.544	9037.84
316.609	9004.48
316.674	8971.7
316.739	8936.85
316.804	8916.64
316.869	8884.05
316.934	8844.81
316.999	8814.88
317.064	8759.33
317.129	8716.11
317.194	8670.15
317.259	8614.75
317.324	8561.29
317.389	8514.85
317.454	8477.75
317.518	8447.05
317.583	8425
317.648	8406.29
317.713	8370.29
317.778	8308.51
317.843	8273.53
317.908	8240.34
317.973	8196.02
318.038	8169.85
318.103	8136.23
318.168	8103.23
318.233	8076.38
318.297	8027.75
318.362	7994.27
318.427	7958.73
318.492	7931.55
318.557	7887.46
318.622	7860.43
318.687	7847.54
318.751	7809.13
318.816	7770.27
318.881	7736.03
318.946	7674.38
319.011	7624.04
319.075	7582.31
319.14	7541.6
319.205	7505.01
319.27	7470.16
319.335	7425.74
319.399	7383.1
319.464	7352.05
319.529	7297.5
319.594	7251.26
319.658	7221.41
319.723	7176.14
319.788	7144.04
319.853	7093.2
319.917	7067.5
319.982	7013.44
320.047	6970.72
320.112	6945.31
320.176	6895.92
320.241	6856.67
320.306	6831.83
320.37	6792.98
320.435	6763.01
320.5	6741.92
320.564	6697.83
320.629	6657.45
320.694	6631.9
320.758	6594.92
320.823	6550.84
320.888	6525.3
320.952	6481.42
321.017	6434.03
321.082	6400.96
321.146	6369.94
321.211	6335.53
321.275	6297.57
321.34	6255.58
321.405	6210.03
321.469	6160.7
321.534	6120.93
321.598	6073.96
321.663	6044.39
321.727	6013.25
321.792	5964.03
321.857	5922.43
321.921	5882.09
321.986	5840.47
322.05	5775.97
322.115	5734.06
322.179	5688.27
322.244	5630.83
322.308	5593.48
322.373	5552.63
322.437	5510.44
322.502	5483.44
322.566	5432.73
322.631	5392.76
322.695	5353.9
322.76	5308
322.824	5277.04
322.889	5235.75
322.953	5190.43
323.018	5119.71
323.082	5051.32
323.146	5000.86
323.211	4943.09
323.275	4900.95
323.34	4853.6
323.404	4823.73
323.468	4777.19
323.533	4739.28
323.597	4690.05
323.662	4640.85
323.726	4601.45
323.79	4553.02
323.855	4485.18
323.919	4437.68
323.983	4389.46
324.048	4322.05
324.112	4503.41
324.177	4370.69
324.241	4145.61
324.305	3925.92
324.37	3709.83
324.434	3506.79
324.498	3462.81
324.562	3411.55
324.627	3347.06
324.691	3289.87
324.755	3221.14
324.82	3142.72
324.884	3056.6
324.948	2985.97
325.012	2887.58
325.077	2756.52
