Data from 20250703_urea_0.1M_MAYP1162681_00-01-05-001.txt Node
Date: Fri Jul 04 00:01:05 BST 2025
User: adleo
Spectrometer: MAYP116268
Trigger mode: 0
Integration Time (sec): 1.000000E0
Scans to average: 1
Electric dark correction enabled: true
Nonlinearity correction enabled: true
Boxcar width: 10
XAxis mode: Wavelengths
Number of Pixels in Spectrum: 2068
>>>>>Begin Spectral Data<<<<<
179.565	1365.96
179.642	1427.86
179.718	1479
179.795	1525.26
179.871	1565.16
179.948	1587.83
180.024	1612.66
180.101	1639.49
180.177	1655.15
180.254	1679.42
180.33	1703.72
180.407	1767.78
180.483	1875.59
180.56	1977.99
180.636	2074.24
180.712	2058.3
180.789	2069.38
180.865	2083.17
180.942	2091.45
181.018	2104.33
181.095	2119.23
181.171	2121.23
181.248	2124.7
181.324	2138.4
181.4	2144.64
181.477	2153.49
181.553	2166.37
181.63	2187.07
181.706	2203.25
181.782	2213.95
181.859	2216.28
181.935	2224.8
182.011	2222.47
182.088	2241.13
182.164	2262.83
182.24	2277.39
182.317	2289.33
182.393	2285.91
182.469	2300.95
182.546	2316.89
182.622	2322.22
182.698	2317.27
182.775	2331.59
182.851	2345.25
182.927	2339.69
183.003	2334.07
183.08	2330.55
183.156	2341.83
183.232	2338.21
183.308	2326.79
183.385	2335.83
183.461	2354.35
183.537	2352.06
183.613	2368.1
183.69	2357.68
183.766	2344.35
183.842	2350.11
183.918	2357.25
183.995	2373
184.071	2375.86
184.147	2369.19
184.223	2357.63
184.299	2370.06
184.375	2358.44
184.452	2367.44
184.528	2419.29
184.604	2432.52
184.68	2445.61
184.756	2452.8
184.832	2459.18
184.908	2461.94
184.985	2458.94
185.061	2440.09
185.137	2451.76
185.213	2437.19
185.289	2442.52
185.365	2434.91
185.441	2432.72
185.517	2443.48
185.593	2440.53
185.669	2438.29
185.745	2451.48
185.822	2470.56
185.898	2463.04
185.974	2474.56
186.05	2466.61
186.126	2431.75
186.202	2424.19
186.278	2417.33
186.354	2403.81
186.43	2411.1
186.506	2410.14
186.582	2412.9
186.658	2417.71
186.734	2393.34
186.81	2395.58
186.886	2392.48
186.962	2408.43
187.038	2407.57
187.114	2402.76
187.19	2410.43
187.266	2400.86
187.341	2398.53
187.417	2389.86
187.493	2389.72
187.569	2390.58
187.645	2383.15
187.721	2370.34
187.797	2377.67
187.873	2382.24
187.949	2377.01
188.025	2369.87
188.101	2373.29
188.176	2376.29
188.252	2372.72
188.328	2386.09
188.404	2386.04
188.48	2382.66
188.556	2376.24
188.632	2374.57
188.707	2374
188.783	2371.52
188.859	2364.72
188.935	2354.29
189.011	2358.77
189.086	2353.39
189.162	2346.11
189.238	2342.96
189.314	2340.16
189.39	2334.59
189.465	2328.68
189.541	2350.06
189.617	2331.45
189.693	2327.64
189.768	2331.98
189.844	2360.93
189.92	2349.56
189.996	2362.65
190.071	2373.88
190.147	2371.79
190.223	2382.98
190.298	2373.93
190.374	2359.46
190.45	2372.26
190.526	2383.4
190.601	2382.35
190.677	2378.88
190.753	2407.79
190.828	2409.55
190.904	2425.69
190.98	2442.02
191.055	2450.88
191.131	2437.21
191.207	2462.44
191.282	2473.05
191.358	2463.11
191.433	2445.05
191.509	2460.71
191.585	2451.47
191.66	2454.42
191.736	2460.61
191.811	2448.52
191.887	2466.62
191.963	2495.19
192.038	2501.09
192.114	2499.47
192.189	2504.09
192.265	2505.57
192.34	2479.99
192.416	2480.23
192.491	2476.27
192.567	2477.23
192.642	2480.99
192.718	2483.61
192.793	2469.04
192.869	2463.28
192.944	2466.32
193.02	2476.8
193.095	2481.66
193.171	2493.7
193.246	2490.32
193.322	2490.13
193.397	2493.56
193.473	2480.12
193.548	2454.98
193.624	2463.08
193.699	2460.69
193.775	2479.46
193.85	2480.89
193.925	2491.7
194.001	2489.23
194.076	2480.32
194.152	2471.94
194.227	2465.08
194.302	2455.75
194.378	2458.9
194.453	2456.99
194.529	2466.71
194.604	2451.42
194.679	2439.76
194.755	2416.67
194.83	2431.3
194.905	2425.87
194.981	2435.44
195.056	2425.01
195.131	2434.63
195.207	2432.06
195.282	2423.06
195.357	2399.15
195.433	2415.96
195.508	2402.05
195.583	2414.34
195.659	2432
195.734	2439.77
195.809	2438.72
195.884	2445.91
195.96	2448.29
196.035	2467.9
196.11	2465.29
196.185	2476.33
196.261	2483.9
196.336	2520.13
196.411	2502.61
196.486	2511.37
196.561	2502.75
196.637	2513.41
196.712	2530.75
196.787	2534.42
196.862	2550.08
196.937	2561.65
197.013	2564.37
197.088	2578.08
197.163	2599.67
197.238	2617.35
197.313	2617.83
197.388	2632.55
197.464	2667.8
197.539	2676.33
197.614	2668.28
197.689	2684.33
197.764	2702.92
197.839	2722.54
197.914	2712.63
197.989	2740.41
198.065	2759.28
198.14	2816.63
198.215	2845.75
198.29	2855.95
198.365	2871.25
198.44	2881.88
198.515	2912
198.59	2930.97
198.665	2958
198.74	2967.39
198.815	2967.35
198.89	2991.71
198.965	3023.75
199.04	3017.84
199.115	3038.95
199.19	3085.87
199.265	3085.59
199.34	3097.17
199.415	3134.34
199.49	3160.22
199.565	3171.05
199.64	3193.66
199.715	3189.94
199.79	3197.66
199.865	3206.63
199.94	3201.63
200.015	3237.98
200.09	3244.18
200.165	3249.19
200.24	3258.73
200.315	3303.86
200.39	3321.94
200.464	3328.95
200.539	3330.96
200.614	3353.67
200.689	3382.06
200.764	3387.07
200.839	3408.29
200.914	3414.5
200.989	3406.38
201.063	3420.6
201.138	3404.34
201.213	3403.77
201.288	3383.2
201.363	3389.36
201.438	3389.98
201.512	3408.39
201.587	3389.87
201.662	3392.83
201.737	3411.06
201.812	3419.7
201.886	3382.16
201.961	3395.34
202.036	3384.36
202.111	3383.55
202.186	3349.88
202.26	3328.02
202.335	3305.83
202.41	3301.58
202.485	3284.03
202.559	3262.85
202.634	3239.14
202.709	3247.91
202.784	3231.21
202.858	3233.12
202.933	3214.99
203.008	3211.7
203.082	3196.06
203.157	3201.02
203.232	3160.4
203.306	3139.97
203.381	3111.16
203.456	3092.56
203.53	3073.41
203.605	3058.63
203.68	3043.22
203.754	3048.23
203.829	3042.5
203.904	3031.2
203.978	3031.87
204.053	3052.81
204.127	3057.34
204.202	3068.31
204.277	3070.5
204.351	3081.9
204.426	3094.4
204.5	3108.33
204.575	3096.55
204.65	3129.91
204.724	3147.57
204.799	3186.81
204.873	3212.44
204.948	3245.17
205.022	3266.3
205.097	3294.62
205.171	3344.05
205.246	3389.5
205.32	3427.34
205.395	3470.31
205.469	3505.04
205.544	3559.16
205.618	3586.91
205.693	3647.57
205.767	3686.73
205.842	3766.44
205.916	3817.08
205.991	3869.79
206.065	3938.56
206.14	4019.63
206.214	4083.1
206.289	4144.98
206.363	4229.72
206.438	4308.95
206.512	4392.73
206.586	4495.82
206.661	4579.79
206.735	4639.68
206.81	4729.48
206.884	4832.58
206.958	4912.15
207.033	5026.57
207.107	5127.11
207.181	5262.21
207.256	5353.54
207.33	5477.85
207.405	5589.86
207.479	5712.59
207.553	5820.95
207.628	5905.96
207.702	6020.64
207.776	6128.93
207.851	6245.07
207.925	6372.87
207.999	6483.58
208.073	6597.42
208.148	6713.07
208.222	6825.57
208.296	6981.82
208.371	7119.62
208.445	7254.46
208.519	7406.94
208.593	7542.97
208.668	7662.6
208.742	7786.85
208.816	7920.23
208.89	8058.03
208.965	8182.61
209.039	8319.34
209.113	8462.9
209.187	8617.2
209.261	8749.14
209.336	8899.45
209.41	9050.99
209.484	9182.52
209.558	9343.38
209.632	9487.24
209.707	9632.95
209.781	9780.65
209.855	9931.02
209.929	10078.73
210.003	10213.79
210.077	10336.53
210.151	10514.18
210.226	10684.45
210.3	10843.76
210.374	10987.49
210.448	11117.83
210.522	11246.21
210.596	11382.68
210.67	11524.99
210.744	11702.44
210.818	11856.08
210.892	11990.46
210.966	12107.48
211.041	12244.42
211.115	12355.67
211.189	12500.03
211.263	12640.16
211.337	12762.25
211.411	12888.79
211.485	13000.63
211.559	13129.52
211.633	13252.44
211.707	13328.27
211.781	13442.91
211.855	13518.83
211.929	13628.64
212.003	13731.08
212.077	13866.63
212.151	13991.39
212.225	14109.59
212.299	14210.34
212.373	14315.18
212.447	14419.16
212.52	14548.35
212.594	14657.44
212.668	14780.6
212.742	14868.47
212.816	14956.78
212.89	15059.74
212.964	15163.28
213.038	15261.76
213.112	15375.27
213.186	15487.15
213.26	15573
213.333	15629.97
213.407	15731.77
213.481	15828.66
213.555	15929.11
213.629	16011.19
213.703	16096.07
213.777	16193.23
213.85	16261.48
213.924	16384.67
213.998	16484.2
214.072	16575.19
214.146	16650.96
214.219	16728.94
214.293	16812.07
214.367	16908.42
214.441	16999.46
214.515	17066.35
214.588	17127.75
214.662	17172.76
214.736	17231.61
214.81	17317.3
214.883	17402.6
214.957	17460.15
215.031	17522.32
215.105	17576.87
215.178	17631.81
215.252	17681.26
215.326	17720.92
215.4	17765.55
215.473	17779.23
215.547	17817.54
215.621	17865.59
215.694	17940.29
215.768	17978.12
215.842	18025.1
215.915	18064.76
215.989	18098.98
216.063	18146.25
216.136	18201.24
216.21	18252.23
216.284	18322.54
216.357	18380.12
216.431	18422.67
216.504	18488.21
216.578	18572.21
216.652	18634.71
216.725	18691.87
216.799	18769.6
216.873	18817.45
216.946	18885.4
217.02	18928.96
217.093	18988.47
217.167	19014.74
217.24	19039.99
217.314	19094.44
217.387	19137.14
217.461	19169.48
217.535	19233.47
217.608	19274.58
217.682	19326.57
217.755	19386.67
217.829	19421.89
217.902	19471.19
217.976	19533.98
218.049	19575.96
218.123	19608.68
218.196	19660.63
218.27	19707.95
218.343	19730.75
218.417	19782.99
218.49	19818.12
218.563	19886.55
218.637	19933.97
218.71	20015.7
218.784	20072.33
218.857	20129.53
218.931	20178.15
219.004	20238.35
219.077	20285.24
219.151	20339.55
219.224	20376.7
219.298	20423.6
219.371	20487.79
219.444	20507.36
219.518	20542.34
219.591	20583.55
219.665	20643.46
219.738	20686.2
219.811	20712.18
219.885	20758.06
219.958	20811.61
220.031	20856.47
220.105	20897.73
220.178	20930.21
220.251	20943.32
220.325	20982.84
220.398	21011.09
220.471	21060.39
220.544	21102.9
220.618	21138.66
220.691	21184.84
220.764	21222.81
220.838	21261.95
220.911	21291.5
220.984	21362.25
221.057	21399.32
221.131	21439.71
221.204	21437.34
221.277	21495.57
221.35	21568.26
221.424	21600.99
221.497	21630.73
221.57	21665.62
221.643	21701.15
221.716	21745.93
221.79	21772.92
221.863	21810.52
221.936	21842.23
222.009	21871.83
222.082	21906.78
222.155	21929.34
222.229	21968.77
222.302	22009.64
222.375	22036.88
222.448	22062.33
222.521	22076.75
222.594	22102.1
222.667	22118.78
222.74	22173.25
222.814	22183.81
222.887	22185.74
222.96	22223.77
223.033	22260.84
223.106	22282.58
223.179	22306.16
223.252	22319.9
223.325	22347.13
223.398	22364.06
223.471	22381.46
223.544	22406.04
223.617	22430.63
223.69	22447.84
223.763	22436.85
223.837	22452.32
223.91	22474.07
223.983	22468.91
224.056	22480.58
224.129	22500.2
224.202	22523.34
224.275	22521.79
224.348	22511.52
224.42	22505.55
224.493	22481.73
224.566	22477.97
224.639	22490.46
224.712	22495.18
224.785	22505.64
224.858	22514.51
224.931	22510.99
225.004	22507.09
225.077	22504.97
225.15	22472.09
225.223	22480.29
225.296	22521.89
225.369	22501.02
225.442	22492.34
225.514	22504.49
225.587	22511.14
225.66	22516.78
225.733	22515.14
225.806	22512.06
225.879	22523.1
225.952	22520.35
226.025	22551.83
226.097	22571.55
226.17	22566.35
226.243	22536.6
226.316	22532.65
226.389	22530.19
226.461	22543.74
226.534	22552.85
226.607	22550.34
226.68	22580.57
226.753	22574.01
226.825	22543.25
226.898	22571.69
226.971	22570.44
227.044	22580.56
227.117	22575.65
227.189	22575.89
227.262	22589.19
227.335	22598.89
227.407	22599.03
227.48	22599.75
227.553	22589.77
227.626	22574.54
227.698	22572.61
227.771	22573.48
227.844	22556.12
227.916	22554.92
227.989	22525.36
228.062	22509.45
228.134	22530.43
228.207	22524.4
228.28	22523.05
228.352	22526.62
228.425	22504.63
228.498	22518.18
228.57	22491.33
228.643	22499.76
228.716	22484.92
228.788	22460.81
228.861	22444.27
228.934	22444.95
229.006	22436.71
229.079	22426.87
229.151	22403.63
229.224	22381.46
229.296	22378.33
229.369	22396.6
229.442	22406.05
229.514	22393.27
229.587	22402.48
229.659	22361.84
229.732	22353.02
229.804	22347.33
229.877	22354.61
229.949	22361.02
230.022	22349.74
230.094	22343.95
230.167	22322.21
230.239	22304.33
230.312	22298.2
230.384	22316.77
230.457	22310.35
230.529	22311.03
230.602	22300.52
230.674	22300.18
230.747	22302.16
230.819	22315.85
230.892	22273.81
230.964	22259.2
231.037	22258.92
231.109	22242.62
231.181	22244.12
231.254	22212.88
231.326	22195.38
231.399	22164.29
231.471	22140.95
231.544	22107.45
231.616	22100.17
231.688	22095.01
231.761	22074
231.833	22055.87
231.905	22011.23
231.978	21994.94
232.05	21978.84
232.122	21963.22
232.195	21933.14
232.267	21929.91
232.339	21899.54
232.412	21897.76
232.484	21865.17
232.556	21839.1
232.629	21842.18
232.701	21833.89
232.773	21825.94
232.846	21800.78
232.918	21793.45
232.99	21776.53
233.062	21772.19
233.135	21756.09
233.207	21714.64
233.279	21704.52
233.351	21685.14
233.424	21659.64
233.496	21615.92
233.568	21605.32
233.64	21564.88
233.713	21543.43
233.785	21514.03
233.857	21501.11
233.929	21466.65
234.001	21470.99
234.074	21464.05
234.146	21426.16
234.218	21399.75
234.29	21365.19
234.362	21333.77
234.434	21285.57
234.507	21250.33
234.579	21205.99
234.651	21176.06
234.723	21166.86
234.795	21151.43
234.867	21136.64
234.939	21132.25
235.012	21114.51
235.084	21096.1
235.156	21092.68
235.228	21062.46
235.3	21037.26
235.372	21013.59
235.444	20990.51
235.516	20928.76
235.588	20906.35
235.66	20874.4
235.732	20833.72
235.804	20884.96
235.876	20868.38
235.948	20855.37
236.02	20828.09
236.092	20802.6
236.164	20769.49
236.236	20723.75
236.308	20681.53
236.38	20650.06
236.452	20603.8
236.524	20579.02
236.596	20562.69
236.668	20538.59
236.74	20513.48
236.812	20482.59
236.884	20452.81
236.956	20433.43
237.028	20399.36
237.1	20347.89
237.172	20336.57
237.244	20321.53
237.316	20234.54
237.388	20197.28
237.46	20155.5
237.532	20132.42
237.604	20090.44
237.675	20081.96
237.747	20071.07
237.819	20035.12
237.891	19995.17
237.963	19952.67
238.035	19915.61
238.107	19835.8
238.178	19805.44
238.25	19774.36
238.322	19762.31
238.394	19707.81
238.466	19671.71
238.538	19643.28
238.609	19621.31
238.681	19564.3
238.753	19527.43
238.825	19495.38
238.897	19460.3
238.968	19451.96
239.04	19410.47
239.112	19409.22
239.184	19355.01
239.255	19313.56
239.327	19275.06
239.399	19251.93
239.471	19235.35
239.542	19210.15
239.614	19204.03
239.686	19145.48
239.758	19117.48
239.829	19067.46
239.901	19053.29
239.973	19012.42
240.044	18984.52
240.116	18947.27
240.188	18913.92
240.259	18872
240.331	18835.13
240.403	18814.94
240.474	18756.34
240.546	18708.3
240.618	18646.66
240.689	18610.14
240.761	18580.55
240.833	18579.49
240.904	18531.25
240.976	18483.06
241.048	18453.86
241.119	18418.39
241.191	18382.05
241.262	18360.94
241.334	18319.69
241.405	18281.14
241.477	18247.07
241.549	18211.65
241.62	18179.03
241.692	18150.16
241.763	18129.29
241.835	18086.5
241.906	18048.19
241.978	18006.45
242.049	18000.09
242.121	17974.65
242.192	17953.83
242.264	17903.04
242.335	17838.7
242.407	17817.64
242.478	17792.44
242.55	17752.97
242.621	17715.91
242.693	17686.27
242.764	17646.85
242.836	17611.43
242.907	17580.2
242.979	17551.09
243.05	17515.86
243.122	17489.6
243.193	17454.66
243.264	17394.61
243.336	17358.61
243.407	17333.74
243.479	17315
243.55	17279.09
243.622	17249.45
243.693	17211.43
243.764	17190.7
243.836	17145.55
243.907	17107.23
243.978	17061.35
244.05	17029.78
244.121	16970.36
244.192	16950.02
244.264	16899.85
244.335	16870.16
244.407	16817.68
244.478	16785.68
244.549	16754.98
244.62	16700.18
244.692	16658.87
244.763	16636.99
244.834	16601.86
244.906	16556.65
244.977	16527.83
245.048	16512.74
245.119	16478.52
245.191	16436.35
245.262	16383.29
245.333	16376.88
245.405	16345.74
245.476	16318.37
245.547	16291.38
245.618	16279.66
245.689	16241.49
245.761	16218.55
245.832	16184.23
245.903	16163.89
245.974	16128.42
246.045	16089.71
246.117	16077.42
246.188	16031.59
246.259	15985.22
246.33	15944.92
246.401	15917.79
246.473	15862.02
246.544	15811.51
246.615	15788.47
246.686	15759.74
246.757	15739.16
246.828	15692.26
246.899	15670.48
246.97	15620.25
247.042	15569.83
247.113	15543.85
247.184	15534.45
247.255	15492.52
247.326	15466.54
247.397	15433.57
247.468	15413.03
247.539	15387.68
247.61	15341.89
247.681	15321.11
247.752	15312.68
247.823	15277.3
247.894	15240.86
247.965	15203.21
248.037	15168.17
248.108	15118.32
248.179	15086.7
248.25	15059.85
248.321	15034.16
248.392	14991.65
248.463	14998.25
248.534	14969.38
248.605	14932.31
248.675	14900.4
248.746	14872.92
248.817	14852.49
248.888	14829.35
248.959	14777.38
249.03	14760.56
249.101	14736.84
249.172	14708.89
249.243	14647.95
249.314	14647.95
249.385	14620.67
249.456	14610.5
249.527	14585.19
249.598	14563.16
249.669	14530.91
249.739	14496.59
249.81	14473.65
249.881	14427.61
249.952	14394.69
250.023	14368.94
250.094	14334.86
250.165	14293.41
250.235	14267.86
250.306	14234.26
250.377	14190.68
250.448	14175.4
250.519	14114.71
250.59	14099.86
250.66	14068.62
250.731	14066.98
250.802	14030.97
250.873	14016.08
250.944	13991.06
251.014	13951.82
251.085	13952.25
251.156	13932.01
251.227	13924.82
251.297	13912.72
251.368	13911.09
251.439	13897.3
251.51	13881.2
251.58	13851.12
251.651	13825.57
251.722	13817.95
251.792	13776.49
251.863	13749.35
251.934	13740.82
252.005	13751.62
252.075	13733.06
252.146	13728.14
252.217	13712.33
252.287	13698.06
252.358	13663.21
252.429	13660.7
252.499	13638.48
252.57	13617.12
252.641	13609.12
252.711	13590.61
252.782	13553.54
252.852	13540.33
252.923	13506.54
252.994	13488.31
253.064	13474.53
253.135	13435.24
253.205	13398.7
253.276	13398.84
253.347	13398.07
253.417	13359.89
253.488	13333.38
253.558	13298.86
253.629	13265.89
253.699	13254.61
253.77	13235.62
253.841	13212.96
253.911	13193.97
253.982	13175.79
254.052	13160.8
254.123	13135.25
254.193	13107.1
254.264	13119.34
254.334	13092.01
254.405	13057.93
254.475	13024.57
254.546	13001.48
254.616	13002.39
254.687	12986.2
254.757	12966.77
254.827	12939.77
254.898	12920.4
254.968	12891.42
255.039	12864.86
255.109	12855.27
255.18	12817.53
255.25	12773.85
255.321	12766.91
255.391	12721.4
255.461	12722.9
255.532	12668.33
255.602	12641.43
255.673	12604.6
255.743	12580.88
255.813	12530.61
255.884	12528.1
255.954	12519.62
256.024	12513.06
256.095	12483.17
256.165	12455.26
256.235	12438.01
256.306	12411.98
256.376	12399.93
256.446	12393.9
256.517	12383.15
256.587	12373.27
256.657	12350.71
256.728	12339.62
256.798	12324.54
256.868	12307.47
256.938	12272.52
257.009	12272.67
257.079	12262.64
257.149	12273.1
257.219	12228.42
257.29	12222.59
257.36	12174.87
257.43	12166.82
257.5	12131
257.571	12110.37
257.641	12091.86
257.711	12059.57
257.781	12047.08
257.852	12040.38
257.922	11999.46
257.992	11981.87
258.062	11959.74
258.132	11952.99
258.202	11931.45
258.273	11906.09
258.343	11909.8
258.413	11892.26
258.483	11870.28
258.553	11841.36
258.623	11807.33
258.693	11789.3
258.764	11785.06
258.834	11788.92
258.904	11767.03
258.974	11736.24
259.044	11717.01
259.114	11709.63
259.184	11690.06
259.254	11671.27
259.324	11631.74
259.394	11622.68
259.464	11616.99
259.535	11593.67
259.605	11575.25
259.675	11548.84
259.745	11535.16
259.815	11497.56
259.885	11465.37
259.955	11479.39
260.025	11456.16
260.095	11436.16
260.165	11427.78
260.235	11425.22
260.305	11399.39
260.375	11373.89
260.445	11387.72
260.515	11384.93
260.585	11377.65
260.655	11366.37
260.725	11362.18
260.795	11350.37
260.865	11354.04
260.934	11330.56
261.004	11325.31
261.074	11305.79
261.144	11303.87
261.214	11296.64
261.284	11283.53
261.354	11284.3
261.424	11250.17
261.494	11250.46
261.564	11230.85
261.634	11225.02
261.703	11190.22
261.773	11181.69
261.843	11171.09
261.913	11156.73
261.983	11133.11
262.053	11127.62
262.123	11110.8
262.192	11077.98
262.262	11075.77
262.332	11043.72
262.402	11038.32
262.472	11024.92
262.541	10992.59
262.611	10989.6
262.681	10963.68
262.751	10956.74
262.821	10931.87
262.89	10903.15
262.96	10890.57
263.03	10897.8
263.1	10883.35
263.169	10865.76
263.239	10857.18
263.309	10862.29
263.379	10850.39
263.448	10829.62
263.518	10812.22
263.588	10801.38
263.657	10811.16
263.727	10810.92
263.797	10797.09
263.867	10769.87
263.936	10733.97
264.006	10731.08
264.076	10705.25
264.145	10682.12
264.215	10654.08
264.285	10655.43
264.354	10624.79
264.424	10604.5
264.494	10575.97
264.563	10552.75
264.633	10565.47
264.702	10553.76
264.772	10513.05
264.842	10487.61
264.911	10478.21
264.981	10446.7
265.05	10423.96
265.12	10393.22
265.19	10372.93
265.259	10368.35
265.329	10362.43
265.398	10347.93
265.468	10370.04
265.537	10353.66
265.607	10353.57
265.676	10355.35
265.746	10344.85
265.815	10341.71
265.885	10326.11
265.955	10303.13
266.024	10290.79
266.094	10250.8
266.163	10251.91
266.232	10257.26
266.302	10245.02
266.371	10238.81
266.441	10227.06
266.51	10230.09
266.58	10217.28
266.649	10192.27
266.719	10187.26
266.788	10184.23
266.858	10196.7
266.927	10150.31
266.996	10149.88
267.066	10142.5
267.135	10114.52
267.205	10106.04
267.274	10097.94
267.343	10103.73
267.413	10093.66
267.482	10091.78
267.552	10098.04
267.621	10065.04
267.69	10026.31
267.76	10016.83
267.829	10007.87
267.898	9999.77
267.968	9974.24
268.037	9977.33
268.106	9979.49
268.176	9951.8
268.245	9933.15
268.314	9915.28
268.384	9914.37
268.453	9903.53
268.522	9891
268.592	9893.46
268.661	9873.71
268.73	9864.99
268.799	9837.83
268.869	9842.16
268.938	9812.92
269.007	9794.43
269.076	9788.55
269.146	9796.26
269.215	9789.71
269.284	9799.05
269.353	9781.81
269.422	9766.88
269.492	9746.03
269.561	9701.38
269.63	9703.02
269.699	9684.23
269.768	9674.6
269.838	9663.04
269.907	9661.45
269.976	9634.34
270.045	9599.28
270.114	9598.94
270.183	9582.62
270.253	9580.88
270.322	9552.95
270.391	9543.08
270.46	9544.09
270.529	9543.61
270.598	9541.78
270.667	9529.98
270.736	9503.15
270.806	9496.65
270.875	9502.05
270.944	9489.38
271.013	9517.46
271.082	9504.31
271.151	9503.97
271.22	9470.94
271.289	9462.56
271.358	9440.02
271.427	9431.5
271.496	9422.21
271.565	9397.74
271.634	9389.12
271.703	9388.21
271.772	9393.84
271.841	9381.71
271.91	9358.69
271.979	9348.96
272.048	9322.19
272.117	9323.25
272.186	9310.82
272.255	9308.47
272.324	9305.82
272.393	9300.09
272.462	9279.38
272.531	9267.68
272.6	9257.32
272.669	9267.92
272.738	9257.32
272.807	9252.99
272.876	9236.48
272.945	9270.13
273.013	9271.39
273.082	9280.29
273.151	9254.97
273.22	9250.1
273.289	9245.96
273.358	9255.64
273.427	9243.32
273.496	9251.89
273.564	9244.13
273.633	9243.7
273.702	9229.98
273.771	9215.1
273.84	9211.39
273.909	9213.27
273.977	9214.72
274.046	9206.53
274.115	9209.03
274.184	9190.26
274.253	9184.91
274.322	9195.26
274.39	9160.45
274.459	9148.27
274.528	9120.25
274.597	9113.85
274.665	9108.17
274.734	9115.53
274.803	9100.46
274.872	9093.48
274.94	9067
275.009	9101.2
275.078	9087.43
275.147	9084.54
275.215	9082.81
275.284	9084.4
275.353	9063.74
275.421	9040.73
275.49	9055.95
275.559	9042.32
275.627	9038.08
275.696	9025.81
275.765	9026
275.833	9018.78
275.902	9015.75
275.971	9023.07
276.039	9034.57
276.108	9036.98
276.177	9031.1
276.245	9019.89
276.314	9015.99
276.383	9026.34
276.451	8981.12
276.52	8977.12
276.588	8985.21
276.657	8991.81
276.725	8983.96
276.794	8988.44
276.863	8998.64
276.931	8968.41
277	8969.08
277.068	8979.38
277.137	8997.82
277.205	8993.15
277.274	9007.45
277.342	9028
277.411	9005.38
277.48	8993.93
277.548	8983.19
277.617	8983.96
277.685	8975.1
277.754	8979.97
277.822	8971.16
277.89	8987.24
277.959	8984.25
278.027	8960.57
278.096	8943.24
278.164	8970.97
278.233	8966.93
278.301	8956.34
278.37	8960.96
278.438	8951.67
278.507	8952.25
278.575	8927.94
278.643	8922.4
278.712	8903.48
278.78	8881.53
278.849	8896.69
278.917	8909.98
278.985	8905.07
279.054	8907.42
279.122	8921.67
279.191	8918.35
279.259	8917.53
279.327	8892.83
279.396	8905.3
279.464	8903.14
279.532	8911.13
279.601	8903.52
279.669	8899.38
279.737	8913.72
279.806	8924.65
279.874	8937.02
279.942	8933.22
280.011	8923.84
280.079	8937.08
280.147	8960.52
280.215	8966.82
280.284	8960.04
280.352	8942.37
280.42	8954.26
280.488	8943.77
280.557	8936.11
280.625	8934.48
280.693	8936.5
280.761	8940.93
280.83	8923.69
280.898	8946.22
280.966	8927.3
281.034	8892.59
281.102	8873.29
281.171	8864.77
281.239	8867.57
281.307	8857.99
281.375	8849.13
281.443	8878.35
281.512	8875.07
281.58	8881.38
281.648	8860.68
281.716	8864.2
281.784	8868.14
281.852	8854.62
281.92	8851.3
281.989	8863.81
282.057	8853.18
282.125	8897.52
282.193	8890.88
282.261	8887.94
282.329	8869.99
282.397	8878.36
282.465	8884.86
282.533	8906.08
282.601	8897.32
282.67	8871.91
282.738	8865.79
282.806	8878.02
282.874	8866.18
282.942	8862.85
283.01	8849.57
283.078	8861.6
283.146	8854.09
283.214	8860.35
283.282	8867.76
283.35	8878.74
283.418	8874.98
283.486	8879.41
283.554	8830.4
283.622	8830.4
283.69	8835.02
283.758	8834.82
283.826	8840.79
283.894	8849.22
283.962	8870.74
284.03	8883.2
284.098	8890.42
284.165	8882.48
284.233	8879.06
284.301	8866.07
284.369	8857.84
284.437	8849.89
284.505	8844.41
284.573	8867.85
284.641	8858.41
284.709	8864.96
284.777	8849.32
284.845	8855.53
284.912	8855.82
284.98	8865.54
285.048	8858.51
285.116	8860.73
285.184	8877.67
285.252	8875.51
285.319	8857.22
285.387	8841.23
285.455	8820.87
285.523	8819.23
285.591	8820.53
285.659	8825.59
285.726	8845.37
285.794	8829.87
285.862	8830.31
285.93	8826.17
285.997	8813.89
286.065	8809.03
286.133	8799.93
286.201	8794.93
286.269	8776.92
286.336	8771.15
286.404	8755.99
286.472	8772.02
286.539	8755.89
286.607	8732.88
286.675	8729.61
286.743	8741.74
286.81	8734.47
286.878	8752.33
286.946	8747.23
287.013	8740.87
287.081	8735.96
287.149	8714.11
287.216	8742.6
287.284	8736.49
287.352	8744.29
287.419	8739.57
287.487	8754.06
287.555	8753.24
287.622	8755.07
287.69	8759.98
287.758	8775.82
287.825	8776.11
287.893	8760.32
287.96	8761.04
288.028	8774.61
288.096	8780.39
288.163	8782.55
288.231	8777.64
288.298	8774.18
288.366	8788.09
288.433	8789.87
288.501	8782.17
288.569	8794.3
288.636	8782.55
288.704	8799.74
288.771	8801.37
288.839	8792.66
288.906	8784.58
288.974	8799.64
289.041	8800.27
289.109	8789.34
289.176	8789.68
289.244	8791.89
289.311	8811.68
289.379	8821.5
289.446	8825.78
289.514	8824.34
289.581	8821.21
289.649	8821.45
289.716	8825.4
289.783	8824.91
289.851	8845.32
289.918	8845.66
289.986	8851.48
290.053	8855.57
290.121	8852.06
290.188	8852.73
290.255	8885.42
290.323	8878.68
290.39	8867.08
290.458	8866.4
290.525	8882.77
290.592	8879.74
290.66	8885.75
290.727	8873.53
290.794	8885.75
290.862	8886.28
290.929	8885.7
290.996	8892.4
291.064	8897.06
291.131	8913.24
291.198	8921.52
291.266	8918.01
291.333	8920.85
291.4	8926.05
291.468	8946.84
291.535	8933.13
291.602	8939.87
291.669	8931.34
291.737	8940.44
291.804	8943.91
291.871	8965.47
291.938	8969.37
292.006	8999.32
292.073	9009.62
292.14	9021.37
292.207	9017.9
292.275	9019.68
292.342	9031.86
292.409	9056.85
292.476	9085.35
292.543	9070.19
292.611	9076.5
292.678	9099.32
292.745	9123.43
292.812	9132.25
292.879	9125.94
292.946	9140.62
293.014	9149.14
293.081	9158.05
293.148	9174.46
293.215	9189.58
293.282	9179.18
293.349	9192.67
293.416	9169.36
293.484	9178.6
293.551	9187.22
293.618	9206.82
293.685	9233.2
293.752	9225.74
293.819	9224.06
293.886	9206.77
293.953	9220.15
294.02	9223.28
294.087	9224.15
294.154	9223.24
294.221	9241.63
294.288	9239.46
294.356	9257.95
294.423	9275
294.49	9264.36
294.557	9276.4
294.624	9267.49
294.691	9294.02
294.758	9292.72
294.825	9298.3
294.892	9295.51
294.959	9291.85
295.026	9299.17
295.093	9286.7
295.16	9286.6
295.226	9286.89
295.293	9317.18
295.36	9320.02
295.427	9332.11
295.494	9342.85
295.561	9349.97
295.628	9372.56
295.695	9387.73
295.762	9380.94
295.829	9380.8
295.896	9401.41
295.963	9412.14
296.03	9421.34
296.096	9430.93
296.163	9441.42
296.23	9461.6
296.297	9478.89
296.364	9482.06
296.431	9489.19
296.498	9484.76
296.564	9514.28
296.631	9513.46
296.698	9499.35
296.765	9517.12
296.832	9505.85
296.899	9495.35
296.965	9518.76
297.032	9488.12
297.099	9506.28
297.166	9521.26
297.233	9516.87
297.299	9510.13
297.366	9506.38
297.433	9508.06
297.5	9516.01
297.566	9520.87
297.633	9519.19
297.7	9522.32
297.767	9524.92
297.833	9529.01
297.9	9534.26
297.967	9515.82
298.033	9537.88
298.1	9567.3
298.167	9560.18
298.234	9566.34
298.3	9577.22
298.367	9566.96
298.434	9582.9
298.5	9570
298.567	9563.88
298.634	9567.49
298.7	9590.75
298.767	9592.54
298.834	9608.67
298.9	9597.21
298.967	9585.17
299.033	9593.5
299.1	9606.84
299.167	9617.82
299.233	9611.9
299.3	9630.39
299.366	9654.23
299.433	9662.66
299.5	9634.43
299.566	9637.22
299.633	9659.09
299.699	9674.45
299.766	9674.07
299.832	9680.72
299.899	9698.92
299.965	9717.56
300.032	9712.89
300.099	9715.11
300.165	9725.22
300.232	9726.47
300.298	9729.31
300.365	9754.21
300.431	9755.08
300.498	9744.44
300.564	9754.6
300.631	9770.44
300.697	9782.82
300.763	9780.85
300.83	9779.88
300.896	9800.98
300.963	9812.06
301.029	9811.96
301.096	9812.54
301.162	9824.82
301.229	9813.79
301.295	9803.34
301.361	9802.04
301.428	9811.24
301.494	9793.56
301.561	9793.85
301.627	9787.3
301.693	9791.92
301.76	9788.36
301.826	9780.51
301.892	9798.09
301.959	9807.19
302.025	9801.6
302.092	9798.86
302.158	9805.94
302.224	9805.07
302.291	9792.07
302.357	9787.49
302.423	9777.23
302.49	9769.62
302.556	9781.04
302.622	9781.52
302.688	9791.78
302.755	9806.62
302.821	9814.9
302.887	9827.76
302.954	9827.57
303.02	9837.15
303.086	9844.33
303.152	9838.79
303.219	9838.79
303.285	9843.17
303.351	9852.85
303.417	9855.7
303.483	9840.33
303.55	9833.93
303.616	9838.74
303.682	9839.27
303.748	9832.24
303.815	9852.81
303.881	9863.65
303.947	9847.46
304.013	9848.43
304.079	9840.04
304.145	9821.16
304.212	9821.16
304.278	9817.89
304.344	9812.88
304.41	9803.05
304.476	9793.18
304.542	9793.47
304.608	9798.57
304.674	9778.15
304.741	9765.67
304.807	9768.56
304.873	9779.93
304.939	9795.68
305.005	9768.56
305.071	9765.1
305.137	9770.63
305.203	9746.26
305.269	9744.62
305.335	9751.46
305.401	9753.05
305.467	9754.84
305.533	9764.13
305.599	9767.17
305.666	9774.05
305.732	9773.67
305.798	9789.85
305.864	9816.97
305.93	9824.63
305.996	9826.8
306.062	9827.28
306.128	9822.61
306.194	9810.56
306.259	9808.98
306.325	9799.44
306.391	9821.5
306.457	9831.71
306.523	9837.58
306.589	9861.23
306.655	9850.73
306.721	9844.38
306.787	9829.69
306.853	9837.39
306.919	9815.58
306.985	9812.11
307.051	9802.52
307.117	9792.7
307.183	9784.85
307.248	9758.11
307.314	9761.44
307.38	9763.8
307.446	9776.8
307.512	9771.65
307.578	9775.89
307.644	9768.9
307.709	9771.21
307.775	9759.22
307.841	9756.81
307.907	9758.45
307.973	9743.85
308.039	9747.66
308.104	9745.64
308.17	9750.69
308.236	9734.51
308.302	9744.24
308.368	9730.17
308.433	9730.66
308.499	9730.08
308.565	9718.9
308.631	9720.01
308.696	9694.39
308.762	9676.67
308.828	9669.78
308.894	9650.66
308.959	9631.45
309.025	9623.16
309.091	9613.91
309.156	9609.92
309.222	9610.54
309.288	9592.58
309.354	9564.79
309.419	9557.81
309.485	9539.36
309.551	9544.9
309.616	9537.58
309.682	9530.02
309.748	9524.39
309.813	9517.07
309.879	9501.27
309.945	9490.49
310.01	9486.49
310.076	9489.71
310.141	9485.48
310.207	9480.42
310.273	9483.12
310.338	9482.15
310.404	9468.57
310.469	9458.32
310.535	9445.7
310.601	9422.15
310.666	9427.83
310.732	9436.84
310.797	9426.05
310.863	9417.57
310.928	9406.21
310.994	9400.33
311.059	9403.42
311.125	9396.87
311.191	9412.62
311.256	9411.36
311.322	9416.28
311.387	9390.23
311.453	9782.25
311.518	9757.46
311.584	9745.13
311.649	9750.19
311.715	9743.35
311.78	9743.4
311.846	9729.77
311.911	9731.02
311.976	9736.27
312.042	9716.77
312.107	9705.36
312.173	9693.17
312.238	9687.83
312.304	9683.21
312.369	9677.53
312.434	9656.39
312.5	9655.47
312.565	9616.56
312.631	9618.01
312.696	9611.41
312.761	9618.68
312.827	9218.08
312.892	9269.32
312.958	9262.14
313.023	9257.33
313.088	9255.21
313.154	9240.81
313.219	9233.5
313.284	9228.1
313.35	9224.25
313.415	9216.07
313.48	9206.25
313.546	9211.25
313.611	9223.34
313.676	9213.03
313.741	9201.58
313.807	9213.95
313.872	9217.71
313.937	9222.47
314.003	9234.89
314.068	9236.58
314.133	9235.38
314.198	9220.69
314.264	9189.34
314.329	9184.43
314.394	9182.98
314.459	9177.35
314.525	9199.84
314.59	9195.26
314.655	9185.97
314.72	9193.96
314.785	9200.85
314.851	9203.45
314.916	9189.1
314.981	9178.89
315.046	9171.62
315.111	9161.66
315.176	9151.98
315.242	9152.17
315.307	9155.01
315.372	9128.39
315.437	9114.71
315.502	9109.75
315.567	9121.98
315.632	9111.1
315.698	9114.76
315.763	9114.57
315.828	9112.93
315.893	9107.54
315.958	9110.91
316.023	9093.87
316.088	9071.14
316.153	9046.98
316.218	9041.39
316.283	9021.9
316.348	8996.72
316.413	8996.24
316.479	8983.59
316.544	8945.95
316.609	8912.44
316.674	8874.08
316.739	8848.14
316.804	8815.89
316.869	8783.98
316.934	8747.06
316.999	8713.8
317.064	8661.82
317.129	8611.91
317.194	8572.06
317.259	8523.55
317.324	8462.87
317.389	8422.7
317.454	8381.51
317.518	8348.5
317.583	8318.28
317.648	8295.13
317.713	8260.54
317.778	8198.52
317.843	8170.19
317.908	8133.92
317.973	8096.73
318.038	8069.07
318.103	8024.15
318.168	7996.64
318.233	7961.04
318.297	7914.05
318.362	7878.89
318.427	7839.89
318.492	7812.24
318.557	7759.83
318.622	7730.45
318.687	7711.26
318.751	7672.56
318.816	7641.98
318.881	7608.66
318.946	7552.16
319.011	7501.01
319.075	7461.88
319.14	7428.33
319.205	7383.24
319.27	7352.91
319.335	7308.02
319.399	7270.48
319.464	7246.6
319.529	7195.89
319.594	7156.34
319.658	7123.9
319.723	7081.23
319.788	7051.78
319.853	6996.95
319.917	6977.02
319.982	6924.69
320.047	6887.42
320.112	6862.72
320.176	6810.27
320.241	6775.54
320.306	6751.9
320.37	6717.28
320.435	6687.79
320.5	6659.79
320.564	6625.17
320.629	6583.3
320.694	6557.71
320.758	6514.97
320.823	6474.64
320.888	6446.85
320.952	6399.81
321.017	6358.33
321.082	6317.49
321.146	6285.47
321.211	6255.09
321.275	6210.89
321.34	6167.37
321.405	6128.65
321.469	6082.83
321.534	6043.87
321.598	5994.17
321.663	5958.61
321.727	5928
321.792	5876.15
321.857	5832.11
321.921	5788.28
321.986	5746.23
322.05	5686
322.115	5644.67
322.179	5601.28
322.244	5540.64
322.308	5511.97
322.373	5465.29
322.437	5425.08
322.502	5390.84
322.566	5346.12
322.631	5313.49
322.695	5275.73
322.76	5228.44
322.824	5191.07
322.889	5148.39
322.953	5104.95
323.018	5036.21
323.082	4971.76
323.146	4919.82
323.211	4866.04
323.275	4822.09
323.34	4775.56
323.404	4738.66
323.468	4699.17
323.533	4652.79
323.597	4607.88
323.662	4550.02
323.726	4514.94
323.79	4468.67
323.855	4405.21
323.919	4354.46
323.983	4306.76
324.048	4240.07
324.112	4402.65
324.177	4273.86
324.241	4052.32
324.305	3836.08
324.37	3626.2
324.434	3421.92
324.498	3380.66
324.562	3329.97
324.627	3269.58
324.691	3212.96
324.755	3146.19
324.82	3064.15
324.884	2984.23
324.948	2911.71
325.012	2817.57
325.077	2689.79
