Data from 20250703_urea_0.1M_MAYP1162681_17-11-04-982.txt Node
Date: Thu Jul 03 17:11:04 BST 2025
User: adleo
Spectrometer: MAYP116268
Trigger mode: 0
Integration Time (sec): 1.000000E0
Scans to average: 1
Electric dark correction enabled: true
Nonlinearity correction enabled: true
Boxcar width: 10
XAxis mode: Wavelengths
Number of Pixels in Spectrum: 2068
>>>>>Begin Spectral Data<<<<<
179.565	1326.14
179.642	1386.66
179.718	1433.88
179.795	1473.57
179.871	1507.37
179.948	1527.83
180.024	1550.11
180.101	1570.53
180.177	1588.17
180.254	1613.73
180.33	1637.04
180.407	1701.78
180.483	1803.92
180.56	1904.61
180.636	1996.91
180.712	1981.31
180.789	1992.15
180.865	2008.89
180.942	2017.73
181.018	2026.62
181.095	2039.8
181.171	2047.32
181.248	2047.6
181.324	2064.49
181.4	2074
181.477	2088.8
181.553	2105.92
181.63	2126.23
181.706	2150.87
181.782	2159.72
181.859	2160.57
181.935	2168.57
182.011	2162.38
182.088	2183.6
182.164	2203.98
182.24	2217.44
182.317	2227.8
182.393	2227.42
182.469	2238.61
182.546	2251.17
182.622	2258.11
182.698	2253.93
182.775	2264.87
182.851	2282.67
182.927	2274.39
183.003	2269.34
183.08	2261.07
183.156	2267.06
183.232	2264.49
183.308	2247.79
183.385	2255.88
183.461	2273.49
183.537	2274.58
183.613	2292.14
183.69	2280.62
183.766	2268.58
183.842	2278.67
183.918	2284.38
183.995	2299.61
184.071	2303.75
184.147	2299.04
184.223	2287.95
184.299	2300.95
184.375	2288.77
184.452	2291.91
184.528	2346.9
184.604	2359.27
184.68	2372.78
184.756	2382.68
184.832	2389.78
184.908	2395.96
184.985	2395.29
185.061	2375.83
185.137	2386.06
185.213	2370.88
185.289	2372.12
185.365	2363.51
185.441	2358.7
185.517	2374.17
185.593	2368.13
185.669	2367.61
185.745	2378.65
185.822	2395.3
185.898	2388.11
185.974	2395.82
186.05	2389.77
186.126	2353.07
186.202	2344.45
186.278	2340.36
186.354	2329.41
186.43	2335.93
186.506	2336.31
186.582	2335.84
186.658	2343.93
186.734	2321.56
186.81	2322.94
186.886	2327.56
186.962	2341.07
187.038	2340.07
187.114	2330.45
187.19	2339.45
187.266	2327.88
187.341	2327.98
187.417	2320.03
187.493	2319.41
187.569	2324.89
187.645	2318.22
187.721	2303.8
187.797	2312.03
187.873	2318.65
187.949	2312.79
188.025	2303.84
188.101	2304.99
188.176	2310.17
188.252	2304.61
188.328	2311.6
188.404	2313.36
188.48	2306.6
188.556	2300.13
188.632	2297.65
188.707	2298.61
188.783	2294.89
188.859	2286
188.935	2275.24
189.011	2283
189.086	2273.86
189.162	2268.01
189.238	2265.82
189.314	2264.11
189.39	2259.01
189.465	2251.26
189.541	2268.82
189.617	2257.35
189.693	2249.69
189.768	2253.64
189.844	2281.73
189.92	2275.74
189.996	2283.97
190.071	2296.01
190.147	2295.96
190.223	2307.34
190.298	2298.87
190.374	2287.16
190.45	2302.62
190.526	2312.57
190.601	2305.38
190.677	2307.76
190.753	2335.43
190.828	2338.71
190.904	2353.18
190.98	2367.89
191.055	2375.27
191.131	2363.75
191.207	2381.22
191.282	2396.87
191.358	2384.45
191.433	2367.17
191.509	2380.68
191.585	2377.96
191.66	2378.35
191.736	2383.82
191.811	2374.3
191.887	2390.53
191.963	2416.53
192.038	2423.15
192.114	2420.77
192.189	2425.05
192.265	2422.58
192.34	2400.14
192.416	2398.52
192.491	2396.38
192.567	2399.91
192.642	2404.29
192.718	2406.67
192.793	2394.72
192.869	2390.2
192.944	2395.33
193.02	2408.67
193.095	2413.67
193.171	2419.9
193.246	2420.95
193.322	2419.95
193.397	2421.09
193.473	2407.19
193.548	2382.9
193.624	2391.29
193.699	2392.1
193.775	2411.34
193.85	2415.43
193.925	2424.09
194.001	2426.47
194.076	2416.76
194.152	2405.76
194.227	2398.62
194.302	2387.34
194.378	2394.81
194.453	2389.34
194.529	2400.91
194.604	2381.34
194.679	2373.68
194.755	2353.36
194.83	2368.6
194.905	2364.79
194.981	2375.51
195.056	2368.13
195.131	2376.03
195.207	2371.27
195.282	2360.75
195.357	2338.22
195.433	2353.65
195.508	2337.89
195.583	2345.65
195.659	2361.03
195.734	2371.98
195.809	2372.17
195.884	2382.02
195.96	2379.31
196.035	2394.92
196.11	2391.68
196.185	2404.44
196.261	2407.06
196.336	2439.23
196.411	2422.99
196.486	2428.8
196.561	2417.71
196.637	2425.13
196.712	2442.71
196.787	2446.99
196.862	2462.03
196.937	2476.03
197.013	2480.36
197.088	2490.93
197.163	2511.75
197.238	2531.29
197.313	2527.62
197.388	2540.62
197.464	2572.39
197.539	2585.11
197.614	2575.68
197.689	2589.25
197.764	2607.6
197.839	2632.46
197.914	2626.5
197.989	2650.23
198.065	2667.76
198.14	2724.86
198.215	2756.54
198.29	2770.7
198.365	2786.9
198.44	2799.91
198.515	2829.6
198.59	2846.9
198.665	2877.83
198.74	2887.12
198.815	2887.6
198.89	2912.28
198.965	2943.32
199.04	2939.22
199.115	2957.57
199.19	3007.38
199.265	3010.09
199.34	3020.77
199.415	3054.21
199.49	3077.23
199.565	3085.91
199.64	3111.42
199.715	3108.56
199.79	3114.85
199.865	3122.01
199.94	3116.91
200.015	3148.91
200.09	3151.92
200.165	3160.93
200.24	3169.76
200.315	3217.26
200.39	3233.72
200.464	3245.17
200.539	3249.32
200.614	3267.73
200.689	3291.34
200.764	3299.41
200.839	3321.63
200.914	3330.79
200.989	3322.39
201.063	3339.23
201.138	3321.54
201.213	3318.87
201.288	3299.74
201.363	3307.95
201.438	3307.42
201.512	3326.07
201.587	3309.46
201.662	3314.23
201.737	3328.17
201.812	3335.04
201.886	3292.59
201.961	3300.23
202.036	3287.2
202.111	3285.01
202.186	3256.36
202.26	3241.47
202.335	3215.51
202.41	3213.13
202.485	3195.43
202.559	3176.92
202.634	3150.74
202.709	3163.84
202.784	3148.2
202.858	3150.92
202.933	3133.18
203.008	3131.94
203.082	3116.2
203.157	3120.92
203.232	3085.64
203.306	3070.37
203.381	3045.33
203.456	3031.31
203.53	3021.34
203.605	3012.18
203.68	2998.25
203.754	3003.59
203.829	3000.39
203.904	2999.35
203.978	2999.87
204.053	3022
204.127	3028.53
204.202	3050.24
204.277	3055.19
204.351	3074.85
204.426	3093.26
204.5	3117.07
204.575	3110.82
204.65	3157.4
204.724	3186.33
204.799	3228.15
204.873	3261.76
204.948	3304.42
205.022	3342.4
205.097	3378.27
205.171	3438.84
205.246	3501.36
205.32	3557.67
205.395	3616.23
205.469	3666.64
205.544	3739.24
205.618	3786.83
205.693	3872.38
205.767	3928.72
205.842	4025.62
205.916	4098.28
205.991	4165.89
206.065	4252.17
206.14	4358.2
206.214	4442.45
206.289	4528.32
206.363	4639.49
206.438	4739.85
206.512	4847.49
206.586	4971.47
206.661	5091.02
206.735	5178.28
206.81	5296.7
206.884	5431.12
206.958	5536.99
207.033	5680.56
207.107	5810.58
207.181	5980.68
207.256	6101.75
207.33	6258.41
207.405	6411.99
207.479	6574.27
207.553	6724.72
207.628	6852.49
207.702	7007.87
207.776	7144.7
207.851	7296.26
207.925	7463.55
207.999	7617.58
208.073	7768.78
208.148	7930.46
208.222	8077.99
208.296	8275.25
208.371	8448.59
208.445	8617.78
208.519	8810.92
208.593	8989.78
208.668	9155.15
208.742	9319.08
208.816	9487.91
208.89	9662.43
208.965	9826.39
209.039	9996.95
209.113	10185.33
209.187	10374.17
209.261	10542.05
209.336	10740.83
209.41	10934.28
209.484	11107.08
209.558	11305
209.632	11496.11
209.707	11673.94
209.781	11864.79
209.855	12051.03
209.929	12238.38
210.003	12415.18
210.077	12585.33
210.151	12791.15
210.226	12987.39
210.3	13182.47
210.374	13374.94
210.448	13550.55
210.522	13720.42
210.596	13895.36
210.67	14071.26
210.744	14283.69
210.818	14474.97
210.892	14651.97
210.966	14806.75
211.041	14981.54
211.115	15127.98
211.189	15311.14
211.263	15489.25
211.337	15650.72
211.411	15811.33
211.485	15956.84
211.559	16118.31
211.633	16272.02
211.707	16387.69
211.781	16550.74
211.855	16656.14
211.929	16790.95
212.003	16909.42
212.077	17080.07
212.151	17235.6
212.225	17389.86
212.299	17520.75
212.373	17647.5
212.447	17780.99
212.52	17945.57
212.594	18075.59
212.668	18223.2
212.742	18333.9
212.816	18462.81
212.89	18581.5
212.964	18716.92
213.038	18839.23
213.112	18981.44
213.186	19110.11
213.26	19219.88
213.333	19283.25
213.407	19407.87
213.481	19524.35
213.555	19657.21
213.629	19736.15
213.703	19828.38
213.777	19929.59
213.85	20017.63
213.924	20156.24
213.998	20258.5
214.072	20349.93
214.146	20438.6
214.219	20540.53
214.293	20639.23
214.367	20733.31
214.441	20844.21
214.515	20922.67
214.588	21005.71
214.662	21053.43
214.736	21126.2
214.81	21210.25
214.883	21308.09
214.957	21383.04
215.031	21458.9
215.105	21514.13
215.178	21592.36
215.252	21666.54
215.326	21713.1
215.4	21770.41
215.473	21799.72
215.547	21862.24
215.621	21925.15
215.694	22011.1
215.768	22046.58
215.842	22100.76
215.915	22154.13
215.989	22192.94
216.063	22251.08
216.136	22307.77
216.21	22369.43
216.284	22453.36
216.357	22524.71
216.431	22585.26
216.504	22653.92
216.578	22736.17
216.652	22808.24
216.725	22853.85
216.799	22925.7
216.873	22988.47
216.946	23054.43
217.02	23099.12
217.093	23141.41
217.167	23170.97
217.24	23197.1
217.314	23244.98
217.387	23284.23
217.461	23327
217.535	23388.39
217.608	23413.42
217.682	23446.5
217.755	23495.87
217.829	23527.95
217.902	23579.93
217.976	23627.49
218.049	23664.91
218.123	23684.3
218.196	23724.23
218.27	23766.86
218.343	23789.67
218.417	23835.2
218.49	23866.94
218.563	23929.54
218.637	23976.23
218.71	24039.61
218.784	24096.92
218.857	24151.71
218.931	24204.76
219.004	24241.13
219.077	24280.3
219.151	24329.6
219.224	24370.79
219.298	24422.17
219.371	24458.44
219.444	24470.98
219.518	24494.72
219.591	24523.52
219.665	24598.5
219.738	24640.61
219.811	24670.28
219.885	24700.48
219.958	24739.07
220.031	24768.36
220.105	24795.62
220.178	24824.57
220.251	24836.77
220.325	24867.17
220.398	24898.15
220.471	24913.1
220.544	24951.22
220.618	24963.38
220.691	24980.41
220.764	25004.78
220.838	25031.41
220.911	25052.07
220.984	25099.74
221.057	25138.24
221.131	25160.92
221.204	25142.05
221.277	25180.56
221.35	25230.27
221.424	25240.59
221.497	25252.99
221.57	25266.79
221.643	25290.15
221.716	25312.4
221.79	25329.82
221.863	25331.89
221.936	25335.95
222.009	25361.14
222.082	25375.32
222.155	25397.72
222.229	25434.15
222.302	25448.87
222.375	25444.09
222.448	25461.37
222.521	25465.96
222.594	25458.52
222.667	25460.5
222.74	25477.49
222.814	25481.74
222.887	25483.62
222.96	25506.35
223.033	25522.52
223.106	25532.46
223.179	25549.93
223.252	25554.81
223.325	25558.47
223.398	25563.54
223.471	25565.33
223.544	25570.2
223.617	25561.75
223.69	25559.39
223.763	25545.63
223.837	25556.93
223.91	25566.39
223.983	25544.62
224.056	25529.9
224.129	25533.71
224.202	25535.6
224.275	25523.87
224.348	25503.16
224.42	25469.53
224.493	25447.33
224.566	25426.86
224.639	25431.3
224.712	25419.77
224.785	25402.68
224.858	25383.48
224.931	25376.09
225.004	25362.15
225.077	25352.78
225.15	25319.73
225.223	25302.6
225.296	25309.55
225.369	25273.31
225.442	25255.69
225.514	25250.48
225.587	25249.61
225.66	25247.63
225.733	25233.35
225.806	25220.56
225.879	25206.76
225.952	25196.58
226.025	25209.85
226.097	25225.92
226.17	25197.21
226.243	25144.18
226.316	25115.9
226.389	25108.52
226.461	25087.82
226.534	25083.62
226.607	25051.29
226.68	25066.01
226.753	25048.64
226.825	25015.63
226.898	25013.7
226.971	24998.12
227.044	24989
227.117	24961.21
227.189	24938.24
227.262	24929.65
227.335	24912.42
227.407	24887.43
227.48	24871.08
227.553	24834.6
227.626	24796.38
227.698	24779.4
227.771	24778.53
227.844	24752.91
227.916	24724.45
227.989	24692.7
228.062	24656.14
228.134	24671.53
228.207	24650.25
228.28	24624.78
228.352	24608.13
228.425	24590.62
228.498	24580.44
228.57	24543.78
228.643	24535.62
228.716	24503.74
228.788	24475.32
228.861	24447.39
228.934	24441.12
229.006	24413.24
229.079	24390.03
229.151	24357.86
229.224	24326.22
229.296	24307.5
229.369	24315.17
229.442	24318.45
229.514	24291.54
229.587	24284.78
229.659	24230.95
229.732	24200.22
229.804	24186.13
229.877	24178.03
229.949	24163.03
230.022	24153.52
230.094	24127.19
230.167	24100.71
230.239	24078.62
230.312	24058.41
230.384	24063.81
230.457	24037.86
230.529	24019.05
230.602	24000.97
230.674	23982.3
230.747	23974.2
230.819	23961.56
230.892	23912.56
230.964	23881.5
231.037	23861.44
231.109	23840.17
231.181	23821.41
231.254	23781.43
231.326	23750.52
231.399	23704.12
231.471	23664.76
231.544	23609.97
231.616	23598.55
231.688	23576.89
231.761	23533.06
231.833	23497.62
231.905	23440.71
231.978	23413.56
232.05	23382.22
232.122	23346.34
232.195	23315.19
232.267	23298.45
232.339	23260.45
232.412	23246.47
232.484	23210.3
232.556	23172.93
232.629	23162.52
232.701	23150.13
232.773	23127.13
232.846	23102.54
232.918	23092.65
232.99	23068.3
233.062	23045.59
233.135	23015.02
233.207	22972.98
233.279	22957.64
233.351	22941.06
233.424	22907.31
233.496	22861.27
233.568	22850.61
233.64	22803.27
233.713	22775.16
233.785	22733.36
233.857	22700.28
233.929	22651.78
234.001	22637.08
234.074	22628.93
234.146	22567.6
234.218	22523.78
234.29	22484.1
234.362	22435.85
234.434	22377.41
234.507	22328.05
234.579	22277.19
234.651	22242.1
234.723	22209.07
234.795	22177.55
234.867	22138.26
234.939	22120.28
235.012	22097.33
235.084	22074.29
235.156	22063.92
235.228	22012.49
235.3	21976.05
235.372	21944.57
235.444	21917
235.516	21851.73
235.588	21811.48
235.66	21782.56
235.732	21744.81
235.804	21766.51
235.876	21752.91
235.948	21736.43
236.02	21701.92
236.092	21665.82
236.164	21627.35
236.236	21594.48
236.308	21558.96
236.38	21521.89
236.452	21479.81
236.524	21443.18
236.596	21411.95
236.668	21375.17
236.74	21337.19
236.812	21304.22
236.884	21272.46
236.956	21248.51
237.028	21209.76
237.1	21168.16
237.172	21148.74
237.244	21123.58
237.316	21049.3
237.388	21005.88
237.46	20960.86
237.532	20942.31
237.604	20891.9
237.675	20873.73
237.747	20845.25
237.819	20795.46
237.891	20757.87
237.963	20709.24
238.035	20664.52
238.107	20595.6
238.178	20570.44
238.25	20540.51
238.322	20522.78
238.394	20467.16
238.466	20415.79
238.538	20390.01
238.609	20355.69
238.681	20288.56
238.753	20235.74
238.825	20199.84
238.897	20160.61
238.968	20142.39
239.04	20097.24
239.112	20099.55
239.184	20044.18
239.255	20000.61
239.327	19967.8
239.399	19930.11
239.471	19898.69
239.542	19867.61
239.614	19840.62
239.686	19768.72
239.758	19746.22
239.829	19693.16
239.901	19672.63
239.973	19639.04
240.044	19608.68
240.116	19566.61
240.188	19531.77
240.259	19501.02
240.331	19459.39
240.403	19423.58
240.474	19368.88
240.546	19321.18
240.618	19257.61
240.689	19211.98
240.761	19165.14
240.833	19144.51
240.904	19095.99
240.976	19051.31
241.048	19016.23
241.119	18984.62
241.191	18963.95
241.262	18936.96
241.334	18896.09
241.405	18856.39
241.477	18805.79
241.549	18768.92
241.62	18729.84
241.692	18698.81
241.763	18659.72
241.835	18625.32
241.906	18584.69
241.978	18525.18
242.049	18506.91
242.121	18482.24
242.192	18467.49
242.264	18424.12
242.335	18371.55
242.407	18353.19
242.478	18326.01
242.55	18284.95
242.621	18237.62
242.693	18195.7
242.764	18146.26
242.836	18102.74
242.907	18065.44
242.979	18037.15
243.05	17996.24
243.122	17973.44
243.193	17931.81
243.264	17879.95
243.336	17836.87
243.407	17817.11
243.479	17798.27
243.55	17760.63
243.622	17731.91
243.693	17684.25
243.764	17669.21
243.836	17623.33
243.907	17583.57
243.978	17543.96
244.05	17515.77
244.121	17459.72
244.192	17433.4
244.264	17384.15
244.335	17352.49
244.407	17294.17
244.478	17271.86
244.549	17232.39
244.62	17176.24
244.692	17150.08
244.763	17129.93
244.834	17089.98
244.906	17040.63
244.977	17015.04
245.048	16998.51
245.119	16952.96
245.191	16913.39
245.262	16848.19
245.333	16832.33
245.405	16790.54
245.476	16757.68
245.547	16728.42
245.618	16715.41
245.689	16686.06
245.761	16658.73
245.832	16623.26
245.903	16599.79
245.974	16569.76
246.045	16530.34
246.117	16517.56
246.188	16464.84
246.259	16416.01
246.33	16378.95
246.401	16344.29
246.473	16287.47
246.544	16234.26
246.615	16210.16
246.686	16162.01
246.757	16153.24
246.828	16109.28
246.899	16102.63
246.97	16055.2
247.042	16014.14
247.113	15988.4
247.184	15967.67
247.255	15921.31
247.326	15894.56
247.397	15861.54
247.468	15822.64
247.539	15795.55
247.61	15744.61
247.681	15723.06
247.752	15706.77
247.823	15668.55
247.894	15640.06
247.965	15607.19
248.037	15577.78
248.108	15522.11
248.179	15499.41
248.25	15464.42
248.321	15442.29
248.392	15395.83
248.463	15393.85
248.534	15354.08
248.605	15321.98
248.675	15283.28
248.746	15267.61
248.817	15234.64
248.888	15216.32
248.959	15168.8
249.03	15149.61
249.101	15129.66
249.172	15094.42
249.243	15044.14
249.314	15032.14
249.385	15005.48
249.456	14980.08
249.527	14948.94
249.598	14934.77
249.669	14908.69
249.739	14881.17
249.81	14852.68
249.881	14800.28
249.952	14774.44
250.023	14747.93
250.094	14709.9
250.165	14673.31
250.235	14645.5
250.306	14621.15
250.377	14577.53
250.448	14554.44
250.519	14499.05
250.59	14484.97
250.66	14454.65
250.731	14441.49
250.802	14408.33
250.873	14385.96
250.944	14365.86
251.014	14332.16
251.085	14332.02
251.156	14308.83
251.227	14296.35
251.297	14287.77
251.368	14278.66
251.439	14258.17
251.51	14242.21
251.58	14200.9
251.651	14177.33
251.722	14154.14
251.792	14107.86
251.863	14078.99
251.934	14074.46
252.005	14082.31
252.075	14049.05
252.146	14037.96
252.217	14024.51
252.287	14012.22
252.358	13987.11
252.429	13980.89
252.499	13943.43
252.57	13920.97
252.641	13904.63
252.711	13873.1
252.782	13826.97
252.852	13823.78
252.923	13791.29
252.994	13773.41
253.064	13771.34
253.135	13735.23
253.205	13711.41
253.276	13713.63
253.347	13706.5
253.417	13673.14
253.488	13648.55
253.558	13628.02
253.629	13604.3
253.699	13588.15
253.77	13566.41
253.841	13533.92
253.911	13510.44
253.982	13495.11
254.052	13471.25
254.123	13453.41
254.193	13440.11
254.264	13461.08
254.334	13421.36
254.405	13388.91
254.475	13353.43
254.546	13323.74
254.616	13319.16
254.687	13298.24
254.757	13276.35
254.827	13257.21
254.898	13235.62
254.968	13210.69
255.039	13182.73
255.109	13168.56
255.18	13133.56
255.25	13094.18
255.321	13073.35
255.391	13040.09
255.461	13049.59
255.532	13005.53
255.602	12971.88
255.673	12925.55
255.743	12894.65
255.813	12853.29
255.884	12842.35
255.954	12825.96
256.024	12822.44
256.095	12798.97
256.165	12769.7
256.235	12756.74
256.306	12728.34
256.376	12719.81
256.446	12709.5
256.517	12689.06
256.587	12676.04
256.657	12657.24
256.728	12639.16
256.798	12625.57
256.868	12598.91
256.938	12559.48
257.009	12546.32
257.079	12537.31
257.149	12540.3
257.219	12491.13
257.29	12484.91
257.36	12439.69
257.43	12432.95
257.5	12387.88
257.571	12361.75
257.641	12349.07
257.711	12315.38
257.781	12297.49
257.852	12281.78
257.922	12235.21
257.992	12216.03
258.062	12200.6
258.132	12187.16
258.202	12162.96
258.273	12149.61
258.343	12152.64
258.413	12130.9
258.483	12109.21
258.553	12082.17
258.623	12057.4
258.693	12050.36
258.764	12040.86
258.834	12044.09
258.904	12025.29
258.974	12000.71
259.044	11982.97
259.114	11961.86
259.184	11946.58
259.254	11928.41
259.324	11888.45
259.394	11881.08
259.464	11884.55
259.535	11855.72
259.605	11834.03
259.675	11815.77
259.745	11801.21
259.815	11768.34
259.885	11738.6
259.955	11757.88
260.025	11723.32
260.095	11699.08
260.165	11687.32
260.235	11686.11
260.305	11660.76
260.375	11630.78
260.445	11640.81
260.515	11642.01
260.585	11642.25
260.655	11620.23
260.725	11617.14
260.795	11606.35
260.865	11611.12
260.934	11587.07
261.004	11580.12
261.074	11561.52
261.144	11558.34
261.214	11546.82
261.284	11532.22
261.354	11528.31
261.424	11494.57
261.494	11509.32
261.564	11496.21
261.634	11478.76
261.703	11435.97
261.773	11422.52
261.843	11417.8
261.913	11400.16
261.983	11360.88
262.053	11349.65
262.123	11335.33
262.192	11299.58
262.262	11300.59
262.332	11266.51
262.402	11252.1
262.472	11235.48
262.541	11197.21
262.611	11193.89
262.681	11161.31
262.751	11149.5
262.821	11131.05
262.89	11101.84
262.96	11086.95
263.03	11092.73
263.1	11084.11
263.169	11076.25
263.239	11065.75
263.309	11069.65
263.379	11061.65
263.448	11049.41
263.518	11028.98
263.588	11019.72
263.657	11023.14
263.727	11017.94
263.797	11002.28
263.867	10982.81
263.936	10951.49
264.006	10951.25
264.076	10931.2
264.145	10919.3
264.215	10896.31
264.285	10887.93
264.354	10853.28
264.424	10831.26
264.494	10795.7
264.563	10771.07
264.633	10778.11
264.702	10774.01
264.772	10731.32
264.842	10708.81
264.911	10699.37
264.981	10671.47
265.05	10648.49
265.12	10628.97
265.19	10605.5
265.259	10600.68
265.329	10593.94
265.398	10583.19
265.468	10602.23
265.537	10579.29
265.607	10574.28
265.676	10569.46
265.746	10566.86
265.815	10572.64
265.885	10560.36
265.955	10537.9
266.024	10520.75
266.094	10480.81
266.163	10475.07
266.232	10476.52
266.302	10456.14
266.371	10444.43
266.441	10434.46
266.51	10437.59
266.58	10415.72
266.649	10393.51
266.719	10392.59
266.788	10382.62
266.858	10386.86
266.927	10346.1
266.996	10342.73
267.066	10333.62
267.135	10310.78
267.205	10302.83
267.274	10283.8
267.343	10276.53
267.413	10264.2
267.482	10262.99
267.552	10265.74
267.621	10237.22
267.69	10209.85
267.76	10205.81
267.829	10192.32
267.898	10181.38
267.968	10155.8
268.037	10155.95
268.106	10147.42
268.176	10116.59
268.245	10096.21
268.314	10076.65
268.384	10075.97
268.453	10060.56
268.522	10047.46
268.592	10048.13
268.661	10022.89
268.73	10018.07
268.799	10001.93
268.869	10008.97
268.938	9980.88
269.007	9958.63
269.076	9943.12
269.146	9941.91
269.215	9935.46
269.284	9945.29
269.353	9938.49
269.422	9927.13
269.492	9910.12
269.561	9879.64
269.63	9874.82
269.699	9860.27
269.768	9851.8
269.838	9846.06
269.907	9839.51
269.976	9817.11
270.045	9786.24
270.114	9789.86
270.183	9773.05
270.253	9765.34
270.322	9736.83
270.391	9726.38
270.46	9730.18
270.529	9735.96
270.598	9733.07
270.667	9715.92
270.736	9693.24
270.806	9685.39
270.875	9690.59
270.944	9681.29
271.013	9703.06
271.082	9693.33
271.151	9691.36
271.22	9662.22
271.289	9652.49
271.358	9638.96
271.427	9634.14
271.496	9619.84
271.565	9601.49
271.634	9597.06
271.703	9623.8
271.772	9629.72
271.841	9624.62
271.91	9604.2
271.979	9593.65
272.048	9569.57
272.117	9572.03
272.186	9557.48
272.255	9559.89
272.324	9551.89
272.393	9541.06
272.462	9523.58
272.531	9514.09
272.6	9503.45
272.669	9510.52
272.738	9492.61
272.807	9489.96
272.876	9467.28
272.945	9505.28
273.013	9504.12
273.082	9507.64
273.151	9460.49
273.22	9454.61
273.289	9441.56
273.358	9451.96
273.427	9435.11
273.496	9438.67
273.564	9433.52
273.633	9435.78
273.702	9405.83
273.771	9391.96
273.84	9390.37
273.909	9387.77
273.977	9386.81
274.046	9375.78
274.115	9377.37
274.184	9364.76
274.253	9358.11
274.322	9370.53
274.39	9330.23
274.459	9317.32
274.528	9292.48
274.597	9284.72
274.665	9276.92
274.734	9291.61
274.803	9276.73
274.872	9274.66
274.94	9257.28
275.009	9315.47
275.078	9297.94
275.147	9290.82
275.215	9292.89
275.284	9301.03
275.353	9287.06
275.421	9264.14
275.49	9273.73
275.559	9262.12
275.627	9251.43
275.696	9240.79
275.765	9239.49
275.833	9229.58
275.902	9228.33
275.971	9238.92
276.039	9251.48
276.108	9254.52
276.177	9248.84
276.245	9240.75
276.314	9232.42
276.383	9239.59
276.451	9171.96
276.52	9173.31
276.588	9191.89
276.657	9188.09
276.725	9178.46
276.794	9181.69
276.863	9193.38
276.931	9175.04
277	9184.33
277.068	9198.29
277.137	9219.77
277.205	9212.64
277.274	9235.46
277.342	9244.66
277.411	9218.23
277.48	9203.88
277.548	9194.2
277.617	9186.84
277.685	9176.49
277.754	9180.82
277.822	9170.66
277.89	9181.45
277.959	9176.01
278.027	9157.86
278.096	9147.79
278.164	9175.34
278.233	9162.29
278.301	9150.55
278.37	9154.88
278.438	9140.53
278.507	9146.12
278.575	9114.24
278.643	9109.19
278.712	9086.08
278.78	9074.18
278.849	9094.31
278.917	9107.07
278.985	9102.3
279.054	9113.08
279.122	9132.78
279.191	9131.28
279.259	9127.14
279.327	9103.45
279.396	9118.72
279.464	9112.26
279.532	9120.11
279.601	9105.13
279.669	9104.41
279.737	9119.39
279.806	9121.02
279.874	9129.98
279.942	9125.89
280.011	9124.34
280.079	9136.33
280.147	9154.19
280.215	9156.26
280.284	9145.48
280.352	9130.27
280.42	9139.89
280.488	9124.68
280.557	9111.68
280.625	9120.11
280.693	9122.27
280.761	9124.78
280.83	9105.52
280.898	9115.39
280.966	9094.93
281.034	9063.78
281.102	9048.81
281.171	9043.17
281.239	9053.48
281.307	9041.78
281.375	9025.03
281.443	9047.17
281.512	9043.18
281.58	9051.41
281.648	9036.97
281.716	9041.3
281.784	9041.25
281.852	9035.23
281.92	9036.82
281.989	9048.67
282.057	9024.93
282.125	9078.68
282.193	9076.56
282.261	9083.2
282.329	9088.88
282.397	9093.12
282.465	9099.47
282.533	9120.31
282.601	9112.08
282.67	9084.88
282.738	9084.45
282.806	9101.73
282.874	9093.21
282.942	9092.77
283.01	9089.45
283.078	9092.44
283.146	9082.71
283.214	9094.27
283.282	9101.15
283.35	9111.6
283.418	9104.09
283.486	9116.03
283.554	9061.03
283.622	9061.85
283.69	9057.08
283.758	9040.67
283.826	9050.97
283.894	9065.94
283.962	9080.68
284.03	9096.13
284.098	9100.46
284.165	9093.29
284.233	9089.15
284.301	9080.05
284.369	9078.17
284.437	9063.15
284.505	9060.07
284.573	9075.76
284.641	9065.56
284.709	9068.3
284.777	9043.22
284.845	9052.42
284.912	9050.11
284.98	9055.64
285.048	9050.78
285.116	9057.04
285.184	9077.55
285.252	9066.38
285.319	9051.21
285.387	9039.56
285.455	9020.74
285.523	9026.9
285.591	9028.15
285.659	9026.61
285.726	9041.24
285.794	9021.41
285.862	9023.1
285.93	9028.78
285.997	9026.51
286.065	9015.78
286.133	9000.52
286.201	9006.58
286.269	8990.41
286.336	8979.53
286.404	8972.21
286.472	8984.2
286.539	8963.4
286.607	8947.18
286.675	8954.54
286.743	8955.41
286.81	8958.2
286.878	8965.42
286.946	8957.82
287.013	8954.06
287.081	8953.77
287.149	8935.24
287.216	8957.86
287.284	8949.97
287.352	8943.37
287.419	8934.9
287.487	8947.27
287.555	8954.06
287.622	8952.57
287.69	8954.64
287.758	8971.05
287.825	8967.54
287.893	8952.42
287.96	8957
288.028	8966.34
288.096	8970.24
288.163	8972.69
288.231	8954.06
288.298	8957.38
288.366	8970.86
288.433	8968.21
288.501	8961.91
288.569	8968.79
288.636	8961.47
288.704	8981.74
288.771	8994.84
288.839	8994.98
288.906	8993.06
288.974	9002.64
289.041	9000.42
289.109	8992.77
289.176	9007.41
289.244	9011.64
289.311	9026.09
289.379	9040
289.446	9038.79
289.514	9033.06
289.581	9035.18
289.649	9042.79
289.716	9049.19
289.783	9044.28
289.851	9066.04
289.918	9066.47
289.986	9069.31
290.053	9073.02
290.121	9064.88
290.188	9060.94
290.255	9087.75
290.323	9080.39
290.39	9068.4
290.458	9081.88
290.525	9100.27
290.592	9085.25
290.66	9089.05
290.727	9090.2
290.794	9097.71
290.862	9102.48
290.929	9111.87
290.996	9112.74
291.064	9123.57
291.131	9133.1
291.198	9141.29
291.266	9137.05
291.333	9141.58
291.4	9148.56
291.468	9169.84
291.535	9165.51
291.602	9168.35
291.669	9160.5
291.737	9171.28
291.804	9179.42
291.871	9187.51
291.938	9195.55
292.006	9227.33
292.073	9238.74
292.14	9245.15
292.207	9245.1
292.275	9239.32
292.342	9245.77
292.409	9273.51
292.476	9296.43
292.543	9287.18
292.611	9289.11
292.678	9311.16
292.745	9337.55
292.812	9350.55
292.879	9338.22
292.946	9344.87
293.014	9363.89
293.081	9368.94
293.148	9378.09
293.215	9391.86
293.282	9387.29
293.349	9397.02
293.416	9376.55
293.484	9395.52
293.551	9410.02
293.618	9430.24
293.685	9463.37
293.752	9462.89
293.819	9461.45
293.886	9446.9
293.953	9455.57
294.02	9467.13
294.087	9472.47
294.154	9464.82
294.221	9478.59
294.288	9484.56
294.356	9504.98
294.423	9509.6
294.49	9504.79
294.557	9520.97
294.624	9513.26
294.691	9537.68
294.758	9533.78
294.825	9540.52
294.892	9532.57
294.959	9524.14
295.026	9527.85
295.093	9521.3
295.16	9517.16
295.226	9516.78
295.293	9540.9
295.36	9543.89
295.427	9562.29
295.494	9567.2
295.561	9571.54
295.628	9593.69
295.695	9606.26
295.762	9609.88
295.829	9623.02
295.896	9639.93
295.963	9648.64
296.03	9664.01
296.096	9672.68
296.163	9685.82
296.23	9700.75
296.297	9710.68
296.364	9710.72
296.431	9716.46
296.498	9712.99
296.564	9740.87
296.631	9746.6
296.698	9733.74
296.765	9758.88
296.832	9744.29
296.899	9736.97
296.965	9756.76
297.032	9738.84
297.099	9763.03
297.166	9771.79
297.233	9760.28
297.299	9758.06
297.366	9761.68
297.433	9759.99
297.5	9769.38
297.566	9774.92
297.633	9779.69
297.7	9789.04
297.767	9795.83
297.833	9801.22
297.9	9802.91
297.967	9786.15
298.033	9799.59
298.1	9832.29
298.167	9817.46
298.234	9822.13
298.3	9835.13
298.367	9831.52
298.434	9838.12
298.5	9824.63
298.567	9816.93
298.634	9817.94
298.7	9829.93
298.767	9832.96
298.834	9846.21
298.9	9837.3
298.967	9825.74
299.033	9839.32
299.1	9848.52
299.167	9860.28
299.233	9857.43
299.3	9872.08
299.366	9893.84
299.433	9908.73
299.5	9884.93
299.566	9895.48
299.633	9917.3
299.699	9924.14
299.766	9924.96
299.832	9934.5
299.899	9944.95
299.965	9960.17
300.032	9962
300.099	9977.08
300.165	9981.37
300.232	9978.53
300.298	9975.11
300.365	9992.49
300.431	9988.11
300.498	9982.72
300.564	9994.85
300.631	10003.28
300.697	10024.58
300.763	10028
300.83	10023.23
300.896	10040.62
300.963	10047.94
301.029	10043.99
301.096	10054.2
301.162	10067.11
301.229	10065.43
301.295	10058.63
301.361	10064.8
301.428	10070.34
301.494	10056.56
301.561	10063.11
301.627	10068.22
301.693	10071.45
301.76	10072.99
301.826	10067.59
301.892	10076.26
301.959	10078.82
302.025	10079.54
302.092	10070.77
302.158	10071.3
302.224	10070.39
302.291	10055.45
302.357	10049.53
302.423	10047.65
302.49	10036.91
302.556	10047.5
302.622	10040.04
302.688	10049.19
302.755	10063.6
302.821	10072.7
302.887	10082.43
302.954	10075.16
303.02	10089.41
303.086	10099.1
303.152	10097.6
303.219	10097.41
303.285	10108.73
303.351	10117.16
303.417	10120.05
303.483	10108.78
303.55	10105.46
303.616	10111.38
303.682	10115.72
303.748	10113.41
303.815	10133.54
303.881	10141.59
303.947	10124.58
304.013	10131.71
304.079	10127.62
304.145	10104.01
304.212	10099.2
304.278	10088.89
304.344	10085.61
304.41	10068.51
304.476	10061.04
304.542	10058.83
304.608	10057.96
304.674	10042.88
304.741	10034.5
304.807	10043.89
304.873	10047.94
304.939	10066.58
305.005	10042.69
305.071	10034.26
305.137	10033.25
305.203	10006.22
305.269	10003.77
305.335	10021.45
305.401	10016.63
305.467	10016.15
305.533	10021.69
305.599	10031.03
305.666	10044.57
305.732	10048.04
305.798	10055.41
305.864	10082.14
305.93	10082.67
305.996	10085.13
306.062	10075.4
306.128	10067.84
306.194	10048.47
306.259	10051.6
306.325	10039.75
306.391	10056.42
306.457	10069.86
306.523	10069.95
306.589	10090.43
306.655	10083.73
306.721	10067.5
306.787	10054.2
306.853	10065.47
306.919	10052.57
306.985	10039.99
307.051	10029.3
307.117	10018.27
307.183	10020.63
307.248	9992.35
307.314	10000.93
307.38	10004.88
307.446	10017.21
307.512	10010.41
307.578	10015.33
307.644	10009.74
307.709	10008.97
307.775	10002.95
307.841	9996.59
307.907	10002.18
307.973	9983.82
308.039	9982.86
308.104	9986.57
308.17	9987.72
308.236	9971.1
308.302	9975.05
308.368	9969.85
308.433	9971.2
308.499	9965.81
308.565	9950.68
308.631	9953.09
308.696	9928.48
308.762	9916.82
308.828	9913.16
308.894	9895.39
308.959	9874.67
309.025	9863.11
309.091	9859.5
309.156	9850.4
309.222	9851.46
309.288	9835.27
309.354	9813.02
309.419	9813.55
309.485	9797.95
309.551	9801.65
309.616	9791.11
309.682	9787.44
309.748	9782.48
309.813	9773.14
309.879	9769
309.945	9757.92
310.01	9744.72
310.076	9748.34
310.141	9746.94
310.207	9732.63
310.273	9738.99
310.338	9741.83
310.404	9721.85
310.469	9704.55
310.535	9695.31
310.601	9666.84
310.666	9674.12
310.732	9684.66
310.797	9667.32
310.863	9658.7
310.928	9650.27
310.994	9646.81
311.059	9642.71
311.125	9630.67
311.191	9644.83
311.256	9629.09
311.322	9630.96
311.387	9618.01
311.453	10035.1
311.518	10001.88
311.584	9998.31
311.649	10004.62
311.715	9994.22
311.78	9999.71
311.846	9991.47
311.911	9994.65
311.976	9999.32
312.042	9986.66
312.107	9971.34
312.173	9963.16
312.238	9952.37
312.304	9950.01
312.369	9939.17
312.434	9923.67
312.5	9923.91
312.565	9890.15
312.631	9902.09
312.696	9896.65
312.761	9897.37
312.827	9470.69
312.892	9512.78
312.958	9512.11
313.023	9506.62
313.088	9509.94
313.154	9499.78
313.219	9492.65
313.284	9487.93
313.35	9490
313.415	9474.06
313.48	9468.09
313.546	9471.08
313.611	9483.55
313.676	9474.4
313.741	9465.4
313.807	9478.59
313.872	9475.75
313.937	9486.2
314.003	9493.91
314.068	9499.01
314.133	9505.95
314.198	9492.8
314.264	9473.24
314.329	9460.77
314.394	9454.99
314.459	9443.82
314.525	9465.68
314.59	9460.87
314.655	9443.63
314.72	9446.28
314.785	9453.88
314.851	9449.84
314.916	9431.3
314.981	9416.76
315.046	9406.41
315.111	9398.17
315.176	9380.64
315.242	9385.07
315.307	9376.79
315.372	9353
315.437	9339.81
315.502	9326.13
315.567	9335.62
315.632	9316.26
315.698	9321.51
315.763	9313.47
315.828	9307.88
315.893	9300.27
315.958	9295.03
316.023	9282.65
316.088	9262.96
316.153	9240.81
316.218	9231.13
316.283	9219.34
316.348	9199.94
316.413	9196.04
316.479	9180.73
316.544	9141.02
316.609	9110.69
316.674	9070.87
316.739	9033.76
316.804	9000.4
316.869	8962.42
316.934	8926.8
316.999	8897.48
317.064	8838.47
317.129	8794.86
317.194	8758.08
317.259	8699.55
317.324	8645.07
317.389	8602.2
317.454	8558.01
317.518	8519.37
317.583	8493.33
317.648	8466.09
317.713	8427.12
317.778	8366.63
317.843	8338.62
317.908	8304.95
317.973	8266.55
318.038	8244.61
318.103	8212.58
318.168	8179.52
318.233	8149.36
318.297	8088.7
318.362	8049.98
318.427	8008.28
318.492	7978.55
318.557	7925.56
318.622	7902.47
318.687	7882.23
318.751	7843.13
318.816	7812.11
318.881	7777.97
318.946	7716.76
319.011	7671.74
319.075	7627.75
319.14	7590.25
319.205	7543.27
319.27	7507.61
319.335	7455.16
319.399	7408.14
319.464	7379.35
319.529	7324.08
319.594	7288.12
319.658	7265.34
319.723	7217.9
319.788	7189.79
319.853	7136.02
319.917	7106.66
319.982	7051.45
320.047	7015.26
320.112	6985.95
320.176	6933.49
320.241	6898.56
320.306	6878.62
320.37	6832.46
320.435	6805.56
320.5	6775.88
320.564	6732.03
320.629	6690.4
320.694	6662.59
320.758	6618.03
320.823	6569.67
320.888	6540.63
320.952	6485.46
321.017	6439.76
321.082	6401.93
321.146	6368.47
321.211	6330.79
321.275	6289.86
321.34	6244.03
321.405	6193.87
321.469	6143.97
321.534	6103.48
321.598	6046.14
321.663	6010.14
321.727	5975.07
321.792	5916.06
321.857	5872.6
321.921	5833.46
321.986	5791.79
322.05	5729.6
322.115	5693.15
322.179	5645.3
322.244	5586.48
322.308	5553.78
322.373	5509.87
322.437	5467.26
322.502	5439.39
322.566	5393.91
322.631	5358.92
322.695	5317.76
322.76	5269.85
322.824	5237.7
322.889	5192.91
322.953	5151.67
323.018	5079.38
323.082	5015.16
323.146	4964.51
323.211	4907.28
323.275	4864.37
323.34	4815.88
323.404	4784.01
323.468	4733.83
323.533	4690.81
323.597	4642.16
323.662	4586.69
323.726	4549.26
323.79	4501.79
323.855	4432.19
323.919	4382.35
323.983	4334.12
324.048	4265.09
324.112	4395.79
324.177	4260.46
324.241	4037.58
324.305	3819.47
324.37	3607.87
324.434	3402.54
324.498	3359.11
324.562	3306.68
324.627	3237.98
324.691	3179.7
324.755	3107.16
324.82	3025.55
324.884	2940.75
324.948	2867.3
325.012	2767.9
325.077	2629.43
