Data from 20250703_urea_0.1M_MAYP1162681_06-01-05-278.txt Node
Date: Fri Jul 04 06:01:05 BST 2025
User: adleo
Spectrometer: MAYP116268
Trigger mode: 0
Integration Time (sec): 1.000000E0
Scans to average: 1
Electric dark correction enabled: true
Nonlinearity correction enabled: true
Boxcar width: 10
XAxis mode: Wavelengths
Number of Pixels in Spectrum: 2068
>>>>>Begin Spectral Data<<<<<
179.565	1242.81
179.642	1300.38
179.718	1352.85
179.795	1391.27
179.871	1426.29
179.948	1445.96
180.024	1468.66
180.101	1493.82
180.177	1509.09
180.254	1532.81
180.33	1555.94
180.407	1612.58
180.483	1709.78
180.56	1803.48
180.636	1893.03
180.712	1877.1
180.789	1885.22
180.865	1899.2
180.942	1909.18
181.018	1922.06
181.095	1932.86
181.171	1942.27
181.248	1942.37
181.324	1952.02
181.4	1960.44
181.477	1970.38
181.553	1983.73
181.63	2005.66
181.706	2020.64
181.782	2028.1
181.859	2027.53
181.935	2032.48
182.011	2029.01
182.088	2047.61
182.164	2066.11
182.24	2077.57
182.317	2090.36
182.393	2092.12
182.469	2107.63
182.546	2121.28
182.622	2126.42
182.698	2121.56
182.775	2131.41
182.851	2146.78
182.927	2141.5
183.003	2137.22
183.08	2131.84
183.156	2139.74
183.232	2136.26
183.308	2122.52
183.385	2128.84
183.461	2145.92
183.537	2148.11
183.613	2164.76
183.69	2155.77
183.766	2149.34
183.842	2156.86
183.918	2162.05
183.995	2175.7
184.071	2178.98
184.147	2170.47
184.223	2158.48
184.299	2171.62
184.375	2162.72
184.452	2168.57
184.528	2221.64
184.604	2232.43
184.68	2243.04
184.756	2251.27
184.832	2255.27
184.908	2263.59
184.985	2266.07
185.061	2249.37
185.137	2259.65
185.213	2243.38
185.289	2245.04
185.365	2234.01
185.441	2235.58
185.517	2245.91
185.593	2240.53
185.669	2236.96
185.745	2252.71
185.822	2268.31
185.898	2261.36
185.974	2267.5
186.05	2262.83
186.126	2225.47
186.202	2219.91
186.278	2216.39
186.354	2206.68
186.43	2211.1
186.506	2206.35
186.582	2209.63
186.658	2219.43
186.734	2196.93
186.81	2201.78
186.886	2205.2
186.962	2217.14
187.038	2209.15
187.114	2204.82
187.19	2211.15
187.266	2201.78
187.341	2200.02
187.417	2193.83
187.493	2192.12
187.569	2196.83
187.645	2187.17
187.721	2175.08
187.797	2181.93
187.873	2189.07
187.949	2183.41
188.025	2178.18
188.101	2181.89
188.176	2181.79
188.252	2174.56
188.328	2181.79
188.404	2181.98
188.48	2175.03
188.556	2167.14
188.632	2169.42
188.707	2168.75
188.783	2164.9
188.859	2159.95
188.935	2146.96
189.011	2155.38
189.086	2149.44
189.162	2139.21
189.238	2138.26
189.314	2135.02
189.39	2129.55
189.465	2121.03
189.541	2137.74
189.617	2124.27
189.693	2119.52
189.768	2126.18
189.844	2153.59
189.92	2144.99
189.996	2152.69
190.071	2163.07
190.147	2163.87
190.223	2172.01
190.298	2163.02
190.374	2151.03
190.45	2163.73
190.526	2176.43
190.601	2170.91
190.677	2171.25
190.753	2201.09
190.828	2203.09
190.904	2218.03
190.98	2232.02
191.055	2242.63
191.131	2235.97
191.207	2256.1
191.282	2267.32
191.358	2252.43
191.433	2234.91
191.509	2248.13
191.585	2245.23
191.66	2249.56
191.736	2258.79
191.811	2249.32
191.887	2267.08
191.963	2288.2
192.038	2295.1
192.114	2293.53
192.189	2294.58
192.265	2293.48
192.34	2272.39
192.416	2273.25
192.491	2272.39
192.567	2274.63
192.642	2278.44
192.718	2275.49
192.793	2262.64
192.869	2258.07
192.944	2264.35
193.02	2274.58
193.095	2282.96
193.171	2287.33
193.246	2285.29
193.322	2282.48
193.397	2284.76
193.473	2269.1
193.548	2253.07
193.624	2257.45
193.699	2255.21
193.775	2274.39
193.85	2275.87
193.925	2283.67
194.001	2283.67
194.076	2272.01
194.152	2261.73
194.227	2253.74
194.302	2245.41
194.378	2246.46
194.453	2243.18
194.529	2255.31
194.604	2239.04
194.679	2231.09
194.755	2213.54
194.83	2228.54
194.905	2225.82
194.981	2233.15
195.056	2225.3
195.131	2233.44
195.207	2231.44
195.282	2219.74
195.357	2198.7
195.433	2212.64
195.508	2200.88
195.583	2206.88
195.659	2222.58
195.734	2232.53
195.809	2231.91
195.884	2239.19
195.96	2242.19
196.035	2258.27
196.11	2253.32
196.185	2266.88
196.261	2271.83
196.336	2302.57
196.411	2284.91
196.486	2292.28
196.561	2286.53
196.637	2299.04
196.712	2316.85
196.787	2321.13
196.862	2338.54
196.937	2351.11
197.013	2358.3
197.088	2371.72
197.163	2396.53
197.238	2414.2
197.313	2413.06
197.388	2429.1
197.464	2462.91
197.539	2473.71
197.614	2469.34
197.689	2484.33
197.764	2500.81
197.839	2521.33
197.914	2516.72
197.989	2539.14
198.065	2551.38
198.14	2599.84
198.215	2629.37
198.29	2639.85
198.365	2650.9
198.44	2662.71
198.515	2691.11
198.59	2705.16
198.665	2730.98
198.74	2739.61
198.815	2740.94
198.89	2764.76
198.965	2793.89
199.04	2787.22
199.115	2806.18
199.19	2848.97
199.265	2849.87
199.34	2857.02
199.415	2889.44
199.49	2912.22
199.565	2922.75
199.64	2947.87
199.715	2948.54
199.79	2953.88
199.865	2960.12
199.94	2961.46
200.015	2994.78
200.09	3001.89
200.165	3009.8
200.24	3016.43
200.315	3058.52
200.39	3075.5
200.464	3083.03
200.539	3083.32
200.614	3103.1
200.689	3125.9
200.764	3136.83
200.839	3158.13
200.914	3167.57
200.989	3160.46
201.063	3173.67
201.138	3156.66
201.213	3156.18
201.288	3138.92
201.363	3144.55
201.438	3146.03
201.512	3162.9
201.587	3145.21
201.662	3149.02
201.737	3163.76
201.812	3170.25
201.886	3132.16
201.961	3142.94
202.036	3131.26
202.111	3129.26
202.186	3100.8
202.26	3084.59
202.335	3055.68
202.41	3047.2
202.485	3028.56
202.559	3006.2
202.634	2981.12
202.709	2994.27
202.784	2975.49
202.858	2976.39
202.933	2959.28
203.008	2956.46
203.082	2939.35
203.157	2944.41
203.232	2905.99
203.306	2888.44
203.381	2860.79
203.456	2843.97
203.53	2826.79
203.605	2811.69
203.68	2794.86
203.754	2793.81
203.829	2787.66
203.904	2778.99
203.978	2781.04
204.053	2797.25
204.127	2795.05
204.202	2809.3
204.277	2803.78
204.351	2813.83
204.426	2822.18
204.5	2833.28
204.575	2817.6
204.65	2847.6
204.724	2857.23
204.799	2885.63
204.873	2904.71
204.948	2929.5
205.022	2948.37
205.097	2967.46
205.171	3010.27
205.246	3051.3
205.32	3085.19
205.395	3119.58
205.469	3143.04
205.544	3185.56
205.618	3209.94
205.693	3269.02
205.767	3297.12
205.842	3363.75
205.916	3402.65
205.991	3439.69
206.065	3491.92
206.14	3557.87
206.214	3606.13
206.289	3657.91
206.363	3727.74
206.438	3789.15
206.512	3856.52
206.586	3936.42
206.661	4005.46
206.735	4052.86
206.81	4117.62
206.884	4204.05
206.958	4264.3
207.033	4362.89
207.107	4443.82
207.181	4553.37
207.256	4621.34
207.33	4722.12
207.405	4813.04
207.479	4916.45
207.553	5008.03
207.628	5075.44
207.702	5176.31
207.776	5257.9
207.851	5344.82
207.925	5450.77
207.999	5539.31
208.073	5630.16
208.148	5724.72
208.222	5810.19
208.296	5936.44
208.371	6054.65
208.445	6156.57
208.519	6282.1
208.593	6387.5
208.668	6479.58
208.742	6578.54
208.816	6682.96
208.89	6796.56
208.965	6901.65
209.039	7009.47
209.113	7128.04
209.187	7256.72
209.261	7351
209.336	7472.98
209.41	7598.4
209.484	7702.85
209.558	7831.52
209.632	7949.62
209.707	8064.04
209.781	8190.63
209.855	8310.14
209.929	8424.59
210.003	8535.73
210.077	8638.09
210.151	8791.4
210.226	8934.94
210.3	9061.96
210.374	9186.86
210.448	9288.21
210.522	9399.87
210.596	9513.22
210.67	9624.07
210.744	9768.65
210.818	9906.9
210.892	10029.49
210.966	10124.03
211.041	10237.62
211.115	10325.92
211.189	10436.91
211.263	10554.46
211.337	10654.38
211.411	10763.57
211.485	10857.24
211.559	10968.11
211.633	11065.88
211.707	11120.86
211.781	11223.14
211.855	11282.61
211.929	11365.11
212.003	11437.68
212.077	11538.7
212.151	11647.63
212.225	11750.58
212.299	11825.63
212.373	11897.35
212.447	11978.13
212.52	12099.36
212.594	12187.13
212.668	12296.26
212.742	12382.74
212.816	12461.98
212.89	12542.24
212.964	12627.61
213.038	12713.08
213.112	12809.63
213.186	12903.44
213.26	12971.98
213.333	12999.27
213.407	13081.31
213.481	13164.13
213.555	13263.82
213.629	13332.46
213.703	13389.64
213.777	13465.85
213.85	13532.52
213.924	13654.58
213.998	13731.85
214.072	13796.88
214.146	13861
214.219	13928.63
214.293	13994.72
214.367	14064.57
214.441	14145.22
214.515	14208.7
214.588	14257.87
214.662	14293.11
214.736	14340.55
214.81	14411.8
214.883	14494.18
214.957	14559.4
215.031	14616.96
215.105	14656.05
215.178	14701.65
215.252	14755.45
215.326	14787.75
215.4	14826.41
215.473	14829.83
215.547	14871.29
215.621	14918.86
215.694	14983.07
215.768	15017.97
215.842	15059.95
215.915	15104.49
215.989	15138.86
216.063	15181.76
216.136	15239.21
216.21	15288.77
216.284	15360.39
216.357	15424.07
216.431	15475.21
216.504	15537.63
216.578	15617.11
216.652	15679.15
216.725	15739.69
216.799	15804.66
216.873	15862.79
216.946	15925.5
217.02	15974.23
217.093	16027.15
217.167	16057.61
217.24	16097.95
217.314	16147.41
217.387	16195.8
217.461	16245.06
217.535	16302.85
217.608	16337.45
217.682	16383.09
217.755	16449.65
217.829	16489.22
217.902	16535.68
217.976	16586.72
218.049	16626.05
218.123	16657.43
218.196	16718.88
218.27	16761.24
218.343	16790.49
218.417	16841.63
218.49	16884.04
218.563	16949.15
218.637	17000.91
218.71	17069.49
218.784	17119.33
218.857	17179.47
218.931	17233.45
219.004	17288.53
219.077	17344.54
219.151	17399.09
219.224	17445.84
219.298	17489.11
219.371	17543.23
219.444	17574.75
219.518	17622.46
219.591	17670.08
219.665	17742.36
219.738	17786.7
219.811	17825.06
219.885	17890.41
219.958	17940.67
220.031	17985.83
220.105	18044.28
220.178	18095.12
220.251	18135.6
220.325	18188.81
220.398	18229.91
220.471	18276.76
220.544	18321.23
220.618	18357.67
220.691	18415.16
220.764	18464.7
220.838	18517.27
220.911	18555.29
220.984	18620.74
221.057	18668.06
221.131	18721.98
221.204	18733.12
221.277	18793.31
221.35	18861.59
221.424	18889.44
221.497	18934.94
221.57	18982.93
221.643	19020.95
221.716	19064.66
221.79	19101.96
221.863	19135.98
221.936	19175.84
222.009	19216.27
222.082	19256.41
222.155	19285.13
222.229	19327.63
222.302	19360.02
222.375	19388.79
222.448	19426.28
222.521	19461.7
222.594	19494.37
222.667	19513.31
222.74	19557.98
222.814	19587.33
222.887	19602.17
222.96	19642.8
223.033	19676.96
223.106	19708.67
223.179	19745.64
223.252	19768.96
223.325	19793.01
223.398	19821.92
223.471	19847.03
223.544	19869.34
223.617	19893.58
223.69	19929.1
223.763	19937.43
223.837	19969.34
223.91	20006.2
223.983	20020.47
224.056	20035.45
224.129	20051.94
224.202	20075.16
224.275	20083.07
224.348	20086.54
224.42	20111.26
224.493	20123.69
224.566	20136.8
224.639	20159.4
224.712	20160.9
224.785	20180.8
224.858	20200.08
224.931	20210.82
225.004	20214.05
225.077	20241.71
225.15	20231.11
225.223	20248.22
225.296	20282
225.369	20283.69
225.442	20285.04
225.514	20308.85
225.587	20323.16
225.66	20348.32
225.733	20371.59
225.806	20396.36
225.879	20405.09
225.952	20403.79
226.025	20427.93
226.097	20458.24
226.17	20465.67
226.243	20459.74
226.316	20470.49
226.389	20479.79
226.461	20496.56
226.534	20517.18
226.607	20518.92
226.68	20550
226.753	20557.76
226.825	20552.65
226.898	20565.47
226.971	20567.79
227.044	20569.86
227.117	20578.73
227.189	20594.92
227.262	20610.29
227.335	20617.33
227.407	20626.15
227.48	20641.09
227.553	20648.08
227.626	20638.49
227.698	20641.23
227.771	20658.63
227.844	20649.04
227.916	20659.02
227.989	20650.73
228.062	20657.14
228.134	20685.76
228.207	20693.96
228.28	20687.89
228.352	20689.77
228.425	20705.86
228.498	20718.39
228.57	20719.07
228.643	20732.42
228.716	20724.27
228.788	20716.75
228.861	20707.93
228.934	20722.44
229.006	20720.37
229.079	20709.19
229.151	20705.09
229.224	20692.27
229.296	20695.79
229.369	20729.96
229.442	20743.89
229.514	20735.94
229.587	20748.18
229.659	20720.95
229.732	20727.89
229.804	20750.73
229.877	20772.32
229.949	20774.59
230.022	20794.25
230.094	20786.2
230.167	20787.89
230.239	20772.47
230.312	20770.16
230.384	20800.18
230.457	20796.33
230.529	20800.86
230.602	20799.89
230.674	20800.33
230.747	20815.8
230.819	20833.58
230.892	20803.36
230.964	20799.99
231.037	20813.39
231.109	20808.08
231.181	20811.6
231.254	20793.77
231.326	20774.44
231.399	20774.01
231.471	20765.91
231.544	20738.54
231.616	20754.44
231.688	20743.31
231.761	20741.91
231.833	20729.09
231.905	20704.8
231.978	20691.65
232.05	20669.62
232.122	20666.87
232.195	20659.69
232.267	20664.85
232.339	20637.19
232.412	20637.23
232.484	20621.72
232.556	20597.96
232.629	20604.22
232.701	20604.08
232.773	20590.44
232.846	20580.03
232.918	20555.4
232.99	20542.82
233.062	20542.92
233.135	20530.2
233.207	20508.51
233.279	20500.61
233.351	20497.28
233.424	20472.89
233.496	20454.82
233.568	20474.29
233.64	20451.26
233.713	20443.64
233.785	20418.24
233.857	20403.11
233.929	20372.94
234.001	20377.09
234.074	20382.2
234.146	20345.86
234.218	20330.2
234.29	20313.86
234.362	20291.31
234.434	20261.62
234.507	20226.29
234.579	20190.54
234.651	20159.93
234.723	20144.18
234.795	20122.54
234.867	20098.15
234.939	20095.5
235.012	20087.7
235.084	20069.33
235.156	20064.08
235.228	20029.34
235.3	20004.9
235.372	19988.57
235.444	19982.35
235.516	19930.64
235.588	19901.58
235.66	19880.47
235.732	19845
235.804	19882.26
235.876	19860.38
235.948	19852.96
236.02	19839.99
236.092	19815.85
236.164	19804.62
236.236	19779.42
236.308	19752.48
236.38	19732.14
236.452	19696.53
236.524	19668.97
236.596	19658.65
236.668	19633.21
236.74	19613.21
236.812	19592.63
236.884	19570.9
236.956	19551.72
237.028	19526.52
237.1	19495.19
237.172	19475.1
237.244	19470.57
237.316	19406.81
237.388	19381.41
237.46	19341.03
237.532	19329.18
237.604	19285.56
237.675	19272.94
237.747	19255.54
237.819	19223.5
237.891	19196.65
237.963	19156.99
238.035	19129.33
238.107	19051.07
238.178	19034.06
238.25	19000.76
238.322	19004.57
238.394	18957.97
238.466	18914.84
238.538	18887.32
238.609	18869.69
238.681	18823.09
238.753	18769.89
238.825	18734.95
238.897	18703.62
238.968	18694.56
239.04	18645.17
239.112	18646.13
239.184	18586.38
239.255	18549.13
239.327	18526.91
239.399	18492.36
239.471	18472.94
239.542	18445.18
239.614	18444.51
239.686	18378.92
239.758	18362.2
239.829	18294.44
239.901	18280.9
239.973	18253.43
240.044	18229.67
240.116	18186.88
240.188	18163.36
240.259	18135.51
240.331	18094.84
240.403	18070.4
240.474	18016.29
240.546	17985.68
240.618	17939.85
240.689	17913.3
240.761	17882.36
240.833	17865.01
240.904	17830.99
240.976	17795.28
241.048	17759.91
241.119	17731.72
241.191	17718.66
241.262	17700.39
241.334	17678.46
241.405	17643.72
241.477	17601.98
241.549	17571.67
241.62	17546.9
241.692	17523.48
241.763	17507.91
241.835	17480.01
241.906	17453.7
241.978	17410.42
242.049	17386.13
242.121	17360.34
242.192	17340.54
242.264	17293.69
242.335	17241.02
242.407	17219.38
242.478	17182.12
242.55	17147.33
242.621	17100.24
242.693	17053.3
242.764	17005.4
242.836	16964.87
242.907	16933.97
242.979	16916.14
243.05	16875.42
243.122	16843.32
243.193	16805.63
243.264	16748.13
243.336	16713.43
243.407	16679.07
243.479	16672.37
243.55	16646.35
243.622	16625.33
243.693	16590.68
243.764	16579.93
243.836	16542.92
243.907	16509.23
243.978	16478.24
244.05	16457.8
244.121	16408.3
244.192	16393.26
244.264	16351.04
244.335	16328.97
244.407	16286.36
244.478	16255.37
244.549	16221.78
244.62	16177
244.692	16151.7
244.763	16133.96
244.834	16093.67
244.906	16059.78
244.977	16021.18
245.048	16006.28
245.119	15959.58
245.191	15913.26
245.262	15854.98
245.333	15833.78
245.405	15801.63
245.476	15778.73
245.547	15744.03
245.618	15729.14
245.689	15698.53
245.761	15673.13
245.832	15630.52
245.903	15600.49
245.974	15566.99
246.045	15532.14
246.117	15521.87
246.188	15466.92
246.259	15423.64
246.33	15396.84
246.401	15363
246.473	15325.26
246.544	15282.99
246.615	15259.13
246.686	15221.48
246.757	15202.68
246.828	15170.48
246.899	15150.48
246.97	15098.61
247.042	15058.84
247.113	15030.69
247.184	15020.67
247.255	14983.5
247.326	14959.69
247.397	14931.25
247.468	14899.92
247.539	14872.54
247.61	14826.99
247.681	14814.21
247.752	14800.23
247.823	14765.81
247.894	14735.98
247.965	14694.42
248.037	14660.49
248.108	14614.11
248.179	14591.55
248.25	14565.86
248.321	14538.58
248.392	14502.57
248.463	14501.07
248.534	14475
248.605	14452.58
248.675	14418.55
248.746	14398.74
248.817	14377.14
248.888	14355.88
248.959	14311.05
249.03	14291.29
249.101	14264.39
249.172	14228.38
249.243	14170.53
249.314	14160.7
249.385	14131.82
249.456	14114.56
249.527	14080.34
249.598	14059.95
249.669	14032.32
249.739	14012.37
249.81	13995.64
249.881	13946.28
249.952	13914.8
250.023	13880.76
250.094	13840.27
250.165	13794.38
250.235	13761.74
250.306	13738.12
250.377	13700.66
250.448	13683.74
250.519	13636.26
250.59	13624.55
250.66	13593.12
250.731	13592.1
250.802	13555.42
250.873	13543.13
250.944	13522.16
251.014	13485.23
251.085	13481.47
251.156	13463.34
251.227	13448.83
251.297	13428.35
251.368	13422.03
251.439	13405.21
251.51	13398.7
251.58	13365.63
251.651	13339.65
251.722	13329.43
251.792	13285.61
251.863	13257.36
251.934	13246.03
252.005	13255.81
252.075	13230.41
252.146	13215.95
252.217	13200.23
252.287	13189.58
252.358	13152.6
252.429	13144.17
252.499	13113.32
252.57	13094.66
252.641	13077.79
252.711	13053.4
252.782	13008.56
252.852	13009.09
252.923	12989.04
252.994	12966.43
253.064	12962.96
253.135	12924.98
253.205	12894.17
253.276	12885.88
253.347	12877.11
253.417	12845.97
253.488	12820.32
253.558	12794.82
253.629	12777.18
253.699	12762.52
253.77	12742.9
253.841	12723.86
253.911	12702.55
253.982	12688.82
254.052	12681.83
254.123	12665.97
254.193	12634.83
254.264	12657.34
254.334	12614.87
254.405	12576.88
254.475	12539.57
254.546	12510.36
254.616	12514.85
254.687	12499.66
254.757	12487.9
254.827	12461.44
254.898	12443.89
254.968	12421.09
255.039	12391.2
255.109	12375.2
255.18	12340.2
255.25	12295.81
255.321	12284.72
255.391	12251.27
255.461	12255.17
255.532	12200.08
255.602	12172.12
255.673	12142.57
255.743	12111.57
255.813	12068.72
255.884	12062.36
255.954	12060.05
256.024	12059.42
256.095	12038.26
256.165	12002.74
256.235	11982.54
256.306	11960.32
256.376	11963.26
256.446	11944.7
256.517	11933.66
256.587	11920.65
256.657	11907.39
256.728	11903.01
256.798	11880.55
256.868	11863.05
256.938	11834.47
257.009	11823.62
257.079	11814.27
257.149	11818.9
257.219	11779.37
257.29	11769.11
257.36	11728.05
257.43	11716.57
257.5	11674.54
257.571	11650.93
257.641	11639.31
257.711	11609.24
257.781	11600.13
257.852	11578
257.922	11538.72
257.992	11522.53
258.062	11504.31
258.132	11493.22
258.202	11467.78
258.273	11455
258.343	11454.91
258.413	11428.35
258.483	11410.09
258.553	11375.96
258.623	11355.33
258.693	11344.64
258.764	11342.23
258.834	11345.94
258.904	11324.25
258.974	11292.97
259.044	11277.45
259.114	11265.7
259.184	11252.73
259.254	11230.03
259.324	11190.51
259.394	11185.41
259.464	11183.24
259.535	11164.1
259.605	11135.09
259.675	11109.41
259.745	11091.48
259.815	11056.83
259.885	11034.18
259.955	11050.71
260.025	11030.42
260.095	11003.58
260.165	10987.82
260.235	10987.29
260.305	10966.52
260.375	10940.31
260.445	10949.41
260.515	10947.78
260.585	10940.21
260.655	10920.74
260.725	10922.77
260.795	10910.96
260.865	10917.9
260.934	10888.99
261.004	10876.75
261.074	10862.87
261.144	10866.05
261.214	10860.55
261.284	10839.4
261.354	10838.87
261.424	10809.91
261.494	10815.06
261.564	10799.64
261.634	10793.43
261.703	10756.37
261.773	10748.57
261.843	10745.29
261.913	10731.12
261.983	10695.42
262.053	10688.82
262.123	10674.55
262.192	10637.79
262.262	10635.53
262.332	10597.6
262.402	10588.54
262.472	10578.33
262.541	10544.56
262.611	10529.33
262.681	10502.4
262.751	10498.5
262.821	10481.63
262.89	10445.88
262.96	10432.44
263.03	10438.22
263.1	10425.98
263.169	10419.43
263.239	10404.59
263.309	10401.7
263.379	10394.95
263.448	10379.25
263.518	10364.84
263.588	10350.29
263.657	10359.49
263.727	10354.92
263.797	10340.27
263.867	10320.28
263.936	10287.32
264.006	10289.35
264.076	10275.38
264.145	10255.77
264.215	10231.92
264.285	10219.74
264.354	10193.63
264.424	10174.69
264.494	10139
264.563	10112.11
264.633	10115.1
264.702	10109.32
264.772	10074.78
264.842	10050.55
264.911	10042.02
264.981	10015.52
265.05	9995.97
265.12	9970.44
265.19	9951.98
265.259	9951.36
265.329	9950.01
265.398	9939.22
265.468	9951.26
265.537	9938.3
265.607	9940.62
265.676	9940.62
265.746	9934.26
265.815	9929.97
265.885	9911.24
265.955	9894.09
266.024	9879.98
266.094	9840.58
266.163	9831.33
266.232	9833.35
266.302	9826.94
266.371	9823.81
266.441	9812.73
266.51	9815.29
266.58	9803.29
266.649	9782.78
266.719	9778.01
266.788	9765.77
266.858	9776.85
266.927	9733.41
266.996	9719.29
267.066	9703.74
267.135	9674.31
267.205	9667.47
267.274	9662.61
267.343	9664.82
267.413	9657.46
267.482	9665.4
267.552	9671.09
267.621	9647.39
267.69	9620.03
267.76	9605.54
267.829	9593.31
267.898	9577.08
267.968	9555.31
268.037	9554.06
268.106	9555.21
268.176	9525.45
268.245	9508.11
268.314	9484.42
268.384	9493.32
268.453	9486.73
268.522	9476.37
268.592	9482.97
268.661	9464.14
268.73	9463.03
268.799	9443.77
268.869	9451.76
268.938	9421.91
269.007	9405.68
269.076	9390.61
269.146	9386.32
269.215	9381.51
269.284	9382.57
269.353	9370.62
269.422	9357.53
269.492	9332.39
269.561	9289.88
269.63	9288.29
269.699	9276.68
269.768	9268.64
269.838	9265.32
269.907	9260.94
269.976	9242.21
270.045	9209.76
270.114	9204.99
270.183	9186.17
270.253	9177.07
270.322	9140.91
270.391	9129.26
270.46	9132.44
270.529	9133.59
270.598	9134.27
270.667	9118.47
270.736	9099.55
270.806	9097.72
270.875	9100.56
270.944	9092.71
271.013	9116.06
271.082	9107.11
271.151	9101.76
271.22	9073.94
271.289	9053.72
271.358	9040.24
271.427	9035.95
271.496	9035.23
271.565	9023.34
271.634	9015.88
271.703	9040.48
271.772	9048.71
271.841	9043.56
271.91	9019.68
271.979	9011.4
272.048	8984.01
272.117	8984.64
272.186	8970.1
272.255	8966.25
272.324	8961.19
272.393	8957.29
272.462	8940.97
272.531	8936.78
272.6	8920.56
272.669	8930.77
272.738	8924.6
272.807	8921.19
272.876	8902.37
272.945	8929.85
273.013	8928.12
273.082	8927.83
273.151	8882.58
273.22	8879.69
273.289	8865.97
273.358	8871.99
273.427	8860.73
273.496	8861.4
273.564	8863.42
273.633	8862.75
273.702	8843.93
273.771	8831.41
273.84	8826.26
273.909	8821.69
273.977	8813.02
274.046	8810.28
274.115	8810.52
274.184	8790.36
274.253	8785.21
274.322	8794.3
274.39	8760.27
274.459	8745.39
274.528	8716.47
274.597	8708.63
274.665	8701.26
274.734	8714.55
274.803	8707.57
274.872	8697.03
274.94	8687.88
275.009	8707.67
275.078	8696.31
275.147	8698.67
275.215	8694.77
275.284	8702.47
275.353	8690.06
275.421	8667.48
275.49	8684.57
275.559	8673.94
275.627	8669.51
275.696	8657.67
275.765	8654.78
275.833	8647.03
275.902	8650.07
275.971	8663.3
276.039	8681.06
276.108	8679.71
276.177	8671.58
276.245	8659.3
276.314	8659.45
276.383	8662
276.451	8627.14
276.52	8626.08
276.588	8633.45
276.657	8643.07
276.725	8630.42
276.794	8632.24
276.863	8645.33
276.931	8620.26
277	8628.1
277.068	8632.62
277.137	8650.96
277.205	8649.57
277.274	8666.31
277.342	8676.9
277.411	8656.17
277.48	8639.32
277.548	8632.44
277.617	8634.17
277.685	8624.64
277.754	8632.05
277.822	8623.73
277.89	8633.12
277.959	8626.52
278.027	8609.87
278.096	8596.78
278.164	8625.95
278.233	8616.18
278.301	8600.16
278.37	8600.16
278.438	8581.1
278.507	8587.26
278.575	8559.97
278.643	8555.74
278.712	8539.37
278.78	8519.35
278.849	8539.22
278.917	8553.95
278.985	8548.8
279.054	8550.34
279.122	8562.8
279.191	8552.17
279.259	8548.13
279.327	8526.61
279.396	8540.09
279.464	8536.58
279.532	8539.27
279.601	8529.59
279.669	8528.15
279.737	8548.94
279.806	8553.17
279.874	8564.39
279.942	8558.71
280.011	8553.99
280.079	8557.7
280.147	8568.19
280.215	8576.51
280.284	8567.18
280.352	8547.64
280.42	8560.97
280.488	8548.65
280.557	8544.9
280.625	8554.62
280.693	8560.39
280.761	8567.42
280.83	8556.69
280.898	8566.79
280.966	8549.32
281.034	8518.71
281.102	8503.61
281.171	8496.1
281.239	8504.14
281.307	8496.2
281.375	8493.89
281.443	8522.57
281.512	8524.59
281.58	8535.52
281.648	8521.61
281.716	8521.61
281.784	8522.23
281.852	8510.59
281.92	8517.81
281.989	8524.16
282.057	8509.1
282.125	8548.04
282.193	8540.58
282.261	8539.47
282.329	8534.85
282.397	8539.86
282.465	8542.36
282.533	8561.12
282.601	8548.9
282.67	8532.01
282.738	8525.9
282.806	8530.18
282.874	8514.68
282.942	8512.08
283.01	8502.41
283.078	8508.18
283.146	8504
283.214	8513.91
283.282	8516.89
283.35	8522.77
283.418	8519.45
283.486	8520.99
283.554	8479.3
283.622	8479.54
283.69	8479.64
283.758	8477.28
283.826	8481.42
283.894	8498.55
283.962	8512.51
284.03	8537.24
284.098	8532.58
284.165	8523.53
284.233	8528.58
284.301	8520.5
284.369	8517.03
284.437	8506.54
284.505	8500.48
284.573	8515.45
284.641	8505.92
284.709	8507.6
284.777	8489.94
284.845	8494.32
284.912	8495.43
284.98	8500.91
285.048	8494.03
285.116	8499.66
285.184	8514.53
285.252	8518.72
285.319	8494.03
285.387	8487.05
285.455	8458.42
285.523	8465.45
285.591	8465.64
285.659	8460.54
285.726	8471.65
285.794	8452.22
285.862	8451.45
285.93	8448.22
285.997	8443.55
286.065	8442.64
286.133	8440.38
286.201	8437.59
286.269	8420.6
286.336	8413.86
286.404	8404.34
286.472	8417.62
286.539	8392.17
286.607	8374.6
286.675	8367.19
286.743	8374.74
286.81	8369.26
286.878	8386.19
286.946	8385.28
287.013	8386.96
287.081	8395.63
287.149	8383.6
287.216	8406.4
287.284	8406.4
287.352	8407.08
287.419	8408.38
287.487	8420.17
287.555	8420.17
287.622	8416.17
287.69	8423.68
287.758	8438.55
287.825	8437.2
287.893	8425.84
287.96	8440.71
288.028	8453.56
288.096	8459.91
288.163	8465.59
288.231	8452.12
288.298	8451.73
288.366	8458.71
288.433	8457.7
288.501	8442.4
288.569	8445.67
288.636	8438.79
288.704	8447.69
288.771	8455.24
288.839	8440.76
288.906	8434.12
288.974	8447.59
289.041	8447.79
289.109	8435.52
289.176	8445.29
289.244	8453.08
289.311	8466.51
289.379	8467.37
289.446	8466.65
289.514	8468.05
289.581	8467.57
289.649	8474.35
289.716	8477.53
289.783	8468.58
289.851	8484.5
289.918	8485.18
289.986	8491.72
290.053	8498.6
290.121	8493.65
290.188	8498.55
290.255	8528.29
290.323	8520.88
290.39	8510.06
290.458	8518.91
290.525	8530.6
290.592	8522.27
290.66	8518.67
290.727	8511.49
290.794	8529.11
290.862	8531.8
290.929	8533.92
290.996	8532.91
291.064	8544.51
291.131	8556.73
291.198	8571.89
291.266	8568.24
291.333	8570.06
291.4	8577.28
291.468	8589.6
291.535	8590.71
291.602	8593.41
291.669	8591
291.737	8597.78
291.804	8598.6
291.871	8614.05
291.938	8630.56
292.006	8658.62
292.073	8673.49
292.14	8687.88
292.207	8681.48
292.275	8672.19
292.342	8682.54
292.409	8711.66
292.476	8731.2
292.543	8718.06
292.611	8718.64
292.678	8741.36
292.745	8771.3
292.812	8783.57
292.879	8784.05
292.946	8786.79
293.014	8806.58
293.081	8811.39
293.148	8824.63
293.215	8845.18
293.282	8839.26
293.349	8845.42
293.416	8822.65
293.484	8839.84
293.551	8849.27
293.618	8868.52
293.685	8903.09
293.752	8895.05
293.819	8890.43
293.886	8881.67
293.953	8891.24
294.02	8908.28
294.087	8913.92
294.154	8905.06
294.221	8917
294.288	8917
294.356	8938.37
294.423	8942.17
294.49	8931.73
294.557	8944.92
294.624	8931.49
294.691	8951.56
294.758	8954.35
294.825	8969.66
294.892	8959.6
294.959	8960.13
295.026	8968.17
295.093	8957.53
295.16	8958.54
295.226	8955.8
295.293	8980.88
295.36	8983.33
295.427	8992.05
295.494	9002.16
295.561	9012.27
295.628	9037.21
295.695	9047.47
295.762	9045.45
295.829	9049.54
295.896	9072.02
295.963	9083.57
296.03	9098.64
296.096	9105.67
296.163	9117.03
296.23	9131.86
296.297	9143.42
296.364	9140.09
296.431	9139.32
296.498	9138.55
296.564	9166.14
296.631	9171.96
296.698	9157.52
296.765	9179.28
296.832	9163.58
296.899	9149.91
296.965	9172.83
297.032	9147.88
297.099	9169.74
297.166	9183.56
297.233	9177.64
297.299	9165.61
297.366	9164.74
297.433	9159.97
297.5	9169.99
297.566	9166.09
297.633	9158.09
297.7	9163.63
297.767	9167.15
297.833	9177.4
297.9	9177.45
297.967	9159.06
298.033	9174.47
298.1	9203.79
298.167	9197.77
298.234	9202.25
298.3	9217.75
298.367	9204.46
298.434	9218.62
298.5	9209.09
298.567	9205.09
298.634	9211.4
298.7	9228.87
298.767	9237.64
298.834	9255.45
298.9	9247.46
298.967	9246.49
299.033	9256.94
299.1	9272.88
299.167	9290.74
299.233	9288.72
299.3	9307.31
299.366	9327.53
299.433	9341.64
299.5	9311.59
299.566	9313.56
299.633	9333.79
299.699	9346.6
299.766	9343.47
299.832	9345.78
299.899	9353.82
299.965	9369.04
300.032	9363.93
300.099	9372.41
300.165	9376.74
300.232	9371.98
300.298	9372.94
300.365	9380.79
300.431	9384.69
300.498	9376.65
300.564	9379.29
300.631	9393.02
300.697	9407.71
300.763	9404.53
300.83	9399.62
300.896	9421.09
300.963	9431.83
301.029	9437.85
301.096	9438.09
301.162	9452.15
301.229	9445.55
301.295	9432.79
301.361	9431.73
301.428	9436.6
301.494	9423.06
301.561	9425.38
301.627	9434.48
301.693	9436.07
301.76	9447.19
301.826	9441.65
301.892	9450.32
301.959	9453.6
302.025	9449.41
302.092	9443.43
302.158	9453.79
302.224	9458.36
302.291	9443
302.357	9444.16
302.423	9440.16
302.49	9429.03
302.556	9437.8
302.622	9434.48
302.688	9451.38
302.755	9468.04
302.821	9477.87
302.887	9490.63
302.954	9481.77
303.02	9486.44
303.086	9494.58
303.152	9490
303.219	9494.86
303.285	9504.74
303.351	9517.02
303.417	9516.39
303.483	9508.69
303.55	9504.16
303.616	9502.52
303.682	9504.69
303.748	9496.55
303.815	9509.03
303.881	9518.8
303.947	9511.87
304.013	9520.73
304.079	9509.99
304.145	9483.6
304.212	9481.04
304.278	9473.34
304.344	9476.18
304.41	9466.02
304.476	9458.94
304.542	9455.62
304.608	9455.19
304.674	9435.44
304.741	9429.56
304.807	9430.86
304.873	9429.85
304.939	9443.92
305.005	9421.43
305.071	9421.52
305.137	9427.98
305.203	9401.54
305.269	9399.23
305.335	9408.42
305.401	9405.68
305.467	9410.45
305.533	9418.25
305.599	9433.51
305.666	9439.1
305.732	9440.74
305.798	9452.29
305.864	9479.84
305.93	9486.1
305.996	9490.44
306.062	9494.05
306.128	9487.55
306.194	9479.17
306.259	9484.22
306.325	9472.43
306.391	9485.47
306.457	9496.36
306.523	9493.71
306.589	9524
306.655	9520.87
306.721	9508.4
306.787	9492.31
306.853	9502.33
306.919	9487.12
306.985	9474.88
307.051	9468.58
307.117	9456.44
307.183	9451.14
307.248	9422.87
307.314	9421.28
307.38	9421.28
307.446	9421.96
307.512	9412.86
307.578	9414.01
307.644	9405.06
307.709	9409.44
307.775	9405.01
307.841	9396.68
307.907	9400.05
307.973	9375.63
308.039	9372.21
308.104	9370.86
308.17	9374.33
308.236	9356.61
308.302	9361.28
308.368	9347.94
308.433	9350.59
308.499	9347.8
308.565	9338.74
308.631	9342.5
308.696	9318.04
308.762	9306.43
308.828	9305.33
308.894	9288.72
308.959	9267.2
309.025	9262.24
309.091	9256.79
309.156	9245.34
309.222	9246.39
309.288	9225.35
309.354	9199.12
309.419	9201.33
309.485	9189.68
309.551	9193.39
309.616	9176.2
309.682	9171.33
309.748	9163.92
309.813	9154.39
309.879	9144.42
309.945	9127.62
310.01	9119.19
310.076	9131.42
310.141	9123.57
310.207	9108.5
310.273	9108.26
310.338	9111.34
310.404	9097.48
310.469	9087.08
310.535	9080.24
310.601	9054.87
310.666	9069.17
310.732	9085.73
310.797	9070.85
310.863	9060.12
310.928	9050.1
310.994	9058.48
311.059	9061.51
311.125	9059.1
311.191	9071.05
311.256	9063.34
311.322	9071.33
311.387	9047.99
311.453	9410.46
311.518	9383.94
311.584	9378.64
311.649	9390.39
311.715	9381.87
311.78	9381.73
311.846	9368.2
311.911	9374.55
311.976	9388.99
312.042	9369.3
312.107	9355.2
312.173	9344.03
312.238	9335.99
312.304	9333.25
312.369	9323.67
312.434	9309.42
312.5	9304.36
312.565	9270.08
312.631	9273.36
312.696	9262.43
312.761	9267.15
312.827	8891.1
312.892	8926.57
312.958	8934.18
313.023	8923.97
313.088	8919.88
313.154	8904.58
313.219	8898.56
313.284	8888.5
313.35	8876.42
313.415	8866.07
313.48	8853.75
313.546	8854.42
313.611	8863.52
313.676	8855.72
313.741	8849.08
313.807	8854.61
313.872	8858.9
313.937	8866.55
314.003	8879.79
314.068	8884.07
314.133	8885.13
314.198	8869.78
314.264	8847.01
314.329	8833.14
314.394	8831.84
314.459	8838.68
314.525	8860.38
314.59	8854.08
314.655	8846.62
314.72	8855.86
314.785	8859.42
314.851	8862.7
314.916	8851.05
314.981	8833.67
315.046	8825.54
315.111	8819.14
315.176	8807.78
315.242	8804.12
315.307	8801.71
315.372	8777.16
315.437	8769.36
315.502	8767.77
315.567	8778.8
315.632	8768.45
315.698	8767.2
315.763	8764.6
315.828	8751.46
315.893	8742.21
315.958	8745.39
316.023	8735.52
316.088	8719.01
316.153	8693.32
316.218	8679.31
316.283	8663.58
316.348	8647.03
316.413	8645.39
316.479	8618.49
316.544	8585.58
316.609	8561.85
316.674	8526.92
316.739	8493.43
316.804	8460.04
316.869	8426.02
316.934	8394.02
316.999	8364.52
317.064	8315.4
317.129	8270.99
317.194	8233.51
317.259	8187.46
317.324	8129.84
317.389	8081.26
317.454	8035.41
317.518	8009.48
317.583	7985.05
317.648	7960.85
317.713	7929.59
317.778	7865.96
317.843	7845.95
317.908	7811.33
317.973	7768.67
318.038	7746.45
318.103	7715.34
318.168	7686.3
318.233	7656.77
318.297	7611.67
318.362	7575.27
318.427	7539.07
318.492	7512.15
318.557	7465.77
318.622	7437.5
318.687	7419.81
318.751	7387.71
318.816	7356.51
318.881	7323.35
318.946	7278.6
319.011	7235.15
319.075	7196.22
319.14	7167.25
319.205	7123.13
319.27	7085.9
319.335	7042.09
319.399	6997.83
319.464	6970.06
319.529	6914.91
319.594	6870.71
319.658	6837.76
319.723	6800.24
319.788	6771.76
319.853	6716.91
319.917	6690.98
319.982	6644.44
320.047	6605.87
320.112	6577.02
320.176	6526.41
320.241	6494.47
320.306	6464.94
320.37	6424.47
320.435	6394.23
320.5	6369.26
320.564	6328.22
320.629	6293.86
320.694	6263.58
320.758	6225.18
320.823	6181.27
320.888	6162.08
320.952	6118.99
321.017	6076.67
321.082	6031.86
321.146	5996.93
321.211	5967.57
321.275	5931.11
321.34	5883.78
321.405	5841.33
321.469	5798.21
321.534	5761.63
321.598	5707.3
321.663	5671.37
321.727	5640.2
321.792	5594.22
321.857	5551.3
321.921	5515.2
321.986	5470.73
322.05	5411.5
322.115	5375.36
322.179	5332.62
322.244	5273.11
322.308	5243.01
322.373	5199.7
322.437	5162.1
322.502	5135.21
322.566	5088.6
322.631	5045.73
322.695	5008.81
322.76	4965.76
322.824	4937.17
322.889	4893.8
322.953	4849.71
323.018	4787.85
323.082	4720.94
323.146	4668.26
323.211	4614.03
323.275	4569.13
323.34	4526.46
323.404	4495.28
323.468	4449.34
323.533	4408.87
323.597	4363.4
323.662	4310.11
323.726	4273.95
323.79	4229.81
323.855	4166.04
323.919	4119.04
323.983	4075.82
324.048	4012.13
324.112	4142.63
324.177	4010.6
324.241	3803.56
324.305	3601.95
324.37	3399.54
324.434	3210.56
324.498	3167.78
324.562	3116.64
324.627	3057.69
324.691	3000.97
324.755	2938.47
324.82	2860.61
324.884	2777.8
324.948	2707.1
325.012	2609.65
325.077	2483.99
