Data from 20250703_urea_0.1M_MAYP1162681_14-31-04-774.txt Node
Date: Thu Jul 03 14:31:04 BST 2025
User: adleo
Spectrometer: MAYP116268
Trigger mode: 0
Integration Time (sec): 1.000000E0
Scans to average: 1
Electric dark correction enabled: true
Nonlinearity correction enabled: true
Boxcar width: 10
XAxis mode: Wavelengths
Number of Pixels in Spectrum: 2068
>>>>>Begin Spectral Data<<<<<
179.565	1251.85
179.642	1309.52
179.718	1356.09
179.795	1398.8
179.871	1432.01
179.948	1449.9
180.024	1475.68
180.101	1498.08
180.177	1516.87
180.254	1540.62
180.33	1566.06
180.407	1625.27
180.483	1725.95
180.56	1822.16
180.636	1909.76
180.712	1897.2
180.789	1909.09
180.865	1922.02
180.942	1929.81
181.018	1939.65
181.095	1952.35
181.171	1958.15
181.248	1959.1
181.324	1973.89
181.4	1978.46
181.477	1990.35
181.553	2006.94
181.63	2027.87
181.706	2046.37
181.782	2053.07
181.859	2052.36
181.935	2054.88
182.011	2049.27
182.088	2066.54
182.164	2085.67
182.24	2099.22
182.317	2108.3
182.393	2106.35
182.469	2120.48
182.546	2133.22
182.622	2139.03
182.698	2135.08
182.775	2145.59
182.851	2160.53
182.927	2153.44
183.003	2152.3
183.08	2147.16
183.156	2154.68
183.232	2148.01
183.308	2133.22
183.385	2139.02
183.461	2157.62
183.537	2157.05
183.613	2171.28
183.69	2160
183.766	2147.96
183.842	2158
183.918	2165.61
183.995	2180.65
184.071	2185.55
184.147	2180.5
184.223	2170.47
184.299	2183.17
184.375	2173.47
184.452	2180.8
184.528	2232.72
184.604	2240.76
184.68	2250.13
184.756	2256.22
184.832	2261.88
184.908	2269.45
184.985	2271.82
185.061	2255.98
185.137	2268.21
185.213	2256.84
185.289	2257.36
185.365	2247.18
185.441	2240.76
185.517	2251.85
185.593	2248.09
185.669	2242.52
185.745	2254.66
185.822	2269.69
185.898	2259.12
185.974	2270.97
186.05	2262.54
186.126	2227.9
186.202	2222.66
186.278	2217.76
186.354	2208.82
186.43	2215.1
186.506	2216.1
186.582	2213.25
186.658	2220.29
186.734	2199.07
186.81	2204.4
186.886	2207.68
186.962	2223.62
187.038	2222.57
187.114	2216.57
187.19	2224.47
187.266	2217.57
187.341	2216
187.417	2209.96
187.493	2212.86
187.569	2213.29
187.645	2207.77
187.721	2195.92
187.797	2201.01
187.873	2209.05
187.949	2202.25
188.025	2194.73
188.101	2195.06
188.176	2201.72
188.252	2194.78
188.328	2201.58
188.404	2197.87
188.48	2191.78
188.556	2183.17
188.632	2182.26
188.707	2179.07
188.783	2173.17
188.859	2165.75
188.935	2156.48
189.011	2163.85
189.086	2158.47
189.162	2148.29
189.238	2145.53
189.314	2142.59
189.39	2138.45
189.465	2132.21
189.541	2151.2
189.617	2135.5
189.693	2129.7
189.768	2131.7
189.844	2160.44
189.92	2153.84
189.996	2163.92
190.071	2174.82
190.147	2173.86
190.223	2184.19
190.298	2178.62
190.374	2167.11
190.45	2181.57
190.526	2191.75
190.601	2184.57
190.677	2185.04
190.753	2215.7
190.828	2219.84
190.904	2233.83
190.98	2251.63
191.055	2259.91
191.131	2248.82
191.207	2271.7
191.282	2281.69
191.358	2275.94
191.433	2257.84
191.509	2271.59
191.585	2265.55
191.66	2269.92
191.736	2277.63
191.811	2268.78
191.887	2285.49
191.963	2310.62
192.038	2314.8
192.114	2310.85
192.189	2316.51
192.265	2311.23
192.34	2291
192.416	2289.62
192.491	2287.05
192.567	2289.43
192.642	2291.38
192.718	2292.67
192.793	2278.91
192.869	2274.3
192.944	2274.49
193.02	2284.63
193.095	2288.81
193.171	2298.81
193.246	2297.57
193.322	2295.48
193.397	2296.29
193.473	2280.2
193.548	2261.16
193.624	2268.49
193.699	2268.3
193.775	2286.58
193.85	2290.1
193.925	2299.48
194.001	2298.48
194.076	2290.39
194.152	2276.53
194.227	2268.87
194.302	2260.64
194.378	2265.69
194.453	2263.55
194.529	2277.78
194.604	2261.83
194.679	2254.36
194.755	2233.57
194.83	2244.57
194.905	2243.33
194.981	2252.18
195.056	2246.43
195.131	2249.52
195.207	2247.76
195.282	2241.1
195.357	2217.25
195.433	2235.05
195.508	2219.15
195.583	2227.38
195.659	2243.81
195.734	2252.37
195.809	2254.13
195.884	2261.7
195.96	2262.74
196.035	2277.3
196.11	2269.35
196.185	2281.54
196.261	2286.58
196.336	2320.18
196.411	2307.33
196.486	2312.13
196.561	2307.28
196.637	2316.79
196.712	2335.5
196.787	2339.84
196.862	2356.16
196.937	2367.82
197.013	2369.72
197.088	2380.95
197.163	2403.05
197.238	2419.3
197.313	2421.87
197.388	2437.1
197.464	2471.91
197.539	2482.48
197.614	2476.2
197.689	2491.2
197.764	2508.1
197.839	2529.44
197.914	2519.82
197.989	2542.91
198.065	2559.01
198.14	2607.47
198.215	2637.47
198.29	2649.91
198.365	2662.77
198.44	2668.44
198.515	2701.55
198.59	2718.27
198.665	2748.67
198.74	2756.15
198.815	2757.3
198.89	2775.45
198.965	2806.72
199.04	2801.23
199.115	2817.34
199.19	2862.84
199.265	2865.51
199.34	2875.71
199.415	2911.81
199.49	2934.48
199.565	2945.88
199.64	2969.38
199.715	2967.75
199.79	2971.09
199.865	2980.58
199.94	2979.77
200.015	3014.09
200.09	3018.48
200.165	3027.16
200.24	3032.83
200.315	3078.79
200.39	3091.71
200.464	3101.39
200.539	3100.87
200.614	3116.65
200.689	3143.12
200.764	3149.61
200.839	3169.43
200.914	3176.49
200.989	3164.18
201.063	3179.97
201.138	3164.24
201.213	3165.05
201.288	3145.07
201.363	3152.89
201.438	3152.89
201.512	3169.48
201.587	3154.88
201.662	3156.27
201.737	3167.28
201.812	3173.82
201.886	3137.83
201.961	3153.1
202.036	3142.89
202.111	3137.46
202.186	3107.38
202.26	3091.02
202.335	3070.75
202.41	3064.55
202.485	3045.63
202.559	3030.03
202.634	3007.1
202.709	3017.2
202.784	2999.04
202.858	3004.18
202.933	2986.74
203.008	2982.16
203.082	2968.29
203.157	2970.19
203.232	2936.16
203.306	2925.58
203.381	2902.88
203.456	2889.67
203.53	2875.36
203.605	2867.35
203.68	2861.68
203.754	2871.68
203.829	2872.49
203.904	2869.58
203.978	2879.07
204.053	2908.68
204.127	2917.07
204.202	2937.15
204.277	2945.87
204.351	2966.99
204.426	2990.23
204.5	3018.46
204.575	3020.17
204.65	3067.6
204.724	3101.06
204.799	3150.88
204.873	3191.5
204.948	3238.98
205.022	3278.62
205.097	3321.17
205.171	3389.27
205.246	3457.05
205.32	3518.27
205.395	3581.89
205.469	3640.89
205.544	3718.93
205.618	3772.16
205.693	3860.71
205.767	3926.65
205.842	4032.22
205.916	4118.84
205.991	4199.71
206.065	4301.5
206.14	4417.88
206.214	4511.71
206.289	4613.87
206.363	4738.81
206.438	4853.72
206.512	4973.98
206.586	5112.02
206.661	5242.34
206.735	5347.45
206.81	5476.39
206.884	5620.09
206.958	5740.58
207.033	5892.43
207.107	6036.98
207.181	6218.06
207.256	6359.42
207.33	6530.29
207.405	6693.24
207.479	6865.23
207.553	7030.4
207.628	7168.46
207.702	7339.29
207.776	7497.95
207.851	7661.5
207.925	7840.5
207.999	8005.03
208.073	8172.12
208.148	8341.12
208.222	8503.71
208.296	8708.23
208.371	8896.06
208.445	9087.59
208.519	9292.98
208.593	9486.09
208.668	9656.31
208.742	9825.96
208.816	10012.09
208.89	10209.16
208.965	10396.24
209.039	10588.66
209.113	10783.93
209.187	10989.16
209.261	11169.37
209.336	11375.32
209.41	11581.58
209.484	11758.6
209.558	11972.25
209.632	12178.2
209.707	12374.99
209.781	12585.96
209.855	12784.41
209.929	12994.77
210.003	13194.33
210.077	13377.74
210.151	13611.77
210.226	13839.91
210.3	14058.28
210.374	14256.44
210.448	14443.47
210.522	14624.62
210.596	14810.88
210.67	15003.79
210.744	15226.39
210.818	15437.94
210.892	15635.28
210.966	15804.03
211.041	16001.55
211.115	16159.84
211.189	16350.8
211.263	16539.45
211.337	16707.32
211.411	16880.54
211.485	17031.67
211.559	17193.22
211.633	17350.68
211.707	17477.96
211.781	17638.92
211.855	17763.06
211.929	17913.91
212.003	18048.51
212.077	18211.88
212.151	18370.86
212.225	18523.92
212.299	18664.49
212.373	18800.15
212.447	18930.4
212.52	19088.13
212.594	19227.45
212.668	19377.95
212.742	19505.42
212.816	19629.56
212.89	19758.81
212.964	19889.69
213.038	20017.31
213.112	20153.88
213.186	20306.9
213.26	20410.36
213.333	20486.65
213.407	20617.21
213.481	20732.73
213.555	20862.9
213.629	20968.4
213.703	21067.98
213.777	21176.81
213.85	21264.38
213.924	21408.27
213.998	21517.2
214.072	21631.63
214.146	21727.6
214.219	21832.15
214.293	21922.54
214.367	22025.84
214.441	22136.61
214.515	22229.31
214.588	22311.31
214.662	22368.97
214.736	22437.52
214.81	22537.6
214.883	22633.1
214.957	22707.44
215.031	22791.47
215.105	22849.46
215.178	22923.28
215.252	23007.37
215.326	23072.6
215.4	23138.75
215.473	23159.73
215.547	23229.75
215.621	23292.06
215.694	23377.08
215.768	23411.27
215.842	23470.19
215.915	23535.98
215.989	23568.09
216.063	23623.07
216.136	23687.94
216.21	23758.92
216.284	23839.9
216.357	23908.3
216.431	23969.02
216.504	24030.9
216.578	24115.5
216.652	24188.57
216.725	24244.19
216.799	24300.82
216.873	24352.14
216.946	24407.03
217.02	24464.68
217.093	24504.96
217.167	24533.32
217.24	24559.52
217.314	24606.6
217.387	24650.83
217.461	24685.38
217.535	24753.11
217.608	24797.4
217.682	24839.43
217.755	24898.29
217.829	24925.94
217.902	24963.19
217.976	25002.7
218.049	25027.99
218.123	25044.06
218.196	25084.39
218.27	25115.66
218.343	25148.72
218.417	25187.61
218.49	25224.53
218.563	25274.09
218.637	25315.3
218.71	25373.94
218.784	25414.81
218.857	25474.17
218.931	25513.4
219.004	25538.26
219.077	25571.13
219.151	25596.8
219.224	25625.52
219.298	25651.39
219.371	25700.82
219.444	25703.81
219.518	25728.52
219.591	25770.17
219.665	25826.51
219.738	25855.71
219.811	25875.26
219.885	25909.53
219.958	25945.73
220.031	25973.49
220.105	26001.44
220.178	26025.09
220.251	26036.73
220.325	26063.28
220.398	26082.11
220.471	26107.79
220.544	26143.85
220.618	26155.97
220.691	26180.83
220.764	26201.15
220.838	26231.38
220.911	26235.09
220.984	26289.89
221.057	26313.06
221.131	26325.08
221.204	26314.79
221.277	26344.54
221.35	26382
221.424	26367.86
221.497	26374.81
221.57	26387.31
221.643	26386.15
221.716	26398.76
221.79	26397.98
221.863	26387.65
221.936	26389.48
222.009	26387.8
222.082	26399.77
222.155	26403.78
222.229	26410.92
222.302	26415.36
222.375	26401.6
222.448	26403.63
222.521	26395.76
222.594	26392.67
222.667	26372.93
222.74	26371.86
222.814	26360.95
222.887	26363.7
222.96	26379.54
223.033	26382.49
223.106	26362.31
223.179	26365.73
223.252	26354
223.325	26346.52
223.398	26351.78
223.471	26348.45
223.544	26349.03
223.617	26327.88
223.69	26310.6
223.763	26299.59
223.837	26294.52
223.91	26293.02
223.983	26261.5
224.056	26236.49
224.129	26220.32
224.202	26231.23
224.275	26213.9
224.348	26192.75
224.42	26157.94
224.493	26122.55
224.566	26103.63
224.639	26106.33
224.712	26084.17
224.785	26054.48
224.858	26031.75
224.931	26010.17
225.004	25975.41
225.077	25949.68
225.15	25909.38
225.223	25896.83
225.296	25890.94
225.369	25847.26
225.442	25809.89
225.514	25792.52
225.587	25775.29
225.66	25765.87
225.733	25740.05
225.806	25721.71
225.879	25700.33
225.952	25670.93
226.025	25678.17
226.097	25666.15
226.17	25640.86
226.243	25590.28
226.316	25572.67
226.389	25548.39
226.461	25523.78
226.534	25507.18
226.607	25472.82
226.68	25477.88
226.753	25453.8
226.825	25408.19
226.898	25404.19
226.971	25388.74
227.044	25368.96
227.117	25350.33
227.189	25322.24
227.262	25309.07
227.335	25292.61
227.407	25252.8
227.48	25225.25
227.553	25186.16
227.626	25150.78
227.698	25118.84
227.771	25103.98
227.844	25074.45
227.916	25058.82
227.989	25021.28
228.062	24996.48
228.134	24992.23
228.207	24947.94
228.28	24914.45
228.352	24877.74
228.425	24835.57
228.498	24804.21
228.57	24765.03
228.643	24738.4
228.716	24714.71
228.788	24669.5
228.861	24635.63
228.934	24626.46
229.006	24599.88
229.079	24570.89
229.151	24537.79
229.224	24488.78
229.296	24471.66
229.369	24468.38
229.442	24444.64
229.514	24400.65
229.587	24380
229.659	24335.57
229.732	24320.96
229.804	24302.92
229.877	24309.91
229.949	24301.47
230.022	24296.45
230.094	24277.45
230.167	24251.69
230.239	24209.05
230.312	24184.89
230.384	24172.34
230.457	24138.92
230.529	24112.49
230.602	24072.65
230.674	24044.72
230.747	24040.96
230.819	24019.2
230.892	23963.73
230.964	23940.49
231.037	23922.79
231.109	23881.36
231.181	23855.41
231.254	23813.94
231.326	23785.29
231.399	23744.24
231.471	23692.3
231.544	23635.92
231.616	23613.64
231.688	23574.53
231.761	23543.19
231.833	23511.89
231.905	23446.54
231.978	23419.01
232.05	23381.35
232.122	23367.02
232.195	23321.02
232.267	23298.6
232.339	23253.85
232.412	23231.14
232.484	23190
232.556	23154.08
232.629	23151.48
232.701	23121.24
232.773	23083.01
232.846	23033.64
232.918	23006.54
232.99	22978.28
233.062	22949.3
233.135	22910.54
233.207	22863.53
233.279	22823.47
233.351	22797.91
233.424	22757.95
233.496	22703.42
233.568	22685.97
233.64	22623.53
233.713	22594.17
233.785	22545.62
233.857	22514.04
233.929	22467.42
234.001	22451.85
234.074	22431.75
234.146	22369.07
234.218	22332.87
234.29	22296.18
234.362	22252.8
234.434	22187.28
234.507	22145.54
234.579	22092.13
234.651	22046.91
234.723	22024.98
234.795	22004.59
234.867	21951.75
234.939	21928.95
235.012	21907.12
235.084	21875.25
235.156	21846.62
235.228	21799.38
235.3	21752.63
235.372	21716.24
235.444	21689
235.516	21620.12
235.588	21574.57
235.66	21535.86
235.732	21488.82
235.804	21513.31
235.876	21483.91
235.948	21472.1
236.02	21436.14
236.092	21399.22
236.164	21361.29
236.236	21317.43
236.308	21264.8
236.38	21229.52
236.452	21183.15
236.524	21141.8
236.596	21116.25
236.668	21091.14
236.74	21057.5
236.812	21033.74
236.884	21006.08
236.956	20960.1
237.028	20913.5
237.1	20875.33
237.172	20851.9
237.244	20835.56
237.316	20749.34
237.388	20707.94
237.46	20650.54
237.532	20622.83
237.604	20582.06
237.675	20557.38
237.747	20528.37
237.819	20480.51
237.891	20438.54
237.963	20395.36
238.035	20340.03
238.107	20259.41
238.178	20231.21
238.25	20192.37
238.322	20182.64
238.394	20116.28
238.466	20071.07
238.538	20040.66
238.609	20002.69
238.681	19944.38
238.753	19891.13
238.825	19853.39
238.897	19818.36
238.968	19806.69
239.04	19759.76
239.112	19751.81
239.184	19699.81
239.255	19653.5
239.327	19620.73
239.399	19583.96
239.471	19552.97
239.542	19531.19
239.614	19511.48
239.686	19441.46
239.758	19405.32
239.829	19344.69
239.901	19317.9
239.973	19283.64
240.044	19258.48
240.116	19219.3
240.188	19179.69
240.259	19138.78
240.331	19100.03
240.403	19072.13
240.474	19008.81
240.546	18957.49
240.618	18892
240.689	18849.11
240.761	18804.29
240.833	18779.43
240.904	18739.43
240.976	18701.79
241.048	18667
241.119	18633.75
241.191	18603.87
241.262	18588.02
241.334	18540.41
241.405	18509.85
241.477	18466.67
241.549	18420.6
241.62	18381.14
241.692	18360.46
241.763	18334.58
241.835	18290.88
241.906	18245.58
241.978	18192.28
242.049	18171.99
242.121	18150.01
242.192	18135.27
242.264	18089.92
242.335	18030.84
242.407	17995.37
242.478	17953.44
242.55	17912.96
242.621	17862.02
242.693	17820.1
242.764	17772.05
242.836	17733.21
242.907	17695.81
242.979	17664.58
243.05	17622.51
243.122	17592.73
243.193	17542.85
243.264	17483.14
243.336	17446.66
243.407	17412.92
243.479	17396.68
243.55	17360.83
243.622	17321.98
243.693	17275.48
243.764	17258.8
243.836	17221.31
243.907	17185.45
243.978	17142.75
244.05	17110.36
244.121	17060.15
244.192	17029.2
244.264	16975.23
244.335	16933.2
244.407	16879.85
244.478	16849.73
244.549	16813.1
244.62	16771.99
244.692	16735.41
244.763	16713.87
244.834	16668.22
244.906	16627.5
244.977	16600.12
245.048	16575.64
245.119	16534.63
245.191	16490.67
245.262	16429.41
245.333	16419.58
245.405	16388.45
245.476	16362.23
245.547	16325.98
245.618	16305.35
245.689	16283.91
245.761	16266.02
245.832	16237.78
245.903	16213.2
245.974	16182.69
246.045	16151.79
246.117	16132.42
246.188	16084.61
246.259	16039.35
246.33	16000.45
246.401	15966.03
246.473	15918.22
246.544	15877.25
246.615	15844.72
246.686	15807.51
246.757	15796.47
246.828	15746.92
246.899	15728.12
246.97	15678.91
247.042	15639.58
247.113	15617.84
247.184	15601.36
247.255	15552.96
247.326	15519.9
247.397	15485.96
247.468	15449.96
247.539	15424.46
247.61	15374.62
247.681	15358.47
247.752	15338.9
247.823	15306.85
247.894	15278.6
247.965	15231.99
248.037	15191.98
248.108	15151.63
248.179	15120.11
248.25	15078.75
248.321	15051.52
248.392	15001.24
248.463	14998.25
248.534	14971.31
248.605	14941.18
248.675	14907.97
248.746	14882.08
248.817	14861.45
248.888	14847.33
248.959	14800.43
249.03	14773.34
249.101	14746.15
249.172	14705.85
249.243	14655.14
249.314	14642.03
249.385	14609.2
249.456	14590.88
249.527	14563.55
249.598	14539.16
249.669	14514.23
249.739	14493.65
249.81	14479.82
249.881	14444.34
249.952	14409.39
250.023	14378.3
250.094	14339.35
250.165	14292.3
250.235	14268.92
250.306	14244.14
250.377	14194.59
250.448	14176.36
250.519	14124.06
250.59	14112.73
250.66	14083.52
250.731	14073.44
250.802	14042.45
250.873	14024.95
250.944	13997.95
251.014	13967.82
251.085	13971.63
251.156	13952.06
251.227	13945.12
251.297	13923.14
251.368	13907.57
251.439	13895.76
251.51	13886.6
251.58	13852.32
251.651	13820.22
251.722	13805.32
251.792	13757.4
251.863	13731.08
251.934	13716.43
252.005	13718.45
252.075	13689.19
252.146	13680.22
252.217	13669.23
252.287	13661.28
252.358	13636.5
252.429	13632.69
252.499	13602.95
252.57	13573.01
252.641	13557.39
252.711	13515.6
252.782	13477.71
252.852	13473.66
252.923	13449.41
252.994	13416.44
253.064	13406.17
253.135	13381.59
253.205	13349.58
253.276	13350.2
253.347	13347.89
253.417	13316.41
253.488	13293.03
253.558	13266.81
253.629	13242.65
253.699	13225.15
253.77	13208.86
253.841	13179.26
253.911	13162
253.982	13145.71
254.052	13138.19
254.123	13122.28
254.193	13111.77
254.264	13135.59
254.334	13105.89
254.405	13067.42
254.475	13042.5
254.546	13017.68
254.616	13013.48
254.687	12999.41
254.757	12982.68
254.827	12960.45
254.898	12940.3
254.968	12914.8
255.039	12885.88
255.109	12872.62
255.18	12841.72
255.25	12788.41
255.321	12776.36
255.391	12740.2
255.461	12735
255.532	12679.27
255.602	12646.78
255.673	12602.05
255.743	12565.46
255.813	12515.57
255.884	12510.17
255.954	12495.8
256.024	12495.66
256.095	12471.61
256.165	12438.54
256.235	12420.89
256.306	12391.83
256.376	12388.98
256.446	12378.38
256.517	12366.09
256.587	12353.94
256.657	12336.3
256.728	12327.19
256.798	12308.58
256.868	12284.24
256.938	12261.53
257.009	12256.13
257.079	12243.84
257.149	12250.45
257.219	12204.41
257.29	12195.21
257.36	12155.3
257.43	12142.76
257.5	12097.36
257.571	12074.65
257.641	12058.75
257.711	12020.62
257.781	12003.41
257.852	11989.09
257.922	11954.78
257.992	11940.41
258.062	11921.42
258.132	11911.1
258.202	11886.23
258.273	11866.71
258.343	11868.06
258.413	11836.11
258.483	11821.02
258.553	11792.53
258.623	11765.4
258.693	11755.56
258.764	11755.18
258.834	11748.96
258.904	11729.73
258.974	11708.14
259.044	11679.07
259.114	11667.26
259.184	11656.03
259.254	11637.86
259.324	11596.94
259.394	11578.87
259.464	11574.29
259.535	11552.41
259.605	11523.44
259.675	11501.03
259.745	11487.73
259.815	11456.74
259.885	11433.99
259.955	11441.17
260.025	11413.51
260.095	11397.27
260.165	11379.92
260.235	11374.71
260.305	11352.25
260.375	11322.57
260.445	11325.31
260.515	11333.75
260.585	11329.6
260.655	11309.6
260.725	11301.89
260.795	11298.08
260.865	11305.31
260.934	11269.89
261.004	11258.37
261.074	11242.95
261.144	11243.57
261.214	11238.03
261.284	11223.38
261.354	11223.14
261.424	11195.33
261.494	11201.98
261.564	11186.8
261.634	11173.74
261.703	11132.73
261.773	11120.1
261.843	11112.3
261.913	11098.08
261.983	11058.61
262.053	11043.77
262.123	11029.41
262.192	11000.11
262.262	10992.3
262.332	10957.36
262.402	10948.55
262.472	10931.05
262.541	10893.66
262.611	10891.3
262.681	10861.04
262.751	10848.51
262.821	10825.33
262.89	10788.99
262.96	10783.11
263.03	10786.49
263.1	10781.19
263.169	10774.01
263.239	10768.76
263.309	10770.64
263.379	10752.52
263.448	10745.15
263.518	10732.71
263.588	10714.74
263.657	10718.55
263.727	10707.22
263.797	10694.55
263.867	10684.43
263.936	10654.12
264.006	10657.55
264.076	10634.85
264.145	10617.75
264.215	10593.08
264.285	10588.26
264.354	10559.98
264.424	10531.36
264.494	10500.23
264.563	10481.29
264.633	10488.18
264.702	10476.23
264.772	10446.17
264.842	10428.97
264.911	10418.85
264.981	10387.15
265.05	10377.51
265.12	10355.54
265.19	10350.72
265.259	10344.12
265.329	10331.35
265.398	10328.75
265.468	10333.28
265.537	10320.8
265.607	10316.47
265.676	10313.29
265.746	10303.8
265.815	10306.78
265.885	10290.21
265.955	10258.61
266.024	10236.83
266.094	10201.23
266.163	10197.38
266.232	10192.46
266.302	10174.88
266.371	10158.93
266.441	10149.2
266.51	10142.7
266.58	10127.09
266.649	10101.89
266.719	10102.95
266.788	10099.58
266.858	10100.26
266.927	10065.14
266.996	10049.87
267.066	10035.42
267.135	10016.15
267.205	10010.8
267.274	10000.4
267.343	9997.8
267.413	9993.12
267.482	9996.4
267.552	9996.54
267.621	9972.27
267.69	9944.86
267.76	9939.56
267.829	9935.71
267.898	9927.66
267.968	9901.41
268.037	9891.49
268.106	9882.53
268.176	9856.61
268.245	9836.82
268.314	9819.81
268.384	9817.16
268.453	9805.07
268.522	9804.06
268.592	9805.12
268.661	9781.9
268.73	9773.62
268.799	9760.09
268.869	9768.56
268.938	9737.64
269.007	9716.88
269.076	9701.13
269.146	9701.66
269.215	9693.24
269.284	9703.83
269.353	9682.74
269.422	9678.65
269.492	9667.91
269.561	9628.61
269.63	9622.78
269.699	9603.52
269.768	9589.98
269.838	9586.9
269.907	9586.18
269.976	9558.15
270.045	9520.69
270.114	9519.29
270.183	9500.03
270.253	9488.03
270.322	9459.04
270.391	9449.75
270.46	9453.65
270.529	9458.52
270.598	9458.42
270.667	9453.84
270.736	9417.48
270.806	9408.57
270.875	9406.7
270.944	9392.06
271.013	9421.14
271.082	9412.96
271.151	9410.98
271.22	9386.18
271.289	9378.91
271.358	9364.8
271.427	9360.37
271.496	9354.79
271.565	9341.5
271.634	9338.03
271.703	9338.61
271.772	9340.15
271.841	9327.58
271.91	9299.46
271.979	9288
272.048	9260.75
272.117	9250.44
272.186	9238.26
272.255	9247.46
272.324	9241.92
272.393	9241.06
272.462	9220.06
272.531	9210.67
272.6	9199.98
272.669	9209.18
272.738	9193.48
272.807	9192.66
272.876	9175.95
272.945	9209.18
273.013	9209.27
273.082	9215.39
273.151	9194.11
273.22	9185.73
273.289	9179.81
273.358	9195.84
273.427	9179.71
273.496	9183.66
273.564	9183.76
273.633	9189.82
273.702	9169.26
273.771	9158.48
273.84	9153.76
273.909	9150.2
273.977	9145.29
274.046	9135.75
274.115	9136.67
274.184	9115.63
274.253	9096.86
274.322	9102.73
274.39	9070.95
274.459	9045.92
274.528	9011.55
274.597	9004.23
274.665	9004.37
274.734	9014.39
274.803	9002.4
274.872	8998.4
274.94	8981.31
275.009	9005.97
275.078	8991.14
275.147	8983.97
275.215	8978.77
275.284	8979.97
275.353	8967.79
275.421	8944.16
275.49	8961.49
275.559	8949.31
275.627	8948.59
275.696	8938.29
275.765	8940.93
275.833	8929.09
275.902	8942.52
275.971	8957.01
276.039	8976.08
276.108	8973.96
276.177	8971.36
276.245	8954.17
276.314	8955.95
276.383	8958.46
276.451	8925.57
276.52	8927.2
276.588	8936.35
276.657	8944.1
276.725	8934.28
276.794	8934.95
276.863	8948.14
276.931	8919.55
277	8921.47
277.068	8929.61
277.137	8957
277.205	8947.42
277.274	8964.17
277.342	8970.72
277.411	8951.47
277.48	8936.93
277.548	8931.05
277.617	8924.6
277.685	8922
277.754	8918.54
277.822	8911.56
277.89	8919.6
277.959	8915.03
278.027	8902.27
278.096	8890.76
278.164	8915.7
278.233	8908.24
278.301	8892.65
278.37	8895.68
278.438	8886.05
278.507	8891.54
278.575	8864.53
278.643	8865.45
278.712	8847.59
278.78	8829.97
278.849	8841.57
278.917	8849.03
278.985	8841.86
279.054	8851.1
279.122	8866.02
279.191	8865.93
279.259	8862.41
279.327	8839.74
279.396	8852.25
279.464	8846.38
279.532	8853.46
279.601	8854.86
279.669	8854.52
279.737	8875.07
279.806	8883.21
279.874	8890.38
279.942	8886.58
280.011	8877.53
280.079	8883.5
280.147	8898.32
280.215	8899.67
280.284	8889.76
280.352	8876.37
280.42	8883.93
280.488	8865.11
280.557	8857.5
280.625	8859.77
280.693	8860.63
280.761	8860.25
280.83	8841.67
280.898	8851.87
280.966	8828
281.034	8790.3
281.102	8773.7
281.171	8759.88
281.239	8766.33
281.307	8753.24
281.375	8742.22
281.443	8771.1
281.512	8764.79
281.58	8773.27
281.648	8757.19
281.716	8755.22
281.784	8754.83
281.852	8745.35
281.92	8756.57
281.989	8766.29
282.057	8743.33
282.125	8789.17
282.193	8789.36
282.261	8790.03
282.329	8787.48
282.397	8800.62
282.465	8804.04
282.533	8818.77
282.601	8808.03
282.67	8784.49
282.738	8781.56
282.806	8793.69
282.874	8774.29
282.942	8778.76
283.01	8777.8
283.078	8788.49
283.146	8789.21
283.214	8795.13
283.282	8800.28
283.35	8804.13
283.418	8800.76
283.486	8813.08
283.554	8770.81
283.622	8771
283.69	8775.04
283.758	8767.1
283.826	8762.1
283.894	8769.32
283.962	8791.36
284.03	8806.43
284.098	8809.46
284.165	8806.24
284.233	8802.34
284.301	8800.51
284.369	8787.8
284.437	8768.79
284.505	8762.92
284.573	8778.46
284.641	8767.2
284.709	8778.46
284.777	8762.82
284.845	8765.32
284.912	8764.36
284.98	8764.94
285.048	8759.31
285.116	8760.89
285.184	8771.1
285.252	8774.37
285.319	8759.5
285.387	8743.76
285.455	8728.35
285.523	8737.5
285.591	8731.29
285.659	8728.26
285.726	8737.16
285.794	8726.63
285.862	8727.2
285.93	8728.74
285.997	8723.26
286.065	8717.62
286.133	8699.09
286.201	8697.99
286.269	8684.31
286.336	8681.48
286.404	8677.48
286.472	8693.75
286.539	8672.38
286.607	8660.93
286.675	8664.63
286.743	8678.59
286.81	8674.74
286.878	8688.99
286.946	8676.09
287.013	8682.01
287.081	8688.36
287.149	8676.9
287.216	8693.65
287.284	8688.79
287.352	8687.59
287.419	8681
287.487	8698.23
287.555	8708.72
287.622	8706.75
287.69	8708.91
287.758	8720.13
287.825	8715.36
287.893	8693.32
287.96	8701.35
288.028	8713.1
288.096	8715.41
288.163	8713.05
288.231	8702.03
288.298	8695.72
288.366	8709.15
288.433	8705.16
288.501	8693.89
288.569	8695.67
288.636	8689.95
288.704	8702.61
288.771	8711.75
288.839	8706.26
288.906	8703.95
288.974	8715.99
289.041	8711.22
289.109	8703.04
289.176	8712
289.244	8717.05
289.311	8736.25
289.379	8740.58
289.446	8745.16
289.514	8741.26
289.581	8742.51
289.649	8747.32
289.716	8754.25
289.783	8743.71
289.851	8760.22
289.918	8758.54
289.986	8770.76
290.053	8777.69
290.121	8775.67
290.188	8776.83
290.255	8804.99
290.323	8794.01
290.39	8781.21
290.458	8789.1
290.525	8805.13
290.592	8797.09
290.66	8801.13
290.727	8792.03
290.794	8813.36
290.862	8810.56
290.929	8813.26
290.996	8808.35
291.064	8815.04
291.131	8823.99
291.198	8836.94
291.266	8835.79
291.333	8833.81
291.4	8833.38
291.468	8850.57
291.535	8847.01
291.602	8851
291.669	8843.3
291.737	8849.94
291.804	8848.06
291.871	8863.42
291.938	8869.24
292.006	8897.41
292.073	8909.68
292.14	8927.69
292.207	8919.84
292.275	8923.74
292.342	8932.07
292.409	8960.47
292.476	8986.32
292.543	8984.16
292.611	8987.62
292.678	9001.73
292.745	9030.8
292.812	9048.86
292.879	9043.8
292.946	9052.66
293.014	9068.11
293.081	9073.84
293.148	9087.85
293.215	9113.27
293.282	9109.42
293.349	9120.68
293.416	9098.68
293.484	9111.2
293.551	9119.96
293.618	9133.97
293.685	9158
293.752	9153.57
293.819	9147.64
293.886	9133.49
293.953	9135.08
294.02	9144.03
294.087	9155.35
294.154	9147.36
294.221	9155.11
294.288	9155.93
294.356	9170.75
294.423	9175.14
294.49	9168.16
294.557	9174.66
294.624	9156.99
294.691	9177.69
294.758	9180.05
294.825	9187.12
294.892	9176.05
294.959	9173.07
295.026	9178.46
295.093	9175.04
295.16	9174.51
295.226	9179.57
295.293	9207.54
295.36	9214.23
295.427	9229.98
295.494	9242.5
295.561	9250.69
295.628	9274.43
295.695	9285.7
295.762	9292.44
295.829	9305.63
295.896	9330.72
295.963	9351.33
296.03	9368.95
296.096	9374.05
296.163	9385.47
296.23	9408.44
296.297	9427.02
296.364	9433.43
296.431	9446.04
296.498	9442.19
296.564	9471.95
296.631	9473.53
296.698	9461.69
296.765	9481.19
296.832	9468.81
296.899	9451.82
296.965	9475.32
297.032	9454.65
297.099	9469.92
297.166	9478.54
297.233	9475.12
297.299	9462.65
297.366	9456.97
297.433	9453.88
297.5	9463.66
297.566	9463.37
297.633	9464.38
297.7	9466.65
297.767	9463.95
297.833	9466.6
297.9	9466.55
297.967	9446.13
298.033	9466.99
298.1	9492.56
298.167	9490.25
298.234	9498.63
298.3	9511.15
298.367	9504.12
298.434	9512.88
298.5	9510.47
298.567	9499.88
298.634	9494.82
298.7	9516.59
298.767	9519.48
298.834	9535.37
298.9	9522.37
298.967	9511.92
299.033	9516.11
299.1	9532.53
299.167	9546.16
299.233	9541
299.3	9557.57
299.366	9577.41
299.433	9593.21
299.5	9565.08
299.566	9568.45
299.633	9582.18
299.699	9594.75
299.766	9591.18
299.832	9593.93
299.899	9596.15
299.965	9618.06
300.032	9611.46
300.099	9614.69
300.165	9625.24
300.232	9621.33
300.298	9631.3
300.365	9648.35
300.431	9652.93
300.498	9644.06
300.564	9647.87
300.631	9660.15
300.697	9672.29
300.763	9673.68
300.83	9664.82
300.896	9682.4
300.963	9694.2
301.029	9702.29
301.096	9701.9
301.162	9714.09
301.229	9707.39
301.295	9702
301.361	9699.69
301.428	9705.08
301.494	9689.43
301.561	9686.4
301.627	9690.59
301.693	9687.84
301.76	9691.89
301.826	9683.36
301.892	9696.65
301.959	9703.49
302.025	9699.79
302.092	9694.29
302.158	9699.26
302.224	9703.06
302.291	9698.53
302.357	9691.79
302.423	9688.85
302.49	9681.43
302.556	9697.52
302.622	9697.52
302.688	9712.26
302.755	9720.45
302.821	9731.33
302.887	9746.94
302.954	9748.28
303.02	9756.28
303.086	9767.98
303.152	9759.27
303.219	9755.12
303.285	9758.64
303.351	9762.4
303.417	9762.16
303.483	9756.81
303.55	9749.2
303.616	9744.91
303.682	9740.97
303.748	9731.33
303.815	9744.19
303.881	9761.63
303.947	9747.37
304.013	9752.48
304.079	9738.7
304.145	9727.87
304.212	9729.36
304.278	9720.88
304.344	9715.87
304.41	9701.47
304.476	9690.11
304.542	9688.81
304.608	9699.11
304.674	9681.63
304.741	9679.94
304.807	9688.81
304.873	9691.31
304.939	9712.79
305.005	9695.79
305.071	9688.09
305.137	9692.76
305.203	9662.85
305.269	9655.38
305.335	9670.46
305.401	9666.8
305.467	9663.57
305.533	9666.6
305.599	9666.03
305.666	9676.09
305.732	9675.42
305.798	9693
305.864	9723.15
305.93	9732.54
305.996	9731.82
306.062	9733.36
306.128	9730.81
306.194	9714.09
306.259	9714.67
306.325	9708.12
306.391	9719.2
306.457	9731.72
306.523	9735.48
306.589	9764.23
306.655	9761.58
306.721	9736.97
306.787	9721.56
306.853	9738.51
306.919	9719.49
306.985	9717.51
307.051	9708.89
307.117	9701.38
307.183	9688.81
307.248	9657.98
307.314	9659.57
307.38	9658.99
307.446	9662.9
307.512	9647.1
307.578	9652.01
307.644	9647.68
307.709	9642.52
307.775	9637.03
307.841	9633.95
307.907	9632.02
307.973	9611.84
308.039	9607.27
308.104	9616.27
308.17	9619.4
308.236	9602.64
308.302	9609.33
308.368	9595.66
308.433	9594.12
308.499	9591.71
308.565	9582.85
308.631	9588.34
308.696	9566.43
308.762	9551.74
308.828	9551.93
308.894	9536.91
308.959	9515.82
309.025	9504.88
309.091	9501.03
309.156	9488.99
309.222	9497.13
309.288	9485.33
309.354	9462.17
309.419	9456.44
309.485	9438.09
309.551	9446.61
309.616	9440.64
309.682	9438.57
309.748	9434.38
309.813	9428.17
309.879	9419.31
309.945	9409.49
310.01	9392.39
310.076	9393.4
310.141	9388.93
310.207	9369.76
310.273	9376.31
310.338	9385.79
310.404	9366.92
310.469	9353.19
310.535	9349.49
310.601	9321.7
310.666	9329.07
310.732	9341.3
310.797	9332.87
310.863	9325.22
310.928	9315.97
310.994	9316.6
311.059	9311.06
311.125	9310.05
311.191	9321.07
311.256	9313.61
311.322	9320.5
311.387	9308.36
311.453	9637.15
311.518	9612.65
311.584	9616.94
311.649	9619.97
311.715	9603.36
311.78	9609.62
311.846	9597.87
311.911	9603.55
311.976	9604.66
312.042	9591.9
312.107	9573.55
312.173	9562.38
312.238	9558.53
312.304	9555.11
312.369	9544.13
312.434	9529.45
312.5	9519
312.565	9486.21
312.631	9490.06
312.696	9482.98
312.761	9484.76
312.827	9143.7
312.892	9173.26
312.958	9161.7
313.023	9152.07
313.088	9150.72
313.154	9135.94
313.219	9124.2
313.284	9112.45
313.35	9110.62
313.415	9096.99
313.48	9093.14
313.546	9099.35
313.611	9104.89
313.676	9095.89
313.741	9088.09
313.807	9097.33
313.872	9102.87
313.937	9112.64
314.003	9120.73
314.068	9117.22
314.133	9126.75
314.198	9121.4
314.264	9111.24
314.329	9105.23
314.394	9103.97
314.459	9101.47
314.525	9121.74
314.59	9121.45
314.655	9111.92
314.72	9113.8
314.785	9117.07
314.851	9109.95
314.916	9090.98
314.981	9075.23
315.046	9061.37
315.111	9049.24
315.176	9037.3
315.242	9036.72
315.307	9035.42
315.372	9015.59
315.437	9001.14
315.502	8982.85
315.567	8987.47
315.632	8967.2
315.698	8971.97
315.763	8972.11
315.828	8957.43
315.893	8954.98
315.958	8954.26
316.023	8948.14
316.088	8929.46
316.153	8902.12
316.218	8894.66
316.283	8878.16
316.348	8861.41
316.413	8860.49
316.479	8841.92
316.544	8810.92
316.609	8782.23
316.674	8741.23
316.739	8706.67
316.804	8681.89
316.869	8648.44
316.934	8614.7
316.999	8585.59
317.064	8529.24
317.129	8479.81
317.194	8448.83
317.259	8391.7
317.324	8338.64
317.389	8286.96
317.454	8244.57
317.518	8213.16
317.583	8191.89
317.648	8164.13
317.713	8131.13
317.778	8072.39
317.843	8046.9
317.908	8001.78
317.973	7967.15
318.038	7937.23
318.103	7903.37
318.168	7871.2
318.233	7844.12
318.297	7791.51
318.362	7756.64
318.427	7715.78
318.492	7691.01
318.557	7646.59
318.622	7621.39
318.687	7594.23
318.751	7556.6
318.816	7526.45
318.881	7490.73
318.946	7435.39
319.011	7392.18
319.075	7349.45
319.14	7320.9
319.205	7273.46
319.27	7247.99
319.335	7199.31
319.399	7160.81
319.464	7127.32
319.529	7072.64
319.594	7033.95
319.658	7005.27
319.723	6963.18
319.788	6939.4
319.853	6885.26
319.917	6858.02
319.982	6804.46
320.047	6769.69
320.112	6746.11
320.176	6693.52
320.241	6662.06
320.306	6627.19
320.37	6585.42
320.435	6546.86
320.5	6513.92
320.564	6477.19
320.629	6430.01
320.694	6396.64
320.758	6351.62
320.823	6310.24
320.888	6284.71
320.952	6232.15
321.017	6192.17
321.082	6150.38
321.146	6110.88
321.211	6077.34
321.275	6034.11
321.34	5991.14
321.405	5945.23
321.469	5895.24
321.534	5859.08
321.598	5804.88
321.663	5772.88
321.727	5738.64
321.792	5697.16
321.857	5652.9
321.921	5613.91
321.986	5573.08
322.05	5518.72
322.115	5483.87
322.179	5435.32
322.244	5379.92
322.308	5351.11
322.373	5305.11
322.437	5265.81
322.502	5240.7
322.566	5197.86
322.631	5158
322.695	5119.06
322.76	5076.68
322.824	5048.6
322.889	5004.55
322.953	4962.61
323.018	4898.25
323.082	4834.92
323.146	4785.38
323.211	4727.79
323.275	4685.04
323.34	4639.68
323.404	4604.56
323.468	4559.81
323.533	4517.95
323.597	4468.79
323.662	4414.87
323.726	4378.51
323.79	4329.1
323.855	4264.93
323.919	4215.29
323.983	4170.67
324.048	4103.44
324.112	4250.35
324.177	4116.06
324.241	3901.88
324.305	3693.2
324.37	3488.92
324.434	3293.87
324.498	3248.16
324.562	3201.02
324.627	3137.6
324.691	3082.78
324.755	3014.58
324.82	2934.68
324.884	2858
324.948	2788.11
325.012	2690.45
325.077	2562.61
