Data from 20250703_urea_0.1M_MAYP1162681_22-51-05-367.txt Node
Date: Thu Jul 03 22:51:05 BST 2025
User: adleo
Spectrometer: MAYP116268
Trigger mode: 0
Integration Time (sec): 1.000000E0
Scans to average: 1
Electric dark correction enabled: true
Nonlinearity correction enabled: true
Boxcar width: 10
XAxis mode: Wavelengths
Number of Pixels in Spectrum: 2068
>>>>>Begin Spectral Data<<<<<
179.565	1370.12
179.642	1434.6
179.718	1486.16
179.795	1531.99
179.871	1569.99
179.948	1592.62
180.024	1615.11
180.101	1640.82
180.177	1656.89
180.254	1684.98
180.33	1711.16
180.407	1778.47
180.483	1885.94
180.56	1988.81
180.636	2085.97
180.712	2068.5
180.789	2082.54
180.865	2094.61
180.942	2103.84
181.018	2112.5
181.095	2129.96
181.171	2138.47
181.248	2140.19
181.324	2155.37
181.4	2163.22
181.477	2175.35
181.553	2191.33
181.63	2212.6
181.706	2227.4
181.782	2237.58
181.859	2236.63
181.935	2242.96
182.011	2237.86
182.088	2259.76
182.164	2280.37
182.24	2292.22
182.317	2306.3
182.393	2304.02
182.469	2317.58
182.546	2335.52
182.622	2343.42
182.698	2338.04
182.775	2350.32
182.851	2367.7
182.927	2363.08
183.003	2359.37
183.08	2354.8
183.156	2365.32
183.232	2364.56
183.308	2355.51
183.385	2363.6
183.461	2383.22
183.537	2382.83
183.613	2397.16
183.69	2384.88
183.766	2374.69
183.842	2385.11
183.918	2386.4
183.995	2401.49
184.071	2408.58
184.147	2399.78
184.223	2385.69
184.299	2399.5
184.375	2386.79
184.452	2392.27
184.528	2442.17
184.604	2451.4
184.68	2460.21
184.756	2466.73
184.832	2473.73
184.908	2480.77
184.985	2478.63
185.061	2462.45
185.137	2475.4
185.213	2462.93
185.289	2462.64
185.365	2457.4
185.441	2458.5
185.517	2474.74
185.593	2468.93
185.669	2466.84
185.745	2481.69
185.822	2502.15
185.898	2493.77
185.974	2506.34
186.05	2498.48
186.126	2463.34
186.202	2458.3
186.278	2454.58
186.354	2441.92
186.43	2448.35
186.506	2446.21
186.582	2448.92
186.658	2452.82
186.734	2426.26
186.81	2431.64
186.886	2434.88
186.962	2448.49
187.038	2442.21
187.114	2433.49
187.19	2441.58
187.266	2428.49
187.341	2426.59
187.417	2417.69
187.493	2416.83
187.569	2414.5
187.645	2408.17
187.721	2395.59
187.797	2402.5
187.873	2409.26
187.949	2406.07
188.025	2397.35
188.101	2400.45
188.176	2406.63
188.252	2401.35
188.328	2411.2
188.404	2408.87
188.48	2404.87
188.556	2395.06
188.632	2397.77
188.707	2399.63
188.783	2394.87
188.859	2388.59
188.935	2378.02
189.011	2386.4
189.086	2380.26
189.162	2374.64
189.238	2371.03
189.314	2368.93
189.39	2362.36
189.465	2352.56
189.541	2371.6
189.617	2354.23
189.693	2347.8
189.768	2349.14
189.844	2376
189.92	2368.19
189.996	2380.14
190.071	2395.47
190.147	2393.9
190.223	2399.62
190.298	2389.66
190.374	2377.62
190.45	2392.56
190.526	2401.94
190.601	2393.18
190.677	2396.85
190.753	2423.09
190.828	2428.76
190.904	2442.52
190.98	2458.18
191.055	2472.46
191.131	2459.18
191.207	2482.65
191.282	2495.59
191.358	2484.55
191.433	2469.21
191.509	2483.3
191.585	2477.68
191.66	2478.68
191.736	2486.15
191.811	2478.87
191.887	2496.77
191.963	2523.39
192.038	2529.49
192.114	2529.11
192.189	2538.49
192.265	2535.49
192.34	2513.43
192.416	2506.96
192.491	2503.05
192.567	2508.96
192.642	2511.82
192.718	2512.06
192.793	2502.15
192.869	2497.15
192.944	2499.72
193.02	2508.3
193.095	2513.68
193.171	2523.25
193.246	2522.2
193.322	2520.63
193.397	2521.68
193.473	2510.48
193.548	2491.05
193.624	2501.15
193.699	2501.15
193.775	2516.82
193.85	2514.49
193.925	2526.16
194.001	2531.01
194.076	2524.63
194.152	2510.72
194.227	2499.58
194.302	2492.96
194.378	2494.91
194.453	2490.06
194.529	2506.96
194.604	2490.01
194.679	2480.3
194.755	2457.07
194.83	2469.03
194.905	2468.98
194.981	2478.03
195.056	2467.7
195.131	2473.27
195.207	2467.27
195.282	2456.41
195.357	2433.98
195.433	2453.4
195.508	2441.21
195.583	2448.12
195.659	2462.07
195.734	2470.78
195.809	2471.74
195.884	2480.4
195.96	2481.54
196.035	2499.92
196.11	2492.49
196.185	2510.06
196.261	2516.92
196.336	2554.87
196.411	2539.1
196.486	2545.44
196.561	2539.58
196.637	2545.43
196.712	2561.73
196.787	2563.01
196.862	2582.87
196.937	2595.39
197.013	2599.25
197.088	2609.06
197.163	2632.46
197.238	2652.24
197.313	2651.72
197.388	2669.25
197.464	2702.41
197.539	2715.04
197.614	2704.37
197.689	2720.71
197.764	2737.82
197.839	2757.88
197.914	2747.44
197.989	2771.5
198.065	2785.89
198.14	2839.78
198.215	2871.04
198.29	2885.53
198.365	2904.07
198.44	2914.03
198.515	2945.54
198.59	2960.84
198.665	2993.36
198.74	3001.85
198.815	3003.23
198.89	3029.21
198.965	3061.26
199.04	3055.68
199.115	3072.7
199.19	3123.48
199.265	3125.72
199.34	3133.97
199.415	3173.62
199.49	3197.84
199.565	3209.24
199.64	3234.81
199.715	3230.03
199.79	3237.14
199.865	3243.77
199.94	3241.91
200.015	3276.45
200.09	3279.03
200.165	3290.05
200.24	3292.72
200.315	3338.23
200.39	3354.74
200.464	3362.28
200.539	3363.66
200.614	3385.28
200.689	3412
200.764	3421.12
200.839	3439.15
200.914	3446.17
200.989	3434.13
201.063	3449.02
201.138	3429.42
201.213	3430.62
201.288	3410.2
201.363	3419.07
201.438	3419.17
201.512	3434.38
201.587	3416.72
201.662	3422.16
201.737	3437.1
201.812	3452.14
201.886	3417.22
201.961	3429.35
202.036	3415.23
202.111	3412.51
202.186	3378.74
202.26	3359.41
202.335	3333.44
202.41	3331.58
202.485	3312.93
202.559	3291.99
202.634	3264.51
202.709	3277.14
202.784	3258.2
202.858	3262.73
202.933	3243.17
203.008	3237.45
203.082	3221.32
203.157	3225.95
203.232	3186.52
203.306	3168.81
203.381	3138.27
203.456	3116.57
203.53	3099.66
203.605	3087.27
203.68	3069.19
203.754	3069.52
203.829	3065.75
203.904	3056.17
203.978	3055.88
204.053	3079.97
204.127	3082.93
204.202	3100.72
204.277	3101.72
204.351	3112.84
204.426	3123.48
204.5	3141.84
204.575	3133.45
204.65	3169.53
204.724	3187.86
204.799	3226.44
204.873	3249.25
204.948	3279.7
205.022	3302.6
205.097	3327.33
205.171	3378.29
205.246	3429.82
205.32	3476.96
205.395	3522.52
205.469	3559.07
205.544	3610.76
205.618	3639.9
205.693	3708.69
205.767	3749.77
205.842	3831.2
205.916	3886.72
205.991	3938.62
206.065	4005.98
206.14	4088.1
206.214	4153.68
206.289	4218.07
206.363	4306.7
206.438	4389.44
206.512	4477.58
206.586	4586.34
206.661	4682.63
206.735	4752.25
206.81	4844.85
206.884	4952.58
206.958	5028.96
207.033	5143.69
207.107	5255.66
207.181	5391.88
207.256	5487.47
207.33	5616.61
207.405	5734.06
207.479	5861.33
207.553	5982.28
207.628	6075.79
207.702	6205.38
207.776	6316.05
207.851	6433.94
207.925	6569.56
207.999	6685.24
208.073	6805.45
208.148	6928.53
208.222	7038.56
208.296	7199.73
208.371	7341.98
208.445	7481.82
208.519	7646.06
208.593	7789.81
208.668	7911.44
208.742	8043.89
208.816	8179.27
208.89	8323.32
208.965	8459.96
209.039	8602.64
209.113	8752.98
209.187	8909.25
209.261	9038.67
209.336	9196.85
209.41	9351.01
209.484	9483
209.558	9646.29
209.632	9792.16
209.707	9936.59
209.781	10103.24
209.855	10256.82
209.929	10406.76
210.003	10545.37
210.077	10679.21
210.151	10866.9
210.226	11043.55
210.3	11205.53
210.374	11359.87
210.448	11492.06
210.522	11635.11
210.596	11778.01
210.67	11915.99
210.744	12106.23
210.818	12269.91
210.892	12428.54
210.966	12556.41
211.041	12700.06
211.115	12815.45
211.189	12966.38
211.263	13117.35
211.337	13239.31
211.411	13373.9
211.485	13493.93
211.559	13628.76
211.633	13748.12
211.707	13832.14
211.781	13958.97
211.855	14045.84
211.929	14164.86
212.003	14264.02
212.077	14390.26
212.151	14515.07
212.225	14646.13
212.299	14736.47
212.373	14834.75
212.447	14934.49
212.52	15076.39
212.594	15192.42
212.668	15315.53
212.742	15413.43
212.816	15508.77
212.89	15607.24
212.964	15713.81
213.038	15818.16
213.112	15928.83
213.186	16049.71
213.26	16129.05
213.333	16174.55
213.407	16275.87
213.481	16368.41
213.555	16482.64
213.629	16563.27
213.703	16651.9
213.777	16752.87
213.85	16831.62
213.924	16966.23
213.998	17063.34
214.072	17139.63
214.146	17213.9
214.219	17301.27
214.293	17388.16
214.367	17476.55
214.441	17580.98
214.515	17653.99
214.588	17715.92
214.662	17763.68
214.736	17821.03
214.81	17904.16
214.883	17996.31
214.957	18062.28
215.031	18126.66
215.105	18168.25
215.178	18229.17
215.252	18292.59
215.326	18325.16
215.4	18368.44
215.473	18380.87
215.547	18427.71
215.621	18483.08
215.694	18554.11
215.768	18597.87
215.842	18642.59
215.915	18682.97
215.989	18711.07
216.063	18754.63
216.136	18819.88
216.21	18887.11
216.284	18960.55
216.357	19018.95
216.431	19073.84
216.504	19142.13
216.578	19224.68
216.652	19305.4
216.725	19365.05
216.799	19426.83
216.873	19489.24
216.946	19567.21
217.02	19623.31
217.093	19673.33
217.167	19710.53
217.24	19746.24
217.314	19786.29
217.387	19833.66
217.461	19879.39
217.535	19948.93
217.608	19978.76
217.682	20013.79
217.755	20073.46
217.829	20109.17
217.902	20171
217.976	20218.46
218.049	20255.38
218.123	20278.9
218.196	20327.38
218.27	20362.99
218.343	20383.04
218.417	20428.54
218.49	20456.97
218.563	20512.87
218.637	20558.71
218.71	20624.83
218.784	20677.22
218.857	20737.27
218.931	20788.59
219.004	20843.1
219.077	20890.09
219.151	20947.2
219.224	20990.05
219.298	21024.51
219.371	21085.43
219.444	21103.07
219.518	21139.17
219.591	21181.29
219.665	21266.66
219.738	21308.97
219.811	21341.8
219.885	21402.43
219.958	21450.72
220.031	21485.86
220.105	21522.25
220.178	21555.56
220.251	21581.88
220.325	21627.81
220.398	21670.81
220.471	21710.96
220.544	21756.99
220.618	21785.82
220.691	21827.99
220.764	21871.57
220.838	21914.47
220.911	21936.02
220.984	21995.16
221.057	22039.36
221.131	22079.81
221.204	22070.21
221.277	22117.36
221.35	22180.32
221.424	22203.55
221.497	22235.08
221.57	22278.95
221.643	22329.18
221.716	22378.16
221.79	22404.96
221.863	22419.33
221.936	22443.19
222.009	22473.08
222.082	22506.88
222.155	22524.14
222.229	22569.12
222.302	22605.95
222.375	22626.44
222.448	22663.08
222.521	22681.93
222.594	22697.65
222.667	22704.01
222.74	22740.36
222.814	22757
222.887	22761.34
222.96	22797.54
223.033	22827
223.106	22856.32
223.179	22875.36
223.252	22884.81
223.325	22902.41
223.398	22925.36
223.471	22940.6
223.544	22944.6
223.617	22950.82
223.69	22965.76
223.763	22959.83
223.837	22970.39
223.91	22991.13
223.983	22994.6
224.056	22996.53
224.129	23016.44
224.202	23034.57
224.275	23041.66
224.348	23036.64
224.42	23042.04
224.493	23027.77
224.566	23020.3
224.639	23026.18
224.712	23014.85
224.785	23021.11
224.858	23021.11
224.931	23019.14
225.004	23012.34
225.077	23027.14
225.15	23003.76
225.223	23011.28
225.296	23037.99
225.369	23022.8
225.442	23017.79
225.514	23013.74
225.587	23019.67
225.66	23024.93
225.733	23031.39
225.806	23024.49
225.879	23019.77
225.952	23006.17
226.025	23012.2
226.097	23031.68
226.17	23022.57
226.243	23000.72
226.316	22989.97
226.389	22992.96
226.461	22998.79
226.534	23005.74
226.607	22996.05
226.68	23010.37
226.753	23006.51
226.825	22977.09
226.898	22988.57
226.971	22976.85
227.044	22960.46
227.117	22959.98
227.189	22952.7
227.262	22956.36
227.335	22952.07
227.407	22939.05
227.48	22942.09
227.553	22948.5
227.626	22931.63
227.698	22930.08
227.771	22940.69
227.844	22925.7
227.916	22924.06
227.989	22898.74
228.062	22884.28
228.134	22898.79
228.207	22904.05
228.28	22876.23
228.352	22869.05
228.425	22861.96
228.498	22875.02
228.57	22860.66
228.643	22862.54
228.716	22856.22
228.788	22833.66
228.861	22814.42
228.934	22825.56
229.006	22812.4
229.079	22795.38
229.151	22783.03
229.224	22742.39
229.296	22726.63
229.369	22741.67
229.442	22746.54
229.514	22735.4
229.587	22737.81
229.659	22708.84
229.732	22690.37
229.804	22707.87
229.877	22723.64
229.949	22723.01
230.022	22721.85
230.094	22715.2
230.167	22700.5
230.239	22664.24
230.312	22652.72
230.384	22674.03
230.457	22658.6
230.529	22654.79
230.602	22651.56
230.674	22633.43
230.747	22644.91
230.819	22644.04
230.892	22592.12
230.964	22569.65
231.037	22556.06
231.109	22533.83
231.181	22521.1
231.254	22483.17
231.326	22456.26
231.399	22431.39
231.471	22397.35
231.544	22358.92
231.616	22355.74
231.688	22344.61
231.761	22332.17
231.833	22319.59
231.905	22278.22
231.978	22264.1
232.05	22230.59
232.122	22200.51
232.195	22170.96
232.267	22167.68
232.339	22135.72
232.412	22143.05
232.484	22118.08
232.556	22095.09
232.629	22109.31
232.701	22106.27
232.773	22101.88
232.846	22080
232.918	22064.33
232.99	22056.86
233.062	22035.17
233.135	22012.7
233.207	21968.89
233.279	21952.69
233.351	21929.41
233.424	21891.52
233.496	21853.92
233.568	21866.89
233.64	21827.08
233.713	21809.72
233.785	21781.14
233.857	21765.76
233.929	21718.43
234.001	21710.81
234.074	21702.67
234.146	21650.32
234.218	21616.14
234.29	21582.4
234.362	21546.78
234.434	21490.34
234.507	21442.09
234.579	21394.71
234.651	21364.2
234.723	21346.61
234.795	21330.32
234.867	21300.73
234.939	21299.42
235.012	21274.46
235.084	21241.68
235.156	21224.91
235.228	21190.88
235.3	21151.89
235.372	21124.8
235.444	21116.85
235.516	21057.66
235.588	21023.83
235.66	20994.58
235.732	20959.39
235.804	20998.72
235.876	20981.57
235.948	20981.13
236.02	20950.19
236.092	20927.93
236.164	20897.85
236.236	20869.08
236.308	20823.34
236.38	20790.19
236.452	20743.15
236.524	20722.95
236.596	20712.78
236.668	20688.54
236.74	20661.27
236.812	20630.33
236.884	20602.13
236.956	20566.13
237.028	20529.84
237.1	20499.87
237.172	20484.11
237.244	20460.78
237.316	20383.96
237.388	20340.01
237.46	20285.21
237.532	20276.25
237.604	20230.27
237.675	20214.56
237.747	20188.1
237.819	20151.43
237.891	20115.48
237.963	20073.84
238.035	20026.04
238.107	19948.35
238.178	19930.28
238.25	19893.32
238.322	19890.67
238.394	19845.46
238.466	19806.57
238.538	19778.67
238.609	19749.03
238.681	19701.42
238.753	19655.35
238.825	19628.56
238.897	19607.16
238.968	19599.35
239.04	19551.07
239.112	19559.6
239.184	19522.78
239.255	19480.13
239.327	19447.56
239.399	19418.64
239.471	19401.63
239.542	19384.76
239.614	19368.38
239.686	19299.23
239.758	19276.48
239.829	19220.97
239.901	19193.35
239.973	19160.2
240.044	19139.62
240.116	19097.79
240.188	19055.48
240.259	19028.11
240.331	18983.78
240.403	18945.56
240.474	18886.53
240.546	18836.07
240.618	18775.55
240.689	18730.59
240.761	18698.68
240.833	18687.41
240.904	18654.4
240.976	18610.02
241.048	18577.63
241.119	18543.61
241.191	18526.94
241.262	18511.47
241.334	18472.1
241.405	18431.33
241.477	18384.15
241.549	18341.74
241.62	18311
241.692	18287.57
241.763	18264.88
241.835	18230.47
241.906	18208.64
241.978	18162.91
242.049	18149.65
242.121	18122.23
242.192	18099.78
242.264	18048.93
242.335	17990.48
242.407	17971.35
242.478	17933.76
242.55	17894.87
242.621	17851.25
242.693	17810.92
242.764	17768.27
242.836	17733.81
242.907	17709.81
242.979	17690.1
243.05	17663.84
243.122	17636.85
243.193	17589.57
243.264	17521.48
243.336	17471.69
243.407	17439.93
243.479	17422.1
243.55	17393.67
243.622	17362.73
243.693	17322.83
243.764	17303.74
243.836	17265.57
243.907	17210.44
243.978	17177.14
244.05	17146.68
244.121	17092.6
244.192	17068.84
244.264	17012.6
244.335	16981.08
244.407	16926.19
244.478	16892.98
244.549	16848.11
244.62	16793.56
244.692	16759.05
244.763	16746.9
244.834	16716.59
244.906	16667.67
244.977	16643.67
245.048	16617.02
245.119	16578.56
245.191	16535.61
245.262	16484.09
245.333	16474.21
245.405	16440.91
245.476	16417.15
245.547	16387.07
245.618	16375.6
245.689	16340.22
245.761	16315.84
245.832	16289.28
245.903	16275.45
245.974	16248.12
246.045	16212.26
246.117	16198.72
246.188	16152.44
246.259	16106.08
246.33	16066.99
246.401	16036.33
246.473	15993.68
246.544	15948.95
246.615	15920.37
246.686	15876.36
246.757	15859.49
246.828	15806.66
246.899	15796.35
246.97	15743.47
247.042	15702.21
247.113	15673.15
247.184	15666.31
247.255	15627.12
247.326	15582.15
247.397	15543.59
247.468	15515.15
247.539	15487.82
247.61	15443.43
247.681	15434.22
247.752	15415.81
247.823	15375.03
247.894	15346.3
247.965	15299.11
248.037	15271.05
248.108	15225.79
248.179	15200.29
248.25	15173.2
248.321	15149.58
248.392	15097.86
248.463	15097.48
248.534	15063.83
248.605	15040.21
248.675	14998.47
248.746	14976.78
248.817	14954.22
248.888	14931.81
248.959	14881.48
249.03	14863.02
249.101	14835.3
249.172	14796.26
249.243	14746.41
249.314	14744.39
249.385	14717.63
249.456	14695.99
249.527	14661.28
249.598	14644.22
249.669	14615.01
249.739	14584.06
249.81	14567.77
249.881	14533.83
249.952	14501.29
250.023	14472.32
250.094	14431.25
250.165	14393.31
250.235	14358.22
250.306	14336.38
250.377	14298.11
250.448	14275.64
250.519	14228.5
250.59	14225.08
250.66	14193.4
250.731	14185.4
250.802	14149.1
250.873	14120.95
250.944	14098.29
251.014	14063.15
251.085	14060.07
251.156	14041.36
251.227	14029.46
251.297	14016.54
251.368	14012.58
251.439	14000.73
251.51	13990.89
251.58	13954.21
251.651	13928.46
251.722	13922.87
251.792	13882.72
251.863	13853.79
251.934	13846.66
252.005	13857.07
252.075	13821.01
252.146	13809.15
252.217	13796.91
252.287	13788.38
252.358	13764.71
252.429	13759.36
252.499	13735.83
252.57	13712.98
252.641	13700.98
252.711	13676.59
252.782	13636.38
252.852	13620.91
252.923	13583.55
252.994	13565.61
253.064	13555.88
253.135	13520.4
253.205	13480.19
253.276	13471.85
253.347	13469.83
253.417	13440.71
253.488	13402.48
253.558	13378.14
253.629	13357.17
253.699	13341.16
253.77	13325.26
253.841	13301.1
253.911	13278.21
253.982	13262.01
254.052	13236.99
254.123	13214.04
254.193	13191.92
254.264	13206.04
254.334	13176.2
254.405	13154.56
254.475	13114.69
254.546	13089.67
254.616	13086.06
254.687	13074.25
254.757	13059.83
254.827	13034.14
254.898	13016.25
254.968	12994.56
255.039	12966.12
255.109	12952.43
255.18	12917.43
255.25	12872.94
255.321	12858.91
255.391	12825.7
255.461	12821.41
255.532	12781.15
255.602	12753.19
255.673	12707.64
255.743	12677.7
255.813	12622.22
255.884	12611.33
255.954	12606.8
256.024	12612.15
256.095	12584.96
256.165	12547.12
256.235	12532.37
256.306	12505.81
256.376	12494.14
256.446	12480.45
256.517	12466.33
256.587	12457.46
256.657	12435.96
256.728	12421.31
256.798	12402.12
256.868	12377.34
256.938	12346.49
257.009	12337.67
257.079	12333.09
257.149	12351.31
257.219	12311.93
257.29	12314.92
257.36	12273.71
257.43	12264.4
257.5	12215.77
257.571	12193.93
257.641	12189.21
257.711	12150.21
257.781	12135.22
257.852	12119.26
257.922	12085.62
257.992	12066.72
258.062	12043.49
258.132	12033.22
258.202	12007.97
258.273	11988.69
258.343	11990.32
258.413	11967.48
258.483	11944.15
258.553	11909.88
258.623	11873.29
258.693	11850.44
258.764	11847.55
258.834	11850.69
258.904	11825.91
258.974	11802
259.044	11784.84
259.114	11767.73
259.184	11762.48
259.254	11743.83
259.324	11699.05
259.394	11686.52
259.464	11691
259.535	11666.76
259.605	11644.63
259.675	11622.13
259.745	11608.44
259.815	11581.3
259.885	11551.81
259.955	11567.47
260.025	11540.05
260.095	11525.21
260.165	11516.87
260.235	11516.43
260.305	11486.6
260.375	11455.95
260.445	11464.53
260.515	11463.42
260.585	11466.89
260.655	11440.48
260.725	11433.73
260.795	11426.6
260.865	11432.67
260.934	11402.79
261.004	11395.03
261.074	11379.31
261.144	11383.17
261.214	11382.3
261.284	11359.17
261.354	11362.21
261.424	11332.71
261.494	11334.73
261.564	11314.25
261.634	11306.44
261.703	11265.62
261.773	11253.38
261.843	11244.9
261.913	11221.81
261.983	11182.68
262.053	11168.37
262.123	11154.44
262.192	11125.82
262.262	11125.33
262.332	11097.77
262.402	11083.55
262.472	11070.34
262.541	11028.76
262.611	11018.54
262.681	10989.58
262.751	10988.71
262.821	10963.56
262.89	10933.39
262.96	10924.14
263.03	10928.23
263.1	10915.13
263.169	10908.33
263.239	10901.54
263.309	10904.62
263.379	10897.34
263.448	10887.03
263.518	10875.03
263.588	10859.9
263.657	10864.67
263.727	10861.64
263.797	10835.57
263.867	10823.23
263.936	10789.21
264.006	10796.06
264.076	10779.77
264.145	10762.76
264.215	10736.3
264.285	10732.45
264.354	10700.65
264.424	10683.11
264.494	10653.48
264.563	10635.26
264.633	10630.97
264.702	10620.08
264.772	10578.89
264.842	10559.27
264.911	10555.03
264.981	10523.47
265.05	10509.69
265.12	10489.65
265.19	10477.36
265.259	10478.76
265.329	10468.06
265.398	10457.41
265.468	10468.26
265.537	10442.96
265.607	10431.64
265.676	10431.45
265.746	10426.92
265.815	10426.97
265.885	10409.53
265.955	10378.69
266.024	10356.53
266.094	10320.98
266.163	10322.61
266.232	10331.62
266.302	10318.42
266.371	10309.61
266.441	10298.19
266.51	10295.49
266.58	10273.76
266.649	10243.22
266.719	10236.57
266.788	10231.32
266.858	10239.27
266.927	10197.31
266.996	10192.34
267.066	10193.6
267.135	10169.75
267.205	10161.75
267.274	10152.94
267.343	10155.39
267.413	10150.96
267.482	10159.68
267.552	10160.5
267.621	10125.38
267.69	10094.02
267.76	10082.56
267.829	10071.28
267.898	10059.53
267.968	10034.72
268.037	10031.88
268.106	10033.32
268.176	10011.55
268.245	9995.41
268.314	9976.58
268.384	9983.66
268.453	9973.93
268.522	9958.94
268.592	9953.5
268.661	9926.38
268.73	9917.18
268.799	9890.02
268.869	9896.76
268.938	9859.81
269.007	9841.51
269.076	9836.6
269.146	9839.58
269.215	9836.12
269.284	9842.09
269.353	9821.04
269.422	9810.16
269.492	9797.97
269.561	9756.79
269.63	9750.68
269.699	9730.54
269.768	9720.23
269.838	9704
269.907	9703.14
269.976	9678.62
270.045	9649.29
270.114	9655.99
270.183	9641.25
270.253	9643.66
270.322	9612.36
270.391	9605.57
270.46	9609.51
270.529	9602.92
270.598	9593.14
270.667	9578.31
270.736	9549.98
270.806	9550.66
270.875	9550.37
270.944	9535.44
271.013	9556.44
271.082	9551.43
271.151	9556.58
271.22	9529.76
271.289	9523.07
271.358	9509.53
271.427	9501.78
271.496	9496.29
271.565	9474.52
271.634	9471.2
271.703	9489.98
271.772	9495.33
271.841	9485.89
271.91	9461.77
271.979	9456.23
272.048	9430.56
272.117	9432.25
272.186	9416.55
272.255	9422.28
272.324	9425.17
272.393	9420.79
272.462	9410.82
272.531	9397.72
272.6	9379.32
272.669	9381.54
272.738	9371.57
272.807	9364.11
272.876	9340.76
272.945	9371.29
273.013	9378.9
273.082	9377.98
273.151	9334.11
273.22	9334.3
273.289	9322.6
273.358	9335.99
273.427	9322.99
273.496	9332.95
273.564	9327.99
273.633	9334.49
273.702	9306.23
273.771	9293.71
273.84	9286.92
273.909	9278.16
273.977	9278.83
274.046	9263.76
274.115	9267.71
274.184	9247.87
274.253	9236.46
274.322	9252.73
274.39	9216.91
274.459	9197.94
274.528	9174.06
274.597	9169
274.665	9161.78
274.734	9167.65
274.803	9154.6
274.872	9148.87
274.94	9132.94
275.009	9188.48
275.078	9166.38
275.147	9162.91
275.215	9151.79
275.284	9161.03
275.353	9151.69
275.421	9123.05
275.49	9144.81
275.559	9137.35
275.627	9132.58
275.696	9130.46
275.765	9131.43
275.833	9120.69
275.902	9124.54
275.971	9132.34
276.039	9149
276.108	9153.38
276.177	9154.01
276.245	9142.17
276.314	9136.24
276.383	9135.14
276.451	9066.98
276.52	9077.28
276.588	9092.45
276.657	9096.78
276.725	9084.51
276.794	9080.46
276.863	9089.85
276.931	9065.05
277	9076.08
277.068	9092.73
277.137	9102.99
277.205	9098.56
277.274	9118.97
277.342	9123.11
277.411	9102.32
277.48	9085.13
277.548	9071.41
277.617	9072.13
277.685	9069.82
277.754	9070.11
277.822	9063.61
277.89	9081.14
277.959	9072.33
278.027	9052.06
278.096	9039.16
278.164	9066.7
278.233	9060.63
278.301	9048.89
278.37	9053.7
278.438	9030.93
278.507	9026.21
278.575	9005.65
278.643	8997.76
278.712	8976.24
278.78	8960.35
278.849	8971.09
278.917	8977.44
278.985	8968.97
279.054	8971.14
279.122	8980.67
279.191	8979.71
279.259	8977.83
279.327	8950.24
279.396	8969.88
279.464	8972.53
279.532	8989.14
279.601	8984.71
279.669	8977.68
279.737	8991.93
279.806	8998.72
279.874	9008.06
279.942	9007.72
280.011	9001.37
280.079	9008.39
280.147	9030.78
280.215	9037.13
280.284	9034.53
280.352	9022.64
280.42	9035.11
280.488	9022.79
280.557	9012.29
280.625	9013.06
280.693	9011.52
280.761	9016.91
280.83	8992.41
280.898	8998.72
280.966	8975.13
281.034	8936.28
281.102	8922.8
281.171	8919.77
281.239	8924.77
281.307	8926.07
281.375	8909.8
281.443	8933.15
281.512	8929.64
281.58	8935.08
281.648	8918.52
281.716	8915.15
281.784	8909.09
281.852	8898.06
281.92	8897.82
281.989	8909.09
282.057	8893.06
282.125	8943.28
282.193	8933.55
282.261	8939.76
282.329	8935.33
282.397	8943.37
282.465	8951.8
282.533	8976.82
282.601	8962.38
282.67	8934.94
282.738	8915.01
282.806	8931.24
282.874	8918.67
282.942	8924.01
283.01	8914.43
283.078	8926.32
283.146	8922.28
283.214	8935.85
283.282	8943.89
283.35	8960.17
283.418	8956.89
283.486	8968.11
283.554	8921.02
283.622	8926.12
283.69	8918.42
283.758	8915.09
283.826	8912.98
283.894	8925.83
283.962	8942.34
284.03	8964.01
284.098	8970.41
284.165	8967.23
284.233	8961.7
284.301	8957.08
284.369	8945.67
284.437	8935.6
284.505	8923.91
284.573	8947.59
284.641	8938.2
284.709	8941.67
284.777	8919.48
284.845	8925.25
284.912	8926.22
284.98	8932.23
285.048	8926.07
285.116	8933.73
285.184	8940.71
285.252	8938.54
285.319	8913.94
285.387	8898.2
285.455	8876.44
285.523	8878.85
285.591	8881.21
285.659	8882.22
285.726	8887.56
285.794	8873.84
285.862	8867.78
285.93	8865.71
285.997	8852.37
286.065	8844.96
286.133	8834.95
286.201	8835.43
286.269	8817.33
286.336	8808.71
286.404	8800.87
286.472	8804.43
286.539	8780.84
286.607	8769.29
286.675	8773.05
286.743	8781.85
286.81	8779.45
286.878	8791.24
286.946	8781.28
287.013	8782.82
287.081	8783.44
287.149	8774.49
287.216	8796.97
287.284	8793.07
287.352	8797.64
287.419	8799.76
287.487	8814.39
287.555	8823.97
287.622	8819.83
287.69	8829.65
287.758	8844.62
287.825	8840.39
287.893	8832.25
287.96	8846.88
288.028	8859.54
288.096	8863.25
288.163	8872.54
288.231	8857.91
288.298	8855.02
288.366	8874.03
288.433	8870.81
288.501	8862.77
288.569	8867.2
288.636	8860.8
288.704	8877.21
288.771	8885.44
288.839	8874.37
288.906	8868.69
288.974	8876.54
289.041	8873.99
289.109	8864.5
289.176	8864.7
289.244	8865.8
289.311	8883.04
289.379	8891.32
289.446	8894.3
289.514	8891.89
289.581	8889.97
289.649	8895.6
289.716	8901.86
289.783	8895.17
289.851	8915.86
289.918	8914.66
289.986	8921.21
290.053	8926.12
290.121	8920.87
290.188	8922.17
290.255	8945.9
290.323	8937.77
290.39	8932.52
290.458	8941.47
290.525	8952.64
290.592	8951.24
290.66	8958.85
290.727	8947.73
290.794	8957.89
290.862	8954.95
290.929	8959.52
290.996	8959.38
291.064	8969.78
291.131	8982.63
291.198	8990.14
291.266	8984.99
291.333	8991.1
291.4	8996.88
291.468	9012.82
291.535	9012.96
291.602	9011.9
291.669	9006.32
291.737	9019.17
291.804	9016.96
291.871	9036.69
291.938	9048.3
292.006	9078.39
292.073	9087.63
292.14	9099.62
292.207	9096.54
292.275	9097.07
292.342	9105.69
292.409	9132.75
292.476	9157.79
292.543	9146.23
292.611	9149.07
292.678	9169.44
292.745	9193.41
292.812	9201.89
292.879	9195.15
292.946	9199.77
293.014	9218.45
293.081	9232.56
293.148	9242.76
293.215	9259.66
293.282	9252.1
293.349	9254.75
293.416	9232.36
293.484	9246.76
293.551	9259.61
293.618	9277.04
293.685	9300.68
293.752	9291.01
293.819	9288.07
293.886	9276.95
293.953	9279.74
294.02	9292.35
294.087	9302.9
294.154	9298.42
294.221	9311.62
294.288	9315.37
294.356	9337.28
294.423	9351.39
294.49	9336.32
294.557	9353.51
294.624	9344.84
294.691	9363.04
294.758	9366.94
294.825	9382.79
294.892	9374.7
294.959	9376.53
295.026	9381.87
295.093	9373.3
295.16	9376.82
295.226	9378.07
295.293	9406.05
295.36	9415.49
295.427	9426.9
295.494	9433.79
295.561	9448.14
295.628	9468.7
295.695	9479.06
295.762	9474.38
295.829	9477.23
295.896	9499.62
295.963	9503.04
296.03	9513.24
296.096	9514.5
296.163	9530.73
296.23	9538.48
296.297	9554.76
296.364	9554.13
296.431	9560.39
296.498	9556.87
296.564	9583.5
296.631	9583.55
296.698	9566.93
296.765	9588.51
296.832	9577.72
296.899	9567.32
296.965	9579.89
297.032	9561.59
297.099	9581.53
297.166	9594.58
297.233	9586.05
297.299	9579.12
297.366	9585.04
297.433	9583.02
297.5	9594.05
297.566	9591.5
297.633	9595.06
297.7	9599.1
297.767	9602.57
297.833	9605.9
297.9	9606.57
297.967	9588.22
298.033	9607.2
298.1	9639.81
298.167	9630.03
298.234	9632.49
298.3	9642.5
298.367	9635.14
298.434	9643.61
298.5	9638.12
298.567	9636
298.634	9639.37
298.7	9659.84
298.767	9658.01
298.834	9672.99
298.9	9671.83
298.967	9659.22
299.033	9666.68
299.1	9683.97
299.167	9691.53
299.233	9691.44
299.3	9715.61
299.366	9741.33
299.433	9751.83
299.5	9721.1
299.566	9727.21
299.633	9752.79
299.699	9763.87
299.766	9764.16
299.832	9772.39
299.899	9774.71
299.965	9784.92
300.032	9774.32
300.099	9779.77
300.165	9789.59
300.232	9790.02
300.298	9792.87
300.365	9814.78
300.431	9816.22
300.498	9801.97
300.564	9816.13
300.631	9823.83
300.697	9831.59
300.763	9824.56
300.83	9817.96
300.896	9833.61
300.963	9846.95
301.029	9847.68
301.096	9847.48
301.162	9853.94
301.229	9848.49
301.295	9846.95
301.361	9849.41
301.428	9861.11
301.494	9844.93
301.561	9843.29
301.627	9847.87
301.693	9850.18
301.76	9849.6
301.826	9839.82
301.892	9856.59
301.959	9863.23
302.025	9865.54
302.092	9860.58
302.158	9872.34
302.224	9885.63
302.291	9874.07
302.357	9867.86
302.423	9858.42
302.49	9853.74
302.556	9869.5
302.622	9872.48
302.688	9877.3
302.755	9892.38
302.821	9902.2
302.887	9909.76
302.954	9910.53
303.02	9915.88
303.086	9917.66
303.152	9918.53
303.219	9922.77
303.285	9922.96
303.351	9926.04
303.417	9922.48
303.483	9916.6
303.55	9907.98
303.616	9903.41
303.682	9903.65
303.748	9891.65
303.815	9908.42
303.881	9915.16
303.947	9908.95
304.013	9906.83
304.079	9897.29
304.145	9877.49
304.212	9879.71
304.278	9873.21
304.344	9872.39
304.41	9855.77
304.476	9849.36
304.542	9843.92
304.608	9847.87
304.674	9840.07
304.741	9835.78
304.807	9845.99
304.873	9853.84
304.939	9873.4
305.005	9848.35
305.071	9850.23
305.137	9858.42
305.203	9829.9
305.269	9828.41
305.335	9835.3
305.401	9833.32
305.467	9834.24
305.533	9839.34
305.599	9843.44
305.666	9855.33
305.732	9857.12
305.798	9867.62
305.864	9901.43
305.93	9904.47
305.996	9901.39
306.062	9896.86
306.128	9886.89
306.194	9867.86
306.259	9861.07
306.325	9847.82
306.391	9860.25
306.457	9868.05
306.523	9876.58
306.589	9902.88
306.655	9896.71
306.721	9875.9
306.787	9862.99
306.853	9880
306.919	9865.89
306.985	9857.55
307.051	9854.04
307.117	9843.54
307.183	9845.27
307.248	9806.06
307.314	9816.27
307.38	9814.34
307.446	9818.63
307.512	9810.54
307.578	9815.12
307.644	9809.14
307.709	9812.76
307.775	9806.93
307.841	9802.01
307.907	9798.31
307.973	9776.15
308.039	9773.98
308.104	9784.19
308.17	9787.56
308.236	9770.46
308.302	9772.25
308.368	9757.32
308.433	9759.29
308.499	9757.75
308.565	9743.4
308.631	9750.77
308.696	9729.33
308.762	9723.55
308.828	9726.92
308.894	9709.97
308.959	9689.99
309.025	9684.5
309.091	9677.61
309.156	9671.06
309.222	9671.15
309.288	9659.4
309.354	9641.34
309.419	9632.67
309.485	9615.38
309.551	9615.53
309.616	9600.21
309.682	9601.51
309.748	9602.91
309.813	9589.57
309.879	9574.74
309.945	9569.49
310.01	9563.27
310.076	9562.21
310.141	9552.05
310.207	9535.29
310.273	9542.9
310.338	9547.38
310.404	9527.2
310.469	9514.44
310.535	9509.72
310.601	9482.03
310.666	9483.52
310.732	9494.89
310.797	9487.18
310.863	9477.41
310.928	9471.44
310.994	9479.91
311.059	9479.09
311.125	9474.13
311.191	9485.26
311.256	9475.68
311.322	9477.7
311.387	9457.47
311.453	9846.76
311.518	9823.31
311.584	9816.61
311.649	9821.14
311.715	9809.44
311.78	9814.79
311.846	9803.9
311.911	9804.53
311.976	9813.97
312.042	9799.47
312.107	9778.96
312.173	9776.65
312.238	9768.99
312.304	9764.99
312.369	9750.31
312.434	9732.78
312.5	9725.7
312.565	9694.11
312.631	9702.82
312.696	9694.4
312.761	9695.07
312.827	9294.47
312.892	9336.22
312.958	9335.5
313.023	9330.44
313.088	9329.14
313.154	9319.13
313.219	9313.25
313.284	9302.52
313.35	9295.05
313.415	9280.08
313.48	9279.69
313.546	9276.13
313.611	9282.39
313.676	9274.49
313.741	9268.62
313.807	9279.26
313.872	9276.27
313.937	9285.57
314.003	9297.03
314.068	9295.97
314.133	9304.44
314.198	9291.2
314.264	9265.49
314.329	9254.99
314.394	9256.48
314.459	9253.69
314.525	9277.23
314.59	9275.6
314.655	9263.27
314.72	9273.53
314.785	9280.61
314.851	9273.87
314.916	9253.6
314.981	9243.53
315.046	9232.65
315.111	9214.46
315.176	9202.61
315.242	9208.39
315.307	9203.33
315.372	9173.77
315.437	9163.85
315.502	9150.66
315.567	9165.78
315.632	9154.41
315.698	9157.83
315.763	9150.9
315.828	9143
315.893	9132.6
315.958	9130.58
316.023	9124.9
316.088	9105.88
316.153	9079.64
316.218	9073.34
316.283	9063.42
316.348	9043.54
316.413	9041.91
316.479	9036.8
316.544	9001.38
316.609	8974.27
316.674	8935.81
316.739	8905.06
316.804	8876.66
316.869	8839.17
316.934	8797.86
316.999	8767.54
317.064	8718.06
317.129	8672.28
317.194	8633.98
317.259	8581.61
317.324	8526.99
317.389	8482.92
317.454	8438.16
317.518	8408.47
317.583	8386.48
317.648	8364.88
317.713	8331.72
317.778	8267.54
317.843	8236.36
317.908	8196.92
317.973	8160.83
318.038	8136.25
318.103	8097.58
318.168	8067.94
318.233	8043.32
318.297	7990.22
318.362	7947.99
318.427	7903.12
318.492	7879.5
318.557	7833.97
318.622	7806.65
318.687	7786.12
318.751	7745.01
318.816	7711.11
318.881	7677.26
318.946	7620.08
319.011	7569.07
319.075	7525.36
319.14	7495.18
319.205	7453.98
319.27	7418.84
319.335	7368.51
319.399	7328.81
319.464	7308.81
319.529	7244.8
319.594	7206.1
319.658	7180.01
319.723	7137.54
319.788	7109.09
319.853	7048.92
319.917	7017.46
319.982	6965.04
320.047	6924.97
320.112	6898.02
320.176	6849.21
320.241	6817.5
320.306	6789.74
320.37	6749.3
320.435	6719.09
320.5	6690.7
320.564	6646.19
320.629	6610.46
320.694	6581.89
320.758	6540.06
320.823	6492.86
320.888	6472.42
320.952	6419.8
321.017	6379.04
321.082	6344.58
321.146	6310.83
321.211	6279.44
321.275	6238.66
321.34	6193.46
321.405	6150.61
321.469	6105.16
321.534	6067.31
321.598	6017.46
321.663	5986.46
321.727	5955.99
321.792	5907.25
321.857	5866.67
321.921	5828.73
321.986	5783.03
322.05	5723.09
322.115	5684.82
322.179	5636.35
322.244	5578.4
322.308	5546.8
322.373	5496.76
322.437	5453.57
322.502	5430.27
322.566	5381.57
322.631	5350.85
322.695	5315.4
322.76	5268.59
322.824	5235.67
322.889	5189.78
322.953	5143.03
323.018	5072.27
323.082	5005.18
323.146	4953.47
323.211	4896.62
323.275	4853.38
323.34	4807.33
323.404	4772.3
323.468	4725.04
323.533	4686.03
323.597	4642.07
323.662	4588.28
323.726	4556.84
323.79	4512.05
323.855	4444.12
323.919	4395.9
323.983	4347.48
324.048	4280.89
324.112	4447.41
324.177	4314.7
324.241	4094.31
324.305	3876.44
324.37	3664.41
324.434	3461.28
324.498	3418.06
324.562	3367.11
324.627	3303.53
324.691	3247.24
324.755	3179.71
324.82	3100.49
324.884	3018
324.948	2945.28
325.012	2848.49
325.077	2717.57
