Data from 20250703_urea_0.1M_MAYP1162681_00-51-04-775.txt Node
Date: Fri Jul 04 00:51:04 BST 2025
User: adleo
Spectrometer: MAYP116268
Trigger mode: 0
Integration Time (sec): 1.000000E0
Scans to average: 1
Electric dark correction enabled: true
Nonlinearity correction enabled: true
Boxcar width: 10
XAxis mode: Wavelengths
Number of Pixels in Spectrum: 2068
>>>>>Begin Spectral Data<<<<<
179.565	1348.5
179.642	1410.63
179.718	1456.97
179.795	1502.27
179.871	1541.45
179.948	1559.51
180.024	1583.38
180.101	1609.59
180.177	1626.73
180.254	1653.54
180.33	1677.23
180.407	1742.68
180.483	1848.1
180.56	1949.74
180.636	2044.28
180.712	2025.96
180.789	2035.19
180.865	2047.36
180.942	2055.59
181.018	2066.76
181.095	2083.13
181.171	2090.74
181.248	2091.93
181.324	2110.11
181.4	2117.48
181.477	2127.43
181.553	2143.5
181.63	2164.62
181.706	2182.23
181.782	2189.55
181.859	2185.84
181.935	2192.41
182.011	2188.27
182.088	2205.4
182.164	2225.44
182.24	2239.09
182.317	2252.89
182.393	2254.98
182.469	2270.44
182.546	2288.33
182.622	2292.57
182.698	2283.14
182.775	2294.61
182.851	2309.32
182.927	2300.99
183.003	2297.37
183.08	2292.47
183.156	2301.32
183.232	2301.56
183.308	2289.28
183.385	2299.66
183.461	2322.55
183.537	2324.17
183.613	2337.3
183.69	2330.92
183.766	2319.74
183.842	2331.83
183.918	2338.16
183.995	2354.1
184.071	2357.62
184.147	2349.91
184.223	2338.16
184.299	2349.06
184.375	2339.26
184.452	2348.55
184.528	2403.01
184.604	2415.53
184.68	2425.76
184.756	2432.47
184.832	2433.43
184.908	2439.09
184.985	2435.76
185.061	2415.72
185.137	2427.24
185.213	2415.63
185.289	2416.25
185.365	2408.44
185.441	2403.87
185.517	2417.87
185.593	2411.78
185.669	2409.4
185.745	2421.49
185.822	2437.62
185.898	2430.48
185.974	2438.57
186.05	2428.81
186.126	2393.38
186.202	2381.77
186.278	2378.48
186.354	2370.06
186.43	2376.87
186.506	2373.35
186.582	2375.63
186.658	2383.91
186.734	2358.5
186.81	2361.3
186.886	2363.21
186.962	2377.44
187.038	2375.44
187.114	2365.44
187.19	2374.91
187.266	2365.16
187.341	2365.39
187.417	2359.54
187.493	2361.68
187.569	2364.68
187.645	2358.4
187.721	2343.35
187.797	2354.39
187.873	2360.11
187.949	2356.01
188.025	2351.35
188.101	2355.15
188.176	2360.29
188.252	2354.92
188.328	2366
188.404	2365.48
188.48	2362.15
188.556	2354.43
188.632	2352.01
188.707	2353.77
188.783	2347.24
188.859	2340.25
188.935	2329.45
189.011	2337.25
189.086	2329.87
189.162	2322.5
189.238	2319.26
189.314	2317.74
189.39	2310.27
189.465	2301.22
189.541	2317.88
189.617	2299.89
189.693	2294.47
189.768	2297.18
189.844	2325.23
189.92	2316.1
189.996	2325.47
190.071	2332.52
190.147	2330.23
190.223	2340.75
190.298	2334.09
190.374	2320.67
190.45	2334.04
190.526	2342.89
190.601	2336.13
190.677	2338.61
190.753	2366.56
190.828	2371.65
190.904	2388.22
190.98	2405.12
191.055	2417.88
191.131	2409.55
191.207	2432.63
191.282	2445.29
191.358	2436.68
191.433	2420.29
191.509	2433.76
191.585	2431.14
191.66	2436.95
191.736	2447.04
191.811	2438.57
191.887	2456.43
191.963	2484.04
192.038	2490.04
192.114	2492.94
192.189	2496.8
192.265	2491.99
192.34	2467.7
192.416	2465.8
192.491	2461.7
192.567	2464.94
192.642	2468.99
192.718	2469.7
192.793	2455.66
192.869	2449.14
192.944	2453.09
193.02	2461.56
193.095	2468.42
193.171	2475.13
193.246	2470.61
193.322	2466.23
193.397	2466.18
193.473	2451.51
193.548	2428.23
193.624	2435.99
193.699	2433.94
193.775	2453.28
193.85	2455.37
193.925	2464.66
194.001	2462.9
194.076	2455.66
194.152	2446.28
194.227	2437.99
194.302	2427.19
194.378	2432.56
194.453	2427.57
194.529	2441.09
194.604	2424.14
194.679	2411.67
194.755	2389.11
194.83	2403.78
194.905	2401.21
194.981	2407.88
195.056	2400.26
195.131	2409.87
195.207	2407.68
195.282	2395.97
195.357	2373.31
195.433	2387.39
195.508	2375.59
195.583	2385.3
195.659	2398.73
195.734	2404.35
195.809	2399.49
195.884	2407.1
195.96	2410.63
196.035	2430.1
196.11	2422.67
196.185	2438.52
196.261	2448.33
196.336	2482.8
196.411	2468.98
196.486	2477.17
196.561	2473.46
196.637	2481.74
196.712	2501.37
196.787	2506.56
196.862	2523.03
196.937	2534.79
197.013	2541.7
197.088	2555.65
197.163	2579.37
197.238	2597.44
197.313	2597.2
197.388	2615.87
197.464	2649.17
197.539	2659.51
197.614	2653.27
197.689	2667.18
197.764	2683.23
197.839	2703.57
197.914	2695.38
197.989	2720.15
198.065	2735.49
198.14	2789.13
198.215	2817.67
198.29	2825.92
198.365	2837.31
198.44	2848.51
198.515	2880.11
198.59	2898.41
198.665	2926.2
198.74	2935.93
198.815	2936.93
198.89	2960.95
198.965	2994.14
199.04	2990.52
199.115	3006.11
199.19	3050.58
199.265	3054.49
199.34	3063.31
199.415	3102.91
199.49	3126.84
199.565	3136.14
199.64	3160.84
199.715	3159.36
199.79	3167.9
199.865	3173.48
199.94	3174.86
200.015	3209.26
200.09	3213.46
200.165	3221.33
200.24	3230.49
200.315	3275.23
200.39	3293.36
200.464	3302.71
200.539	3304
200.614	3326.37
200.689	3350.27
200.764	3360.35
200.839	3382.43
200.914	3389.87
200.989	3377.5
201.063	3397.16
201.138	3380.14
201.213	3379.9
201.288	3355.67
201.363	3361.77
201.438	3367.74
201.512	3385.15
201.587	3368.11
201.662	3374.27
201.737	3388.53
201.812	3397.41
201.886	3361.69
201.961	3375.73
202.036	3361.89
202.111	3361.85
202.186	3327.79
202.26	3310.85
202.335	3285.08
202.41	3276.55
202.485	3260.47
202.559	3240.48
202.634	3211.38
202.709	3224.4
202.784	3207.51
202.858	3215.05
202.933	3197.64
203.008	3192.24
203.082	3173.74
203.157	3176.41
203.232	3135.17
203.306	3118.9
203.381	3090.13
203.456	3068.9
203.53	3046.66
203.605	3033.88
203.68	3011.32
203.754	3015.37
203.829	3012.08
203.904	3006.4
203.978	3008.5
204.053	3025.96
204.127	3024.67
204.202	3039.07
204.277	3038.02
204.351	3048.42
204.426	3060.78
204.5	3073.56
204.575	3060.59
204.65	3096.9
204.724	3117.05
204.799	3152.8
204.873	3174.99
204.948	3205.39
205.022	3226.18
205.097	3252.2
205.171	3302.54
205.246	3355.48
205.32	3391.21
205.395	3433.37
205.469	3465
205.544	3515.77
205.618	3546.38
205.693	3607.65
205.767	3648.96
205.842	3725.26
205.916	3773.64
205.991	3820.9
206.065	3885.6
206.14	3964.69
206.214	4023.38
206.289	4082.39
206.363	4164.05
206.438	4240.97
206.512	4319.18
206.586	4420.2
206.661	4505.01
206.735	4560.55
206.81	4643.92
206.884	4751.61
206.958	4823.12
207.033	4931.68
207.107	5030.82
207.181	5159.28
207.256	5247.81
207.33	5364.73
207.405	5482.39
207.479	5603.13
207.553	5708.25
207.628	5791.9
207.702	5909.2
207.776	6008.98
207.851	6117.36
207.925	6244.46
207.999	6351.74
208.073	6458.21
208.148	6574.22
208.222	6676.99
208.296	6827.36
208.371	6955.42
208.445	7080.88
208.519	7226.01
208.593	7355.13
208.668	7471.66
208.742	7590.31
208.816	7715.52
208.89	7846.86
208.965	7956.99
209.039	8088.5
209.113	8230.15
209.187	8384.73
209.261	8502.45
209.336	8645.7
209.41	8788.63
209.484	8921.69
209.558	9069.86
209.632	9218.41
209.707	9352.46
209.781	9499.88
209.855	9648.64
209.929	9786.11
210.003	9914.8
210.077	10042.97
210.151	10217.41
210.226	10378.27
210.3	10537.66
210.374	10683
210.448	10812.81
210.522	10947.87
210.596	11080.53
210.67	11216.85
210.744	11383.54
210.818	11540.2
210.892	11687.97
210.966	11808.84
211.041	11939.03
211.115	12057.35
211.189	12192.65
211.263	12323.46
211.337	12448.4
211.411	12569.73
211.485	12685.8
211.559	12813.01
211.633	12931.88
211.707	13017.44
211.781	13135.88
211.855	13205.01
211.929	13310.15
212.003	13400.15
212.077	13516.71
212.151	13640.93
212.225	13756.24
212.299	13844.8
212.373	13934.6
212.447	14032.27
212.52	14162.57
212.594	14271.27
212.668	14386.53
212.742	14472.38
212.816	14573.42
212.89	14669.39
212.964	14767.87
213.038	14875.08
213.112	14984.26
213.186	15098.84
213.26	15166.18
213.333	15219.44
213.407	15314.88
213.481	15417.31
213.555	15526.16
213.629	15602.65
213.703	15672.54
213.777	15766.77
213.85	15850.54
213.924	15972.63
213.998	16058.47
214.072	16136.12
214.146	16200.51
214.219	16273.29
214.293	16355.18
214.367	16427.38
214.441	16515.82
214.515	16585.17
214.588	16642.48
214.662	16681.9
214.736	16739.06
214.81	16821.96
214.883	16899.94
214.957	16967.27
215.031	17020.67
215.105	17063.66
215.178	17132.97
215.252	17200.73
215.326	17232.87
215.4	17270.9
215.473	17292.73
215.547	17343.48
215.621	17399.23
215.694	17465.35
215.768	17506.03
215.842	17557.88
215.915	17618.7
215.989	17660.87
216.063	17713.45
216.136	17763.66
216.21	17828.1
216.284	17887.66
216.357	17959.51
216.431	18011.46
216.504	18075.17
216.578	18147.94
216.652	18222.06
216.725	18266.88
216.799	18334.05
216.873	18389.95
216.946	18454.72
217.02	18507.2
217.093	18551.05
217.167	18578.86
217.24	18623.1
217.314	18669.12
217.387	18701.02
217.461	18742.75
217.535	18800.97
217.608	18836.87
217.682	18894.7
217.755	18953.15
217.829	18999.17
217.902	19042.11
217.976	19088.95
218.049	19129.09
218.123	19176.32
218.196	19226.53
218.27	19272.36
218.343	19295.44
218.417	19350.43
218.49	19393.85
218.563	19451.05
218.637	19507.58
218.71	19579.19
218.784	19629.06
218.857	19688.58
218.931	19754.07
219.004	19793.49
219.077	19839.27
219.151	19890.88
219.224	19922.79
219.298	19960.18
219.371	20016.95
219.444	20047.17
219.518	20090.83
219.591	20138.54
219.665	20205.96
219.738	20245.19
219.811	20279.55
219.885	20335.4
219.958	20381.91
220.031	20418.63
220.105	20475.84
220.178	20526.64
220.251	20557.38
220.325	20597.29
220.398	20645.1
220.471	20693.34
220.544	20741.19
220.618	20773.29
220.691	20816.71
220.764	20864.62
220.838	20913.88
220.911	20940.14
220.984	20996.19
221.057	21043.91
221.131	21091.48
221.204	21094.37
221.277	21157.36
221.35	21227.44
221.424	21264.26
221.497	21298.44
221.57	21337.67
221.643	21362.97
221.716	21385.34
221.79	21411.7
221.863	21447.95
221.936	21471.52
222.009	21487.76
222.082	21524.34
222.155	21546.32
222.229	21586.47
222.302	21619.88
222.375	21646.58
222.448	21691.94
222.521	21721.1
222.594	21739.56
222.667	21734.93
222.74	21765.25
222.814	21777.78
222.887	21786.7
222.96	21814.47
223.033	21855.06
223.106	21879.83
223.179	21907.69
223.252	21932.13
223.325	21948.28
223.398	21967.95
223.471	21987.37
223.544	22017.07
223.617	22040.4
223.69	22070.19
223.763	22073.66
223.837	22085.56
223.91	22104.75
223.983	22092.7
224.056	22091.69
224.129	22114.68
224.202	22151.65
224.275	22164.71
224.348	22160.71
224.42	22168.67
224.493	22164.09
224.566	22157.63
224.639	22165.24
224.712	22155.94
224.785	22157.34
224.858	22169.87
224.931	22169.58
225.004	22171.13
225.077	22169
225.15	22145.67
225.223	22151.02
225.296	22188.72
225.369	22182.65
225.442	22179.18
225.514	22186.41
225.587	22202.41
225.66	22213.07
225.733	22222.76
225.806	22228.49
225.879	22240.06
225.952	22232.16
226.025	22242.19
226.097	22266.82
226.17	22269.95
226.243	22267.5
226.316	22277.62
226.389	22287.74
226.461	22297.87
226.534	22301.58
226.607	22305.53
226.68	22335.13
226.753	22330.41
226.825	22303.21
226.898	22321.29
226.971	22314.25
227.044	22321.2
227.117	22315.41
227.189	22313.82
227.262	22317.05
227.335	22322.88
227.407	22308.23
227.48	22320.04
227.553	22316.81
227.626	22303.41
227.698	22312.13
227.771	22314.4
227.844	22299.98
227.916	22287.35
227.989	22268.99
228.062	22270.96
228.134	22290.68
228.207	22281.67
228.28	22271.59
228.352	22265.08
228.425	22247.49
228.498	22260.36
228.57	22238.42
228.643	22251.92
228.716	22250.86
228.788	22240.11
228.861	22218.42
228.934	22230.66
229.006	22213.65
229.079	22209.36
229.151	22194.94
229.224	22171.56
229.296	22163.66
229.369	22188.39
229.442	22195.33
229.514	22176.82
229.587	22176.1
229.659	22150.35
229.732	22140.81
229.804	22140.09
229.877	22160.72
229.949	22172.05
230.022	22177.98
230.094	22169.54
230.167	22156.72
230.239	22132.52
230.312	22111.07
230.384	22126.98
230.457	22123.75
230.529	22126.69
230.602	22119.41
230.674	22108.27
230.747	22107.74
230.819	22115.84
230.892	22066.62
230.964	22061.75
231.037	22058.09
231.109	22043.1
231.181	22038.09
231.254	22017.26
231.326	22007.04
231.399	21984.14
231.471	21962.64
231.544	21916.7
231.616	21919.31
231.688	21907.69
231.761	21889.28
231.833	21879.73
231.905	21842.47
231.978	21831.24
232.05	21808.49
232.122	21787.28
232.195	21766.65
232.267	21765.11
232.339	21739.56
232.412	21746.11
232.484	21719.46
232.556	21701.72
232.629	21710.2
232.701	21708.61
232.773	21691.89
232.846	21670.44
232.918	21643.3
232.99	21627.64
233.062	21631.59
233.135	21612.65
233.207	21579.63
233.279	21569.07
233.351	21550.47
233.424	21538.9
233.496	21497.4
233.568	21500.58
233.64	21476
233.713	21464.53
233.785	21434.07
233.857	21408.52
233.929	21363.94
234.001	21362.83
234.074	21352.61
234.146	21303.59
234.218	21260.45
234.29	21240.26
234.362	21202.62
234.434	21163.43
234.507	21129.12
234.579	21080.87
234.651	21053.74
234.723	21039.28
234.795	21005.21
234.867	20975.9
234.939	20947.13
235.012	20934.7
235.084	20904.28
235.156	20885.05
235.228	20842.98
235.3	20812.33
235.372	20792.47
235.444	20791.12
235.516	20741
235.588	20726.92
235.66	20702.49
235.732	20669.19
235.804	20695.5
235.876	20691.12
235.948	20684.13
236.02	20650.2
236.092	20623.02
236.164	20597.82
236.236	20550.49
236.308	20518.88
236.38	20496.8
236.452	20461.38
236.524	20424.42
236.596	20411.89
236.668	20389.28
236.74	20370.39
236.812	20344.95
236.884	20325.09
236.956	20287.41
237.028	20248.8
237.1	20198.97
237.172	20177.91
237.244	20175.6
237.316	20107.65
237.388	20062.64
237.46	20023.02
237.532	20009.38
237.604	19977.63
237.675	19959.17
237.747	19944.62
237.819	19916.52
237.891	19886.16
237.963	19850.6
238.035	19811.18
238.107	19738.65
238.178	19718.36
238.25	19679.81
238.322	19674.22
238.394	19623.28
238.466	19584.01
238.538	19564.92
238.609	19543.24
238.681	19493.99
238.753	19444.88
238.825	19415.82
238.897	19386.47
238.968	19379.87
239.04	19337.03
239.112	19329.9
239.184	19288.89
239.255	19254.19
239.327	19223.69
239.399	19183.59
239.471	19157.24
239.542	19138.54
239.614	19124.9
239.686	19066.2
239.758	19047.27
239.829	18993.82
239.901	18970.64
239.973	18932.77
240.044	18905.01
240.116	18872.1
240.188	18833.35
240.259	18802.32
240.331	18764.44
240.403	18745.07
240.474	18685.84
240.546	18646.23
240.618	18594.23
240.689	18549.8
240.761	18512.55
240.833	18502.96
240.904	18467.45
240.976	18431.16
241.048	18392.08
241.119	18359.26
241.191	18334.49
241.262	18313.48
241.334	18274.54
241.405	18241.63
241.477	18211.55
241.549	18164.57
241.62	18132.18
241.692	18112.14
241.763	18084.52
241.835	18044.09
241.906	18005.11
241.978	17960.19
242.049	17937.73
242.121	17916.39
242.192	17892.1
242.264	17842.31
242.335	17780.87
242.407	17761.83
242.478	17732.87
242.55	17707.09
242.621	17671.91
242.693	17630.99
242.764	17585.26
242.836	17554.61
242.907	17521.45
242.979	17492.49
243.05	17466.32
243.122	17436.44
243.193	17395.19
243.264	17339.72
243.336	17298.66
243.407	17273.69
243.479	17250.99
243.55	17210.85
243.622	17169.6
243.693	17140.78
243.764	17127.19
243.836	17080.92
243.907	17034.27
243.978	16997.3
244.05	16962.07
244.121	16907.71
244.192	16885.25
244.264	16831.37
244.335	16789.97
244.407	16736.76
244.478	16700.56
244.549	16666.15
244.62	16617.47
244.692	16583.16
244.763	16557.08
244.834	16521.08
244.906	16474.38
244.977	16449.8
245.048	16442.43
245.119	16406.9
245.191	16366.8
245.262	16304.87
245.333	16292.87
245.405	16265.4
245.476	16236.82
245.547	16207.03
245.618	16184.86
245.689	16150.64
245.761	16128.76
245.832	16103.16
245.903	16088.51
245.974	16065.86
246.045	16026.04
246.117	16013.22
246.188	15971.53
246.259	15926.56
246.33	15894.07
246.401	15862.45
246.473	15815.8
246.544	15767.5
246.615	15747.69
246.686	15701.9
246.757	15694.09
246.828	15648.4
246.899	15639.14
246.97	15591.96
247.042	15549.11
247.113	15520.52
247.184	15504.62
247.255	15463.6
247.326	15434.29
247.397	15392.84
247.468	15356.54
247.539	15327.38
247.61	15280.48
247.681	15263.32
247.752	15254.59
247.823	15213.14
247.894	15181.66
247.965	15140.59
248.037	15113.07
248.108	15060.58
248.179	15034.26
248.25	15002.2
248.321	14982.34
248.392	14928.79
248.463	14919.97
248.534	14888.64
248.605	14876.78
248.675	14847.71
248.746	14829.83
248.817	14802.02
248.888	14781.14
248.959	14736.89
249.03	14717.9
249.101	14689.36
249.172	14659.72
249.243	14609.1
249.314	14605.92
249.385	14578.83
249.456	14557.28
249.527	14524.5
249.598	14507
249.669	14483.19
249.739	14455.57
249.81	14431.66
249.881	14392.08
249.952	14364.61
250.023	14341.61
250.094	14291.29
250.165	14247.47
250.235	14219.03
250.306	14197.53
250.377	14157.32
250.448	14132.06
250.519	14082.07
250.59	14068.33
250.66	14031.22
250.731	14022.2
250.802	13995.25
250.873	13976.98
250.944	13954.52
251.014	13922.56
251.085	13928.01
251.156	13903.76
251.227	13894.21
251.297	13887.46
251.368	13880.86
251.439	13872.04
251.51	13853.72
251.58	13818.14
251.651	13794.47
251.722	13781.75
251.792	13734.79
251.863	13707.9
251.934	13704.18
252.005	13709.82
252.075	13683.31
252.146	13674.15
252.217	13659.5
252.287	13641.85
252.358	13617.27
252.429	13625.03
252.499	13595.96
252.57	13570.84
252.641	13558.36
252.711	13533.44
252.782	13484.99
252.852	13482
252.923	13450.86
252.994	13437.31
253.064	13424.78
253.135	13387.18
253.205	13353.1
253.276	13345.48
253.347	13340.85
253.417	13301.71
253.488	13271.24
253.558	13246.7
253.629	13229.98
253.699	13214.16
253.77	13195.22
253.841	13170.2
253.911	13143.49
253.982	13127.2
254.052	13101.07
254.123	13088.1
254.193	13068.53
254.264	13087.33
254.334	13053.3
254.405	13020.52
254.475	12978.72
254.546	12960.55
254.616	12953.75
254.687	12937.41
254.757	12925.12
254.827	12905.36
254.898	12897.55
254.968	12878.84
255.039	12845.39
255.109	12829.91
255.18	12791.98
255.25	12749.17
255.321	12733.74
255.391	12690.26
255.461	12690.17
255.532	12644.76
255.602	12612.56
255.673	12563.58
255.743	12533.16
255.813	12480.96
255.884	12473.05
255.954	12460.71
256.024	12461.1
256.095	12443.65
256.165	12415.06
256.235	12404.17
256.306	12377.8
256.376	12368.35
256.446	12352.98
256.517	12342.18
256.587	12328.39
256.657	12316.73
256.728	12301.49
256.798	12282.74
256.868	12263.66
256.938	12228.9
257.009	12218.3
257.079	12203.64
257.149	12213.57
257.219	12171.54
257.29	12166.48
257.36	12125.7
257.43	12119.1
257.5	12076.1
257.571	12048.96
257.641	12035.61
257.711	11998.54
257.781	11984.71
257.852	11964.7
257.922	11928.94
257.992	11909.71
258.062	11880.69
258.132	11863.82
258.202	11841.74
258.273	11825.98
258.343	11824.78
258.413	11801.55
258.483	11790.22
258.553	11765.06
258.623	11737.44
258.693	11725.73
258.764	11721.77
258.834	11722.35
258.904	11705.87
258.974	11674.54
259.044	11655.5
259.114	11646.73
259.184	11633.24
259.254	11615.74
259.324	11580.41
259.394	11572.07
259.464	11569.18
259.535	11552.07
259.605	11532.36
259.675	11508.31
259.745	11489.75
259.815	11458.52
259.885	11432.83
259.955	11441.03
260.025	11416.16
260.095	11396.79
260.165	11383.39
260.235	11388.64
260.305	11361.89
260.375	11330.37
260.445	11341.84
260.515	11343.53
260.585	11337.75
260.655	11320.35
260.725	11309.55
260.795	11296.25
260.865	11292.35
260.934	11266.95
261.004	11258.47
261.074	11240.06
261.144	11240.2
261.214	11234.61
261.284	11221.5
261.354	11223.38
261.424	11193.45
261.494	11198.13
261.564	11187.72
261.634	11182.61
261.703	11143.71
261.773	11133.74
261.843	11125.02
261.913	11106.27
261.983	11071.24
262.053	11051.43
262.123	11029.6
262.192	10995.29
262.262	10994.13
262.332	10965.7
262.402	10961.41
262.472	10949.51
262.541	10915.83
262.611	10912.98
262.681	10889.23
262.751	10880.17
262.821	10859.01
262.89	10829.18
262.96	10815.83
263.03	10815.79
263.1	10801.04
263.169	10783.93
263.239	10772.8
263.309	10773.86
263.379	10762.93
263.448	10752.47
263.518	10740.95
263.588	10730.98
263.657	10745.87
263.727	10734.93
263.797	10723.12
263.867	10702.55
263.936	10665.98
264.006	10669.25
264.076	10653.78
264.145	10635.19
264.215	10610.71
264.285	10604.21
264.354	10568.6
264.424	10540.03
264.494	10507.84
264.563	10487.56
264.633	10490.59
264.702	10479.9
264.772	10445.59
264.842	10431.57
264.911	10423.43
264.981	10399.14
265.05	10386.42
265.12	10360.84
265.19	10347.25
265.259	10342.87
265.329	10334.34
265.398	10327.26
265.468	10341.13
265.537	10318.63
265.607	10315.94
265.676	10313.62
265.746	10305.63
265.815	10306.83
265.885	10298.02
265.955	10273.45
266.024	10255.14
266.094	10218.09
266.163	10222.96
266.232	10229.75
266.302	10216.17
266.371	10201.47
266.441	10189.43
266.51	10177.53
266.58	10161.15
266.649	10136.54
266.719	10128.01
266.788	10123.77
266.858	10125.5
266.927	10088.07
266.996	10077.33
267.066	10061.72
267.135	10031.32
267.205	10027.37
267.274	10022.56
267.343	10024.34
267.413	10011.19
267.482	10018.18
267.552	10026.99
267.621	9987.59
267.69	9950.06
267.76	9934.5
267.829	9929.06
267.898	9920.29
267.968	9905.56
268.037	9899.29
268.106	9903.15
268.176	9880.03
268.245	9860.66
268.314	9846.4
268.384	9842.84
268.453	9829.93
268.522	9823.52
268.592	9837.35
268.661	9810.28
268.73	9801.56
268.799	9771.02
268.869	9784.6
268.938	9747.04
269.007	9725.94
269.076	9721.8
269.146	9724.3
269.215	9721.41
269.284	9729.26
269.353	9711.2
269.422	9693.53
269.492	9676.62
269.561	9639.11
269.63	9635.59
269.699	9622.54
269.768	9609.58
269.838	9597.98
269.907	9596.87
269.976	9571.87
270.045	9534.65
270.114	9533.16
270.183	9521.07
270.253	9525.5
270.322	9500.79
270.391	9497.32
270.46	9498.77
270.529	9499.83
270.598	9501.95
270.667	9488.03
270.736	9460.05
270.806	9452.78
270.875	9460.96
270.944	9453.93
271.013	9473.44
271.082	9470.35
271.151	9466.16
271.22	9437.8
271.289	9428.7
271.358	9419.31
271.427	9413.77
271.496	9402.99
271.565	9387.1
271.634	9378.29
271.703	9372.6
271.772	9372.41
271.841	9363.84
271.91	9340.68
271.979	9329.36
272.048	9301.43
272.117	9300.18
272.186	9289.4
272.255	9288
272.324	9283.09
272.393	9275.14
272.462	9255.45
272.531	9238.79
272.6	9223.19
272.669	9229.64
272.738	9219.62
272.807	9215.38
272.876	9193.43
272.945	9225.31
273.013	9229.4
273.082	9237.68
273.151	9218.38
273.22	9214.81
273.289	9199.36
273.358	9207.74
273.427	9192.38
273.496	9195.55
273.564	9191.75
273.633	9189.54
273.702	9168.3
273.771	9156.03
273.84	9149.67
273.909	9150.88
273.977	9148.47
274.046	9141.2
274.115	9150.01
274.184	9132.92
274.253	9115.73
274.322	9130.8
274.39	9098.59
274.459	9080.44
274.528	9045.82
274.597	9039.9
274.665	9037.01
274.734	9051.21
274.803	9040.86
274.872	9045.77
274.94	9027.14
275.009	9083.26
275.078	9067.51
275.147	9067.37
275.215	9061.98
275.284	9068.19
275.353	9054.03
275.421	9028.66
275.49	9046.58
275.559	9030.11
275.627	9021.83
275.696	9019.33
275.765	9014.13
275.833	9001.95
275.902	9002.82
275.971	9014.95
276.039	9031.85
276.108	9033.63
276.177	9025.64
276.245	9010.95
276.314	8999.88
276.383	9011.19
276.451	8941.74
276.52	8948.96
276.588	8961.82
276.657	8967.26
276.725	8955.7
276.794	8960.08
276.863	8979.15
276.931	8949.06
277	8957
277.068	8969.18
277.137	8986.46
277.205	8983.38
277.274	9003.55
277.342	9015.87
277.411	8995.18
277.48	8985.5
277.548	8965.47
277.617	8970.43
277.685	8966.63
277.754	8969.13
277.822	8953.59
277.89	8976.17
277.959	8969.86
278.027	8948.01
278.096	8935.63
278.164	8967.65
278.233	8958.31
278.301	8942.52
278.37	8948.93
278.438	8937.23
278.507	8938
278.575	8908.1
278.643	8905.75
278.712	8886.2
278.78	8874.84
278.849	8893.42
278.917	8894.04
278.985	8896.21
279.054	8898.33
279.122	8911.33
279.191	8906.94
279.259	8912.09
279.327	8883.83
279.396	8896.01
279.464	8895.15
279.532	8902.27
279.601	8899.19
279.669	8891.53
279.737	8906.36
279.806	8909.3
279.874	8911.75
279.942	8913.29
280.011	8906.8
280.079	8919.75
280.147	8935.34
280.215	8934.76
280.284	8923.4
280.352	8911.66
280.42	8918.16
280.488	8906.65
280.557	8898.8
280.625	8898.03
280.693	8891.25
280.761	8891.25
280.83	8868.05
280.898	8880.32
280.966	8860.2
281.034	8823.61
281.102	8810.81
281.171	8798.34
281.239	8806.96
281.307	8807.88
281.375	8794.59
281.443	8823.47
281.512	8811.53
281.58	8816.44
281.648	8799.69
281.716	8802.1
281.784	8800.08
281.852	8795.12
281.92	8788.48
281.989	8798.97
282.057	8784.82
282.125	8828.54
282.193	8825.6
282.261	8832.1
282.329	8825.31
282.397	8830.07
282.465	8834.36
282.533	8849.52
282.601	8844.7
282.67	8821.26
282.738	8803.89
282.806	8816.35
282.874	8804.46
282.942	8808.55
283.01	8806.96
283.078	8810
283.146	8809.8
283.214	8821.93
283.282	8823.62
283.35	8843.07
283.418	8839.31
283.486	8843.55
283.554	8803.15
283.622	8804.41
283.69	8805.18
283.758	8803.44
283.826	8809.51
283.894	8817.35
283.962	8839.31
284.03	8847.73
284.098	8850.42
284.165	8845.9
284.233	8843.06
284.301	8833.96
284.369	8820.58
284.437	8807.87
284.505	8804.5
284.573	8812.01
284.641	8795.98
284.709	8798.05
284.777	8769.03
284.845	8774.85
284.912	8779.14
284.98	8785.39
285.048	8778.37
285.116	8781.69
285.184	8791.17
285.252	8783.86
285.319	8772.88
285.387	8761.04
285.455	8745.92
285.523	8749.29
285.591	8746.45
285.659	8742.32
285.726	8757.67
285.794	8741.79
285.862	8738.28
285.93	8743.09
285.997	8742.85
286.065	8740.2
286.133	8737.8
286.201	8738.52
286.269	8725.04
286.336	8714.21
286.404	8706.27
286.472	8720.95
286.539	8699.92
286.607	8685.24
286.675	8687.02
286.743	8691.59
286.81	8688.22
286.878	8701.84
286.946	8693.61
287.013	8697.89
287.081	8695.63
287.149	8672.96
287.216	8699.09
287.284	8695.15
287.352	8692.84
287.419	8689.8
287.487	8709.11
287.555	8706.84
287.622	8710.55
287.69	8710.93
287.758	8727.11
287.825	8721.14
287.893	8699.29
287.96	8705.54
288.028	8714.11
288.096	8723.35
288.163	8723.25
288.231	8708.86
288.298	8708.19
288.366	8729.56
288.433	8729.61
288.501	8733.03
288.569	8742.27
288.636	8736.2
288.704	8751.22
288.771	8757.86
288.839	8747.18
288.906	8741.06
288.974	8757.14
289.041	8752.28
289.109	8745.78
289.176	8753.97
289.244	8756.09
289.311	8773.75
289.379	8785.44
289.446	8790.59
289.514	8783.18
289.581	8784.58
289.649	8791.7
289.716	8798.01
289.783	8785.35
289.851	8805.75
289.918	8799.59
289.986	8806.09
290.053	8808.45
290.121	8801.04
290.188	8802.1
290.255	8826.4
290.323	8816.06
290.39	8806.23
290.458	8815.04
290.525	8828.76
290.592	8820.58
290.66	8825.77
290.727	8815.86
290.794	8828.08
290.862	8824.62
290.929	8833.28
290.996	8833.38
291.064	8842.04
291.131	8848.83
291.198	8859.18
291.266	8858.56
291.333	8857.88
291.4	8868.91
291.468	8888.79
291.535	8887.54
291.602	8890.95
291.669	8881.95
291.737	8891.63
291.804	8892.54
291.871	8909.39
291.938	8912.85
292.006	8947.28
292.073	8960.13
292.14	8974.33
292.207	8958.93
292.275	8962.49
292.342	8967.5
292.409	8993.21
292.476	9021.52
292.543	9014.49
292.611	9017.72
292.678	9037.98
292.745	9060.99
292.812	9067.83
292.879	9063.26
292.946	9066.19
293.014	9085.64
293.081	9102.69
293.148	9113.95
293.215	9129.94
293.282	9122.81
293.349	9133.21
293.416	9109.23
293.484	9130.32
293.551	9147.51
293.618	9174.42
293.685	9201.81
293.752	9203.88
293.819	9199.94
293.886	9179.09
293.953	9184.43
294.02	9190.74
294.087	9194.06
294.154	9193.39
294.221	9209.85
294.288	9208.79
294.356	9231.71
294.423	9233.97
294.49	9220.44
294.557	9234.36
294.624	9220.35
294.691	9243.51
294.758	9246.3
294.825	9256.17
294.892	9238.6
294.959	9237.06
295.026	9242.54
295.093	9234.89
295.16	9234.31
295.226	9238.21
295.293	9267.63
295.36	9275.14
295.427	9285.25
295.494	9295.75
295.561	9308.13
295.628	9333.41
295.695	9356.09
295.762	9353.45
295.829	9363.46
295.896	9383.88
295.963	9393.12
296.03	9405.69
296.096	9417.2
296.163	9432.51
296.23	9448.16
296.297	9463.47
296.364	9459.72
296.431	9469.59
296.498	9466.7
296.564	9496.56
296.631	9495.79
296.698	9476.91
296.765	9499.83
296.832	9495.26
296.899	9480.81
296.965	9496.94
297.032	9472.71
297.099	9485.96
297.166	9498.19
297.233	9495.88
297.299	9487.31
297.366	9486.01
297.433	9486.06
297.5	9490.2
297.566	9489.52
297.633	9487.55
297.7	9493.52
297.767	9493.38
297.833	9497.18
297.9	9500.45
297.967	9477.39
298.033	9496.36
298.1	9529.35
298.167	9516.25
298.234	9522.08
298.3	9534.6
298.367	9529.5
298.434	9536.19
298.5	9520.15
298.567	9521.64
298.634	9519.29
298.7	9536.96
298.767	9546.88
298.834	9570.24
298.9	9560.75
298.967	9545.15
299.033	9552.8
299.1	9567.16
299.167	9580.16
299.233	9577.32
299.3	9590.99
299.366	9609.63
299.433	9622.92
299.5	9594.07
299.566	9601.63
299.633	9619.21
299.699	9631.49
299.766	9630.05
299.832	9635.78
299.899	9648.98
299.965	9659.19
300.032	9657.12
300.099	9665.79
300.165	9665.06
300.232	9658.46
300.298	9660.58
300.365	9681.24
300.431	9681.92
300.498	9674.93
300.564	9687.17
300.631	9696.41
300.697	9712.55
300.763	9713.61
300.83	9712.5
300.896	9730.37
300.963	9741.93
301.029	9750.93
301.096	9755.99
301.162	9769.82
301.229	9768.18
301.295	9757.63
301.361	9754.21
301.428	9756.04
301.494	9744.67
301.561	9750.12
301.627	9751.56
301.693	9758.79
301.76	9761.39
301.826	9756.33
301.892	9777.33
301.959	9788.17
302.025	9788.51
302.092	9783.5
302.158	9790.43
302.224	9791.44
302.291	9784.94
302.357	9782.1
302.423	9774.2
302.49	9759.22
302.556	9766.01
302.622	9762.45
302.688	9780.03
302.755	9806.91
302.821	9819.24
302.887	9827.62
302.954	9825.59
303.02	9832
303.086	9838.02
303.152	9837.63
303.219	9840.43
303.285	9832.48
303.351	9836.24
303.417	9833.97
303.483	9818.9
303.55	9810.52
303.616	9805.75
303.682	9798.96
303.748	9789.71
303.815	9805.13
303.881	9817.17
303.947	9804.55
304.013	9806.33
304.079	9788.89
304.145	9753.54
304.212	9749.16
304.278	9740.78
304.344	9736.2
304.41	9719.97
304.476	9708.89
304.542	9700.66
304.608	9708.31
304.674	9695.55
304.741	9683.41
304.807	9687.8
304.873	9699.55
304.939	9712.7
305.005	9696.75
305.071	9699.79
305.137	9704.84
305.203	9673.34
305.269	9672.04
305.335	9685.38
305.401	9686.59
305.467	9691.21
305.533	9705.52
305.599	9715.73
305.666	9725.84
305.732	9722.13
305.798	9734.85
305.864	9765.68
305.93	9772.03
305.996	9765.58
306.062	9765.19
306.128	9766.06
306.194	9753.06
306.259	9750.65
306.325	9742.94
306.391	9749.11
306.457	9761.2
306.523	9768.32
306.589	9794.19
306.655	9792.55
306.721	9771.98
306.787	9758.21
306.853	9774.25
306.919	9756.96
306.985	9745.26
307.051	9742.27
307.117	9737.55
307.183	9742.56
307.248	9707.11
307.314	9714.04
307.38	9717.61
307.446	9727.96
307.512	9712.21
307.578	9719.49
307.644	9710.48
307.709	9718.67
307.775	9717.51
307.841	9714.72
307.907	9707.16
307.973	9688.9
308.039	9683.36
308.104	9687.55
308.17	9688.47
308.236	9671.51
308.302	9676.76
308.368	9666.55
308.433	9659.86
308.499	9656.63
308.565	9640.35
308.631	9646.42
308.696	9622.87
308.762	9611.5
308.828	9608.32
308.894	9596.48
308.959	9575.96
309.025	9572.79
309.091	9564.6
309.156	9556.89
309.222	9549.91
309.288	9540.32
309.354	9515
309.419	9514.18
309.485	9499.78
309.551	9498.29
309.616	9485.43
309.682	9487.88
309.748	9486.53
309.813	9481.53
309.879	9473.68
309.945	9459.18
310.01	9451.38
310.076	9458.7
310.141	9450.08
310.207	9427.49
310.273	9430.82
310.338	9434.52
310.404	9412.14
310.469	9397.93
310.535	9389.36
310.601	9374.33
310.666	9382.18
310.732	9398.17
310.797	9379.15
310.863	9371.11
310.928	9370.33
310.994	9377.03
311.059	9369.9
311.125	9360.32
311.191	9372.5
311.256	9363.74
311.322	9371.35
311.387	9351.17
311.453	9654.86
311.518	9634.64
311.584	9632.95
311.649	9636.95
311.715	9624.14
311.78	9628.43
311.846	9616.92
311.911	9623.52
311.976	9624.19
312.042	9601.9
312.107	9587.4
312.173	9580.81
312.238	9574.31
312.304	9566.94
312.369	9549.17
312.434	9534
312.5	9532.22
312.565	9499.77
312.631	9504.15
312.696	9496.39
312.761	9499.33
312.827	9176.77
312.892	9214.04
312.958	9213.03
313.023	9209.51
313.088	9211.63
313.154	9199.36
313.219	9198.54
313.284	9188.47
313.35	9176.97
313.415	9172.1
313.48	9160.41
313.546	9165.56
313.611	9175.81
313.676	9167.1
313.741	9158.48
313.807	9167.82
313.872	9169.12
313.937	9176.15
314.003	9187.13
314.068	9188.24
314.133	9194.06
314.198	9189.2
314.264	9163.15
314.329	9162.33
314.394	9161.03
314.459	9155.97
314.525	9180.96
314.59	9168.06
314.655	9151.79
314.72	9165.51
314.785	9169.74
314.851	9169.5
314.916	9157.47
314.981	9143.55
315.046	9132.67
315.111	9127.47
315.176	9111.06
315.242	9119.63
315.307	9116.21
315.372	9092.76
315.437	9076.73
315.502	9066.91
315.567	9076.34
315.632	9056.99
315.698	9051.26
315.763	9041.1
315.828	9032.24
315.893	9027.19
315.958	9023.87
316.023	9015.44
316.088	8992.62
316.153	8968.99
316.218	8960.76
316.283	8935.87
316.348	8920.04
316.413	8921.43
316.479	8902.9
316.544	8876.38
316.609	8841.05
316.674	8801.82
316.739	8769.19
316.804	8743.01
316.869	8705.04
316.934	8666.1
316.999	8645.46
317.064	8591.85
317.129	8552.43
317.194	8515.04
317.259	8458.83
317.324	8407.54
317.389	8368.52
317.454	8327.66
317.518	8290.62
317.583	8262.23
317.648	8239.47
317.713	8202.33
317.778	8140.75
317.843	8112.22
317.908	8071.62
317.973	8031.26
318.038	8005.58
318.103	7965.42
318.168	7933.77
318.233	7911.84
318.297	7864.27
318.362	7825.31
318.427	7790.89
318.492	7765.11
318.557	7720.97
318.622	7697.79
318.687	7681.35
318.751	7638.22
318.816	7608.99
318.881	7577.69
318.946	7527.88
319.011	7487.69
319.075	7453.6
319.14	7421.79
319.205	7375.26
319.27	7345.22
319.335	7302.97
319.399	7258.52
319.464	7236.51
319.529	7189.31
319.594	7148.55
319.658	7118.48
319.723	7081.91
319.788	7056.64
319.853	6999.6
319.917	6971.26
319.982	6917.73
320.047	6876.66
320.112	6854.66
320.176	6802.54
320.241	6770.26
320.306	6738.27
320.37	6693.47
320.435	6653.17
320.5	6624.69
320.564	6590.84
320.629	6547.1
320.694	6516.66
320.758	6480.08
320.823	6433.51
320.888	6402.65
320.952	6346.92
321.017	6306.02
321.082	6265.27
321.146	6229.79
321.211	6191.98
321.275	6149.18
321.34	6107.34
321.405	6066.56
321.469	6020.4
321.534	5979.01
321.598	5927.77
321.663	5900.61
321.727	5869.48
321.792	5825.11
321.857	5781.84
321.921	5745.15
321.986	5702.05
322.05	5642.17
322.115	5609.28
322.179	5568.53
322.244	5513.46
322.308	5483.55
322.373	5441.08
322.437	5398.51
322.502	5371.28
322.566	5333.56
322.631	5301.02
322.695	5257.29
322.76	5209.48
322.824	5172.59
322.889	5135.18
322.953	5087.63
323.018	5022.96
323.082	4959.18
323.146	4903.65
323.211	4851.26
323.275	4803.04
323.34	4762.22
323.404	4730.54
323.468	4679.12
323.533	4630.12
323.597	4581.18
323.662	4528.88
323.726	4488.78
323.79	4441.7
323.855	4371.63
323.919	4318.06
323.983	4269.74
324.048	4206.27
324.112	4381.2
324.177	4250.37
324.241	4028.87
324.305	3817.46
324.37	3603.71
324.434	3402.4
324.498	3361.85
324.562	3308.25
324.627	3247.59
324.691	3188.41
324.755	3119.45
324.82	3042.17
324.884	2966.9
324.948	2898.5
325.012	2803.14
325.077	2678.5
