Data from 20250703_urea_0.1M_MAYP1162681_17-31-04-881.txt Node
Date: Thu Jul 03 17:31:04 BST 2025
User: adleo
Spectrometer: MAYP116268
Trigger mode: 0
Integration Time (sec): 1.000000E0
Scans to average: 1
Electric dark correction enabled: true
Nonlinearity correction enabled: true
Boxcar width: 10
XAxis mode: Wavelengths
Number of Pixels in Spectrum: 2068
>>>>>Begin Spectral Data<<<<<
179.565	1327.95
179.642	1389.74
179.718	1438.41
179.795	1484.55
179.871	1521.68
179.948	1545.8
180.024	1569.49
180.101	1594.16
180.177	1609.4
180.254	1635.75
180.33	1660.63
180.407	1726.03
180.483	1833.03
180.56	1934.23
180.636	2028.68
180.712	2015.88
180.789	2028.25
180.865	2043.27
180.942	2050.4
181.018	2056.63
181.095	2070.47
181.171	2077.99
181.248	2079.8
181.324	2095.16
181.4	2101.97
181.477	2116.1
181.553	2128.32
181.63	2149.21
181.706	2169.43
181.782	2180.65
181.859	2180.89
181.935	2186.26
182.011	2178.08
182.088	2196.88
182.164	2215.87
182.24	2230
182.317	2238.18
182.393	2236.28
182.469	2247.93
182.546	2266.11
182.622	2274.63
182.698	2270.72
182.775	2281.15
182.851	2297.14
182.927	2292.04
183.003	2288.24
183.08	2277.91
183.156	2285.29
183.232	2282.67
183.308	2266.58
183.385	2273.39
183.461	2288.62
183.537	2288.76
183.613	2304.75
183.69	2291.9
183.766	2283.33
183.842	2289.8
183.918	2297.23
183.995	2309.79
184.071	2316.26
184.147	2310.07
184.223	2295.9
184.299	2311.8
184.375	2299.71
184.452	2307.19
184.528	2359.18
184.604	2369.98
184.68	2384.06
184.756	2393.78
184.832	2399.3
184.908	2406.62
184.985	2406.91
185.061	2391.63
185.137	2401.87
185.213	2387.88
185.289	2389.64
185.365	2378.83
185.441	2378.12
185.517	2392.6
185.593	2389.12
185.669	2387.93
185.745	2397.17
185.822	2415.82
185.898	2403.91
185.974	2412.34
186.05	2403
186.126	2365.11
186.202	2357.92
186.278	2353.3
186.354	2343.73
186.43	2351.97
186.506	2347.78
186.582	2345.17
186.658	2350.78
186.734	2327.8
186.81	2333.6
186.886	2337.5
186.962	2352.02
187.038	2348.78
187.114	2339.12
187.19	2347.49
187.266	2336.5
187.341	2340.17
187.417	2334.03
187.493	2334.03
187.569	2338.22
187.645	2330.27
187.721	2318.99
187.797	2326.31
187.873	2331.07
187.949	2324.27
188.025	2316.89
188.101	2322.36
188.176	2327.45
188.252	2322.98
188.328	2332.87
188.404	2334.06
188.48	2328.88
188.556	2321.78
188.632	2320.88
188.707	2321.5
188.783	2318.97
188.859	2310.79
188.935	2296.56
189.011	2304.65
189.086	2296.94
189.162	2289.04
189.238	2287.19
189.314	2283
189.39	2277.72
189.465	2271.29
189.541	2288.9
189.617	2272.72
189.693	2266.2
189.768	2272.58
189.844	2300.86
189.92	2293.49
189.996	2301.68
190.071	2313.24
190.147	2310.05
190.223	2321.72
190.298	2314.53
190.374	2299.35
190.45	2313.48
190.526	2323.14
190.601	2316.95
190.677	2319.71
190.753	2349.48
190.828	2351.62
190.904	2366.75
190.98	2382.61
191.055	2393.22
191.131	2385.13
191.207	2406.26
191.282	2416.97
191.358	2406.07
191.433	2387.5
191.509	2399.87
191.585	2395.39
191.66	2395.92
191.736	2406.2
191.811	2394.15
191.887	2412.58
191.963	2437.48
192.038	2446.71
192.114	2447
192.189	2450.57
192.265	2447.29
192.34	2422.33
192.416	2423.14
192.491	2419.85
192.567	2422.23
192.642	2424.71
192.718	2422.23
192.793	2407.38
192.869	2401.91
192.944	2403.86
193.02	2414.57
193.095	2421.04
193.171	2425.04
193.246	2424.47
193.322	2419.66
193.397	2421.71
193.473	2404.28
193.548	2384.19
193.624	2386.95
193.699	2384.1
193.775	2401.96
193.85	2403.67
193.925	2412.95
194.001	2413.24
194.076	2408.57
194.152	2397.05
194.227	2388.95
194.302	2379.44
194.378	2386.01
194.453	2383.72
194.529	2399.19
194.604	2382.67
194.679	2375.15
194.755	2356.64
194.83	2370.79
194.905	2370.93
194.981	2376.07
195.056	2373.79
195.131	2381.26
195.207	2379.97
195.282	2372.12
195.357	2349.79
195.433	2365.78
195.508	2354.17
195.583	2361.78
195.659	2374.02
195.734	2379.21
195.809	2378.26
195.884	2391.06
195.96	2391.25
196.035	2410.38
196.11	2405.05
196.185	2419.24
196.261	2422.95
196.336	2456.51
196.411	2441.79
196.486	2445.27
196.561	2443.89
196.637	2450.17
196.712	2469.27
196.787	2473.7
196.862	2491.84
196.937	2504.88
197.013	2512.17
197.088	2525.93
197.163	2547.41
197.238	2568.76
197.313	2570.29
197.388	2588
197.464	2618.54
197.539	2628.54
197.614	2620.59
197.689	2634.69
197.764	2651.41
197.839	2672.18
197.914	2666.46
197.989	2685.9
198.065	2705.19
198.14	2759.3
198.215	2786.84
198.29	2800.05
198.365	2816.39
198.44	2826.35
198.515	2854.47
198.59	2872.58
198.665	2896.74
198.74	2906.8
198.815	2908.52
198.89	2934.59
198.965	2964.82
199.04	2961.77
199.115	2979.55
199.19	3021.01
199.265	3022.49
199.34	3035.6
199.415	3074.24
199.49	3097.65
199.565	3109.42
199.64	3132.22
199.715	3128.54
199.79	3139.27
199.865	3144.33
199.94	3141.56
200.015	3179.54
200.09	3185.55
200.165	3191.65
200.24	3201.19
200.315	3244.88
200.39	3258.09
200.464	3263.91
200.539	3265.63
200.614	3284.81
200.689	3313
200.764	3320.5
200.839	3341.14
200.914	3343.72
200.989	3329.83
201.063	3345.67
201.138	3331.46
201.213	3334.04
201.288	3311.43
201.363	3317.2
201.438	3322.73
201.512	3341.52
201.587	3317.71
201.662	3322.24
201.737	3338.56
201.812	3348.16
201.886	3310.43
201.961	3321.56
202.036	3310.44
202.111	3310.16
202.186	3277.78
202.26	3257.93
202.335	3238.27
202.41	3231.93
202.485	3216.52
202.559	3198.16
202.634	3172.69
202.709	3185.7
202.784	3167.96
202.858	3175.02
202.933	3156.41
203.008	3149.26
203.082	3130.37
203.157	3136.91
203.232	3099.34
203.306	3081.06
203.381	3054.49
203.456	3041.38
203.53	3025.05
203.605	3015.62
203.68	3001.45
203.754	3008.26
203.829	3007.93
203.904	3002.97
203.978	3006.02
204.053	3031.01
204.127	3040.27
204.202	3061.39
204.277	3062.21
204.351	3076.94
204.426	3093.84
204.5	3114.73
204.575	3106.53
204.65	3150.48
204.724	3178.22
204.799	3224.57
204.873	3260.04
204.948	3302.08
205.022	3333.72
205.097	3372.73
205.171	3436.79
205.246	3495.63
205.32	3547.13
205.395	3599.9
205.469	3651.03
205.544	3722.51
205.618	3767
205.693	3850.25
205.767	3909.56
205.842	4008.85
205.916	4083.08
205.991	4152.37
206.065	4242.28
206.14	4352.8
206.214	4440.5
206.289	4523.49
206.363	4629.97
206.438	4729.33
206.512	4839.47
206.586	4964.53
206.661	5081.5
206.735	5164.11
206.81	5278.2
206.884	5413.37
206.958	5521.53
207.033	5662.55
207.107	5791.45
207.181	5952.16
207.256	6072.31
207.33	6225.1
207.405	6370.22
207.479	6525.37
207.553	6674.29
207.628	6793.94
207.702	6943.94
207.776	7078.61
207.851	7229
207.925	7397.68
207.999	7547.18
208.073	7694.35
208.148	7854.58
208.222	7998.82
208.296	8194.58
208.371	8372.14
208.445	8541.47
208.519	8733.74
208.593	8906.51
208.668	9071.82
208.742	9240.6
208.816	9403.26
208.89	9583.12
208.965	9743.65
209.039	9914.78
209.113	10099.39
209.187	10288.99
209.261	10450.89
209.336	10641.38
209.41	10834.82
209.484	10999.91
209.558	11192.8
209.632	11369.41
209.707	11547.23
209.781	11735.96
209.855	11923.25
209.929	12110.75
210.003	12287.16
210.077	12451.96
210.151	12664.96
210.226	12859.7
210.3	13052.42
210.374	13243.78
210.448	13408.59
210.522	13582.75
210.596	13759.13
210.67	13928.72
210.744	14134.65
210.818	14330.31
210.892	14510.83
210.966	14658.29
211.041	14825.7
211.115	14974.99
211.189	15157.96
211.263	15334.62
211.337	15496.68
211.411	15649.52
211.485	15786.31
211.559	15944.84
211.633	16094.22
211.707	16205.84
211.781	16361.42
211.855	16464.37
211.929	16600.33
212.003	16724.78
212.077	16881.17
212.151	17031.93
212.225	17182.34
212.299	17315.11
212.373	17443.94
212.447	17571.74
212.52	17730.39
212.594	17867.79
212.668	18015.88
212.742	18126.2
212.816	18238.05
212.89	18345.9
212.964	18469.7
213.038	18603.96
213.112	18740.24
213.186	18880
213.26	18974.69
213.333	19038.4
213.407	19164.66
213.481	19285.18
213.555	19411.92
213.629	19505.17
213.703	19592.64
213.777	19697.93
213.85	19784
213.924	19921.79
213.998	20022.65
214.072	20120.72
214.146	20212.29
214.219	20293.73
214.293	20377.49
214.367	20475.18
214.441	20587.81
214.515	20684
214.588	20746.42
214.662	20799.48
214.736	20860.68
214.81	20961.51
214.883	21061.22
214.957	21130.91
215.031	21206.96
215.105	21263.64
215.178	21333.19
215.252	21407.56
215.326	21458.07
215.4	21509.93
215.473	21530.47
215.547	21586.14
215.621	21650.59
215.694	21733.94
215.768	21788.16
215.842	21866.2
215.915	21916.48
215.989	21956.58
216.063	22000.64
216.136	22056.9
216.21	22119.61
216.284	22193.56
216.357	22256.04
216.431	22317.21
216.504	22388.61
216.578	22470.76
216.652	22536.76
216.725	22587.24
216.799	22655.79
216.873	22704.53
216.946	22768.03
217.02	22816.77
217.093	22869.66
217.167	22894.83
217.24	22918.6
217.314	22964.26
217.387	23005.33
217.461	23048.83
217.535	23117.1
217.608	23157.32
217.682	23210.79
217.755	23272.61
217.829	23317.12
217.902	23358.4
217.976	23399.67
218.049	23427.64
218.123	23441.39
218.196	23492.41
218.27	23534.36
218.343	23560.74
218.417	23620.59
218.49	23659.03
218.563	23720.42
218.637	23757.07
218.71	23814.75
218.784	23867.95
218.857	23917.39
218.931	23959.87
219.004	24005.21
219.077	24035.94
219.151	24076.02
219.224	24103.61
219.298	24129.41
219.371	24167.09
219.444	24193.56
219.518	24224.72
219.591	24261.77
219.665	24323.81
219.738	24363.41
219.811	24390.37
219.885	24432.15
219.958	24463.84
220.031	24489.7
220.105	24523.42
220.178	24557.67
220.251	24579.87
220.325	24602.64
220.398	24639.45
220.471	24659.42
220.544	24696.47
220.618	24723.54
220.691	24752.49
220.764	24783.26
220.838	24812.6
220.911	24831.61
220.984	24875.61
221.057	24909.86
221.131	24937.46
221.204	24926.6
221.277	24957.05
221.35	25010.81
221.424	25025.72
221.497	25039.66
221.57	25068.37
221.643	25086.41
221.716	25120.48
221.79	25127.33
221.863	25149.92
221.936	25153.01
222.009	25171.49
222.082	25184.61
222.155	25186.3
222.229	25210.09
222.302	25232.29
222.375	25243.43
222.448	25262.4
222.521	25263.61
222.594	25267.61
222.667	25258.83
222.74	25286.82
222.814	25288.51
222.887	25283.34
222.96	25302.6
223.033	25327.84
223.106	25339.95
223.179	25353.85
223.252	25350.42
223.325	25367.84
223.398	25368.37
223.471	25371.66
223.544	25385.89
223.617	25383.14
223.69	25391.63
223.763	25380.34
223.837	25367.79
223.91	25373.92
223.983	25352.64
224.056	25340.63
224.129	25344.87
224.202	25358.24
224.275	25340.58
224.348	25319.63
224.42	25297.82
224.493	25273.98
224.566	25247.63
224.639	25243.43
224.712	25224.27
224.785	25212.59
224.858	25184.75
224.931	25169.07
225.004	25149.48
225.077	25128.15
225.15	25088.15
225.223	25079.23
225.296	25089.21
225.369	25067.55
225.442	25048.78
225.514	25044.73
225.587	25045.55
225.66	25028.17
225.733	25019.25
225.806	25010.51
225.879	24995.51
225.952	24977.61
226.025	24975.44
226.097	24981.18
226.17	24964
226.243	24923.38
226.316	24898.48
226.389	24897.32
226.461	24877.1
226.534	24884.1
226.607	24868.66
226.68	24880.29
226.753	24854.57
226.825	24819.83
226.898	24823.02
226.971	24798.22
227.044	24784.08
227.117	24769.61
227.189	24761.69
227.262	24755.85
227.335	24737.76
227.407	24716.15
227.48	24698.06
227.553	24677.75
227.626	24647.45
227.698	24623.18
227.771	24618.5
227.844	24594.96
227.916	24584.92
227.989	24558.1
228.062	24526.17
228.134	24527.03
228.207	24512.61
228.28	24486.71
228.352	24455.98
228.425	24426.79
228.498	24405.62
228.57	24366.16
228.643	24339.43
228.716	24314.35
228.788	24270.84
228.861	24249.32
228.934	24240.3
229.006	24221.2
229.079	24195.93
229.151	24165.92
229.224	24131.97
229.296	24113.11
229.369	24126.56
229.442	24102.69
229.514	24071.15
229.587	24057.4
229.659	24015
229.732	23988.66
229.804	23982.49
229.877	24010.32
229.949	24008.1
230.022	24023.25
230.094	24010.91
230.167	24000.87
230.239	23959.73
230.312	23947.97
230.384	23948.59
230.457	23933.69
230.529	23911.79
230.602	23893.9
230.674	23884.25
230.747	23873.6
230.819	23866.75
230.892	23805.4
230.964	23791.9
231.037	23788.37
231.109	23763.88
231.181	23743.19
231.254	23704.85
231.326	23680.35
231.399	23624.88
231.471	23570.2
231.544	23503.79
231.616	23491.44
231.688	23471.81
231.761	23443.03
231.833	23410.38
231.905	23362.25
231.978	23329.27
232.05	23307.91
232.122	23277.43
232.195	23227.23
232.267	23224.77
232.339	23187.16
232.412	23169.95
232.484	23132.67
232.556	23092.94
232.629	23084.36
232.701	23062.32
232.773	23042.46
232.846	23004.75
232.918	22978.57
232.99	22968.78
233.062	22961.21
233.135	22932.57
233.207	22879
233.279	22864.44
233.351	22841.3
233.424	22803.94
233.496	22772.65
233.568	22760.64
233.64	22717.73
233.713	22692.62
233.785	22643.39
233.857	22614.07
233.929	22573.82
234.001	22560.32
234.074	22546.19
234.146	22493.4
234.218	22467.13
234.29	22430.97
234.362	22389.23
234.434	22340.58
234.507	22296.33
234.579	22238.48
234.651	22203.87
234.723	22181.74
234.795	22151.37
234.867	22107.31
234.939	22095.26
235.012	22059.97
235.084	22030.76
235.156	22012.3
235.228	21977.93
235.3	21938.64
235.372	21901.14
235.444	21878.15
235.516	21812.35
235.588	21774.7
235.66	21742.26
235.732	21689.96
235.804	21710.26
235.876	21688.37
235.948	21665.28
236.02	21632.89
236.092	21601.42
236.164	21549.7
236.236	21507.82
236.308	21461.35
236.38	21434.94
236.452	21378.4
236.524	21340.91
236.596	21321.53
236.668	21291.4
236.74	21257.09
236.812	21220.7
236.884	21193.27
236.956	21156.26
237.028	21113.03
237.1	21068.64
237.172	21044.88
237.244	21033.94
237.316	20956.09
237.388	20912.81
237.46	20863.99
237.532	20840.95
237.604	20805.2
237.675	20789.92
237.747	20767.36
237.819	20723.56
237.891	20677.48
237.963	20630.4
238.035	20579.51
238.107	20495.36
238.178	20467.65
238.25	20425.86
238.322	20415.07
238.394	20354.87
238.466	20319.02
238.538	20294.2
238.609	20265.04
238.681	20206.64
238.753	20153.72
238.825	20117.62
238.897	20081.67
238.968	20071.79
239.04	20020.47
239.112	20002.45
239.184	19954.01
239.255	19912.18
239.327	19883.37
239.399	19854.26
239.471	19834.21
239.542	19819.42
239.614	19806.89
239.686	19738.65
239.758	19710.02
239.829	19651.76
239.901	19638.27
239.973	19592.78
240.044	19553.07
240.116	19509.41
240.188	19467.67
240.259	19433.51
240.331	19388.4
240.403	19357.95
240.474	19301.23
240.546	19255.06
240.618	19196.46
240.689	19151.36
240.761	19105.29
240.833	19091.21
240.904	19054.93
240.976	19015.36
241.048	18973.92
241.119	18936.04
241.191	18909.3
241.262	18894.07
241.334	18856.15
241.405	18809.64
241.477	18767.09
241.549	18734.8
241.62	18706.37
241.692	18680.2
241.763	18656.21
241.835	18620.55
241.906	18578.72
241.978	18522.14
242.049	18501.56
242.121	18483.97
242.192	18469.28
242.264	18423.25
242.335	18357.81
242.407	18321.52
242.478	18275.02
242.55	18237.14
242.621	18186.16
242.693	18139.27
242.764	18092.33
242.836	18047.95
242.907	18015.08
242.979	17984.19
243.05	17956.34
243.122	17920.87
243.193	17880.87
243.264	17808.05
243.336	17777.02
243.407	17754.85
243.479	17750.41
243.55	17718.22
243.622	17679.62
243.693	17633.26
243.764	17615.38
243.836	17573.64
243.907	17534.71
243.978	17491.28
244.05	17461.74
244.121	17409.16
244.192	17392.34
244.264	17335.23
244.335	17310.03
244.407	17257.26
244.478	17229.79
244.549	17187.96
244.62	17134.41
244.692	17095.13
244.763	17075.86
244.834	17024.43
244.906	16984.05
244.977	16945.64
245.048	16920.82
245.119	16875.03
245.191	16827.7
245.262	16766.59
245.333	16749.58
245.405	16715.17
245.476	16696.85
245.547	16658.15
245.618	16634.2
245.689	16597.86
245.761	16567.78
245.832	16525.71
245.903	16503.06
245.974	16468.45
246.045	16423.97
246.117	16411.19
246.188	16365.79
246.259	16319.33
246.33	16284.43
246.401	16246.31
246.473	16190.54
246.544	16147.46
246.615	16125.48
246.686	16095.93
246.757	16079.26
246.828	16033.51
246.899	16022.33
246.97	15975.1
247.042	15939.72
247.113	15915.28
247.184	15905.16
247.255	15874.46
247.326	15848.67
247.397	15808.04
247.468	15784.13
247.539	15752.66
247.61	15708.02
247.681	15688.12
247.752	15675.1
247.823	15635.91
247.894	15604.58
247.965	15568.24
248.037	15527.85
248.108	15480.56
248.179	15446
248.25	15409.08
248.321	15391
248.392	15336.83
248.463	15325.64
248.534	15285.35
248.605	15269.01
248.675	15233
248.746	15200.9
248.817	15173.09
248.888	15151.73
248.959	15092.15
249.03	15068.63
249.101	15038.79
249.172	15004.52
249.243	14949.28
249.314	14941.08
249.385	14906.86
249.456	14890.61
249.527	14863.09
249.598	14843.28
249.669	14814.64
249.739	14793.72
249.81	14762.1
249.881	14725.51
249.952	14695.77
250.023	14676.68
250.094	14630.02
250.165	14581.24
250.235	14558.87
250.306	14532.65
250.377	14495.58
250.448	14483.72
250.519	14444.15
250.59	14430.55
250.66	14402.88
250.731	14396.37
250.802	14370.87
250.873	14356.22
250.944	14327.73
251.014	14297.22
251.085	14296.83
251.156	14275.67
251.227	14263.33
251.297	14257.88
251.368	14245.88
251.439	14230.26
251.51	14210.45
251.58	14179.02
251.651	14145.17
251.722	14131.05
251.792	14089.69
251.863	14065.15
251.934	14053.39
252.005	14055.7
252.075	14019.69
252.146	14004.85
252.217	14000.27
252.287	13979.35
252.358	13948.11
252.429	13943
252.499	13910.41
252.57	13883.7
252.641	13870.74
252.711	13849.28
252.782	13799.92
252.852	13795.68
252.923	13767.96
252.994	13746.27
253.064	13730.55
253.135	13705.24
253.205	13678.06
253.276	13672.03
253.347	13666.29
253.417	13625.85
253.488	13595.38
253.558	13575.47
253.629	13547.75
253.699	13522.54
253.77	13503.02
253.841	13481.42
253.911	13453.41
253.982	13431.24
254.052	13413.69
254.123	13389.3
254.193	13367.32
254.264	13391.76
254.334	13353.05
254.405	13326.24
254.475	13292.69
254.546	13274.37
254.616	13269.75
254.687	13244.97
254.757	13223.27
254.827	13200.23
254.898	13186.93
254.968	13167.64
255.039	13138.67
255.109	13125.71
255.18	13091.09
255.25	13051.32
255.321	13033.25
255.391	13002.25
255.461	13008.13
255.532	12957.32
255.602	12933.51
255.673	12884.53
255.743	12848.28
255.813	12805.09
255.884	12791.88
255.954	12785.37
256.024	12781.03
256.095	12762.81
256.165	12734.27
256.235	12721.69
256.306	12694.17
256.376	12683.95
256.446	12667.99
256.517	12655.07
256.587	12651.02
256.657	12635.69
256.728	12623.88
256.798	12607.16
256.868	12584.36
256.938	12561.89
257.009	12555.43
257.079	12544.35
257.149	12556.4
257.219	12512.39
257.29	12500.24
257.36	12454.45
257.43	12441.67
257.5	12399.16
257.571	12364.06
257.641	12350.52
257.711	12312.39
257.781	12296.1
257.852	12285.78
257.922	12242.74
257.992	12220.47
258.062	12192.41
258.132	12178.82
258.202	12155.54
258.273	12137.94
258.343	12144.64
258.413	12117.7
258.483	12097.31
258.553	12059.57
258.623	12027.27
258.693	12015.36
258.764	12012.57
258.834	12013.58
258.904	11987.89
258.974	11957.62
259.044	11946
259.114	11924.89
259.184	11915.93
259.254	11894.24
259.324	11848.16
259.394	11844.59
259.464	11851.15
259.535	11831.24
259.605	11801.21
259.675	11770.07
259.745	11757.2
259.815	11718.79
259.885	11695.08
259.955	11704.14
260.025	11682.98
260.095	11667.12
260.165	11651.07
260.235	11650.4
260.305	11626.83
260.375	11597.09
260.445	11608.46
260.515	11607.26
260.585	11608.95
260.655	11590.92
260.725	11587.74
260.795	11586.1
260.865	11591.79
260.934	11556.56
261.004	11547.54
261.074	11537.18
261.144	11539.83
261.214	11524.36
261.284	11506.72
261.354	11497.47
261.424	11463.68
261.494	11472.93
261.564	11451.87
261.634	11448.06
261.703	11405.99
261.773	11390.76
261.843	11384.83
261.913	11361.99
261.983	11319.38
262.053	11301.5
262.123	11284.01
262.192	11252.15
262.262	11243.14
262.332	11197.4
262.402	11192.01
262.472	11167.48
262.541	11136.34
262.611	11130.61
262.681	11107.33
262.751	11099.33
262.821	11077.94
262.89	11052.49
262.96	11032.44
263.03	11038.13
263.1	11023.77
263.169	11019.77
263.239	11015.04
263.309	11018.71
263.379	11012.54
263.448	11007.96
263.518	11006.32
263.588	10991.53
263.657	10992.4
263.727	10991.58
263.797	10983.43
263.867	10966.76
263.936	10946.76
264.006	10944.55
264.076	10925.51
264.145	10911.1
264.215	10891.25
264.285	10887.59
264.354	10856.8
264.424	10838.92
264.494	10808.95
264.563	10792.13
264.633	10794.44
264.702	10775.22
264.772	10735.56
264.842	10715.8
264.911	10701.35
264.981	10666.7
265.05	10651.81
265.12	10632.54
265.19	10612.1
265.259	10609.02
265.329	10601.84
265.398	10590.28
265.468	10600.54
265.537	10582.9
265.607	10576.45
265.676	10577.51
265.746	10568.88
265.815	10562.72
265.885	10549.32
265.955	10526.1
266.024	10500.76
266.094	10462.21
266.163	10474.11
266.232	10480.33
266.302	10464.28
266.371	10456.24
266.441	10445.35
266.51	10444.39
266.58	10423.77
266.649	10405.31
266.719	10405.12
266.788	10392.88
266.858	10402.47
266.927	10368.31
266.996	10355.49
267.066	10343.55
267.135	10314.11
267.205	10308.66
267.274	10304.81
267.343	10304.57
267.413	10294.6
267.482	10300.33
267.552	10299.22
267.621	10258.75
267.69	10228.98
267.76	10216.12
267.829	10204.75
267.898	10188.42
267.968	10163.66
268.037	10159.23
268.106	10150.7
268.176	10116.01
268.245	10102.81
268.314	10081.37
268.384	10080.17
268.453	10071.54
268.522	10063.69
268.592	10062.44
268.661	10039.7
268.73	10030.36
268.799	10008.15
268.869	10014.22
268.938	9983.48
269.007	9970.48
269.076	9965.76
269.146	9970.43
269.215	9968.65
269.284	9971.39
269.353	9952.8
269.422	9936.33
269.492	9918.61
269.561	9877.62
269.63	9879.35
269.699	9859.51
269.768	9845.25
269.838	9829.06
269.907	9828.92
269.976	9801.17
270.045	9768.14
270.114	9769.05
270.183	9753.06
270.253	9742.47
270.322	9709.67
270.391	9692.81
270.46	9698.69
270.529	9701.96
270.598	9690.5
270.667	9671.86
270.736	9657.07
270.806	9652.35
270.875	9657.41
270.944	9646.43
271.013	9675.76
271.082	9658.71
271.151	9658.95
271.22	9633.67
271.289	9628.85
271.358	9611.18
271.427	9609.25
271.496	9604.82
271.565	9583.43
271.634	9579.05
271.703	9611.76
271.772	9620.47
271.841	9618.84
271.91	9589.65
271.979	9577.23
272.048	9551.61
272.117	9555.6
272.186	9532.92
272.255	9537.3
272.324	9536.97
272.393	9530.42
272.462	9509.13
272.531	9510.38
272.6	9496.75
272.669	9501.71
272.738	9487.41
272.807	9483.65
272.876	9462.56
272.945	9491.46
273.013	9491.07
273.082	9496.13
273.151	9440.98
273.22	9437.76
273.289	9428.17
273.358	9439.35
273.427	9427.26
273.496	9435.69
273.564	9427.31
273.633	9434.63
273.702	9412.19
273.771	9397.31
273.84	9394.66
273.909	9395.28
273.977	9389.6
274.046	9378.81
274.115	9386.9
274.184	9367.55
274.253	9361.87
274.322	9370.73
274.39	9334.13
274.459	9320.31
274.528	9288.58
274.597	9285.02
274.665	9277.7
274.734	9282.61
274.803	9270.91
274.872	9261.13
274.94	9239.99
275.009	9297.46
275.078	9286.53
275.147	9280.95
275.215	9278.06
275.284	9284.46
275.353	9272.86
275.421	9248.64
275.49	9258.94
275.559	9244.11
275.627	9238.96
275.696	9225.48
275.765	9221.63
275.833	9213.44
275.902	9214.89
275.971	9227.79
276.039	9243.92
276.108	9252.25
276.177	9247.82
276.245	9237.81
276.314	9233.86
276.383	9242.43
276.451	9176.44
276.52	9173.79
276.588	9190.64
276.657	9190.45
276.725	9176.15
276.794	9173.55
276.863	9182.84
276.931	9163.2
277	9166.61
277.068	9176.29
277.137	9200.03
277.205	9205.28
277.274	9227.09
277.342	9234.5
277.411	9214.19
277.48	9203.01
277.548	9187.22
277.617	9186.11
277.685	9177.5
277.754	9184.09
277.822	9178.32
277.89	9193.63
277.959	9183.86
278.027	9165.9
278.096	9158.96
278.164	9190.26
278.233	9186.46
278.301	9175.63
278.37	9179.57
278.438	9165.28
278.507	9164.89
278.575	9134.08
278.643	9124.4
278.712	9103.7
278.78	9084.34
278.849	9097.39
278.917	9104.75
278.985	9096.09
279.054	9099.36
279.122	9111.54
279.191	9103.69
279.259	9100.37
279.327	9075.53
279.396	9101.43
279.464	9100.85
279.532	9106.44
279.601	9097.48
279.669	9089.97
279.737	9103.93
279.806	9104.7
279.874	9117.65
279.942	9121.89
280.011	9115.25
280.079	9125.93
280.147	9148.71
280.215	9154.72
280.284	9153.62
280.352	9142.16
280.42	9148.46
280.488	9139.99
280.557	9128.29
280.625	9131.61
280.693	9122.71
280.761	9126.8
280.83	9095.79
280.898	9113.85
280.966	9088.87
281.034	9057.23
281.102	9039.09
281.171	9030.08
281.239	9038.99
281.307	9031.14
281.375	9015.16
281.443	9037.93
281.512	9029.75
281.58	9030.32
281.648	9017.52
281.716	9012.03
281.784	9010.35
281.852	9008.56
281.92	9006.64
281.989	9021.23
282.057	9004.09
282.125	9064.04
282.193	9053.4
282.261	9058.5
282.329	9044.35
282.397	9053.06
282.465	9060.14
282.533	9081.89
282.601	9070.2
282.67	9048.53
282.738	9040.68
282.806	9057.44
282.874	9047.37
282.942	9050.21
283.01	9039.96
283.078	9046.36
283.146	9044.96
283.214	9052.04
283.282	9052.62
283.35	9067.35
283.418	9058.88
283.486	9066.39
283.554	9011.64
283.622	9013.71
283.69	9011.49
283.758	9005.62
283.826	9005.71
283.894	9018.04
283.962	9035.66
284.03	9051.45
284.098	9053.18
284.165	9047.07
284.233	9043.27
284.301	9033.01
284.369	9020.26
284.437	9011.21
284.505	9001.96
284.573	9017.08
284.641	9007.64
284.709	9016.17
284.777	8992.38
284.845	9004.37
284.912	9008.95
284.98	9018.81
285.048	9011.69
285.116	9017.85
285.184	9028.49
285.252	9030.37
285.319	9011.3
285.387	8998.74
285.455	8982.66
285.523	8989.35
285.591	8986.85
285.659	8982.66
285.726	8998.35
285.794	8993.88
285.862	8993.73
285.93	9003.36
285.997	8992.67
286.065	8988.53
286.133	8974.76
286.201	8979.91
286.269	8963.69
286.336	8953.92
286.404	8949.97
286.472	8966.09
286.539	8942.36
286.607	8920.85
286.675	8923.11
286.743	8934.04
286.81	8928.98
286.878	8943.18
286.946	8934.37
287.013	8934.08
287.081	8937.69
287.149	8927.3
287.216	8942.51
287.284	8938.13
287.352	8934.9
287.419	8933.79
287.487	8949.2
287.555	8958.78
287.622	8952.62
287.69	8956.28
287.758	8976.55
287.825	8967.21
287.893	8955.27
287.96	8965.13
288.028	8980.63
288.096	8984.58
288.163	8979.82
288.231	8964.27
288.298	8962.58
288.366	8979.34
288.433	8978.47
288.501	8974.57
288.569	8978.47
288.636	8968.75
288.704	8981.98
288.771	8989.3
288.839	8978.18
288.906	8972.79
288.974	8982.47
289.041	8981.31
289.109	8973.66
289.176	8975.97
289.244	8983.86
289.311	8996.48
289.379	9008.17
289.446	9008.7
289.514	9006.44
289.581	9011.4
289.649	9015.73
289.716	9019.58
289.783	9004.9
289.851	9024.59
289.918	9017.61
289.986	9019.2
290.053	9026.66
290.121	9029.02
290.188	9032.92
290.255	9066.04
290.323	9061.23
290.39	9050.06
290.458	9058.58
290.525	9072.54
290.592	9065.75
290.66	9064.59
290.727	9057.95
290.794	9069.31
290.862	9071.24
290.929	9077.26
290.996	9072.15
291.064	9085.2
291.131	9095.12
291.198	9118.32
291.266	9115
291.333	9120.63
291.4	9132.43
291.468	9153.47
291.535	9147.65
291.602	9148.03
291.669	9140.42
291.737	9141.67
291.804	9144.56
291.871	9161.9
291.938	9168.73
292.006	9196.47
292.073	9216.11
292.14	9226.32
292.207	9215.34
292.275	9220.93
292.342	9225.65
292.409	9257.72
292.476	9284.87
292.543	9275.34
292.611	9273.17
292.678	9296
292.745	9321.66
292.812	9331.44
292.879	9325.27
292.946	9324.6
293.014	9344.87
293.081	9356.72
293.148	9371.93
293.215	9391.39
293.282	9386.04
293.349	9397.6
293.416	9376.79
293.484	9385.32
293.551	9399.19
293.618	9422.1
293.685	9450.66
293.752	9448.11
293.819	9443.92
293.886	9432.41
293.953	9443.77
294.02	9452.2
294.087	9455.67
294.154	9447.53
294.221	9468
294.288	9467.18
294.356	9495.74
294.423	9492.75
294.49	9483.31
294.557	9499.83
294.624	9488.13
294.691	9509.22
294.758	9503.3
294.825	9511.24
294.892	9506.52
294.959	9504.11
295.026	9508.83
295.093	9497.66
295.16	9503.53
295.226	9503.15
295.293	9528.72
295.36	9534.5
295.427	9540.91
295.494	9552.03
295.561	9558.63
295.628	9576.41
295.695	9597.16
295.762	9597.88
295.829	9609.3
295.896	9625.29
295.963	9630.78
296.03	9641.76
296.096	9647.87
296.163	9661.79
296.23	9678.31
296.297	9689.24
296.364	9693.96
296.431	9704.32
296.498	9703.21
296.564	9729.89
296.631	9732.35
296.698	9719.1
296.765	9741.3
296.832	9735.48
296.899	9722.23
296.965	9743.23
297.032	9722.95
297.099	9738.51
297.166	9742.8
297.233	9741.4
297.299	9730.13
297.366	9730.32
297.433	9726.28
297.5	9733.65
297.566	9739.81
297.633	9739.23
297.7	9748.05
297.767	9744.82
297.833	9751.42
297.9	9754.65
297.967	9733.17
298.033	9750.94
298.1	9781.09
298.167	9764.19
298.234	9775.07
298.3	9781.29
298.367	9777.96
298.434	9782.35
298.5	9775.99
298.567	9777.29
298.634	9774.25
298.7	9799.97
298.767	9801.08
298.834	9822.32
298.9	9815.19
298.967	9806.57
299.033	9815.24
299.1	9824.73
299.167	9838.79
299.233	9831.9
299.3	9842.5
299.366	9863.31
299.433	9873.81
299.5	9846.16
299.566	9860.7
299.633	9874.58
299.699	9890.28
299.766	9891.05
299.832	9898.66
299.899	9899.77
299.965	9908.58
300.032	9907.28
300.099	9914.51
300.165	9921.01
300.232	9915.38
300.298	9916.53
300.365	9928.81
300.431	9926.69
300.498	9922.02
300.564	9929.82
300.631	9942.97
300.697	9959.98
300.763	9961.33
300.83	9962.48
300.896	9976.89
300.963	9980.21
301.029	9983.29
301.096	9987.39
301.162	9996.44
301.229	9985.36
301.295	9975.35
301.361	9983.87
301.428	9990.42
301.494	9966.77
301.561	9972.94
301.627	9980.79
301.693	9988.69
301.76	9993.26
301.826	9991.77
301.892	10003
301.959	10019.09
302.025	10015.67
302.092	10012.97
302.158	10020.72
302.224	10020.15
302.291	10011.14
302.357	10009.36
302.423	10006.46
302.49	9995.92
302.556	10008.78
302.622	10010.8
302.688	10027.76
302.755	10044.14
302.821	10053.82
302.887	10075.54
302.954	10072.31
303.02	10079.59
303.086	10083.88
303.152	10078.38
303.219	10081.27
303.285	10085.13
303.351	10083.54
303.417	10082.86
303.483	10071.98
303.55	10064.9
303.616	10071.79
303.682	10074.1
303.748	10065.91
303.815	10083.59
303.881	10095.97
303.947	10080.41
304.013	10087.49
304.079	10075.11
304.145	10041.29
304.212	10037.49
304.278	10023.23
304.344	10020.15
304.41	10007.14
304.476	9994.86
304.542	9991.73
304.608	9997.89
304.674	9977.47
304.741	9977.56
304.807	9985.32
304.873	9990.72
304.939	10006.23
305.005	9976.7
305.071	9971.59
305.137	9975.93
305.203	9941.29
305.269	9934.07
305.335	9947.02
305.401	9944.66
305.467	9943.56
305.533	9959.11
305.599	9972.17
305.666	9983.2
305.732	9986.04
305.798	9998.47
305.864	10025.78
305.93	10032.33
305.996	10027.66
306.062	10028
306.128	10016.77
306.194	9999.1
306.259	9998.28
306.325	9985.85
306.391	10004.15
306.457	10012.39
306.523	10016.34
306.589	10046.25
306.655	10039.61
306.721	10017.06
306.787	10003.62
306.853	10025.45
306.919	10004.25
306.985	9990.67
307.051	9987.44
307.117	9975.98
307.183	9970.1
307.248	9940.86
307.314	9945.34
307.38	9947.94
307.446	9958.2
307.512	9948.95
307.578	9960.95
307.644	9951.84
307.709	9953.62
307.775	9948.71
307.841	9946.01
307.907	9948.57
307.973	9933.05
308.039	9938.64
308.104	9953.38
308.17	9955.74
308.236	9932.76
308.302	9937.87
308.368	9924.53
308.433	9922.07
308.499	9922.12
308.565	9910.65
308.631	9913.4
308.696	9887.87
308.762	9872.26
308.828	9867.93
308.894	9845.2
308.959	9817.17
309.025	9811.19
309.091	9808.69
309.156	9795.15
309.222	9793.03
309.288	9782.82
309.354	9752.1
309.419	9748.24
309.485	9729.36
309.551	9728.2
309.616	9714.24
309.682	9715.15
309.748	9709.04
309.813	9699.02
309.879	9691.36
309.945	9677.73
310.01	9673.68
310.076	9678.45
310.141	9677.3
310.207	9664
310.273	9672.43
310.338	9675.03
310.404	9661.02
310.469	9647.34
310.535	9642.66
310.601	9624.65
310.666	9627.01
310.732	9637.75
310.797	9623.98
310.863	9610.88
310.928	9604.71
310.994	9607.7
311.059	9603.84
311.125	9609.05
311.191	9625.33
311.256	9607.61
311.322	9616.76
311.387	9592.1
311.453	9950.64
311.518	9923.91
311.584	9923.58
311.649	9925.55
311.715	9917.6
311.78	9919.77
311.846	9907.25
311.911	9909.03
311.976	9907.68
312.042	9891.45
312.107	9879.13
312.173	9873.11
312.238	9870.84
312.304	9867.81
312.369	9857.41
312.434	9837.32
312.5	9826.15
312.565	9785.99
312.631	9792.68
312.696	9782.09
312.761	9791.86
312.827	9421.09
312.892	9460.87
312.958	9453.55
313.023	9452.92
313.088	9454.56
313.154	9438.24
313.219	9430.48
313.284	9422.63
313.35	9425.62
313.415	9412.91
313.48	9410.45
313.546	9413.34
313.611	9424.71
313.676	9417.67
313.741	9409.87
313.807	9421.33
313.872	9421.96
313.937	9429.04
314.003	9436.07
314.068	9434.53
314.133	9437.42
314.198	9422.88
314.264	9407.95
314.329	9397.25
314.394	9389.45
314.459	9388.59
314.525	9409.34
314.59	9400.67
314.655	9383.92
314.72	9384.88
314.785	9387.87
314.851	9377.61
314.916	9357.15
314.981	9339.14
315.046	9328.35
315.111	9317.13
315.176	9307.65
315.242	9309.62
315.307	9311.59
315.372	9295.46
315.437	9284.92
315.502	9275.05
315.567	9288.62
315.632	9258.91
315.698	9266.81
315.763	9260.7
315.828	9245.87
315.893	9239.9
315.958	9242.59
316.023	9238.55
316.088	9215.58
316.153	9191.7
316.218	9188.19
316.283	9176.2
316.348	9158.53
316.413	9150.01
316.479	9136.58
316.544	9100.23
316.609	9072.02
316.674	9032.93
316.739	8994.91
316.804	8966.46
316.869	8930.98
316.934	8897.91
316.999	8869.27
317.064	8812.81
317.129	8768.67
317.194	8737.19
317.259	8683.09
317.324	8626.98
317.389	8583.18
317.454	8545.06
317.518	8508.4
317.583	8478.51
317.648	8452.09
317.713	8418.07
317.778	8364.94
317.843	8336.17
317.908	8298.07
317.973	8259.19
318.038	8231.28
318.103	8197.42
318.168	8162.16
318.233	8132.86
318.297	8073.35
318.362	8034.59
318.427	7991.11
318.492	7972.49
318.557	7922.43
318.622	7894.82
318.687	7873.71
318.751	7831.88
318.816	7799.99
318.881	7767.25
318.946	7712.52
319.011	7663.9
319.075	7621.21
319.14	7584.24
319.205	7539.86
319.27	7501.45
319.335	7455.64
319.399	7414.77
319.464	7385.07
319.529	7330.8
319.594	7287.49
319.658	7267.26
319.723	7231.69
319.788	7206.32
319.853	7146
319.917	7115.54
319.982	7064.7
320.047	7024.63
320.112	6994.99
320.176	6940.84
320.241	6912.49
320.306	6880.26
320.37	6836.16
320.435	6802.11
320.5	6772.13
320.564	6730.59
320.629	6691.07
320.694	6658.89
320.758	6612.89
320.823	6567.18
320.888	6539.86
320.952	6487.53
321.017	6444.22
321.082	6399.43
321.146	6358.67
321.211	6320.47
321.275	6277.95
321.34	6232.41
321.405	6188.64
321.469	6140.94
321.534	6096.61
321.598	6036.64
321.663	6011.44
321.727	5979.39
321.792	5930.17
321.857	5884.4
321.921	5844.01
321.986	5807.18
322.05	5743.21
322.115	5706.04
322.179	5661.69
322.244	5603.88
322.308	5572.52
322.373	5516.58
322.437	5475.69
322.502	5454.25
322.566	5410.73
322.631	5372.82
322.695	5333.82
322.76	5289.21
322.824	5258.3
322.889	5219.88
322.953	5177.74
323.018	5105.73
323.082	5039.92
323.146	4988.16
323.211	4933.57
323.275	4890.37
323.34	4841.53
323.404	4807.74
323.468	4758
323.533	4713.63
323.597	4664.45
323.662	4608.7
323.726	4577.69
323.79	4528.69
323.855	4460.18
323.919	4409.28
323.983	4362.44
324.048	4293.79
324.112	4461.19
324.177	4321.1
324.241	4095.67
324.305	3878.19
324.37	3664.25
324.434	3458.72
324.498	3412.59
324.562	3360.75
324.627	3293.99
324.691	3233.15
324.755	3164.96
324.82	3088.41
324.884	3005.74
324.948	2936.05
325.012	2841.29
325.077	2710.49
