Data from 20250703_urea_0.1M_MAYP1162681_22-21-05-507.txt Node
Date: Thu Jul 03 22:21:05 BST 2025
User: adleo
Spectrometer: MAYP116268
Trigger mode: 0
Integration Time (sec): 1.000000E0
Scans to average: 1
Electric dark correction enabled: true
Nonlinearity correction enabled: true
Boxcar width: 10
XAxis mode: Wavelengths
Number of Pixels in Spectrum: 2068
>>>>>Begin Spectral Data<<<<<
179.565	1382.07
179.642	1446.99
179.718	1502.85
179.795	1544.95
179.871	1581.37
179.948	1602
180.024	1628.37
180.101	1654.36
180.177	1669.89
180.254	1700.35
180.33	1726.62
180.407	1797.3
180.483	1906.49
180.56	2012.31
180.636	2106.76
180.712	2092.24
180.789	2105.51
180.865	2116.78
180.942	2127.2
181.018	2140.85
181.095	2159.46
181.171	2163.69
181.248	2164.17
181.324	2175.92
181.4	2186.92
181.477	2196.48
181.553	2210.13
181.63	2232.07
181.706	2248.29
181.782	2257.57
181.859	2251.14
181.935	2253.95
182.011	2248.05
182.088	2266.33
182.164	2286.32
182.24	2304.69
182.317	2313.87
182.393	2310.78
182.469	2327.44
182.546	2342.38
182.622	2347.38
182.698	2337.57
182.775	2351.57
182.851	2367.18
182.927	2363.42
183.003	2358.47
183.08	2353.9
183.156	2365.42
183.232	2359.04
183.308	2347.8
183.385	2357.94
183.461	2378.17
183.537	2381.64
183.613	2394.4
183.69	2382.31
183.766	2373.12
183.842	2379.07
183.918	2386.5
183.995	2402.49
184.071	2402.01
184.147	2395.06
184.223	2382.21
184.299	2398.93
184.375	2387.6
184.452	2395.12
184.528	2450.85
184.604	2460.37
184.68	2474.22
184.756	2482.27
184.832	2489.5
184.908	2494.21
184.985	2492.83
185.061	2476.32
185.137	2484.12
185.213	2471.84
185.289	2476.03
185.365	2465.13
185.441	2464.08
185.517	2476.7
185.593	2473.61
185.669	2475.23
185.745	2487.8
185.822	2505.88
185.898	2496.69
185.974	2504.45
186.05	2495.69
186.126	2456.2
186.202	2450.68
186.278	2446.82
186.354	2439.82
186.43	2450.68
186.506	2450.21
186.582	2452.01
186.658	2460.77
186.734	2441.49
186.81	2446.54
186.886	2448.97
186.962	2460.77
187.038	2456.01
187.114	2449.01
187.19	2455.06
187.266	2444.35
187.341	2443.01
187.417	2434.82
187.493	2432.78
187.569	2439.68
187.645	2431.59
187.721	2417.54
187.797	2425.06
187.873	2430.39
187.949	2421.83
188.025	2410.49
188.101	2413.11
188.176	2418.25
188.252	2410.4
188.328	2418.77
188.404	2418.77
188.48	2412.82
188.556	2407.2
188.632	2409.68
188.707	2409.77
188.783	2408.25
188.859	2404.25
188.935	2389.59
189.011	2399.97
189.086	2394.16
189.162	2384.5
189.238	2386.4
189.314	2381.45
189.39	2373.59
189.465	2365.12
189.541	2383.02
189.617	2366.79
189.693	2359.89
189.768	2360.75
189.844	2390.37
189.92	2381.95
189.996	2389.42
190.071	2401.8
190.147	2401.09
190.223	2408.71
190.298	2402.23
190.374	2386.09
190.45	2396.42
190.526	2407.61
190.601	2397.23
190.677	2397.42
190.753	2424.52
190.828	2425.43
190.904	2445.09
190.98	2461.61
191.055	2473.47
191.131	2461.9
191.207	2483.56
191.282	2496.07
191.358	2487.36
191.433	2472.97
191.509	2487.06
191.585	2484.78
191.66	2490.68
191.736	2498.49
191.811	2491.16
191.887	2508.92
191.963	2535.88
192.038	2541.64
192.114	2544.97
192.189	2552.73
192.265	2550.02
192.34	2529.82
192.416	2528.15
192.491	2520.72
192.567	2525.68
192.642	2527.2
192.718	2526.91
192.793	2515.1
192.869	2511.53
192.944	2515.82
193.02	2522.77
193.095	2527.87
193.171	2531.01
193.246	2527.49
193.322	2523.34
193.397	2522.06
193.473	2503.72
193.548	2484
193.624	2490.62
193.699	2489.53
193.775	2504.96
193.85	2509.05
193.925	2514.39
194.001	2514.15
194.076	2509.48
194.152	2497.14
194.227	2490.14
194.302	2482.96
194.378	2488.77
194.453	2486.05
194.529	2498.81
194.604	2480.34
194.679	2472.2
194.755	2454.06
194.83	2464.78
194.905	2465.45
194.981	2476.73
195.056	2470.97
195.131	2477.59
195.207	2477.07
195.282	2467.5
195.357	2447.16
195.433	2462.06
195.508	2450.78
195.583	2458.44
195.659	2471.3
195.734	2479.21
195.809	2476.59
195.884	2483.73
195.96	2484.35
196.035	2499.87
196.11	2493.87
196.185	2509.54
196.261	2513.44
196.336	2550.82
196.411	2536.06
196.486	2543.58
196.561	2536.96
196.637	2547.86
196.712	2565.3
196.787	2571.02
196.862	2586.07
196.937	2597.49
197.013	2602.59
197.088	2614.78
197.163	2641.56
197.238	2662.01
197.313	2662.96
197.388	2681.68
197.464	2715.61
197.539	2727.52
197.614	2722.04
197.689	2735.67
197.764	2753.92
197.839	2778.55
197.914	2770.26
197.989	2795.99
198.065	2808.38
198.14	2861.98
198.215	2890.38
198.29	2904.93
198.365	2918.56
198.44	2931.33
198.515	2964.61
198.59	2981.29
198.665	3011.75
198.74	3018.91
198.815	3017.1
198.89	3041.74
198.965	3074.32
199.04	3072.79
199.115	3089.72
199.19	3135.4
199.265	3136.4
199.34	3144.17
199.415	3182.44
199.49	3207.62
199.565	3218.69
199.64	3244.87
199.715	3240.91
199.79	3247.3
199.865	3253.93
199.94	3250.69
200.015	3283.66
200.09	3288.86
200.165	3299.17
200.24	3306.9
200.315	3352.6
200.39	3371.02
200.464	3376.74
200.539	3378.22
200.614	3396.78
200.689	3424.66
200.764	3429.91
200.839	3455.66
200.914	3464.01
200.989	3450.26
201.063	3460.09
201.138	3441.49
201.213	3442.11
201.288	3420.69
201.363	3427.85
201.438	3428.09
201.512	3446.02
201.587	3426.74
201.662	3431.37
201.737	3445.98
201.812	3454.81
201.886	3418.69
201.961	3429.34
202.036	3417.8
202.111	3415.03
202.186	3382.12
202.26	3361.5
202.335	3340.59
202.41	3333.53
202.485	3317.84
202.559	3301.76
202.634	3279.95
202.709	3291.97
202.784	3274.46
202.858	3279.28
202.933	3262.2
203.008	3258.14
203.082	3241.02
203.157	3247.93
203.232	3202.83
203.306	3184.78
203.381	3155.06
203.456	3134.64
203.53	3118.17
203.605	3104.97
203.68	3091.7
203.754	3095.89
203.829	3091.36
203.904	3084.49
203.978	3082.63
204.053	3102.86
204.127	3101.77
204.202	3116.31
204.277	3116.89
204.351	3130.2
204.426	3143.18
204.5	3155.34
204.575	3144.99
204.65	3181.5
204.724	3201.27
204.799	3241.94
204.873	3269.34
204.948	3301.84
205.022	3325.4
205.097	3355.39
205.171	3406.55
205.246	3451.68
205.32	3493.33
205.395	3539.08
205.469	3571.96
205.544	3630.87
205.618	3661.87
205.693	3727.8
205.767	3772.18
205.842	3854.95
205.916	3910.48
205.991	3967.26
206.065	4042.7
206.14	4127.18
206.214	4193.77
206.289	4257.02
206.363	4346.79
206.438	4428.87
206.512	4520.37
206.586	4630.57
206.661	4727.84
206.735	4793.49
206.81	4890.74
206.884	5003.64
206.958	5085.34
207.033	5208.32
207.107	5317.53
207.181	5454
207.256	5552.99
207.33	5680.28
207.405	5804.85
207.479	5936.46
207.553	6054.74
207.628	6153.17
207.702	6279.12
207.776	6390.62
207.851	6514.81
207.925	6652.4
207.999	6769.82
208.073	6890.14
208.148	7014.58
208.222	7127.13
208.296	7286.26
208.371	7433.82
208.445	7573.38
208.519	7736.87
208.593	7877.71
208.668	8004.69
208.742	8141.72
208.816	8277.11
208.89	8426.71
208.965	8558.35
209.039	8700.24
209.113	8852.03
209.187	9006.4
209.261	9140.06
209.336	9298.88
209.41	9457.29
209.484	9593.33
209.558	9759.96
209.632	9908.43
209.707	10061.31
209.781	10223.59
209.855	10385.26
209.929	10543.02
210.003	10688.18
210.077	10821.26
210.151	11012.09
210.226	11188.17
210.3	11351.12
210.374	11510.57
210.448	11641.66
210.522	11785.72
210.596	11929.44
210.67	12073.22
210.744	12265.19
210.818	12428.83
210.892	12590.59
210.966	12722.33
211.041	12865.97
211.115	12988.7
211.189	13146.57
211.263	13289.16
211.337	13421
211.411	13558.48
211.485	13670.37
211.559	13803.65
211.633	13929.9
211.707	14012.91
211.781	14138.1
211.855	14229.93
211.929	14354.16
212.003	14460.02
212.077	14590.22
212.151	14717.04
212.225	14846.13
212.299	14942.39
212.373	15048.58
212.447	15148.12
212.52	15288.48
212.594	15415.49
212.668	15536.53
212.742	15630.86
212.816	15738.97
212.89	15828.14
212.964	15932.2
213.038	16036.02
213.112	16160.09
213.186	16287.96
213.26	16376.98
213.333	16434.43
213.407	16533.72
213.481	16635.17
213.555	16753.16
213.629	16838.9
213.703	16922.04
213.777	17018.42
213.85	17098.86
213.924	17234.91
213.998	17326.43
214.072	17414.86
214.146	17490.28
214.219	17587.2
214.293	17667.3
214.367	17740.31
214.441	17847.39
214.515	17932.45
214.588	18002.81
214.662	18044.3
214.736	18097.17
214.81	18181.26
214.883	18271.72
214.957	18332.92
215.031	18389.06
215.105	18438.55
215.178	18496.14
215.252	18568.23
215.326	18615.08
215.4	18666.11
215.473	18680.61
215.547	18737.91
215.621	18790.34
215.694	18863.74
215.768	18892.89
215.842	18950.72
215.915	19010.04
215.989	19050.81
216.063	19093.79
216.136	19157.5
216.21	19214.56
216.284	19288.14
216.357	19354.98
216.431	19406.5
216.504	19481.53
216.578	19569
216.652	19642.05
216.725	19709.95
216.799	19773.52
216.873	19828.65
216.946	19900.11
217.02	19953.32
217.093	20007.58
217.167	20030.42
217.24	20063.87
217.314	20109.6
217.387	20150.23
217.461	20187.96
217.535	20250.13
217.608	20290.03
217.682	20333.69
217.755	20398.03
217.829	20433.11
217.902	20473.64
217.976	20522.56
218.049	20545.6
218.123	20568.05
218.196	20615.57
218.27	20645.12
218.343	20677.07
218.417	20723.63
218.49	20753.75
218.563	20809.32
218.637	20849.27
218.71	20912.89
218.784	20963.98
218.857	21029.19
218.931	21080.18
219.004	21139.27
219.077	21192.04
219.151	21239.71
219.224	21274.75
219.298	21320.1
219.371	21379.44
219.444	21405.46
219.518	21448.84
219.591	21503.36
219.665	21586.27
219.738	21625.4
219.811	21656.78
219.885	21716.84
219.958	21768.76
220.031	21806.3
220.105	21856.34
220.178	21902.9
220.251	21939.68
220.325	21976.46
220.398	22014.59
220.471	22059.81
220.544	22101.94
220.618	22128.69
220.691	22169.86
220.764	22209.2
220.838	22244.05
220.911	22268.3
220.984	22327.35
221.057	22367.17
221.131	22394.31
221.204	22365.57
221.277	22420.82
221.35	22487.64
221.424	22497.62
221.497	22516.42
221.57	22548.53
221.643	22574.61
221.716	22604.41
221.79	22615.69
221.863	22645.68
221.936	22659.13
222.009	22681.79
222.082	22704.3
222.155	22725.47
222.229	22757.72
222.302	22785.45
222.375	22799.72
222.448	22826.33
222.521	22852.32
222.594	22866.88
222.667	22875.27
222.74	22929.41
222.814	22934.57
222.887	22947.54
222.96	22979.99
223.033	23018.33
223.106	23038.96
223.179	23063.02
223.252	23071.41
223.325	23105.5
223.398	23122.67
223.471	23149.38
223.544	23162.4
223.617	23177.73
223.69	23187.52
223.763	23184.67
223.837	23206.23
223.91	23220.21
223.983	23212.98
224.056	23197.45
224.129	23200.35
224.202	23238.53
224.275	23238.39
224.348	23230.77
224.42	23218.71
224.493	23202.03
224.566	23188.24
224.639	23197.93
224.712	23191.95
224.785	23201.6
224.858	23196.44
224.931	23191.85
225.004	23181.58
225.077	23186.36
225.15	23156.27
225.223	23155.45
225.296	23192.63
225.369	23167.89
225.442	23160.47
225.514	23172.72
225.587	23179.56
225.66	23190.65
225.733	23191.28
225.806	23192.49
225.879	23200.06
225.952	23181.2
226.025	23203.82
226.097	23220.65
226.17	23212.74
226.243	23189.93
226.316	23176.82
226.389	23171.42
226.461	23178.46
226.534	23178.75
226.607	23163.7
226.68	23190.85
226.753	23184.39
226.825	23149.67
226.898	23168.23
226.971	23174.74
227.044	23165.96
227.117	23169.29
227.189	23166.01
227.262	23157.57
227.335	23150.05
227.407	23128.16
227.48	23149.38
227.553	23139.06
227.626	23126.81
227.698	23127.68
227.771	23130.62
227.844	23110.13
227.916	23105.88
227.989	23077.43
228.062	23071.21
228.134	23090.31
228.207	23078.35
228.28	23066.92
228.352	23054
228.425	23041.85
228.498	23036.11
228.57	23012.63
228.643	23010.12
228.716	22989.34
228.788	22980.13
228.861	22969.77
228.934	22982.11
229.006	22953.04
229.079	22938.91
229.151	22917.89
229.224	22879.41
229.296	22863.98
229.369	22882.79
229.442	22888.33
229.514	22866.2
229.587	22858.83
229.659	22825.99
229.732	22821.12
229.804	22819.05
229.877	22841.33
229.949	22834.57
230.022	22837.37
230.094	22837.71
230.167	22824.59
230.239	22803.91
230.312	22786.41
230.384	22793.45
230.457	22771.71
230.529	22758.4
230.602	22746.3
230.674	22738.05
230.747	22745.67
230.819	22747.41
230.892	22705.12
230.964	22689.89
231.037	22681.5
231.109	22670.51
231.181	22668.43
231.254	22635.6
231.326	22613.52
231.399	22579.63
231.471	22551.57
231.544	22501.81
231.616	22496.32
231.688	22476.55
231.761	22460.11
231.833	22444.59
231.905	22396.09
231.978	22381.05
232.05	22364.42
232.122	22337.81
232.195	22309.41
232.267	22300.16
232.339	22280.92
232.412	22280.34
232.484	22257.01
232.556	22232.95
232.629	22234.11
232.701	22224.95
232.773	22206.25
232.846	22184.17
232.918	22167.78
232.99	22155.05
233.062	22153.03
233.135	22122.71
233.207	22087.9
233.279	22074.02
233.351	22052.04
233.424	22036.81
233.496	22003.11
233.568	21999.16
233.64	21961.9
233.713	21936.35
233.785	21913.94
233.857	21879.28
233.929	21827.7
234.001	21813.82
234.074	21799.79
234.146	21740.26
234.218	21698.23
234.29	21659.72
234.362	21629.3
234.434	21583.22
234.507	21547.46
234.579	21495.93
234.651	21467.88
234.723	21443.73
234.795	21414.81
234.867	21379.05
234.939	21360.25
235.012	21334.27
235.084	21311.57
235.156	21295.09
235.228	21262.36
235.3	21218.64
235.372	21195.22
235.444	21183.89
235.516	21124.03
235.588	21098.68
235.66	21079.88
235.732	21038.82
235.804	21084.13
235.876	21065.33
235.948	21055.16
236.02	21022.34
236.092	20996.41
236.164	20965.81
236.236	20932.55
236.308	20901.37
236.38	20874.43
236.452	20832.26
236.524	20805.7
236.596	20786.33
236.668	20766.14
236.74	20733.85
236.812	20706.28
236.884	20687.19
236.956	20660.69
237.028	20621.12
237.1	20579.24
237.172	20566.18
237.244	20562.33
237.316	20477.64
237.388	20431.43
237.46	20376.05
237.532	20356.63
237.604	20319.72
237.675	20308.68
237.747	20291.72
237.819	20254.66
237.891	20229.45
237.963	20187.96
238.035	20148.54
238.107	20081.46
238.178	20062.42
238.25	20033.46
238.322	20026.57
238.394	19958.52
238.466	19914.23
238.538	19893.94
238.609	19859.01
238.681	19795.92
238.753	19739.97
238.825	19706.19
238.897	19678
238.968	19667.35
239.04	19613.57
239.112	19614.78
239.184	19555.36
239.255	19512.61
239.327	19478.59
239.399	19432.81
239.471	19407.37
239.542	19386.4
239.614	19366.21
239.686	19293.49
239.758	19266.89
239.829	19215.42
239.901	19198.17
239.973	19170.37
240.044	19138.08
240.116	19106.85
240.188	19068.2
240.259	19039.24
240.331	19006.33
240.403	18978.28
240.474	18928.6
240.546	18894.72
240.618	18825.33
240.689	18782.15
240.761	18747.6
240.833	18726.35
240.904	18692.76
240.976	18655.36
241.048	18611.51
241.119	18580.14
241.191	18553.87
241.262	18540
241.334	18500.05
241.405	18473.83
241.477	18434.03
241.549	18397.45
241.62	18371.43
241.692	18344.01
241.763	18317.94
241.835	18275.53
241.906	18232.64
241.978	18181.27
242.049	18156.4
242.121	18133.36
242.192	18122.14
242.264	18071.05
242.335	18009.37
242.407	17980.36
242.478	17943.97
242.55	17915.25
242.621	17866.63
242.693	17839.21
242.764	17785.86
242.836	17750.29
242.907	17713.23
242.979	17674.82
243.05	17645.19
243.122	17615.11
243.193	17580.99
243.264	17522.25
243.336	17489.43
243.407	17471.02
243.479	17459.21
243.55	17428.51
243.622	17409
243.693	17359.55
243.764	17347.69
243.836	17314.44
243.907	17280.22
243.978	17235.69
244.05	17201.81
244.121	17160.46
244.192	17128.36
244.264	17077.42
244.335	17041.23
244.407	16982
244.478	16954.53
244.549	16908.98
244.62	16858.38
244.692	16827.92
244.763	16810.33
244.834	16770.42
244.906	16727.38
244.977	16696.49
245.048	16686.23
245.119	16634.99
245.191	16594.8
245.262	16531.08
245.333	16519.56
245.405	16477.05
245.476	16458.35
245.547	16425.58
245.618	16395.99
245.689	16354.73
245.761	16325.57
245.832	16286.34
245.903	16271.11
245.974	16245.85
246.045	16216.45
246.117	16201.8
246.188	16145.98
246.259	16100.73
246.33	16063.71
246.401	16024.72
246.473	15974.69
246.544	15918.3
246.615	15897.96
246.686	15866.48
246.757	15851.49
246.828	15806.91
246.899	15800.01
246.97	15746.08
247.042	15703.47
247.113	15679.56
247.184	15678.89
247.255	15640.33
247.326	15621
247.397	15586.63
247.468	15548.55
247.539	15520.98
247.61	15472.83
247.681	15452.92
247.752	15439.18
247.823	15400.81
247.894	15374.06
247.965	15331.16
248.037	15305.71
248.108	15255.87
248.179	15224.49
248.25	15189.16
248.321	15172.14
248.392	15123.12
248.463	15130.11
248.534	15101.43
248.605	15085.48
248.675	15046.82
248.746	15033.27
248.817	15002.52
248.888	14981.65
248.959	14936.38
249.03	14913.63
249.101	14888.18
249.172	14861.81
249.243	14805.03
249.314	14794.86
249.385	14768.15
249.456	14747.33
249.527	14711.9
249.598	14691.89
249.669	14663.84
249.739	14643.98
249.81	14615.25
249.881	14570.99
249.952	14531.18
250.023	14498.35
250.094	14448.07
250.165	14409.03
250.235	14376.59
250.306	14350.89
250.377	14304.66
250.448	14282.63
250.519	14237.61
250.59	14229.94
250.66	14198.76
250.731	14195
250.802	14167.52
250.873	14145.63
250.944	14125.39
251.014	14088.7
251.085	14083.16
251.156	14060.98
251.227	14051.68
251.297	14039.77
251.368	14031.72
251.439	14013.98
251.51	14005.55
251.58	13973.25
251.651	13942.78
251.722	13930.68
251.792	13885.9
251.863	13872.45
251.934	13869.7
252.005	13874.47
252.075	13835.86
252.146	13825.54
252.217	13808.14
252.287	13788.04
252.358	13758.49
252.429	13762.06
252.499	13731.97
252.57	13716.45
252.641	13711.05
252.711	13681.45
252.782	13639.32
252.852	13637.35
252.923	13613.48
252.994	13593.96
253.064	13586.49
253.135	13552.02
253.205	13525.31
253.276	13523.38
253.347	13517.79
253.417	13485.69
253.488	13452.28
253.558	13429.82
253.629	13405.62
253.699	13388.21
253.77	13381.22
253.841	13360.16
253.911	13335.14
253.982	13321.06
254.052	13311.08
254.123	13284.47
254.193	13267.41
254.264	13290.74
254.334	13253.91
254.405	13223.01
254.475	13189.55
254.546	13168.87
254.616	13170.9
254.687	13152.58
254.757	13130.21
254.827	13101.43
254.898	13084.9
254.968	13067.16
255.039	13045.66
255.109	13029.17
255.18	13003.24
255.25	12948.19
255.321	12927.89
255.391	12885.57
255.461	12891.88
255.532	12832.11
255.602	12808.05
255.673	12759.99
255.743	12717.62
255.813	12669.8
255.884	12659
255.954	12647.87
256.024	12645.31
256.095	12618.17
256.165	12582.98
256.235	12573
256.306	12543.55
256.376	12533.48
256.446	12516.32
256.517	12502.19
256.587	12493.95
256.657	12465.89
256.728	12455.77
256.798	12436.39
256.868	12417.55
256.938	12385.87
257.009	12383.51
257.079	12369.29
257.149	12386.5
257.219	12349.77
257.29	12340.18
257.36	12297.86
257.43	12281.56
257.5	12233.36
257.571	12206.17
257.641	12194.99
257.711	12162.41
257.781	12156.33
257.852	12137.48
257.922	12099.31
257.992	12071.83
258.062	12049.71
258.132	12049.47
258.202	12026.43
258.273	12010.91
258.343	12013.22
258.413	11986.13
258.483	11962.32
258.553	11932.34
258.623	11901.78
258.693	11886.55
258.764	11887.65
258.834	11885.87
258.904	11874.3
258.974	11847.7
259.044	11832.27
259.114	11814.25
259.184	11805.48
259.254	11783.4
259.324	11747.93
259.394	11742.29
259.464	11745.47
259.535	11725.99
259.605	11693.27
259.675	11670.28
259.745	11658.23
259.815	11617.64
259.885	11591.14
259.955	11601.36
260.025	11574.66
260.095	11553.4
260.165	11536.68
260.235	11530.65
260.305	11506.55
260.375	11470.79
260.445	11482.45
260.515	11484.86
260.585	11486.6
260.655	11461.63
260.725	11448.19
260.795	11439.66
260.865	11445.54
260.934	11416.62
261.004	11402.35
261.074	11391.75
261.144	11389.63
261.214	11379.55
261.284	11365.48
261.354	11365.53
261.424	11333.33
261.494	11344.32
261.564	11331.26
261.634	11332.13
261.703	11296.46
261.773	11292.71
261.843	11283.4
261.913	11261.67
261.983	11218.92
262.053	11208.46
262.123	11192.99
262.192	11167.79
262.262	11158.54
262.332	11116.75
262.402	11107.93
262.472	11098.01
262.541	11061.87
262.611	11063.36
262.681	11042.69
262.751	11040.81
262.821	11019.27
262.89	10994.83
262.96	10976.9
263.03	10987.56
263.1	10970.06
263.169	10956.18
263.239	10944.38
263.309	10953.15
263.379	10941.68
263.448	10928.04
263.518	10913.73
263.588	10895.37
263.657	10899.42
263.727	10895.03
263.797	10885.54
263.867	10868.24
263.936	10839.62
264.006	10834.46
264.076	10810.66
264.145	10788.73
264.215	10765.75
264.285	10760.21
264.354	10728.17
264.424	10703.21
264.494	10660.17
264.563	10635.65
264.633	10648.51
264.702	10629.05
264.772	10594.79
264.842	10581.78
264.911	10579.75
264.981	10550.7
265.05	10540.38
265.12	10519.23
265.19	10508.78
265.259	10504.58
265.329	10497.07
265.398	10477.36
265.468	10492.54
265.537	10472.45
265.607	10472.3
265.676	10470.95
265.746	10466.52
265.815	10468.88
265.885	10460.84
265.955	10439.25
266.024	10424.66
266.094	10382.93
266.163	10392.37
266.232	10391.27
266.302	10372.04
266.371	10366.89
266.441	10351.62
266.51	10341.93
266.58	10325.31
266.649	10301.41
266.719	10295.49
266.788	10290.09
266.858	10297.41
266.927	10256.27
266.996	10247.07
267.066	10234.21
267.135	10201.5
267.205	10193.07
267.274	10179.72
267.343	10176.93
267.413	10167.97
267.482	10173.56
267.552	10178.76
267.621	10145.42
267.69	10111.07
267.76	10099.95
267.829	10088.48
267.898	10075.96
267.968	10056.88
268.037	10054.14
268.106	10053.56
268.176	10027.45
268.245	10010.87
268.314	9997.05
268.384	9997.43
268.453	9985.78
268.522	9981.92
268.592	9987.85
268.661	9960.34
268.73	9955.38
268.799	9935.49
268.869	9946.71
268.938	9916.51
269.007	9890.88
269.076	9879.51
269.146	9886.93
269.215	9882.5
269.284	9890.35
269.353	9878.99
269.422	9869.02
269.492	9850.18
269.561	9802.7
269.63	9796.19
269.699	9776.16
269.768	9762.24
269.838	9762.14
269.907	9765.99
269.976	9737.05
270.045	9706.51
270.114	9704.54
270.183	9684.07
270.253	9680.5
270.322	9645.1
270.391	9629.07
270.46	9633.6
270.529	9634.99
270.598	9633.98
270.667	9618.18
270.736	9588.32
270.806	9578.21
270.875	9584.32
270.944	9570.55
271.013	9599.59
271.082	9596.07
271.151	9590.39
271.22	9561.98
271.289	9543.82
271.358	9527.74
271.427	9526.34
271.496	9513
271.565	9493.5
271.634	9488.11
271.703	9511.18
271.772	9512.09
271.841	9508.63
271.91	9490.91
271.979	9481.22
272.048	9454.26
272.117	9457.96
272.186	9441.88
272.255	9445.3
272.324	9442.07
272.393	9438.85
272.462	9416.36
272.531	9406.96
272.6	9402.82
272.669	9407.01
272.738	9395.89
272.807	9389.87
272.876	9364.3
272.945	9402.54
273.013	9410.34
273.082	9413.13
273.151	9366.41
273.22	9367.86
273.289	9356.4
273.358	9358.09
273.427	9350.04
273.496	9348.07
273.564	9343.21
273.633	9346.91
273.702	9324.76
273.771	9311.23
273.84	9301.84
273.909	9300.4
273.977	9292.65
274.046	9278.59
274.115	9283.83
274.184	9266.17
274.253	9252.64
274.322	9266.02
274.39	9221.34
274.459	9209.39
274.528	9185.37
274.597	9180.51
274.665	9172.42
274.734	9179.3
274.803	9175.45
274.872	9163.32
274.94	9147.81
275.009	9181.48
275.078	9163.57
275.147	9153.8
275.215	9144.41
275.284	9157.07
275.353	9147.1
275.421	9120.96
275.49	9136.18
275.559	9124.34
275.627	9117.36
275.696	9113.12
275.765	9107.25
275.833	9102.48
275.902	9097.33
275.971	9109.89
276.039	9123.38
276.108	9131.32
276.177	9126.41
276.245	9115.82
276.314	9110.38
276.383	9121.26
276.451	9073.87
276.52	9078.44
276.588	9100.88
276.657	9111.37
276.725	9098.04
276.794	9104.39
276.863	9122.78
276.931	9097.07
277	9103.86
277.068	9115.89
277.137	9131.64
277.205	9131.2
277.274	9149.5
277.342	9159.7
277.411	9139.58
277.48	9121.72
277.548	9105.01
277.617	9108.62
277.685	9097.84
277.754	9104.63
277.822	9096.35
277.89	9108.1
277.959	9095.53
278.027	9075.45
278.096	9052.49
278.164	9081.43
278.233	9069.68
278.301	9052.26
278.37	9057.84
278.438	9051.34
278.507	9053.07
278.575	9030.83
278.643	9021.92
278.712	9004.69
278.78	8988.08
278.849	8992.32
278.917	9003.58
278.985	8996.99
279.054	8994.87
279.122	9011.48
279.191	9007.38
279.259	9000.55
279.327	8984.52
279.396	9005.12
279.464	8994.19
279.532	9007.77
279.601	9004.45
279.669	8995.93
279.737	9018.79
279.806	9022.79
279.874	9028.04
279.942	9025.34
280.011	9018.7
280.079	9031.84
280.147	9052.73
280.215	9054.32
280.284	9052.06
280.352	9036.17
280.42	9041.37
280.488	9034.44
280.557	9024.57
280.625	9028.66
280.693	9031.7
280.761	9033.86
280.83	9015.95
280.898	9031.84
280.966	9013.98
281.034	8975.46
281.102	8957.27
281.171	8942.97
281.239	8958.28
281.307	8949.86
281.375	8938.54
281.443	8963.67
281.512	8961.31
281.58	8971.09
281.648	8958.96
281.716	8958.48
281.784	8964.88
281.852	8964.54
281.92	8964.06
281.989	8969.5
282.057	8945.39
282.125	8990.17
282.193	8982.61
282.261	8987.04
282.329	8985.11
282.397	8987.47
282.465	8992.62
282.533	9015.77
282.601	9001.52
282.67	8971.24
282.738	8961.52
282.806	8970.81
282.874	8961.03
282.942	8960.65
283.01	8947.26
283.078	8951.21
283.146	8948.32
283.214	8953.04
283.282	8954.68
283.35	8965.85
283.418	8962.04
283.486	8974.41
283.554	8923.95
283.622	8930.93
283.69	8930.31
283.758	8924.24
283.826	8931.65
283.894	8941.86
283.962	8961.21
284.03	8983.12
284.098	8982.97
284.165	8977
284.233	8976.38
284.301	8966.12
284.369	8956.88
284.437	8937.72
284.505	8936.13
284.573	8951.44
284.641	8935.94
284.709	8941.24
284.777	8922.56
284.845	8934.02
284.912	8936.13
284.98	8944.85
285.048	8931.56
285.116	8931.17
285.184	8947.21
285.252	8945.52
285.319	8924.49
285.387	8912.4
285.455	8894.93
285.523	8908.02
285.591	8903.59
285.659	8908.69
285.726	8923.14
285.794	8900.71
285.862	8912.21
285.93	8913.99
285.997	8906.15
286.065	8902.97
286.133	8893.58
286.201	8892.76
286.269	8875
286.336	8865.9
286.404	8858.25
286.472	8866.48
286.539	8843.52
286.607	8821.47
286.675	8819.5
286.743	8834.42
286.81	8831.87
286.878	8847.47
286.946	8828.55
287.013	8831.77
287.081	8832.98
287.149	8814.16
287.216	8845.2
287.284	8839.18
287.352	8834.56
287.419	8833.55
287.487	8855.65
287.555	8863.3
287.622	8861.28
287.69	8865.66
287.758	8880.29
287.825	8875.14
287.893	8867.35
287.96	8877.16
288.028	8886.55
288.096	8890.26
288.163	8893.96
288.231	8878.7
288.298	8877.45
288.366	8898.83
288.433	8897.09
288.501	8884.24
288.569	8894.2
288.636	8885.2
288.704	8892.09
288.771	8902.29
288.839	8893.39
288.906	8880.44
288.974	8885.88
289.041	8885.78
289.109	8873.26
289.176	8881.4
289.244	8888
289.311	8901.09
289.379	8911.49
289.446	8915.05
289.514	8915.53
289.581	8910.76
289.649	8918.37
289.716	8918.03
289.783	8904.99
289.851	8925.63
289.918	8927.46
289.986	8928.67
290.053	8932.09
290.121	8930.59
290.188	8932.76
290.255	8961.07
290.323	8960.15
290.39	8955.87
290.458	8966.55
290.525	8980.85
290.592	8969.2
290.66	8975.46
290.727	8965.06
290.794	8979.26
290.862	8980.13
290.929	8983.54
290.996	8988.6
291.064	8990.33
291.131	9008.58
291.198	9024.03
291.266	9018.16
291.333	9022.68
291.4	9027.93
291.468	9044.74
291.535	9040.84
291.602	9047.62
291.669	9042.71
291.737	9046.23
291.804	9045.79
291.871	9054.6
291.938	9061.49
292.006	9093.61
292.073	9103.62
292.14	9117.63
292.207	9107.47
292.275	9108.29
292.342	9115.03
292.409	9139.88
292.476	9173.48
292.543	9155.57
292.611	9160
292.678	9182.82
292.745	9209.45
292.812	9228.76
292.879	9224.18
292.946	9227.6
293.014	9238.63
293.081	9244.07
293.148	9253.65
293.215	9272.09
293.282	9273.92
293.349	9287.59
293.416	9266.65
293.484	9279.84
293.551	9295.3
293.618	9318.26
293.685	9348.94
293.752	9345.47
293.819	9337.86
293.886	9321.49
293.953	9333.19
294.02	9338.44
294.087	9341.23
294.154	9326.83
294.221	9340.56
294.288	9341.28
294.356	9368.68
294.423	9374.12
294.49	9369.88
294.557	9388.08
294.624	9373.16
294.691	9389.53
294.758	9384.86
294.825	9396.17
294.892	9389.33
294.959	9388.18
295.026	9393.81
295.093	9379.85
295.16	9382.01
295.226	9386.06
295.293	9409.32
295.36	9412.3
295.427	9427.96
295.494	9441.2
295.561	9454.39
295.628	9476.21
295.695	9497.98
295.762	9500.73
295.829	9511.47
295.896	9526.68
295.963	9529.43
296.03	9540.45
296.096	9549.65
296.163	9565.54
296.23	9581.2
296.297	9594.54
296.364	9595.02
296.431	9600.12
296.498	9597.62
296.564	9623.53
296.631	9623.96
296.698	9604.94
296.765	9626.8
296.832	9610.76
296.899	9596.7
296.965	9613.99
297.032	9590.77
297.099	9603.01
297.166	9609.46
297.233	9602.28
297.299	9594.34
297.366	9600.22
297.433	9608.11
297.5	9612.16
297.566	9615.72
297.633	9616.69
297.7	9623.62
297.767	9624.1
297.833	9630.99
297.9	9638.94
297.967	9616.74
298.033	9635.57
298.1	9674.2
298.167	9666.73
298.234	9675.74
298.3	9690.47
298.367	9683.68
298.434	9689.36
298.5	9682.14
298.567	9674.34
298.634	9673.18
298.7	9696.73
298.767	9700.3
298.834	9710.36
298.9	9704.73
298.967	9691.92
299.033	9703.91
299.1	9712.39
299.167	9724.57
299.233	9716.05
299.3	9727.17
299.366	9751.54
299.433	9765.08
299.5	9736.03
299.566	9738.15
299.633	9756.69
299.699	9766.86
299.766	9766.66
299.832	9769.7
299.899	9781.35
299.965	9794.31
300.032	9796.33
300.099	9804.28
300.165	9809.29
300.232	9809.58
300.298	9814.78
300.365	9826.48
300.431	9823.35
300.498	9817.09
300.564	9821.71
300.631	9837.13
300.697	9848.35
300.763	9847.87
300.83	9841.85
300.896	9858.7
300.963	9876.91
301.029	9880.04
301.096	9884.23
301.162	9895.7
301.229	9889.82
301.295	9873.68
301.361	9879.13
301.428	9880.86
301.494	9862.56
301.561	9866.17
301.627	9871.13
301.693	9872.29
301.76	9880.96
301.826	9877.73
301.892	9891.36
301.959	9902.39
302.025	9900.18
302.092	9899.02
302.158	9906.97
302.224	9909.86
302.291	9902.49
302.357	9892.33
302.423	9888.09
302.49	9875.18
302.556	9888.42
302.622	9893.39
302.688	9909.76
302.755	9928.74
302.821	9942.04
302.887	9956.25
302.954	9956.68
303.02	9965.11
303.086	9968.1
303.152	9963.52
303.219	9957.79
303.285	9961.06
303.351	9967.47
303.417	9966.99
303.483	9963.38
303.55	9951.96
303.616	9944.93
303.682	9943.48
303.748	9939.15
303.815	9957.5
303.881	9973.35
303.947	9960.49
304.013	9959.38
304.079	9952.78
304.145	9925.08
304.212	9915.74
304.278	9903.6
304.344	9892.33
304.41	9874.75
304.476	9869.11
304.542	9867.72
304.608	9876.87
304.674	9857.31
304.741	9853.99
304.807	9856.3
304.873	9855.09
304.939	9871.04
305.005	9857.65
305.071	9851.29
305.137	9853.79
305.203	9823.78
305.269	9817.62
305.335	9829.08
305.401	9830.87
305.467	9823.21
305.533	9834.96
305.599	9846.13
305.666	9851.87
305.732	9859.67
305.798	9872.77
305.864	9895.07
305.93	9897.14
305.996	9892.23
306.062	9893.24
306.128	9882.79
306.194	9872.63
306.259	9872.77
306.325	9863.62
306.391	9881.06
306.457	9891.7
306.523	9892.86
306.589	9920.7
306.655	9915.45
306.721	9891.65
306.787	9874.99
306.853	9894.01
306.919	9878.02
306.985	9872.29
307.051	9861.89
307.117	9849.27
307.183	9843.01
307.248	9810.93
307.314	9818.88
307.38	9819.4
307.446	9827.3
307.512	9817.53
307.578	9820.66
307.644	9815.02
307.709	9821.14
307.775	9808.66
307.841	9799.9
307.907	9800.72
307.973	9778.22
308.039	9776.87
308.104	9790.41
308.17	9792
308.236	9769.69
308.302	9771.14
308.368	9760.16
308.433	9767.48
308.499	9763.53
308.565	9748.26
308.631	9751.97
308.696	9728.47
308.762	9719.02
308.828	9716.91
308.894	9702.36
308.959	9685.51
309.025	9682.76
309.091	9680.11
309.156	9675.15
309.222	9686.76
309.288	9666.24
309.354	9641.58
309.419	9641.78
309.485	9615.63
309.551	9623.14
309.616	9612.06
309.682	9604.98
309.748	9595.88
309.813	9593.09
309.879	9583.02
309.945	9577.82
310.01	9576.52
310.076	9579.03
310.141	9569.78
310.207	9551.24
310.273	9549.89
310.338	9555.72
310.404	9535.68
310.469	9516.56
310.535	9507.36
310.601	9482.99
310.666	9494.55
310.732	9510.73
310.797	9497.01
310.863	9496.67
310.928	9488
310.994	9494.55
311.059	9500.23
311.125	9497.05
311.191	9502.02
311.256	9491.04
311.322	9499.27
311.387	9474.95
311.453	9832.09
311.518	9801.18
311.584	9804.75
311.649	9815.73
311.715	9798.44
311.78	9804.26
311.846	9790.64
311.911	9799.07
311.976	9802.97
312.042	9785.49
312.107	9770.85
312.173	9761.89
312.238	9751.25
312.304	9744.7
312.369	9730.06
312.434	9710.22
312.5	9702.23
312.565	9665.15
312.631	9676.94
312.696	9663.7
312.761	9667.55
312.827	9305.99
312.892	9357.8
312.958	9350.57
313.023	9346.87
313.088	9347.59
313.154	9326.5
313.219	9326.79
313.284	9313.5
313.35	9301.94
313.415	9293.52
313.48	9285.43
313.546	9287.55
313.611	9299.1
313.676	9290.67
313.741	9282.68
313.807	9292.31
313.872	9298.62
313.937	9312.15
314.003	9324.81
314.068	9333.87
314.133	9343.69
314.198	9325.39
314.264	9296.59
314.329	9290.48
314.394	9278.44
314.459	9277.43
314.525	9308.63
314.59	9302.76
314.655	9284.84
314.72	9293.61
314.785	9296.4
314.851	9291.54
314.916	9274.97
314.981	9261.3
315.046	9255.47
315.111	9249.65
315.176	9238.77
315.242	9241.27
315.307	9245.7
315.372	9217.34
315.437	9196.63
315.502	9184.69
315.567	9197.55
315.632	9177.91
315.698	9172.61
315.763	9176.85
315.828	9164.71
315.893	9152.19
315.958	9153.25
316.023	9154.55
316.088	9140.44
316.153	9115.12
316.218	9104.39
316.283	9086
316.348	9068.77
316.413	9065.74
316.479	9047.11
316.544	9011.1
316.609	8978.9
316.674	8931.58
316.739	8901.93
316.804	8874.78
316.869	8841.23
316.934	8798.73
316.999	8774.9
317.064	8726.68
317.129	8678.64
317.194	8643.9
317.259	8596.24
317.324	8538.69
317.389	8486.67
317.454	8444.37
317.518	8415.98
317.583	8392.4
317.648	8371.18
317.713	8333.36
317.778	8270.9
317.843	8244.54
317.908	8206.1
317.973	8166.55
318.038	8142.55
318.103	8108.4
318.168	8081.79
318.233	8052.64
318.297	8010.7
318.362	7976.98
318.427	7936.83
318.492	7912.77
318.557	7864.74
318.622	7836.31
318.687	7816.98
318.751	7779.67
318.816	7742.02
318.881	7707.06
318.946	7656.95
319.011	7609.01
319.075	7570.6
319.14	7539.4
319.205	7493.34
319.27	7462.01
319.335	7419.42
319.399	7381.1
319.464	7347.7
319.529	7290.55
319.594	7245.08
319.658	7210.72
319.723	7162.47
319.788	7137.05
319.853	7082.12
319.917	7054.98
319.982	6999.53
320.047	6959.93
320.112	6930.3
320.176	6881.34
320.241	6847.62
320.306	6816.01
320.37	6775.85
320.435	6748.95
320.5	6717.45
320.564	6677.39
320.629	6633.46
320.694	6599.03
320.758	6557.35
320.823	6512.7
320.888	6487.92
320.952	6440.59
321.017	6400.84
321.082	6366.38
321.146	6337.62
321.211	6303.87
321.275	6264.33
321.34	6218.03
321.405	6173.97
321.469	6130.6
321.534	6093.94
321.598	6042.03
321.663	6013.66
321.727	5981.42
321.792	5924
321.857	5883.17
321.921	5847.58
321.986	5813.48
322.05	5757.77
322.115	5715.81
322.179	5673.52
322.244	5616.13
322.308	5585.21
322.373	5536.5
322.437	5490.63
322.502	5457.58
322.566	5413.48
322.631	5374.57
322.695	5342.03
322.76	5294.6
322.824	5262.59
322.889	5213.83
322.953	5167.03
323.018	5093.78
323.082	5029.6
323.146	4980.48
323.211	4923.4
323.275	4874.79
323.34	4821.31
323.404	4782.93
323.468	4740.03
323.533	4697.57
323.597	4649.54
323.662	4595.6
323.726	4560.04
323.79	4515.3
323.855	4446.57
323.919	4395.32
323.983	4352.74
324.048	4284.75
324.112	4444.64
324.177	4310.87
324.241	4090.91
324.305	3875.05
324.37	3662.59
324.434	3456.35
324.498	3412.51
324.562	3360.57
324.627	3298.11
324.691	3242.31
324.755	3179.1
324.82	3097.74
324.884	3013.88
324.948	2938.2
325.012	2840.37
325.077	2711.78
