Data from 20250703_urea_0.1M_MAYP1162681_21-41-05-717.txt Node
Date: Thu Jul 03 21:41:05 BST 2025
User: adleo
Spectrometer: MAYP116268
Trigger mode: 0
Integration Time (sec): 1.000000E0
Scans to average: 1
Electric dark correction enabled: true
Nonlinearity correction enabled: true
Boxcar width: 10
XAxis mode: Wavelengths
Number of Pixels in Spectrum: 2068
>>>>>Begin Spectral Data<<<<<
179.565	1389.09
179.642	1451.74
179.718	1503.59
179.795	1547.04
179.871	1585.03
179.948	1606.91
180.024	1629.03
180.101	1655.53
180.177	1673.39
180.254	1697.96
180.33	1724.14
180.407	1792.21
180.483	1901.73
180.56	2005.65
180.636	2103.18
180.712	2091.86
180.789	2104.46
180.865	2120.49
180.942	2129.48
181.018	2140.61
181.095	2155.46
181.171	2160.83
181.248	2164.92
181.324	2180.87
181.4	2188.15
181.477	2200.23
181.553	2212.36
181.63	2234.3
181.706	2250.43
181.782	2260.32
181.859	2263.56
181.935	2270.46
182.011	2267.56
182.088	2286.74
182.164	2307.78
182.24	2321.81
182.317	2331.24
182.393	2328.43
182.469	2343.33
182.546	2355.94
182.622	2362.6
182.698	2356.65
182.775	2369.79
182.851	2384.36
182.927	2376.79
183.003	2372.55
183.08	2365.84
183.156	2378.26
183.232	2378.22
183.308	2366.79
183.385	2374.46
183.461	2393.4
183.537	2393.31
183.613	2410.26
183.69	2400.26
183.766	2388.88
183.842	2397.69
183.918	2400.83
183.995	2413.73
184.071	2413.87
184.147	2410.97
184.223	2399.21
184.299	2414.26
184.375	2402.31
184.452	2408.6
184.528	2466.51
184.604	2479.46
184.68	2490.5
184.756	2496.69
184.832	2498.83
184.908	2505.83
184.985	2503.69
185.061	2485.55
185.137	2496.36
185.213	2479.84
185.289	2482.22
185.365	2474.55
185.441	2471.84
185.517	2485.75
185.593	2487.89
185.669	2487.27
185.745	2498.84
185.822	2513.98
185.898	2504.5
185.974	2515.69
186.05	2506.83
186.126	2465.2
186.202	2459.29
186.278	2459.58
186.354	2453.96
186.43	2464.96
186.506	2463.39
186.582	2464.34
186.658	2471.43
186.734	2447.78
186.81	2450.44
186.886	2450.16
186.962	2461.91
187.038	2460.72
187.114	2452.77
187.19	2455.86
187.266	2445.15
187.341	2445.39
187.417	2438.35
187.493	2437.68
187.569	2438.87
187.645	2432.11
187.721	2419.92
187.797	2425.11
187.873	2427.54
187.949	2418.73
188.025	2408.82
188.101	2413.63
188.176	2417.53
188.252	2412.97
188.328	2422.81
188.404	2422.91
188.48	2418.29
188.556	2414.82
188.632	2414.29
188.707	2415.2
188.783	2411.63
188.859	2405.39
188.935	2392.11
189.011	2401.96
189.086	2392.49
189.162	2385.78
189.238	2383.78
189.314	2380.78
189.39	2378.21
189.465	2371.5
189.541	2389.02
189.617	2373.6
189.693	2364.51
189.768	2369.7
189.844	2395.32
189.92	2384.66
189.996	2395.61
190.071	2409.13
190.147	2404.47
190.223	2416.61
190.298	2408.71
190.374	2396.81
190.45	2411.51
190.526	2420.89
190.601	2412.46
190.677	2417.51
190.753	2447
190.828	2454.71
190.904	2473.33
190.98	2488.33
191.055	2502.04
191.131	2495.18
191.207	2520.94
191.282	2531.27
191.358	2521.23
191.433	2507.08
191.509	2523.4
191.585	2518.68
191.66	2518.35
191.736	2527.02
191.811	2516.11
191.887	2536.4
191.963	2562.64
192.038	2569.55
192.114	2568.69
192.189	2572.83
192.265	2570.97
192.34	2546.29
192.416	2540.01
192.491	2532.63
192.567	2532.91
192.642	2531.63
192.718	2530.39
192.793	2511.82
192.869	2506.87
192.944	2509.91
193.02	2517.53
193.095	2521.87
193.171	2530.25
193.246	2533.68
193.322	2532.44
193.397	2532.87
193.473	2514.67
193.548	2495.81
193.624	2500.14
193.699	2500.14
193.775	2519.44
193.85	2517.06
193.925	2529.58
194.001	2528.68
194.076	2522.01
194.152	2514.25
194.227	2507.1
194.302	2495.35
194.378	2503.11
194.453	2502.06
194.529	2514.25
194.604	2498.11
194.679	2491.63
194.755	2470.21
194.83	2480.17
194.905	2477.36
194.981	2484.74
195.056	2476.41
195.131	2481.27
195.207	2481.31
195.282	2471.79
195.357	2448.74
195.433	2467.26
195.508	2451.35
195.583	2461.68
195.659	2478.35
195.734	2485.12
195.809	2486.4
195.884	2497.97
195.96	2498.25
196.035	2515.16
196.11	2512.73
196.185	2525.35
196.261	2528.49
196.336	2562.25
196.411	2550.49
196.486	2557.91
196.561	2550.72
196.637	2561.2
196.712	2579.73
196.787	2580.87
196.862	2597.21
196.937	2610.82
197.013	2614.44
197.088	2624.83
197.163	2648.89
197.238	2665.19
197.313	2664.81
197.388	2680.39
197.464	2714.13
197.539	2725.52
197.614	2718.23
197.689	2733.05
197.764	2753.3
197.839	2777.84
197.914	2771.07
197.989	2792.57
198.065	2803.71
198.14	2860.08
198.215	2890.44
198.29	2903.6
198.365	2917.51
198.44	2926.04
198.515	2958.37
198.59	2980.39
198.665	3008.99
198.74	3021.87
198.815	3026.02
198.89	3052.53
198.965	3083.06
199.04	3077.29
199.115	3095.64
199.19	3144.42
199.265	3145.75
199.34	3156.39
199.415	3189.55
199.49	3215.16
199.565	3227.94
199.64	3258.42
199.715	3254.89
199.79	3264.67
199.865	3271.35
199.94	3271.68
200.015	3309.56
200.09	3312.71
200.165	3318.34
200.24	3328.22
200.315	3368.91
200.39	3382.85
200.464	3390.15
200.539	3394.97
200.614	3413.24
200.689	3439.39
200.764	3445.75
200.839	3466.02
200.914	3468.97
200.989	3461.53
201.063	3475.51
201.138	3454.58
201.213	3455.53
201.288	3434.77
201.363	3438.92
201.438	3440.12
201.512	3457.67
201.587	3440.01
201.662	3445.12
201.737	3459.96
201.812	3468.08
201.886	3433.35
201.961	3446.91
202.036	3434.55
202.111	3429.73
202.186	3398.54
202.26	3380.3
202.335	3357.97
202.41	3351.14
202.485	3332.97
202.559	3311.45
202.634	3285.07
202.709	3300.04
202.784	3279.62
202.858	3282.34
202.933	3264.92
203.008	3260.96
203.082	3243.69
203.157	3246.41
203.232	3206.93
203.306	3186.79
203.381	3159.06
203.456	3140.03
203.53	3123.17
203.605	3111.02
203.68	3096.61
203.754	3098.61
203.829	3092.79
203.904	3083.1
203.978	3085.2
204.053	3110.01
204.127	3112.25
204.202	3131.81
204.277	3133.62
204.351	3145.84
204.426	3157.91
204.5	3172.84
204.575	3159.68
204.65	3196.09
204.724	3220.78
204.799	3258.83
204.873	3287
204.948	3321.17
205.022	3347.26
205.097	3374.15
205.171	3426.32
205.246	3477.81
205.32	3524
205.395	3572.14
205.469	3610.22
205.544	3668.51
205.618	3702.29
205.693	3772.9
205.767	3813.61
205.842	3897.26
205.916	3957.04
205.991	4013.49
206.065	4084.24
206.14	4177.23
206.214	4247.47
206.289	4312.73
206.363	4404.15
206.438	4491.25
206.512	4586.17
206.586	4695.48
206.661	4795.24
206.735	4867.04
206.81	4964.45
206.884	5080.06
206.958	5165.36
207.033	5287.59
207.107	5402.19
207.181	5539.25
207.256	5635.67
207.33	5769.01
207.405	5894.32
207.479	6029.74
207.553	6153.11
207.628	6257.63
207.702	6385.68
207.776	6502.86
207.851	6628.94
207.925	6769.87
207.999	6896.35
208.073	7019.48
208.148	7143.36
208.222	7258.17
208.296	7424.76
208.371	7574.75
208.445	7724.87
208.519	7893.34
208.593	8043.44
208.668	8172.94
208.742	8319.91
208.816	8470.52
208.89	8621.53
208.965	8759.35
209.039	8904.33
209.113	9070.11
209.187	9232.77
209.261	9376.14
209.336	9535.9
209.41	9700.3
209.484	9840.88
209.558	9999.01
209.632	10155.69
209.707	10316.48
209.781	10486.91
209.855	10647.74
209.929	10799.24
210.003	10935.7
210.077	11077.32
210.151	11265.56
210.226	11453.56
210.3	11617.04
210.374	11781.19
210.448	11924.43
210.522	12072.88
210.596	12220.56
210.67	12363.91
210.744	12556.86
210.818	12722.77
210.892	12879.14
210.966	13009
211.041	13158.67
211.115	13285.21
211.189	13438.6
211.263	13582.78
211.337	13717.08
211.411	13861.07
211.485	13988.09
211.559	14130.2
211.633	14257.99
211.707	14356.18
211.781	14472.74
211.855	14562.74
211.929	14674.09
212.003	14777.39
212.077	14910.43
212.151	15052.34
212.225	15176.95
212.299	15277.93
212.373	15380.55
212.447	15490.54
212.52	15642.42
212.594	15764.56
212.668	15894.56
212.742	15995.2
212.816	16110.97
212.89	16211.85
212.964	16311.43
213.038	16423.77
213.112	16557.52
213.186	16673.91
213.26	16743.66
213.333	16805.01
213.407	16909.6
213.481	17010.61
213.555	17131.3
213.629	17215.92
213.703	17291.93
213.777	17388.89
213.85	17461.66
213.924	17590.53
213.998	17692.21
214.072	17779.01
214.146	17853.9
214.219	17949.31
214.293	18035.91
214.367	18117.79
214.441	18226.9
214.515	18305.35
214.588	18373.97
214.662	18407.66
214.736	18475.27
214.81	18571.84
214.883	18662.78
214.957	18732.13
215.031	18798.87
215.105	18848.75
215.178	18908.07
215.252	18977.7
215.326	19030.18
215.4	19084.97
215.473	19111.48
215.547	19159.62
215.621	19194.41
215.694	19269.25
215.768	19317.2
215.842	19367.99
215.915	19413
215.989	19440.18
216.063	19493.48
216.136	19546.68
216.21	19599.36
216.284	19666.44
216.357	19725.66
216.431	19788.31
216.504	19857.03
216.578	19940.07
216.652	20007.82
216.725	20061.36
216.799	20130.57
216.873	20180.44
216.946	20249.5
217.02	20300.44
217.093	20352.39
217.167	20391.77
217.24	20425.65
217.314	20464.34
217.387	20502.56
217.461	20548.87
217.535	20617.74
217.608	20657.21
217.682	20705.99
217.755	20771.24
217.829	20807.39
217.902	20866.23
217.976	20909.42
218.049	20942.72
218.123	20972.7
218.196	21016.75
218.27	21061.62
218.343	21087.17
218.417	21138.78
218.49	21173.82
218.563	21221.34
218.637	21272.15
218.71	21343.77
218.784	21391.92
218.857	21441.47
218.931	21501.81
219.004	21558.11
219.077	21602.31
219.151	21650.22
219.224	21683.1
219.298	21729.08
219.371	21791.02
219.444	21812.91
219.518	21845.78
219.591	21880.58
219.665	21949.52
219.738	21992.8
219.811	22023.94
219.885	22066.31
219.958	22113.65
220.031	22152.98
220.105	22199.36
220.178	22232.81
220.251	22254.22
220.325	22311.11
220.398	22346.1
220.471	22391.18
220.544	22426.85
220.618	22452.94
220.691	22487.74
220.764	22521.44
220.838	22551.28
220.911	22566.66
220.984	22628.28
221.057	22673.11
221.131	22715.15
221.204	22716.45
221.277	22766.06
221.35	22829.85
221.424	22857.38
221.497	22884.48
221.57	22908.54
221.643	22940.45
221.716	22971.7
221.79	22991.27
221.863	23002.7
221.936	23030.52
222.009	23041.27
222.082	23070.45
222.155	23084.72
222.229	23112.2
222.302	23150.29
222.375	23176.77
222.448	23204.1
222.521	23213.41
222.594	23225.95
222.667	23242.15
222.74	23264.33
222.814	23276.1
222.887	23284.2
222.96	23311.44
223.033	23333.43
223.106	23352.58
223.179	23375
223.252	23395.45
223.325	23424.48
223.398	23435.52
223.471	23456.93
223.544	23470.67
223.617	23474.92
223.69	23496.33
223.763	23502.11
223.837	23513.83
223.91	23526.8
223.983	23528.01
224.056	23524.49
224.129	23532.88
224.202	23550.14
224.275	23544.98
224.348	23530.52
224.42	23508.72
224.493	23489.38
224.566	23497.87
224.639	23510.65
224.712	23506.07
224.785	23494.64
224.858	23491.89
224.931	23496.33
225.004	23476.7
225.077	23477.62
225.15	23456.45
225.223	23453.07
225.296	23488.76
225.369	23470.68
225.442	23455.87
225.514	23458.86
225.587	23467.93
225.66	23473.09
225.733	23468.94
225.806	23479.98
225.879	23476.17
225.952	23475.69
226.025	23496.04
226.097	23500.62
226.17	23494.35
226.243	23463.59
226.316	23462.34
226.389	23450.09
226.461	23441.41
226.534	23445.41
226.607	23440.92
226.68	23456.64
226.753	23443.63
226.825	23396.7
226.898	23406.44
226.971	23401.38
227.044	23389.08
227.117	23375.14
227.189	23369.74
227.262	23369.6
227.335	23367.77
227.407	23359.23
227.48	23357.3
227.553	23345.87
227.626	23328.51
227.698	23320.89
227.771	23323.35
227.844	23303.48
227.916	23292.97
227.989	23277.11
228.062	23264.09
228.134	23278.32
228.207	23264.52
228.28	23254.59
228.352	23248.47
228.425	23234.1
228.498	23231.35
228.57	23217.37
228.643	23228.7
228.716	23204.54
228.788	23177.01
228.861	23163.17
228.934	23169.77
229.006	23157.09
229.079	23142.34
229.151	23110.61
229.224	23072.86
229.296	23058.87
229.369	23089.35
229.442	23101.21
229.514	23084.87
229.587	23081.2
229.659	23044.17
229.732	23038.53
229.804	23039.98
229.877	23055.41
229.949	23053.14
230.022	23064.42
230.094	23046.05
230.167	23026.81
230.239	23008.93
230.312	22998.17
230.384	22996.39
230.457	22985.16
230.529	22970.11
230.602	22957.58
230.674	22951.31
230.747	22961.87
230.819	22976.86
230.892	22913.7
230.964	22896.29
231.037	22885.01
231.109	22871.9
231.181	22867.03
231.254	22839.26
231.326	22815.15
231.399	22783.95
231.471	22761.92
231.544	22707.97
231.616	22705.84
231.688	22678.75
231.761	22661.2
231.833	22642.64
231.905	22601.03
231.978	22574.51
232.05	22552.34
232.122	22523.51
232.195	22501.62
232.267	22493.67
232.339	22461.56
232.412	22458.91
232.484	22422.65
232.556	22376.28
232.629	22371.07
232.701	22354.78
232.773	22338.67
232.846	22307.92
232.918	22282.56
232.99	22254.02
233.062	22249.25
233.135	22226.93
233.207	22192.22
233.279	22172.07
233.351	22150.57
233.424	22113.74
233.496	22078.75
233.568	22078.41
233.64	22040.96
233.713	22014.83
233.785	21986.39
233.857	21951.01
233.929	21899.04
234.001	21898.51
234.074	21906.37
234.146	21851.13
234.218	21817.34
234.29	21779.26
234.362	21753.08
234.434	21711.2
234.507	21670.42
234.579	21617.35
234.651	21583.85
234.723	21570.93
234.795	21547.99
234.867	21521.04
234.939	21522.59
235.012	21494.39
235.084	21466.24
235.156	21457.03
235.228	21417.61
235.3	21381.36
235.372	21360.54
235.444	21350.85
235.516	21283.76
235.588	21255.66
235.66	21232.14
235.732	21198.4
235.804	21238.79
235.876	21213.78
235.948	21194.93
236.02	21167.9
236.092	21136.33
236.164	21105.19
236.236	21057.82
236.308	21015.16
236.38	20981.52
236.452	20924.22
236.524	20891.69
236.596	20873.28
236.668	20840.45
236.74	20820.84
236.812	20788.36
236.884	20768.36
236.956	20737.61
237.028	20706.57
237.1	20654.09
237.172	20639.82
237.244	20625.27
237.316	20546.03
237.388	20499.76
237.46	20462.51
237.532	20446.08
237.604	20413.98
237.675	20392.34
237.747	20371.19
237.819	20332.73
237.891	20297.07
237.963	20268.25
238.035	20228.15
238.107	20149.31
238.178	20134.47
238.25	20092.3
238.322	20081.99
238.394	20024.74
238.466	19984.3
238.538	19954.38
238.609	19932.93
238.681	19881.95
238.753	19828.26
238.825	19792.21
238.897	19773.03
238.968	19758.33
239.04	19704.6
239.112	19698.77
239.184	19653.33
239.255	19612.08
239.327	19586.1
239.399	19554.2
239.471	19520.42
239.542	19499.17
239.614	19489.77
239.686	19427.03
239.758	19399.41
239.829	19345.1
239.901	19316.38
239.973	19286.46
240.044	19260.24
240.116	19226.46
240.188	19185.21
240.259	19152.1
240.331	19113.94
240.403	19072.4
240.474	19013.17
240.546	18967.2
240.618	18909.66
240.689	18860.94
240.761	18824.03
240.833	18807.45
240.904	18767.07
240.976	18729.48
241.048	18698.73
241.119	18667.8
241.191	18641.29
241.262	18622.01
241.334	18583.56
241.405	18550.5
241.477	18502.89
241.549	18464.43
241.62	18424.87
241.692	18398.61
241.763	18375.96
241.835	18331.86
241.906	18309.98
241.978	18250.52
242.049	18241.5
242.121	18219.58
242.192	18207.82
242.264	18159.53
242.335	18097.08
242.407	18072.5
242.478	18039.25
242.55	18007.06
242.621	17957.23
242.693	17915.25
242.764	17876.27
242.836	17840.17
242.907	17805.91
242.979	17781.09
243.05	17747.11
243.122	17708.41
243.193	17669.14
243.264	17609.33
243.336	17573.43
243.407	17546.15
243.479	17546.44
243.55	17512.51
243.622	17480.85
243.693	17441.72
243.764	17422.15
243.836	17379.84
243.907	17347.45
243.978	17311.69
244.05	17278.87
244.121	17230.15
244.192	17203.45
244.264	17141.28
244.335	17097.86
244.407	17045.76
244.478	17017.71
244.549	16978.19
244.62	16932.69
244.692	16899.63
244.763	16877.94
244.834	16834.04
244.906	16783.05
244.977	16747.63
245.048	16727.63
245.119	16687.33
245.191	16644.44
245.262	16591.38
245.333	16579.86
245.405	16538.79
245.476	16508.33
245.547	16478.02
245.618	16458.02
245.689	16421.97
245.761	16404.86
245.832	16379.17
245.903	16357.72
245.974	16326.2
246.045	16288.12
246.117	16278.19
246.188	16226.72
246.259	16174.66
246.33	16148.01
246.401	16110.51
246.473	16061.59
246.544	16011.13
246.615	15983.65
246.686	15944.23
246.757	15926.25
246.828	15884.12
246.899	15868.07
246.97	15811.92
247.042	15775.53
247.113	15748.63
247.184	15738.56
247.255	15700.34
247.326	15669.25
247.397	15625.05
247.468	15598.73
247.539	15575.16
247.61	15530.53
247.681	15518.09
247.752	15511.1
247.823	15462.51
247.894	15441.74
247.965	15398.6
248.037	15368.08
248.108	15319.3
248.179	15292.65
248.25	15266.23
248.321	15246.18
248.392	15201.69
248.463	15203.52
248.534	15162.21
248.605	15146.84
248.675	15113.82
248.746	15090.68
248.817	15072.22
248.888	15058.63
248.959	15002.81
249.03	14980.35
249.101	14955.38
249.172	14904.95
249.243	14844.46
249.314	14836.65
249.385	14801.27
249.456	14787.43
249.527	14756.87
249.598	14731.03
249.669	14702.4
249.739	14674.1
249.81	14647.74
249.881	14601.03
249.952	14568.3
250.023	14538.31
250.094	14485.53
250.165	14437.76
250.235	14405.65
250.306	14370.13
250.377	14321.87
250.448	14296.85
250.519	14240.07
250.59	14227.2
250.66	14208.25
250.731	14199.38
250.802	14171.57
250.873	14154.65
250.944	14128.95
251.014	14096.9
251.085	14104.51
251.156	14080.46
251.227	14070.72
251.297	14064.16
251.368	14059.1
251.439	14046.81
251.51	14038.37
251.58	14011.76
251.651	13987.85
251.722	13979.18
251.792	13941.87
251.863	13923.93
251.934	13921.62
252.005	13933.38
252.075	13904.89
252.146	13893.66
252.217	13885.95
252.287	13872.74
252.358	13842.46
252.429	13840.92
252.499	13810.17
252.57	13783.89
252.641	13773.29
252.711	13745.91
252.782	13694.66
252.852	13694.66
252.923	13665.21
252.994	13639.85
253.064	13618.59
253.135	13580.56
253.205	13554.72
253.276	13555.73
253.347	13557.37
253.417	13529.84
253.488	13505.55
253.558	13480.24
253.629	13451.89
253.699	13431.6
253.77	13418.34
253.841	13391.93
253.911	13365.85
253.982	13351
254.052	13334.32
254.123	13316.53
254.193	13294.26
254.264	13320.05
254.334	13279.36
254.405	13247.64
254.475	13219.15
254.546	13203.2
254.616	13204.88
254.687	13184.83
254.757	13161.55
254.827	13127.61
254.898	13106.35
254.968	13083.12
255.039	13045.08
255.109	13037.08
255.18	13009.89
255.25	12962.21
255.321	12950.02
255.391	12911.98
255.461	12908.75
255.532	12857.95
255.602	12824.92
255.673	12782.21
255.743	12738.97
255.813	12687.54
255.884	12680.74
255.954	12670.47
256.024	12666.57
256.095	12643.43
256.165	12608.48
256.235	12600.63
256.306	12571.65
256.376	12567.17
256.446	12555.75
256.517	12548.03
256.587	12540.08
256.657	12517.47
256.728	12503.01
256.798	12483.54
256.868	12460.69
256.938	12429.89
257.009	12425.21
257.079	12414.94
257.149	12429.69
257.219	12392.14
257.29	12388.29
257.36	12345.39
257.43	12331.21
257.5	12287.25
257.571	12262.91
257.641	12245.8
257.711	12206.56
257.781	12202.75
257.852	12178.31
257.922	12131.6
257.992	12113
258.062	12087.06
258.132	12077.57
258.202	12052.65
258.273	12037.08
258.343	12037.47
258.413	12017.17
258.483	11998.37
258.553	11965.4
258.623	11926.84
258.693	11915.51
258.764	11913.63
258.834	11917.73
258.904	11900.28
258.974	11872.47
259.044	11856.57
259.114	11841.34
259.184	11822.83
259.254	11803.6
259.324	11765.08
259.394	11759.35
259.464	11761.76
259.535	11741.47
259.605	11717.56
259.675	11694.38
259.745	11679.92
259.815	11653.74
259.885	11624.54
259.955	11634.71
260.025	11611.29
260.095	11600.2
260.165	11582.7
260.235	11581.26
260.305	11548.48
260.375	11515.66
260.445	11523.85
260.515	11522.36
260.585	11525.83
260.655	11504.96
260.725	11488.67
260.795	11478.89
260.865	11485.73
260.934	11456.24
261.004	11445.1
261.074	11427.61
261.144	11426.31
261.214	11420.38
261.284	11398.74
261.354	11393.63
261.424	11366.11
261.494	11369.34
261.564	11350.44
261.634	11341.62
261.703	11298.88
261.773	11292.56
261.843	11286.68
261.913	11274.25
261.983	11241.77
262.053	11228.9
262.123	11219.31
262.192	11195.93
262.262	11190.54
262.332	11154.68
262.402	11151.74
262.472	11136.7
262.541	11099.5
262.611	11097.05
262.681	11067.94
262.751	11067.26
262.821	11053.38
262.89	11020.32
262.96	11012.23
263.03	11023.02
263.1	11019.79
263.169	11012.47
263.239	11009.05
263.309	11011.99
263.379	10999.12
263.448	10979.75
263.518	10962.59
263.588	10945.29
263.657	10952.23
263.727	10948.14
263.797	10933.78
263.867	10903.56
263.936	10875.28
264.006	10874.22
264.076	10856.63
264.145	10835.52
264.215	10810.8
264.285	10808.15
264.354	10773.46
264.424	10749.22
264.494	10710.72
264.563	10681.09
264.633	10688.94
264.702	10676.94
264.772	10637.52
264.842	10618.01
264.911	10605.92
264.981	10582.26
265.05	10569.73
265.12	10547.23
265.19	10534.12
265.259	10527.13
265.329	10528.29
265.398	10520.2
265.468	10536.77
265.537	10512.68
265.607	10510.56
265.676	10512.39
265.746	10498.13
265.815	10502.75
265.885	10484.78
265.955	10463.54
266.024	10441.28
266.094	10393.77
266.163	10388.96
266.232	10399.46
266.302	10382.36
266.371	10380.53
266.441	10362.12
266.51	10353.64
266.58	10338.75
266.649	10314.95
266.719	10314.47
266.788	10305.99
266.858	10307.05
266.927	10274.14
266.996	10272.8
267.066	10263.83
267.135	10231.89
267.205	10221.97
267.274	10208.43
267.343	10209.78
267.413	10198.94
267.482	10210.26
267.552	10219.61
267.621	10186.51
267.69	10150.77
267.76	10142
267.829	10128.94
267.898	10118.68
267.968	10093.64
268.037	10085.4
268.106	10086.89
268.176	10064.15
268.245	10047.87
268.314	10032.5
268.384	10030.72
268.453	10017.71
268.522	10008.75
268.592	10015.4
268.661	9996.08
268.73	9988.28
268.799	9973.59
268.869	9981.49
268.938	9949.98
269.007	9930.19
269.076	9920.89
269.146	9919.06
269.215	9912.85
269.284	9920.7
269.353	9908.08
269.422	9905
269.492	9888.67
269.561	9846.72
269.63	9835.35
269.699	9814.68
269.768	9796.77
269.838	9787.95
269.907	9784.68
269.976	9755.92
270.045	9722.79
270.114	9715.13
270.183	9701.07
270.253	9690.04
270.322	9657.53
270.391	9649.1
270.46	9658.54
270.529	9659.26
270.598	9661.43
270.667	9649.87
270.736	9625.79
270.806	9616.83
270.875	9614.81
270.944	9601.8
271.013	9623.96
271.082	9616.68
271.151	9615.34
271.22	9593.91
271.289	9583.46
271.358	9566.45
271.427	9562.22
271.496	9554.56
271.565	9544.3
271.634	9538.33
271.703	9570.12
271.772	9577.68
271.841	9564.68
271.91	9536.94
271.979	9530.68
272.048	9503.95
272.117	9497.45
272.186	9480.26
272.255	9485.7
272.324	9483.82
272.393	9479.2
272.462	9463.16
272.531	9455.7
272.6	9443.51
272.669	9446.64
272.738	9435.23
272.807	9429.12
272.876	9412.26
272.945	9437.35
273.013	9442.12
273.082	9442.07
273.151	9381.73
273.22	9373.2
273.289	9365.5
273.358	9382.5
273.427	9367.09
273.496	9371.86
273.564	9375.18
273.633	9377.01
273.702	9353.75
273.771	9341.81
273.84	9334.35
273.909	9328.66
273.977	9325
274.046	9310.08
274.115	9316.24
274.184	9295.88
274.253	9286.63
274.322	9301.7
274.39	9270.31
274.459	9252.15
274.528	9226.1
274.597	9225.62
274.665	9221.48
274.734	9230.53
274.803	9205.93
274.872	9198.51
274.94	9177.42
275.009	9234.27
275.078	9219.1
275.147	9214.53
275.215	9212.26
275.284	9219.29
275.353	9207.98
275.421	9183.33
275.49	9205.19
275.559	9192.33
275.627	9183.04
275.696	9176.59
275.765	9169.56
275.833	9164.22
275.902	9160.61
275.971	9179.57
276.039	9200.81
276.108	9210.15
276.177	9206.49
276.245	9197.15
276.314	9194.7
276.383	9206.15
276.451	9134.14
276.52	9142.62
276.588	9161.11
276.657	9162.55
276.725	9153.88
276.794	9158.36
276.863	9169.77
276.931	9142.37
277	9149.89
277.068	9163.22
277.137	9180.41
277.205	9178.15
277.274	9189.12
277.342	9201.3
277.411	9172.23
277.48	9154.41
277.548	9137.08
277.617	9140.3
277.685	9135.73
277.754	9138.62
277.822	9123.55
277.89	9143.05
277.959	9137.13
278.027	9112.38
278.096	9098.42
278.164	9130.06
278.233	9120
278.301	9107.48
278.37	9109.65
278.438	9095.78
278.507	9094.19
278.575	9064.15
278.643	9055.05
278.712	9038.73
278.78	9021.5
278.849	9035.36
278.917	9044.22
278.985	9046.62
279.054	9048.79
279.122	9061.93
279.191	9058.32
279.259	9056.35
279.327	9026.02
279.396	9036.95
279.464	9035.31
279.532	9045.32
279.601	9035.3
279.669	9025.73
279.737	9040.12
279.806	9049.89
279.874	9061.06
279.942	9057.11
280.011	9057.88
280.079	9068.28
280.147	9084.65
280.215	9091.2
280.284	9086.14
280.352	9070.21
280.42	9073.19
280.488	9057.07
280.557	9050.85
280.625	9054.32
280.693	9053.7
280.761	9062.6
280.83	9048.35
280.898	9058.8
280.966	9031.07
281.034	8993.27
281.102	8986.83
281.171	8980.33
281.239	8988.42
281.307	8976.38
281.375	8967.28
281.443	8998.96
281.512	8994.68
281.58	9001.22
281.648	8983.56
281.716	8984.09
281.784	8987.36
281.852	8978.65
281.92	8974.31
281.989	8977.97
282.057	8965.7
282.125	9012.35
282.193	9008.74
282.261	9005.76
282.329	8995.46
282.397	9006.67
282.465	9009.22
282.533	9024.19
282.601	9009.85
282.67	8985.01
282.738	8977.83
282.806	8990.83
282.874	8971.43
282.942	8975.86
283.01	8965.99
283.078	8972.96
283.146	8964.59
283.214	8973.64
283.282	8975.18
283.35	8992.85
283.418	8991.36
283.486	8987.94
283.554	8945.08
283.622	8945.18
283.69	8940.42
283.758	8938.83
283.826	8942.53
283.894	8960.92
283.962	8979.99
284.03	8996.02
284.098	8994.24
284.165	8989.09
284.233	8986.54
284.301	8978.45
284.369	8970.94
284.437	8963.77
284.505	8965.45
284.573	8990.63
284.641	8978.11
284.709	8987.88
284.777	8966.12
284.845	8967.62
284.912	8973.97
284.98	8979.02
285.048	8973.01
285.116	8979.36
285.184	8990.82
285.252	8987.54
285.319	8967.37
285.387	8955
285.455	8941.04
285.523	8945.81
285.591	8942.68
285.659	8944.94
285.726	8957.89
285.794	8937.05
285.862	8938.4
285.93	8930.02
285.997	8920.68
286.065	8914.37
286.133	8899.16
286.201	8895.84
286.269	8883.47
286.336	8875.43
286.404	8867.49
286.472	8872.69
286.539	8850.74
286.607	8835.09
286.675	8839.43
286.743	8849.87
286.81	8845.83
286.878	8860.7
286.946	8859.45
287.013	8862.43
287.081	8864.12
287.149	8847.61
287.216	8874.51
287.284	8863.83
287.352	8866.57
287.419	8862
287.487	8881.59
287.555	8888.04
287.622	8889.29
287.69	8897.77
287.758	8918.85
287.825	8911.68
287.893	8901.76
287.96	8913.36
288.028	8927.23
288.096	8934.21
288.163	8932.86
288.231	8920.82
288.298	8918.51
288.366	8929.63
288.433	8920.78
288.501	8914.04
288.569	8917.99
288.636	8900.94
288.704	8917.17
288.771	8923.28
288.839	8910.09
288.906	8900.22
288.974	8904.51
289.041	8899.94
289.109	8888.14
289.176	8895.8
289.244	8904.36
289.311	8917.8
289.379	8930.89
289.446	8932.04
289.514	8932.86
289.581	8934.98
289.649	8936.18
289.716	8939.84
289.783	8928.34
289.851	8955.39
289.918	8948.07
289.986	8955.49
290.053	8969.25
290.121	8971.42
290.188	8974.93
290.255	9006.75
290.323	8997.99
290.39	8994
290.458	9004.54
290.525	9018.4
290.592	9003.57
290.66	9002.99
290.727	8997.55
290.794	9009.16
290.862	9009.25
290.929	9006.7
290.996	9002.61
291.064	9006.89
291.131	9019.46
291.198	9034.87
291.266	9027.45
291.333	9032.36
291.4	9038.86
291.468	9055.57
291.535	9047.72
291.602	9051.33
291.669	9043.82
291.737	9048.49
291.804	9051.52
291.871	9064.04
291.938	9074.34
292.006	9108.24
292.073	9123.12
292.14	9134.72
292.207	9126.83
292.275	9131.45
292.342	9135.97
292.409	9168.52
292.476	9198.86
292.543	9183.59
292.611	9180.08
292.678	9201.55
292.745	9228.23
292.812	9242.33
292.879	9233.67
292.946	9239.25
293.014	9253.5
293.081	9264.67
293.148	9279.31
293.215	9297.32
293.282	9297.22
293.349	9308.3
293.416	9285.37
293.484	9300.54
293.551	9312.72
293.618	9332.85
293.685	9354.71
293.752	9349.71
293.819	9338.92
293.886	9319.85
293.953	9330.73
294.02	9350.52
294.087	9356.4
294.154	9348.07
294.221	9367.19
294.288	9373.74
294.356	9393.29
294.423	9399.11
294.49	9389.19
294.557	9404.94
294.624	9391.84
294.691	9406.33
294.758	9406.62
294.825	9413.27
294.892	9401.57
294.959	9400.7
295.026	9406.86
295.093	9397.57
295.16	9404.5
295.226	9405.85
295.293	9435.27
295.36	9444.47
295.427	9451.79
295.494	9463.16
295.561	9476.4
295.628	9495.43
295.695	9510.5
295.762	9511.85
295.829	9522.93
295.896	9541.32
295.963	9552.5
296.03	9566.17
296.096	9574.31
296.163	9585.77
296.23	9602.63
296.297	9619.39
296.364	9618.57
296.431	9621.36
296.498	9620.83
296.564	9643.66
296.631	9652.71
296.698	9639.03
296.765	9653.48
296.832	9644.23
296.899	9629.26
296.965	9653.24
297.032	9629.69
297.099	9649.96
297.166	9657.86
297.233	9655.7
297.299	9649.19
297.366	9649.34
297.433	9650.88
297.5	9660.51
297.566	9662.2
297.633	9657
297.7	9660.32
297.767	9656.52
297.833	9660.46
297.9	9666
297.967	9653.14
298.033	9664.13
298.1	9702.23
298.167	9694.47
298.234	9697.8
298.3	9708.15
298.367	9695.82
298.434	9705.64
298.5	9687.68
298.567	9688.69
298.634	9687.87
298.7	9706.17
298.767	9706.32
298.834	9721.92
298.9	9717.25
298.967	9708.96
299.033	9723.22
299.1	9740.51
299.167	9761.03
299.233	9753.66
299.3	9761.27
299.366	9777.16
299.433	9796.38
299.5	9757.75
299.566	9768.06
299.633	9785.54
299.699	9801.53
299.766	9799.61
299.832	9802.55
299.899	9816.9
299.965	9825.71
300.032	9825.38
300.099	9828.17
300.165	9837.85
300.232	9835.68
300.298	9840.74
300.365	9856.73
300.431	9860.39
300.498	9848.69
300.564	9852.49
300.631	9864.15
300.697	9885.97
300.763	9881.92
300.83	9868.34
300.896	9890.54
300.963	9895.89
301.029	9902.54
301.096	9905.23
301.162	9918.05
301.229	9912.22
301.295	9900.8
301.361	9907.84
301.428	9909.23
301.494	9898.68
301.561	9898.49
301.627	9900.66
301.693	9901.86
301.76	9904.75
301.826	9894.2
301.892	9906.15
301.959	9918.63
302.025	9921.71
302.092	9913.33
302.158	9923.06
302.224	9937.07
302.291	9924.36
302.357	9923.78
302.423	9917.9
302.49	9911.79
302.556	9923.59
302.622	9925.95
302.688	9938.47
302.755	9943.24
302.821	9948.78
302.887	9960.63
302.954	9958.32
303.02	9963.66
303.086	9975.71
303.152	9970.21
303.219	9966.31
303.285	9982.26
303.351	9987.37
303.417	9992.23
303.483	9984.43
303.55	9980.62
303.616	9973.59
303.682	9974.84
303.748	9965.83
303.815	9976.82
303.881	9986.6
303.947	9972
304.013	9970.89
304.079	9963.86
304.145	9948.35
304.212	9949.12
304.278	9942.28
304.344	9938.33
304.41	9927.78
304.476	9912.22
304.542	9906.35
304.608	9916.9
304.674	9885.73
304.741	9879.56
304.807	9878.02
304.873	9884.43
304.939	9902.44
305.005	9882.89
305.071	9887.12
305.137	9893.24
305.203	9874.5
305.269	9869.25
305.335	9882.5
305.401	9880.72
305.467	9877.06
305.533	9886.35
305.599	9894.83
305.666	9906.44
305.732	9912.03
305.798	9925.51
305.864	9952.25
305.93	9958.7
305.996	9960.05
306.062	9964.19
306.128	9962.22
306.194	9948.54
306.259	9945.26
306.325	9935.25
306.391	9945.65
306.457	9948.15
306.523	9948.11
306.589	9969.45
306.655	9959.52
306.721	9935.73
306.787	9925.61
306.853	9938.91
306.919	9919.45
306.985	9909.91
307.051	9898.74
307.117	9891.51
307.183	9880.24
307.248	9849.27
307.314	9850.95
307.38	9855.53
307.446	9866.46
307.512	9854.08
307.578	9863.23
307.644	9862.66
307.709	9865.93
307.775	9869.69
307.841	9865.74
307.907	9864
307.973	9842.38
308.039	9846.47
308.104	9860.34
308.17	9862.89
308.236	9849.36
308.302	9850.71
308.368	9842.28
308.433	9841.36
308.499	9836.26
308.565	9827.54
308.631	9831.78
308.696	9815.69
308.762	9805
308.828	9794.5
308.894	9774.37
308.959	9748.07
309.025	9734.73
309.091	9725.92
309.156	9713.68
309.222	9715.61
309.288	9707.52
309.354	9685.22
309.419	9681.8
309.485	9663.16
309.551	9662.63
309.616	9647.36
309.682	9649.82
309.748	9642.4
309.813	9640.23
309.879	9627.04
309.945	9616.78
310.01	9605.9
310.076	9609.56
310.141	9596.89
310.207	9586.49
310.273	9590.68
310.338	9593.81
310.404	9574.69
310.469	9564.09
310.535	9554.17
310.601	9535.39
310.666	9539.58
310.732	9551.14
310.797	9537.75
310.863	9530.09
310.928	9528.89
310.994	9528.5
311.059	9526.24
311.125	9523.59
311.191	9532.64
311.256	9520.08
311.322	9525.13
311.387	9509.63
311.453	9924.07
311.518	9891.57
311.584	9889.64
311.649	9891.47
311.715	9883.58
311.78	9893.78
311.846	9875.82
311.911	9884.83
311.976	9885.17
312.042	9868.45
312.107	9851.12
312.173	9838.98
312.238	9829.69
312.304	9821.31
312.369	9819.1
312.434	9805.52
312.5	9797.57
312.565	9760.2
312.631	9761.79
312.696	9752.69
312.761	9755.77
312.827	9326.98
312.892	9374.02
312.958	9370.65
313.023	9367.18
313.088	9371.85
313.154	9355.1
313.219	9350.19
313.284	9336.51
313.35	9331.46
313.415	9319.56
313.48	9316.96
313.546	9323.99
313.611	9335.4
313.676	9327.07
313.741	9313.59
313.807	9325.2
313.872	9328.13
313.937	9337.23
314.003	9352.98
314.068	9353.46
314.133	9359.82
314.198	9350.33
314.264	9325.05
314.329	9319.08
314.394	9318.6
314.459	9313.44
314.525	9336.41
314.59	9331.89
314.655	9319.8
314.72	9325.39
314.785	9336.94
314.851	9334.73
314.916	9310.7
314.981	9294.23
315.046	9284.8
315.111	9275.31
315.176	9253.93
315.242	9259.57
315.307	9257.59
315.372	9237.08
315.437	9227.26
315.502	9219.75
315.567	9231.54
315.632	9221.14
315.698	9221.62
315.763	9213.97
315.828	9207.13
315.893	9201.5
315.958	9205.64
316.023	9197.65
316.088	9178.14
316.153	9149.64
316.218	9140.5
316.283	9130.24
316.348	9109.74
316.413	9107.57
316.479	9095.63
316.544	9068.68
316.609	9035.22
316.674	9000.61
316.739	8966.72
316.804	8936.16
316.869	8899.09
316.934	8859.62
316.999	8830.5
317.064	8778.27
317.129	8732.45
317.194	8693.56
317.259	8638.64
317.324	8582.1
317.389	8539.22
317.454	8497.98
317.518	8463.67
317.583	8438.64
317.648	8414.73
317.713	8382.2
317.778	8314.21
317.843	8286.49
317.908	8245.7
317.973	8207.93
318.038	8177.48
318.103	8144.24
318.168	8113.69
318.233	8087.9
318.297	8036.34
318.362	7995.69
318.427	7955.1
318.492	7935.33
318.557	7885.99
318.622	7861.99
318.687	7840.5
318.751	7794.1
318.816	7767.8
318.881	7734.33
318.946	7676.67
319.011	7627.58
319.075	7589.79
319.14	7564.26
319.205	7514.16
319.27	7483.02
319.335	7439.56
319.399	7397.69
319.464	7372.55
319.529	7316.65
319.594	7274.01
319.658	7245.61
319.723	7201.45
319.788	7170.93
319.853	7114.32
319.917	7089.62
319.982	7035.61
320.047	6997.7
320.112	6976.03
320.176	6922.27
320.241	6890.51
320.306	6862.12
320.37	6821.2
320.435	6786.52
320.5	6757.94
320.564	6722.49
320.629	6675.68
320.694	6638.41
320.758	6596.26
320.823	6548.38
320.888	6524.18
320.952	6474.2
321.017	6433.92
321.082	6395.18
321.146	6363.26
321.211	6331.48
321.275	6288.19
321.34	6242.07
321.405	6198.3
321.469	6150.99
321.534	6108.58
321.598	6053.92
321.663	6028.44
321.727	6005.74
321.792	5952.83
321.857	5906.34
321.921	5863.36
321.986	5827.11
322.05	5769.04
322.115	5731.4
322.179	5684.22
322.244	5625.73
322.308	5587.81
322.373	5538.33
322.437	5499.89
322.502	5469.63
322.566	5420.73
322.631	5381.67
322.695	5342.14
322.76	5296.67
322.824	5260.92
322.889	5217.04
322.953	5170.73
323.018	5095.55
323.082	5021.79
323.146	4973.62
323.211	4918.88
323.275	4874.73
323.34	4826.24
323.404	4796.13
323.468	4754.57
323.533	4711.44
323.597	4667.24
323.662	4614.64
323.726	4580.18
323.79	4531.46
323.855	4467.27
323.919	4419.52
323.983	4376.7
324.048	4310.82
324.112	4484.05
324.177	4351.3
324.241	4129.08
324.305	3912.22
324.37	3699.62
324.434	3494.96
324.498	3450.76
324.562	3400.32
324.627	3339.53
324.691	3283.23
324.755	3213.36
324.82	3130.84
324.884	3050.87
324.948	2976.12
325.012	2883.32
325.077	2753.56
