Data from 20250703_urea_0.1M_MAYP1162681_01-31-05-607.txt Node
Date: Fri Jul 04 01:31:05 BST 2025
User: adleo
Spectrometer: MAYP116268
Trigger mode: 0
Integration Time (sec): 1.000000E0
Scans to average: 1
Electric dark correction enabled: true
Nonlinearity correction enabled: true
Boxcar width: 10
XAxis mode: Wavelengths
Number of Pixels in Spectrum: 2068
>>>>>Begin Spectral Data<<<<<
179.565	1329.57
179.642	1395.81
179.718	1447.95
179.795	1491.78
179.871	1526.44
179.948	1547.59
180.024	1573.36
180.101	1599.21
180.177	1614.3
180.254	1640.51
180.33	1662.7
180.407	1725.39
180.483	1828.91
180.56	1928.98
180.636	2022.33
180.712	2006.15
180.789	2020.04
180.865	2033.11
180.942	2041.34
181.018	2052.47
181.095	2068.03
181.171	2076.07
181.248	2075.31
181.324	2091.48
181.4	2096.53
181.477	2108.75
181.553	2122.73
181.63	2142.1
181.706	2158.32
181.782	2167.78
181.859	2165.6
181.935	2173.64
182.011	2169.31
182.088	2188.86
182.164	2211.19
182.24	2224.31
182.317	2236.16
182.393	2233.78
182.469	2250.86
182.546	2270.18
182.622	2274.56
182.698	2270.28
182.775	2281.41
182.851	2297.02
182.927	2286.6
183.003	2283.55
183.08	2279.46
183.156	2289.5
183.232	2287.69
183.308	2277.32
183.385	2285.79
183.461	2305.68
183.537	2307.44
183.613	2321.53
183.69	2312.72
183.766	2300.39
183.842	2309.86
183.918	2315.38
183.995	2329.71
184.071	2331.33
184.147	2319.38
184.223	2306.44
184.299	2319.1
184.375	2306.35
184.452	2313.16
184.528	2364.43
184.604	2377.32
184.68	2389.98
184.756	2397.27
184.832	2403.5
184.908	2406.64
184.985	2407.93
185.061	2391.94
185.137	2402.17
185.213	2390.8
185.289	2392.51
185.365	2385.09
185.441	2383.04
185.517	2401.85
185.593	2396.9
185.669	2394.71
185.745	2411.09
185.822	2431.5
185.898	2422.78
185.974	2433.2
186.05	2426.06
186.126	2393.36
186.202	2386.17
186.278	2381.79
186.354	2371.04
186.43	2377.46
186.506	2376.32
186.582	2378.32
186.658	2385.41
186.734	2364.19
186.81	2367.04
186.886	2368.71
186.962	2383.65
187.038	2379.61
187.114	2368.46
187.19	2377.46
187.266	2366.66
187.341	2365.13
187.417	2358.47
187.493	2361.75
187.569	2365.51
187.645	2360.85
187.721	2348.99
187.797	2357.94
187.873	2363.13
187.949	2358.85
188.025	2350.04
188.101	2353.03
188.176	2356.18
188.252	2349.28
188.328	2357.32
188.404	2358.41
188.48	2353.56
188.556	2345.56
188.632	2342.28
188.707	2342.89
188.783	2338.66
188.859	2334.04
188.935	2323.33
189.011	2331.76
189.086	2321.48
189.162	2312.15
189.238	2307.15
189.314	2302.96
189.39	2296.82
189.465	2289.25
189.541	2304.91
189.617	2288.12
189.693	2284.78
189.768	2288.07
189.844	2314.35
189.92	2304.88
189.996	2313.79
190.071	2325.16
190.147	2323.21
190.223	2336.92
190.298	2329.73
190.374	2318.26
190.45	2330.87
190.526	2337.58
190.601	2331.53
190.677	2332.39
190.753	2363.54
190.828	2368.06
190.904	2384.96
190.98	2398.29
191.055	2408.24
191.131	2402.05
191.207	2424.66
191.282	2431.6
191.358	2420.51
191.433	2405.51
191.509	2420.83
191.585	2418.59
191.66	2419.88
191.736	2429.07
191.811	2417.5
191.887	2436.03
191.963	2460.64
192.038	2467.64
192.114	2468.26
192.189	2469.97
192.265	2466.78
192.34	2438.63
192.416	2437.73
192.491	2431.68
192.567	2436.97
192.642	2437.49
192.718	2438.87
192.793	2424.5
192.869	2423.93
192.944	2428.21
193.02	2436.92
193.095	2437.92
193.171	2444.3
193.246	2443.11
193.322	2440.16
193.397	2444.78
193.473	2427.16
193.548	2404.87
193.624	2411.3
193.699	2410.49
193.775	2428.25
193.85	2430.4
193.925	2443.87
194.001	2442.35
194.076	2434.97
194.152	2419.83
194.227	2414.97
194.302	2401.88
194.378	2408.07
194.453	2403.5
194.529	2417.74
194.604	2401.6
194.679	2396.79
194.755	2375.8
194.83	2391.14
194.905	2388.85
194.981	2394.61
195.056	2390.52
195.131	2396.76
195.207	2395.56
195.282	2384.47
195.357	2364.9
195.433	2379.75
195.508	2367.66
195.583	2374.66
195.659	2389.85
195.734	2400.65
195.809	2400.04
195.884	2407.32
195.96	2408.12
196.035	2427.07
196.11	2418.6
196.185	2430.88
196.261	2435.26
196.336	2467.68
196.411	2451.87
196.486	2457.67
196.561	2454.2
196.637	2462.24
196.712	2482.82
196.787	2482.2
196.862	2500.81
196.937	2514.72
197.013	2523.29
197.088	2533.48
197.163	2559.54
197.238	2578.79
197.313	2578.36
197.388	2593.37
197.464	2629.05
197.539	2640.62
197.614	2629.91
197.689	2647.72
197.764	2664.3
197.839	2686.64
197.914	2679.54
197.989	2704.08
198.065	2717.32
198.14	2766.13
198.215	2792.24
198.29	2805.93
198.365	2821.22
198.44	2832.42
198.515	2860.68
198.59	2877.65
198.665	2906.87
198.74	2914.45
198.815	2916.36
198.89	2943.19
198.965	2973.66
199.04	2969.09
199.115	2985.43
199.19	3033.77
199.265	3035.67
199.34	3047.4
199.415	3082.85
199.49	3108.06
199.565	3117.74
199.64	3143.78
199.715	3144.26
199.79	3154.7
199.865	3157.42
199.94	3158.23
200.015	3190.91
200.09	3193.1
200.165	3199.73
200.24	3206.55
200.315	3249.38
200.39	3264.74
200.464	3270.51
200.539	3274.43
200.614	3293.7
200.689	3320.51
200.764	3330.25
200.839	3348.52
200.914	3355.91
200.989	3345.98
201.063	3358.96
201.138	3340.27
201.213	3339.22
201.288	3318.47
201.363	3321.14
201.438	3324.1
201.512	3338.36
201.587	3321.32
201.662	3328.72
201.737	3343.32
201.812	3352.29
201.886	3316.28
201.961	3328.46
202.036	3316.53
202.111	3313
202.186	3280.05
202.26	3264.3
202.335	3237.15
202.41	3232.53
202.485	3215.64
202.559	3195.32
202.634	3171.47
202.709	3183.48
202.784	3168.51
202.858	3172.99
202.933	3156.44
203.008	3153.72
203.082	3137.17
203.157	3140.85
203.232	3101.47
203.306	3081.57
203.381	3052.19
203.456	3033.97
203.53	3013.35
203.605	2999.38
203.68	2982.5
203.754	2987.6
203.829	2977.34
203.904	2970.19
203.978	2970.05
204.053	2987.64
204.127	2988.17
204.202	3001.81
204.277	2999.81
204.351	3009.1
204.426	3020.36
204.5	3031.38
204.575	3016.98
204.65	3055.67
204.724	3071.28
204.799	3105.94
204.873	3129.56
204.948	3158.04
205.022	3177.83
205.097	3203.8
205.171	3254.27
205.246	3302.54
205.32	3336.93
205.395	3380.7
205.469	3411.13
205.544	3461.33
205.618	3487.97
205.693	3554.87
205.767	3588.01
205.842	3666.02
205.916	3718.32
205.991	3762.7
206.065	3834.71
206.14	3911.26
206.214	3967.97
206.289	4026.26
206.363	4107
206.438	4183.06
206.512	4265.36
206.586	4359.14
206.661	4445.96
206.735	4501.3
206.81	4583.03
206.884	4679.1
206.958	4746.91
207.033	4850.61
207.107	4945.66
207.181	5072.56
207.256	5157.7
207.33	5280
207.405	5389.34
207.479	5505.48
207.553	5613.45
207.628	5689.19
207.702	5803.97
207.776	5903.46
207.851	6013.41
207.925	6133.82
207.999	6232.05
208.073	6336.78
208.148	6448.15
208.222	6548.03
208.296	6694.01
208.371	6825.28
208.445	6962.43
208.519	7113.31
208.593	7241.54
208.668	7350.45
208.742	7466.9
208.816	7581.63
208.89	7707.81
208.965	7819.93
209.039	7941.86
209.113	8085.57
209.187	8230.45
209.261	8346.81
209.336	8491.3
209.41	8630.85
209.484	8749.92
209.558	8900.62
209.632	9034.76
209.707	9166.51
209.781	9312.38
209.855	9453.33
209.929	9590.7
210.003	9715.86
210.077	9838.1
210.151	10017.59
210.226	10176.98
210.3	10335.45
210.374	10481.98
210.448	10605.51
210.522	10740.9
210.596	10873.98
210.67	10999.07
210.744	11172.49
210.818	11324.57
210.892	11459.7
210.966	11573.43
211.041	11711.89
211.115	11825.73
211.189	11971.87
211.263	12103.78
211.337	12218.98
211.411	12347.39
211.485	12446.3
211.559	12566.47
211.633	12669.91
211.707	12742.89
211.781	12866.3
211.855	12932.05
211.929	13038.87
212.003	13125.25
212.077	13239.11
212.151	13358.86
212.225	13468
212.299	13557.03
212.373	13649.88
212.447	13744.65
212.52	13877.41
212.594	13978.78
212.668	14089.99
212.742	14164.71
212.816	14263.63
212.89	14353.39
212.964	14449.7
213.038	14557.05
213.112	14669.75
213.186	14791.47
213.26	14864.02
213.333	14903.98
213.407	15000.43
213.481	15087.25
213.555	15204.82
213.629	15280.69
213.703	15356.37
213.777	15450.02
213.85	15519.67
213.924	15648.65
213.998	15748.33
214.072	15822.65
214.146	15889.55
214.219	15965.18
214.293	16049.48
214.367	16136.24
214.441	16239.67
214.515	16310.28
214.588	16368.36
214.662	16404.99
214.736	16461.62
214.81	16547.27
214.883	16628.72
214.957	16685.06
215.031	16749.89
215.105	16777.22
215.178	16834.86
215.252	16892.12
215.326	16930
215.4	16977.71
215.473	16986.29
215.547	17019.25
215.621	17073.37
215.694	17140.46
215.768	17182.48
215.842	17221.47
215.915	17253.96
215.989	17275.02
216.063	17315.3
216.136	17365.38
216.21	17423.06
216.284	17492.8
216.357	17546
216.431	17606.44
216.504	17676.02
216.578	17753.52
216.652	17836.46
216.725	17899.54
216.799	17971.83
216.873	18028.16
216.946	18083.87
217.02	18134.95
217.093	18184.64
217.167	18207.48
217.24	18248.73
217.314	18298.56
217.387	18349.6
217.461	18403.04
217.535	18475.23
217.608	18518.94
217.682	18571.8
217.755	18633.58
217.829	18668.18
217.902	18724.18
217.976	18775.07
218.049	18823.3
218.123	18855.45
218.196	18895.59
218.27	18930.19
218.343	18952.98
218.417	19006.33
218.49	19051.14
218.563	19112.59
218.637	19158.61
218.71	19239.23
218.784	19294.94
218.857	19352.52
218.931	19404.23
219.004	19452.47
219.077	19504.9
219.151	19552.56
219.224	19590.97
219.298	19639.59
219.371	19698.63
219.444	19726.14
219.518	19767.06
219.591	19792.65
219.665	19871.59
219.738	19930.19
219.811	19961.46
219.885	20011.87
219.958	20055.72
220.031	20096.83
220.105	20135.82
220.178	20190.61
220.251	20217.79
220.325	20259.33
220.398	20298.8
220.471	20345.55
220.544	20389.07
220.618	20406.61
220.691	20450.46
220.764	20494.37
220.838	20535.62
220.911	20558.47
220.984	20617.79
221.057	20667.96
221.131	20724.88
221.204	20718.61
221.277	20774.91
221.35	20849.32
221.424	20880.26
221.497	20916.07
221.57	20948.98
221.643	20994.96
221.716	21027.35
221.79	21050.97
221.863	21080.51
221.936	21108.51
222.009	21141.48
222.082	21176.95
222.155	21205.63
222.229	21249.49
222.302	21287.32
222.375	21301.98
222.448	21336.82
222.521	21355.77
222.594	21369.5
222.667	21378.32
222.74	21414.13
222.814	21427.1
222.887	21441.37
222.96	21476.12
223.033	21518.15
223.106	21556.08
223.179	21584.57
223.252	21611.9
223.325	21641.5
223.398	21671.81
223.471	21693.55
223.544	21713.51
223.617	21731.44
223.69	21749.32
223.763	21752.6
223.837	21770.63
223.91	21808.37
223.983	21815.07
224.056	21829.82
224.129	21849
224.202	21881.73
224.275	21886.89
224.348	21882.31
224.42	21877.58
224.493	21878.89
224.566	21875.75
224.639	21894.46
224.712	21892.53
224.785	21889.15
224.858	21906.99
224.931	21906.8
225.004	21917.79
225.077	21931.04
225.15	21923.62
225.223	21938.51
225.296	21977.61
225.369	21953.56
225.442	21945.41
225.514	21950.71
225.587	21960.4
225.66	21976.12
225.733	21979.88
225.806	22000.07
225.879	22005.38
225.952	22003.59
226.025	22017.33
226.097	22036.03
226.17	22033.38
226.243	22017.77
226.316	22028.52
226.389	22019.74
226.461	22030.68
226.534	22032.81
226.607	22033.1
226.68	22052.18
226.753	22048.47
226.825	22015.26
226.898	22046.4
226.971	22040.47
227.044	22052.52
227.117	22047.36
227.189	22050.45
227.262	22066.31
227.335	22054.3
227.407	22053.87
227.48	22067.7
227.553	22075.9
227.626	22067.9
227.698	22059.7
227.771	22066.5
227.844	22051.75
227.916	22053.67
227.989	22030.78
228.062	22024.99
228.134	22046.83
228.207	22044.28
228.28	22048.85
228.352	22051.6
228.425	22045.43
228.498	22058.4
228.57	22033.09
228.643	22042.88
228.716	22030.2
228.788	22015.35
228.861	22012.8
228.934	22020.41
229.006	22011.93
229.079	21992.7
229.151	21974.09
229.224	21954.04
229.296	21951.19
229.369	21974.48
229.442	21983.59
229.514	21966.91
229.587	21973.37
229.659	21942.13
229.732	21933.36
229.804	21933.5
229.877	21947
229.949	21956.06
230.022	21967.05
230.094	21970.19
230.167	21962.52
230.239	21940.35
230.312	21922.13
230.384	21936.93
230.457	21939.24
230.529	21930.04
230.602	21925.12
230.674	21923.48
230.747	21931.58
230.819	21939.97
230.892	21903.57
230.964	21893.01
231.037	21895.23
231.109	21875.28
231.181	21872.82
231.254	21853.83
231.326	21831.22
231.399	21807.98
231.471	21775.4
231.544	21733.75
231.616	21739.53
231.688	21728.06
231.761	21716.25
231.833	21701.5
231.905	21663.14
231.978	21644.53
232.05	21628.43
232.122	21614.45
232.195	21591.12
232.267	21590.45
232.339	21560.71
232.412	21556.23
232.484	21532.32
232.556	21507.5
232.629	21520.94
232.701	21509.09
232.773	21501.28
232.846	21478
232.918	21467.06
232.99	21455.78
233.062	21446.33
233.135	21415.1
233.207	21379.87
233.279	21372.35
233.351	21362.03
233.424	21347.38
233.496	21314.56
233.568	21319.52
233.64	21281.4
233.713	21265.49
233.785	21242.98
233.857	21225.58
233.929	21178.59
234.001	21164.37
234.074	21162.16
234.146	21113.24
234.218	21092.41
234.29	21063.35
234.362	21039.74
234.434	20996.31
234.507	20964.41
234.579	20925.95
234.651	20904.07
234.723	20899.97
234.795	20882.67
234.867	20860.59
234.939	20852.83
235.012	20828.3
235.084	20796.01
235.156	20784.16
235.228	20748.83
235.3	20713.55
235.372	20695.38
235.444	20689.94
235.516	20646.03
235.588	20625.84
235.66	20598.03
235.732	20558.12
235.804	20594.75
235.876	20582.37
235.948	20572.44
236.02	20542.51
236.092	20519.38
236.164	20494.51
236.236	20457.65
236.308	20420.54
236.38	20395.72
236.452	20356.01
236.524	20336.87
236.596	20330.95
236.668	20317.12
236.74	20288.01
236.812	20262.13
236.884	20233.26
236.956	20208.4
237.028	20172.78
237.1	20128.45
237.172	20113.41
237.244	20104.78
237.316	20023.09
237.388	19979.39
237.46	19938.13
237.532	19927.39
237.604	19887.05
237.675	19862.72
237.747	19836.31
237.819	19789.08
237.891	19741.95
237.963	19695.88
238.035	19660.94
238.107	19590.34
238.178	19566.97
238.25	19539.5
238.322	19531.31
238.394	19487.5
238.466	19444.37
238.538	19434.3
238.609	19405.97
238.681	19361.05
238.753	19313.59
238.825	19291.95
238.897	19275.28
238.968	19269.44
239.04	19222.94
239.112	19217.83
239.184	19180.58
239.255	19137.98
239.327	19115.29
239.399	19097.26
239.471	19083.14
239.542	19048.25
239.614	19036.01
239.686	18971.78
239.758	18946.19
239.829	18897.08
239.901	18870.58
239.973	18839.25
240.044	18799.69
240.116	18765.77
240.188	18724.9
240.259	18695.31
240.331	18643.94
240.403	18617.68
240.474	18555.85
240.546	18518.45
240.618	18463.95
240.689	18414.36
240.761	18387.28
240.833	18376.78
240.904	18334.75
240.976	18293.21
241.048	18267.24
241.119	18238.32
241.191	18218.95
241.262	18215.77
241.334	18173.94
241.405	18140.02
241.477	18104.84
241.549	18069.42
241.62	18036.45
241.692	18009.27
241.763	17980.31
241.835	17953.85
241.906	17909.81
241.978	17856.27
242.049	17838.82
242.121	17817.66
242.192	17809.47
242.264	17755.54
242.335	17695.02
242.407	17668.61
242.478	17623.4
242.55	17587.35
242.621	17538.78
242.693	17496.37
242.764	17445.38
242.836	17417
242.907	17383.6
242.979	17351.36
243.05	17316.51
243.122	17287.98
243.193	17255.36
243.264	17205.96
243.336	17171.11
243.407	17151.98
243.479	17148.9
243.55	17104.75
243.622	17072.56
243.693	17031.64
243.764	17018.05
243.836	16977.23
243.907	16933.71
243.978	16897.13
244.05	16866.28
244.121	16817.36
244.192	16793.36
244.264	16740.35
244.335	16700.44
244.407	16655.96
244.478	16630.03
244.549	16595.23
244.62	16548.43
244.692	16510.31
244.763	16485.68
244.834	16434.54
244.906	16378.01
244.977	16346.54
245.048	16333.19
245.119	16284.89
245.191	16237.9
245.262	16183.2
245.333	16175.48
245.405	16152.93
245.476	16132.25
245.547	16103.86
245.618	16079.33
245.689	16053.25
245.761	16031.8
245.832	16003.08
245.903	15979.89
245.974	15949.58
246.045	15920.71
246.117	15909.28
246.188	15865.47
246.259	15812.59
246.33	15785.36
246.401	15760.97
246.473	15712.92
246.544	15671.08
246.615	15663.08
246.686	15636.76
246.757	15630.45
246.828	15585.33
246.899	15567.5
246.97	15518.52
247.042	15470.9
247.113	15459.91
247.184	15447.14
247.255	15407.56
247.326	15384.86
247.397	15351.6
247.468	15324.56
247.539	15290
247.61	15243.15
247.681	15228.2
247.752	15216.97
247.823	15174.65
247.894	15147.41
247.965	15110.92
248.037	15077.33
248.108	15024.83
248.179	14982.7
248.25	14942.36
248.321	14918.4
248.392	14875.16
248.463	14868.41
248.534	14839.44
248.605	14808.74
248.675	14770.76
248.746	14745.11
248.817	14707.66
248.888	14679.99
248.959	14628.26
249.03	14605.13
249.101	14577.79
249.172	14544.63
249.243	14497.48
249.314	14488.32
249.385	14461.28
249.456	14445.08
249.527	14414.43
249.598	14392.54
249.669	14374.46
249.739	14354.27
249.81	14330.21
249.881	14289.19
249.952	14267.01
250.023	14241.27
250.094	14192.34
250.165	14148.53
250.235	14123.27
250.306	14097.96
250.377	14060.31
250.448	14042.28
250.519	13998.03
250.59	13992.39
250.66	13957.15
250.731	13946.83
250.802	13925.96
250.873	13900.7
250.944	13879.82
251.014	13844.05
251.085	13841.93
251.156	13817.88
251.227	13809.39
251.297	13804.48
251.368	13792.52
251.439	13775.94
251.51	13764.22
251.58	13735.64
251.651	13712.98
251.722	13700.45
251.792	13664.82
251.863	13639.71
251.934	13632.72
252.005	13634.26
252.075	13608.08
252.146	13603.46
252.217	13592.32
252.287	13581.23
252.358	13553.13
252.429	13538.62
252.499	13517.17
252.57	13500.25
252.641	13484
252.711	13454.45
252.782	13402.72
252.852	13399.69
252.923	13372.5
252.994	13346.03
253.064	13337.6
253.135	13298.79
253.205	13269.82
253.276	13267.7
253.347	13260.27
253.417	13230
253.488	13203.34
253.558	13177.12
253.629	13149.06
253.699	13127.46
253.77	13104.04
253.841	13079.4
253.911	13058.24
253.982	13038.91
254.052	13022.33
254.123	13008.68
254.193	12984.73
254.264	13009.7
254.334	12970.79
254.405	12938.45
254.475	12909.19
254.546	12883.11
254.616	12884.89
254.687	12865.03
254.757	12845.36
254.827	12824.01
254.898	12799.18
254.968	12778.65
255.039	12748.37
255.109	12738.25
255.18	12712.08
255.25	12670.28
255.321	12665.17
255.391	12633.5
255.461	12633.98
255.532	12581.58
255.602	12556.28
255.673	12507.25
255.743	12471.58
255.813	12426.32
255.884	12418.75
255.954	12407.18
256.024	12412.34
256.095	12391.27
256.165	12358.5
256.235	12342.3
256.306	12320.61
256.376	12322.54
256.446	12312.41
256.517	12295.88
256.587	12288.12
256.657	12263.97
256.728	12248.79
256.798	12223.48
256.868	12196.2
256.938	12166.74
257.009	12160.62
257.079	12147.46
257.149	12165.44
257.219	12121.19
257.29	12111.7
257.36	12067.79
257.43	12061.95
257.5	12011.73
257.571	11985.6
257.641	11974.9
257.711	11939.52
257.781	11925.93
257.852	11913.78
257.922	11873.87
257.992	11858.88
258.062	11833.19
258.132	11830.49
258.202	11809.14
258.273	11791.11
258.343	11793.96
258.413	11768.56
258.483	11746.58
258.553	11711.68
258.623	11684.16
258.693	11679.92
258.764	11680.64
258.834	11682.13
258.904	11660.44
258.974	11623.58
259.044	11601.94
259.114	11585.74
259.184	11568.68
259.254	11547.62
259.324	11502.02
259.394	11485.39
259.464	11490.31
259.535	11472.09
259.605	11444.38
259.675	11420.96
259.745	11412.28
259.815	11382.16
259.885	11352.28
259.955	11363.17
260.025	11345.92
260.095	11322.21
260.165	11305.58
260.235	11312.37
260.305	11284.57
260.375	11255.07
260.445	11276.52
260.515	11280.47
260.585	11278.06
260.655	11267.17
260.725	11265.38
260.795	11255.5
260.865	11263.94
260.934	11231.36
261.004	11215.79
261.074	11201.53
261.144	11204.03
261.214	11197.57
261.284	11183.36
261.354	11189.48
261.424	11161.09
261.494	11160.9
261.564	11149.62
261.634	11139.79
261.703	11091.98
261.773	11085.72
261.843	11075.79
261.913	11057.57
261.983	11017.29
262.053	11010.35
262.123	10993.48
262.192	10961.1
262.262	10956.95
262.332	10923.08
262.402	10911.85
262.472	10897.73
262.541	10862.51
262.611	10855.71
262.681	10823.28
262.751	10816.87
262.821	10793.02
262.89	10765.26
262.96	10747.14
263.03	10752.98
263.1	10743.39
263.169	10732.4
263.239	10726.81
263.309	10733.41
263.379	10725.65
263.448	10715.54
263.518	10697.95
263.588	10681.9
263.657	10688.17
263.727	10683.3
263.797	10665.71
263.867	10648.56
263.936	10618.54
264.006	10615.7
264.076	10592.52
264.145	10580.19
264.215	10553.88
264.285	10551.95
264.354	10515.53
264.424	10502.72
264.494	10467.73
264.563	10437.48
264.633	10447.64
264.702	10434.25
264.772	10397.63
264.842	10372.82
264.911	10367.57
264.981	10334.56
265.05	10320.25
265.12	10292.45
265.19	10274.87
265.259	10274.58
265.329	10266.14
265.398	10256.61
265.468	10269.23
265.537	10254.78
265.607	10243.36
265.676	10246.68
265.746	10240.08
265.815	10245.04
265.885	10227.89
265.955	10208.1
266.024	10196.44
266.094	10156.16
266.163	10153.75
266.232	10160.02
266.302	10142.19
266.371	10133.62
266.441	10125.04
266.51	10122.01
266.58	10106.21
266.649	10084.63
266.719	10084.82
266.788	10080.63
266.858	10090.07
266.927	10046.33
266.996	10039.54
267.066	10027.78
267.135	9993.78
267.205	9978.8
267.274	9969.07
267.343	9971.09
267.413	9955.39
267.482	9960.11
267.552	9967.53
267.621	9940.79
267.69	9903.99
267.76	9901.15
267.829	9890.17
267.898	9881.3
267.968	9856.21
268.037	9851.97
268.106	9846.77
268.176	9821.72
268.245	9802.26
268.314	9780
268.384	9785.88
268.453	9771.04
268.522	9771.09
268.592	9779.38
268.661	9765.46
268.73	9757.12
268.799	9735.98
268.869	9749.37
268.938	9713.01
269.007	9690.51
269.076	9682.9
269.146	9686.42
269.215	9679.77
269.284	9684.73
269.353	9670.19
269.422	9662.68
269.492	9643.7
269.561	9607.1
269.63	9600.26
269.699	9585.09
269.768	9579.7
269.838	9569.68
269.907	9566.26
269.976	9542.57
270.045	9502.75
270.114	9496.97
270.183	9483.43
270.253	9475.63
270.322	9444.52
270.391	9437.3
270.46	9440.67
270.529	9435.95
270.598	9432.68
270.667	9417.61
270.736	9398.63
270.806	9392.42
270.875	9394.39
270.944	9384.67
271.013	9405.76
271.082	9401.57
271.151	9396.56
271.22	9368.87
271.289	9358.57
271.358	9345.66
271.427	9337.62
271.496	9343.06
271.565	9325.92
271.634	9316.29
271.703	9313.64
271.772	9316.14
271.841	9306.8
271.91	9284.89
271.979	9279.64
272.048	9257.78
272.117	9257.11
272.186	9233.85
272.255	9235.2
272.324	9228.03
272.393	9226
272.462	9208.62
272.531	9199.47
272.6	9188.45
272.669	9189.36
272.738	9175.25
272.807	9175.98
272.876	9156.77
272.945	9179.88
273.013	9184.07
273.082	9188.16
273.151	9170.11
273.22	9167.36
273.289	9156.53
273.358	9168.47
273.427	9145.27
273.496	9144.5
273.564	9140.69
273.633	9150.75
273.702	9129.95
273.771	9119.65
273.84	9108.96
273.909	9105.98
273.977	9099.72
274.046	9089.27
274.115	9097.26
274.184	9083.11
274.253	9074.4
274.322	9082.92
274.39	9045.94
274.459	9028.03
274.528	8995.54
274.597	8982.83
274.665	8981.53
274.734	8987.74
274.803	8974.12
274.872	8974.41
274.94	8955.49
275.009	9013
275.078	8997.64
275.147	8991.19
275.215	8988.83
275.284	8998.75
275.353	8992.44
275.421	8964.47
275.49	8981.32
275.559	8969.82
275.627	8969.77
275.696	8957.83
275.765	8953.35
275.833	8942.04
275.902	8944.35
275.971	8963.94
276.039	8983.49
276.108	8981.51
276.177	8983.15
276.245	8969.57
276.314	8964.42
276.383	8973.86
276.451	8909.13
276.52	8907.88
276.588	8920.63
276.657	8921.64
276.725	8908.21
276.794	8906.29
276.863	8919.24
276.931	8892.13
277	8895.41
277.068	8909.08
277.137	8931.37
277.205	8935.41
277.274	8962.36
277.342	8968
277.411	8945.33
277.48	8934.11
277.548	8920.29
277.617	8918.56
277.685	8914.04
277.754	8917.84
277.822	8909.22
277.89	8919.72
277.959	8913.41
278.027	8897.96
278.096	8883.52
278.164	8914.24
278.233	8909.76
278.301	8897.39
278.37	8903.89
278.438	8890.27
278.507	8886.9
278.575	8852.72
278.643	8848.1
278.712	8823.74
278.78	8811.22
278.849	8828.79
278.917	8839.81
278.985	8836.3
279.054	8841.36
279.122	8850.89
279.191	8843.95
279.259	8843.57
279.327	8821.47
279.396	8836.35
279.464	8832.64
279.532	8843.71
279.601	8840.73
279.669	8832.98
279.737	8842.27
279.806	8844.96
279.874	8856.23
279.942	8851.61
280.011	8852.86
280.079	8858.83
280.147	8874.56
280.215	8876.3
280.284	8864.36
280.352	8847.42
280.42	8853.77
280.488	8839.52
280.557	8830.81
280.625	8839.43
280.693	8839.09
280.761	8844.53
280.83	8829.27
280.898	8839.14
280.966	8819.16
281.034	8782.57
281.102	8762.6
281.171	8761.83
281.239	8769.34
281.307	8762.08
281.375	8750.38
281.443	8773.39
281.512	8771.75
281.58	8785.33
281.648	8776.47
281.716	8781
281.784	8779.46
281.852	8771.03
281.92	8769.83
281.989	8784.03
282.057	8766.7
282.125	8804.4
282.193	8797.32
282.261	8793.91
282.329	8788.37
282.397	8796.17
282.465	8797.56
282.533	8817.24
282.601	8807.38
282.67	8785.77
282.738	8772
282.806	8778.88
282.874	8761.07
282.942	8755.15
283.01	8742.15
283.078	8745.81
283.146	8735.8
283.214	8739.65
283.282	8746.15
283.35	8762.23
283.418	8755.53
283.486	8757.27
283.554	8719.52
283.622	8723.66
283.69	8725.15
283.758	8718.13
283.826	8717.74
283.894	8732.9
283.962	8760.15
284.03	8774.64
284.098	8775.94
284.165	8773.24
284.233	8778.92
284.301	8775.07
284.369	8769.01
284.437	8762.17
284.505	8754.52
284.573	8770.79
284.641	8762.22
284.709	8771.13
284.777	8751.44
284.845	8758.32
284.912	8763.91
284.98	8766.99
285.048	8759.62
285.116	8763.86
285.184	8777.24
285.252	8776.61
285.319	8756.3
285.387	8737.38
285.455	8715.77
285.523	8721.4
285.591	8720.92
285.659	8719.57
285.726	8730.26
285.794	8713.17
285.862	8711.25
285.93	8710.91
285.997	8710.91
286.065	8712.89
286.133	8702.87
286.201	8698.83
286.269	8683.38
286.336	8675.77
286.404	8667.59
286.472	8682.47
286.539	8660.23
286.607	8645.26
286.675	8645.12
286.743	8654.26
286.81	8652.96
286.878	8671.06
286.946	8661.39
287.013	8662.97
287.081	8662.01
287.149	8648.97
287.216	8671.78
287.284	8667.45
287.352	8668.7
287.419	8665.43
287.487	8678.57
287.555	8684.87
287.622	8685.74
287.69	8696.38
287.758	8706.43
287.825	8703.6
287.893	8682.95
287.96	8691.9
288.028	8704.56
288.096	8709.22
288.163	8711.34
288.231	8691.18
288.298	8690.41
288.366	8702.39
288.433	8698.49
288.501	8682.71
288.569	8688.96
288.636	8683.96
288.704	8698.88
288.771	8711.35
288.839	8693.78
288.906	8683.58
288.974	8689.59
289.041	8687.33
289.109	8672.89
289.176	8682.95
289.244	8689.74
289.311	8708.27
289.379	8724.25
289.446	8724.25
289.514	8722.61
289.581	8718.13
289.649	8731.61
289.716	8731.42
289.783	8726.51
289.851	8746.82
289.918	8752.25
289.986	8760.44
290.053	8764.14
290.121	8756.35
290.188	8756.63
290.255	8791.43
290.323	8788.31
290.39	8784.07
290.458	8794.46
290.525	8811.36
290.592	8803.13
290.66	8800.14
290.727	8790.85
290.794	8797.88
290.862	8804.62
290.929	8808.71
290.996	8814.06
291.064	8817.71
291.131	8834.13
291.198	8847.8
291.266	8843.71
291.333	8846.4
291.4	8851.89
291.468	8872.4
291.535	8867.73
291.602	8867.01
291.669	8861.47
291.737	8869.32
291.804	8861.9
291.871	8879.09
291.938	8885.35
292.006	8917.89
292.073	8932.24
292.14	8942.83
292.207	8936.43
292.275	8933.78
292.342	8944.99
292.409	8969.26
292.476	8995.11
292.543	8984.81
292.611	8986.06
292.678	9007.96
292.745	9031.12
292.812	9042.14
292.879	9029
292.946	9035.54
293.014	9052.64
293.081	9062.55
293.148	9067.8
293.215	9088.69
293.282	9076.08
293.349	9084.12
293.416	9065.63
293.484	9081.86
293.551	9095.53
293.618	9113.58
293.685	9140.02
293.752	9133.23
293.819	9127.69
293.886	9116.76
293.953	9120.18
294.02	9132.99
294.087	9135.92
294.154	9136.93
294.221	9152.44
294.288	9159.08
294.356	9183.54
294.423	9190.96
294.49	9183.64
294.557	9203.04
294.624	9192.26
294.691	9218.35
294.758	9216.95
294.825	9220.8
294.892	9215.22
294.959	9213.1
295.026	9223.36
295.093	9209.25
295.16	9207.42
295.226	9213.15
295.293	9240.74
295.36	9254.8
295.427	9262.99
295.494	9277
295.561	9280.13
295.628	9301.47
295.695	9319.04
295.762	9320.05
295.829	9326.22
295.896	9338.78
295.963	9352.46
296.03	9360.26
296.096	9369.26
296.163	9378.94
296.23	9396.66
296.297	9405.43
296.364	9406.58
296.431	9405.57
296.498	9405.47
296.564	9431.76
296.631	9438.6
296.698	9421.02
296.765	9436.67
296.832	9430.03
296.899	9417.7
296.965	9441.92
297.032	9414.76
297.099	9433.59
297.166	9442.45
297.233	9440.62
297.299	9431.76
297.366	9424.01
297.433	9429.98
297.5	9434.21
297.566	9436.72
297.633	9431.47
297.7	9433.35
297.767	9427.28
297.833	9436.77
297.9	9439.03
297.967	9421.65
298.033	9430.27
298.1	9463.79
298.167	9457.14
298.234	9461.48
298.3	9468.6
298.367	9460.56
298.434	9473.81
298.5	9461.48
298.567	9454.59
298.634	9450.26
298.7	9473.9
298.767	9481.6
298.834	9496.2
298.9	9493.74
298.967	9485.6
299.033	9499.28
299.1	9524.71
299.167	9546.57
299.233	9540.36
299.3	9562.89
299.366	9587.98
299.433	9604.55
299.5	9577.82
299.566	9578.88
299.633	9595.25
299.699	9608.11
299.766	9603.54
299.832	9608.5
299.899	9615.82
299.965	9634.65
300.032	9636.82
300.099	9638.79
300.165	9645.97
300.232	9641.54
300.298	9639.27
300.365	9654.97
300.431	9653.38
300.498	9637.39
300.564	9641.73
300.631	9654.63
300.697	9662.87
300.763	9656.95
300.83	9652.85
300.896	9662.53
300.963	9677.46
301.029	9685.46
301.096	9687.58
301.162	9708
301.229	9694.66
301.295	9682.76
301.361	9683.1
301.428	9693.21
301.494	9685.22
301.561	9690.71
301.627	9691.62
301.693	9696.2
301.76	9698.75
301.826	9693.98
301.892	9707.13
301.959	9715.7
302.025	9719.6
302.092	9710.84
302.158	9721.14
302.224	9724.85
302.291	9720.57
302.357	9714.69
302.423	9702.55
302.49	9696.77
302.556	9697.98
302.622	9711.42
302.688	9729.72
302.755	9744.07
302.821	9744.46
302.887	9749.08
302.954	9746.33
303.02	9756.88
303.086	9765.74
303.152	9767.86
303.219	9766.27
303.285	9776.78
303.351	9786.26
303.417	9782.65
303.483	9779.76
303.55	9773.07
303.616	9772.15
303.682	9776.34
303.748	9767.1
303.815	9782.75
303.881	9795.37
303.947	9786.84
304.013	9786.03
304.079	9775.09
304.145	9748.99
304.212	9749.56
304.278	9745.71
304.344	9745.9
304.41	9734.35
304.476	9723.94
304.542	9719.22
304.608	9724.9
304.674	9704.05
304.741	9693.02
304.807	9694.42
304.873	9700.24
304.939	9713.97
305.005	9696.05
305.071	9686.85
305.137	9690.22
305.203	9663.83
305.269	9653.86
305.335	9660.8
305.401	9657.28
305.467	9650.87
305.533	9664.7
305.599	9672.89
305.666	9679.63
305.732	9670
305.798	9682.66
305.864	9709.97
305.93	9714.79
305.996	9722.16
306.062	9720.38
306.128	9718.45
306.194	9707.71
306.259	9703.09
306.325	9694.32
306.391	9705.98
306.457	9714.26
306.523	9719.41
306.589	9750.72
306.655	9746.91
306.721	9730.15
306.787	9716.28
306.853	9738.05
306.919	9718.12
306.985	9708.96
307.051	9704.92
307.117	9695.1
307.183	9687.63
307.248	9647.27
307.314	9648.38
307.38	9646.4
307.446	9655.55
307.512	9645.49
307.578	9649.05
307.644	9645.05
307.709	9647.22
307.775	9642.98
307.841	9639.85
307.907	9639.27
307.973	9612.3
308.039	9611.77
308.104	9629.21
308.17	9626.94
308.236	9605.17
308.302	9615.19
308.368	9603.39
308.433	9602.96
308.499	9607
308.565	9596.6
308.631	9604.98
308.696	9579.21
308.762	9561.64
308.828	9566.84
308.894	9541.85
308.959	9523.98
309.025	9517.14
309.091	9518.15
309.156	9507.85
309.222	9512.86
309.288	9500.05
309.354	9481.03
309.419	9480.45
309.485	9460.7
309.551	9468.99
309.616	9457
309.682	9443.8
309.748	9434.8
309.813	9428.01
309.879	9418.95
309.945	9414.57
310.01	9412.79
310.076	9416.26
310.141	9416.45
310.207	9396.17
310.273	9410.86
310.338	9412.35
310.404	9391.07
310.469	9374.94
310.535	9366.6
310.601	9336.12
310.666	9344.21
310.732	9355.1
310.797	9339.01
310.863	9320.67
310.928	9308.63
310.994	9314.94
311.059	9316.91
311.125	9316.04
311.191	9324.81
311.256	9313.83
311.322	9317.06
311.387	9298.38
311.453	9775.69
311.518	9741.17
311.584	9739.49
311.649	9739.97
311.715	9733.9
311.78	9740.64
311.846	9726.78
311.911	9731.54
311.976	9742.57
312.042	9723.6
312.107	9706.02
312.173	9700.05
312.238	9697.89
312.304	9693.12
312.369	9682.09
312.434	9668.76
312.5	9663.31
312.565	9630.09
312.631	9632.64
312.696	9615.74
312.761	9619.26
312.827	9139.44
312.892	9186.52
312.958	9178
313.023	9176.36
313.088	9174.39
313.154	9159.61
313.219	9155.38
313.284	9148.2
313.35	9139.25
313.415	9132.46
313.48	9128.75
313.546	9136.41
313.611	9145.75
313.676	9135.35
313.741	9126.25
313.807	9132.17
313.872	9136.84
313.937	9142.71
314.003	9155.33
314.068	9160.09
314.133	9163.03
314.198	9149.12
314.264	9126.68
314.329	9118.06
314.394	9114.3
314.459	9108.24
314.525	9128.7
314.59	9122.1
314.655	9109.68
314.72	9116.47
314.785	9118.78
314.851	9116.47
314.916	9093.55
314.981	9072.32
315.046	9063.75
315.111	9051.19
315.176	9039.59
315.242	9042.04
315.307	9044.69
315.372	9020.09
315.437	9010.65
315.502	9002.95
315.567	9015.37
315.632	8995.92
315.698	8996.98
315.763	8991.73
315.828	8981
315.893	8980.56
315.958	8976.91
316.023	8967.66
316.088	8951.01
316.153	8922.85
316.218	8911.68
316.283	8896.81
316.348	8886.42
316.413	8891.57
316.479	8874.39
316.544	8844.3
316.609	8817.06
316.674	8775.52
316.739	8745.11
316.804	8712.91
316.869	8681.63
316.934	8643.55
316.999	8617.66
317.064	8569.06
317.129	8519.83
317.194	8486
317.259	8430.46
317.324	8384.85
317.389	8337.99
317.454	8295.59
317.518	8268.6
317.583	8250.27
317.648	8226.6
317.713	8193.21
317.778	8127.88
317.843	8104.02
317.908	8066.65
317.973	8023.69
318.038	8000.98
318.103	7963.62
318.168	7935.29
318.233	7900.32
318.297	7847.9
318.362	7810.43
318.427	7766.39
318.492	7747.54
318.557	7700.13
318.622	7680.13
318.687	7657.48
318.751	7622.05
318.816	7591.95
318.881	7553.93
318.946	7495.27
319.011	7447.14
319.075	7408.64
319.14	7375.82
319.205	7333.52
319.27	7303.96
319.335	7254.56
319.399	7210.34
319.464	7181.03
319.529	7127.31
319.594	7091.93
319.658	7068.44
319.723	7021.93
319.788	6995.99
319.853	6937.8
319.917	6909.37
319.982	6850.94
320.047	6815.77
320.112	6788.92
320.176	6736.76
320.241	6707.32
320.306	6678.79
320.37	6642.68
320.435	6609.21
320.5	6580.92
320.564	6543.42
320.629	6495.12
320.694	6473.14
320.758	6433.77
320.823	6390.76
320.888	6367.14
320.952	6311.7
321.017	6265.14
321.082	6229.54
321.146	6200.74
321.211	6173.62
321.275	6135.81
321.34	6094.56
321.405	6045.18
321.469	5999.03
321.534	5959.46
321.598	5907.12
321.663	5875.69
321.727	5842.35
321.792	5792.48
321.857	5753.58
321.921	5713.82
321.986	5672.55
322.05	5610.18
322.115	5572.16
322.179	5528.68
322.244	5463.98
322.308	5437.81
322.373	5390.56
322.437	5352.74
322.502	5324.6
322.566	5275.76
322.631	5239.15
322.695	5198.48
322.76	5154.12
322.824	5117.48
322.889	5074.71
322.953	5028.55
323.018	4965.28
323.082	4900.73
323.146	4853.15
323.211	4800.67
323.275	4755.85
323.34	4711.64
323.404	4678.28
323.468	4630.18
323.533	4587.35
323.597	4548.95
323.662	4495.02
323.726	4465.3
323.79	4417.7
323.855	4348.02
323.919	4300.71
323.983	4256.6
324.048	4190.27
324.112	4322.87
324.177	4194.39
324.241	3978.59
324.305	3768.38
324.37	3556.97
324.434	3356.7
324.498	3311.13
324.562	3255.84
324.627	3191.74
324.691	3135.27
324.755	3067.92
324.82	2993.19
324.884	2912.59
324.948	2837.35
325.012	2734.68
325.077	2597.38
