Data from 20250703_urea_0.1M_MAYP1162681_16-11-05-265.txt Node
Date: Thu Jul 03 16:11:05 BST 2025
User: adleo
Spectrometer: MAYP116268
Trigger mode: 0
Integration Time (sec): 1.000000E0
Scans to average: 1
Electric dark correction enabled: true
Nonlinearity correction enabled: true
Boxcar width: 10
XAxis mode: Wavelengths
Number of Pixels in Spectrum: 2068
>>>>>Begin Spectral Data<<<<<
179.565	1293.07
179.642	1354.62
179.718	1403.01
179.795	1442.99
179.871	1478.77
179.948	1496.79
180.024	1519.2
180.101	1543.62
180.177	1558.69
180.254	1585.78
180.33	1611.2
180.407	1671.56
180.483	1774.42
180.56	1870.97
180.636	1961.22
180.712	1948.19
180.789	1958.65
180.865	1971.3
180.942	1979.33
181.018	1991.27
181.095	2004.16
181.171	2012.34
181.248	2013.34
181.324	2027.23
181.4	2036.31
181.477	2049.06
181.553	2064.94
181.63	2086.82
181.706	2104.14
181.782	2112.98
181.859	2111.17
181.935	2116.55
182.011	2112.69
182.088	2131.82
182.164	2154.24
182.24	2169.55
182.317	2180.73
182.393	2177.87
182.469	2192.95
182.546	2208.18
182.622	2212.65
182.698	2207.84
182.775	2218.17
182.851	2232.87
182.927	2223.97
183.003	2218.41
183.08	2212.03
183.156	2216.89
183.232	2214.03
183.308	2202.47
183.385	2212.55
183.461	2229.49
183.537	2228.35
183.613	2240.48
183.69	2228.68
183.766	2217.92
183.842	2224.63
183.918	2229.39
183.995	2244.76
184.071	2247.04
184.147	2244.05
184.223	2233.72
184.299	2249.81
184.375	2238.82
184.452	2247.39
184.528	2300.74
184.604	2313.11
184.68	2326.25
184.756	2337.95
184.832	2339.48
184.908	2343.71
184.985	2344.9
185.061	2329.01
185.137	2340.52
185.213	2332.15
185.289	2335.91
185.365	2325.92
185.441	2324.87
185.517	2336.68
185.593	2335.68
185.669	2333.39
185.745	2341.86
185.822	2356.8
185.898	2343.04
185.974	2353.61
186.05	2344.23
186.126	2310.15
186.202	2301.97
186.278	2295.35
186.354	2285.16
186.43	2294.4
186.506	2294.59
186.582	2290.59
186.658	2297.4
186.734	2276.65
186.81	2277.79
186.886	2278.93
186.962	2291.92
187.038	2289.4
187.114	2285.26
187.19	2291.4
187.266	2281.03
187.341	2282.03
187.417	2276.6
187.493	2280.6
187.569	2281.46
187.645	2274.75
187.721	2262.66
187.797	2272.32
187.873	2279.79
187.949	2274.17
188.025	2267.03
188.101	2269.32
188.176	2277.17
188.252	2273.27
188.328	2280.21
188.404	2279.97
188.48	2274.98
188.556	2268.74
188.632	2268.12
188.707	2269.12
188.783	2265.7
188.859	2260.08
188.935	2248.47
189.011	2254.99
189.086	2246.33
189.162	2238.67
189.238	2235.1
189.314	2229.92
189.39	2224.3
189.465	2212.55
189.541	2230.87
189.617	2215.79
189.693	2208.84
189.768	2209.89
189.844	2234.93
189.92	2225.51
189.996	2234.84
190.071	2246.02
190.147	2244.07
190.223	2252.78
190.298	2243.31
190.374	2228.08
190.45	2241.36
190.526	2250.78
190.601	2247.69
190.677	2250.44
190.753	2279.68
190.828	2284.39
190.904	2303.09
190.98	2316.37
191.055	2330.13
191.131	2320.89
191.207	2343.64
191.282	2353.49
191.358	2345.02
191.433	2326.5
191.509	2340.86
191.585	2337.81
191.66	2339.67
191.736	2349.05
191.811	2340.72
191.887	2356.71
191.963	2380.75
192.038	2386.22
192.114	2384.7
192.189	2388.51
192.265	2385.37
192.34	2361.37
192.416	2359.42
192.491	2352.8
192.567	2355.7
192.642	2356.94
192.718	2358.51
192.793	2343.66
192.869	2341.71
192.944	2342.71
193.02	2354.7
193.095	2359.75
193.171	2360.7
193.246	2358.46
193.322	2356.18
193.397	2354.04
193.473	2341.9
193.548	2323.09
193.624	2328.43
193.699	2328.43
193.775	2343.33
193.85	2345.09
193.925	2355.99
194.001	2355.56
194.076	2349.66
194.152	2340.09
194.227	2329.86
194.302	2315.35
194.378	2320.34
194.453	2316.58
194.529	2332.1
194.604	2316.96
194.679	2310.35
194.755	2295.7
194.83	2309.98
194.905	2306.84
194.981	2318.26
195.056	2307.75
195.131	2315.93
195.207	2312.74
195.282	2303.37
195.357	2284.8
195.433	2299.08
195.508	2285.42
195.583	2291.94
195.659	2306.93
195.734	2314.6
195.809	2316.12
195.884	2329.06
195.96	2326.92
196.035	2341.48
196.11	2337.1
196.185	2349.29
196.261	2352.28
196.336	2385.13
196.411	2369.27
196.486	2372.46
196.561	2368.46
196.637	2381.07
196.712	2395.31
196.787	2398.45
196.862	2413.59
196.937	2423.35
197.013	2431.92
197.088	2443.44
197.163	2468.11
197.238	2484.02
197.313	2482.45
197.388	2499.26
197.464	2529.46
197.539	2546.64
197.614	2540.41
197.689	2555.93
197.764	2573.23
197.839	2594.75
197.914	2588.22
197.989	2613.8
198.065	2629.13
198.14	2676.66
198.215	2704.48
198.29	2719.15
198.365	2736.5
198.44	2746.55
198.515	2776.09
198.59	2788.86
198.665	2818.02
198.74	2827.22
198.815	2829.51
198.89	2856.72
198.965	2889.33
199.04	2884.33
199.115	2899
199.19	2943.46
199.265	2942.85
199.34	2954.48
199.415	2993.02
199.49	3016.13
199.565	3025.47
199.64	3056.85
199.715	3054.56
199.79	3063.04
199.865	3071.15
199.94	3068.24
200.015	3102.29
200.09	3105.15
200.165	3111.02
200.24	3118.7
200.315	3160.42
200.39	3176.68
200.464	3178.92
200.539	3180.78
200.614	3199.38
200.689	3224.18
200.764	3234.78
200.839	3255.99
200.914	3260.48
200.989	3247.21
201.063	3261.9
201.138	3244.6
201.213	3243.12
201.288	3223.52
201.363	3230.1
201.438	3229.1
201.512	3249.32
201.587	3231.28
201.662	3238.77
201.737	3254.32
201.812	3264.97
201.886	3230.73
201.961	3243.67
202.036	3235.66
202.111	3231.51
202.186	3204.81
202.26	3188.25
202.335	3164.69
202.41	3159.58
202.485	3145.23
202.559	3127.01
202.634	3103.07
202.709	3119.04
202.784	3101.01
202.858	3109.17
202.933	3088.99
203.008	3087.42
203.082	3068.78
203.157	3074.31
203.232	3037.08
203.306	3020.91
203.381	2993.67
203.456	2979.8
203.53	2967.62
203.605	2958.95
203.68	2945.74
203.754	2950.98
203.829	2949.79
203.904	2945.4
203.978	2951.36
204.053	2973.25
204.127	2983.36
204.202	3003.29
204.277	3006.3
204.351	3023.75
204.426	3042.46
204.5	3066.35
204.575	3065.78
204.65	3114.41
204.724	3143.81
204.799	3191.73
204.873	3233.4
204.948	3278.45
205.022	3316.24
205.097	3354.21
205.171	3419.88
205.246	3488.33
205.32	3542.73
205.395	3603.96
205.469	3654.89
205.544	3723.26
205.618	3773.86
205.693	3857.78
205.767	3922.2
205.842	4021.44
205.916	4094.29
205.991	4169.75
206.065	4263.97
206.14	4367.56
206.214	4452.14
206.289	4537.72
206.363	4649.71
206.438	4755.69
206.512	4866.22
206.586	4991.78
206.661	5115.71
206.735	5211.32
206.81	5327.93
206.884	5470.35
206.958	5581.23
207.033	5728.19
207.107	5867.47
207.181	6036.8
207.256	6166.46
207.33	6325.79
207.405	6477.7
207.479	6649.39
207.553	6802.67
207.628	6929.92
207.702	7090.54
207.776	7236.81
207.851	7401.4
207.925	7577.23
207.999	7732.72
208.073	7892.84
208.148	8058.39
208.222	8207.91
208.296	8400.3
208.371	8587.71
208.445	8763.27
208.519	8960.68
208.593	9144.16
208.668	9312.77
208.742	9484.02
208.816	9653.26
208.89	9836.9
208.965	10013.59
209.039	10188.93
209.113	10380.41
209.187	10582.52
209.261	10759.13
209.336	10961.06
209.41	11154.81
209.484	11324.88
209.558	11528.39
209.632	11713.11
209.707	11899.53
209.781	12092.12
209.855	12289.2
209.929	12479.27
210.003	12659.06
210.077	12827.86
210.151	13053.11
210.226	13259.9
210.3	13456.62
210.374	13651.27
210.448	13829.72
210.522	14004.95
210.596	14179.45
210.67	14356.21
210.744	14568.84
210.818	14763.68
210.892	14938.94
210.966	15100.42
211.041	15283.4
211.115	15430.27
211.189	15623.6
211.263	15799.68
211.337	15962.6
211.411	16123.29
211.485	16270.73
211.559	16430.94
211.633	16592.74
211.707	16708.17
211.781	16863.45
211.855	16977
211.929	17113.98
212.003	17237.4
212.077	17397.65
212.151	17557.17
212.225	17714.71
212.299	17839.86
212.373	17970.75
212.447	18106.22
212.52	18265.06
212.594	18402.21
212.668	18546.88
212.742	18658.54
212.816	18785.23
212.89	18903.39
212.964	19034.57
213.038	19154.03
213.112	19292.15
213.186	19428.24
213.26	19534.35
213.333	19609.05
213.407	19734.39
213.481	19856.8
213.555	19983.54
213.629	20083.83
213.703	20177.27
213.777	20284.45
213.85	20380.55
213.924	20515.11
213.998	20629.19
214.072	20739.75
214.146	20835.32
214.219	20940.87
214.293	21035.53
214.367	21131.68
214.441	21249.91
214.515	21340.04
214.588	21418.46
214.662	21478.37
214.736	21549.08
214.81	21648.99
214.883	21743.89
214.957	21820.97
215.031	21899.24
215.105	21965.76
215.178	22038.84
215.252	22121.41
215.326	22167.16
215.4	22224.28
215.473	22252.77
215.547	22305.51
215.621	22361.05
215.694	22428.02
215.768	22472.32
215.842	22534.13
215.915	22591.4
215.989	22622.4
216.063	22670.38
216.136	22733.44
216.21	22792.06
216.284	22864
216.357	22921.38
216.431	22985.17
216.504	23048.28
216.578	23131.9
216.652	23191.88
216.725	23254.71
216.799	23318.27
216.873	23383.03
216.946	23444.85
217.02	23491.67
217.093	23542.16
217.167	23574.81
217.24	23608.32
217.314	23644.78
217.387	23682.97
217.461	23718.37
217.535	23783.28
217.608	23815.35
217.682	23869.66
217.755	23933.32
217.829	23968.82
217.902	24013.73
217.976	24053.67
218.049	24088.87
218.123	24109.28
218.196	24166
218.27	24194.17
218.343	24206.81
218.417	24241.25
218.49	24274.49
218.563	24332.03
218.637	24376.27
218.71	24424.27
218.784	24469.04
218.857	24527.07
218.931	24569.52
219.004	24609.22
219.077	24645.31
219.151	24682.45
219.224	24703.97
219.298	24736.1
219.371	24769.83
219.444	24788.16
219.518	24816.24
219.591	24849.67
219.665	24914.09
219.738	24942.75
219.811	24952.93
219.885	25003.6
219.958	25039.83
220.031	25070.76
220.105	25098.46
220.178	25117.76
220.251	25130.79
220.325	25160.52
220.398	25181.46
220.471	25206.07
220.544	25227.25
220.618	25247.42
220.691	25284.24
220.764	25304.94
220.838	25329.21
220.911	25347.7
220.984	25395.91
221.057	25422.74
221.131	25446.15
221.204	25421.63
221.277	25448.75
221.35	25512.32
221.424	25516.37
221.497	25528.58
221.57	25534.9
221.643	25556.23
221.716	25580.03
221.79	25599.04
221.863	25604.45
221.936	25619.02
222.009	25638.62
222.082	25666.37
222.155	25668.64
222.229	25696.25
222.302	25702.48
222.375	25708.85
222.448	25727.62
222.521	25727.81
222.594	25733.56
222.667	25724.1
222.74	25744.37
222.814	25737.61
222.887	25713.77
222.96	25732.4
223.033	25748.57
223.106	25759.43
223.179	25758.17
223.252	25759.81
223.325	25751.9
223.398	25759.14
223.471	25762.23
223.544	25755.56
223.617	25741.95
223.69	25746.35
223.763	25721.49
223.837	25729.35
223.91	25729.26
223.983	25705.85
224.056	25675.63
224.129	25669.94
224.202	25680.99
224.275	25659.66
224.348	25644.6
224.42	25626.16
224.493	25580.7
224.566	25562.79
224.639	25553.67
224.712	25536.15
224.785	25516.36
224.858	25504.78
224.931	25481.04
225.004	25444.02
225.077	25419.46
225.15	25374.97
225.223	25355.86
225.296	25355.91
225.369	25318.26
225.442	25286.89
225.514	25278.98
225.587	25264.79
225.66	25244.04
225.733	25227.1
225.806	25213.01
225.879	25186.57
225.952	25160.8
226.025	25173.16
226.097	25169.15
226.17	25156.17
226.243	25123.12
226.316	25099.66
226.389	25091.6
226.461	25075.05
226.534	25070.32
226.607	25060.43
226.68	25074.67
226.753	25052.52
226.825	25014.88
226.898	25019.32
226.971	24988.05
227.044	24964.99
227.117	24949.89
227.189	24938.5
227.262	24920.99
227.335	24902.94
227.407	24876.65
227.48	24862.51
227.553	24840.51
227.626	24803.89
227.698	24768.67
227.771	24747.87
227.844	24713.81
227.916	24675.8
227.989	24641.11
228.062	24609.51
228.134	24611.3
228.207	24577.14
228.28	24551.43
228.352	24513.27
228.425	24479.06
228.498	24479.16
228.57	24446.16
228.643	24431.21
228.716	24401.3
228.788	24371.82
228.861	24343.02
228.934	24342.45
229.006	24317.36
229.079	24282.29
229.151	24257.83
229.224	24218.52
229.296	24199.13
229.369	24207.87
229.442	24210.71
229.514	24176.85
229.587	24168.12
229.659	24113.04
229.732	24090.08
229.804	24072.43
229.877	24086.12
229.949	24066.3
230.022	24052.99
230.094	24032.83
230.167	24014.16
230.239	23974.37
230.312	23940.37
230.384	23935.16
230.457	23905.4
230.529	23883.12
230.602	23865.13
230.674	23835.95
230.747	23825.15
230.819	23809.62
230.892	23741.13
230.964	23713.93
231.037	23706.94
231.109	23673.71
231.181	23657.07
231.254	23629.05
231.326	23596.79
231.399	23563.56
231.471	23537.13
231.544	23487.12
231.616	23458.86
231.688	23427.28
231.761	23389.18
231.833	23361.31
231.905	23309.57
231.978	23280.73
232.05	23243.12
232.122	23203.39
232.195	23166.02
232.267	23155.27
232.339	23116.59
232.412	23116.11
232.484	23056.37
232.556	23002.03
232.629	22985.98
232.701	22955.74
232.773	22923.68
232.846	22878.17
232.918	22839.4
232.99	22803.91
233.062	22776.38
233.135	22750.4
233.207	22697.17
233.279	22684.15
233.351	22654.79
233.424	22627.41
233.496	22586.09
233.568	22566.66
233.64	22531.23
233.713	22498.88
233.785	22455.53
233.857	22421.69
233.929	22360.76
234.001	22358.39
234.074	22343.06
234.146	22290.52
234.218	22262.27
234.29	22228.33
234.362	22190.1
234.434	22135.29
234.507	22087.28
234.579	22039.32
234.651	21998.39
234.723	21983.74
234.795	21953.75
234.867	21910.85
234.939	21882.41
235.012	21848.38
235.084	21826.64
235.156	21795.6
235.228	21756.26
235.3	21721.61
235.372	21699.48
235.444	21676.39
235.516	21613.44
235.588	21582.21
235.66	21540.08
235.732	21479.01
235.804	21498.68
235.876	21482.29
235.948	21469.18
236.02	21435.44
236.092	21400.84
236.164	21366.96
236.236	21320.49
236.308	21265.79
236.38	21231.28
236.452	21180.86
236.524	21145.1
236.596	21116.71
236.668	21084.42
236.74	21034.78
236.812	20994.39
236.884	20955.69
236.956	20923.69
237.028	20884.99
237.1	20838.48
237.172	20821.85
237.244	20809.32
237.316	20724.83
237.388	20677.41
237.46	20626.66
237.532	20599.81
237.604	20543.53
237.675	20521.4
237.747	20489.5
237.819	20450.37
237.891	20414.18
237.963	20369.5
238.035	20317.98
238.107	20239.48
238.178	20211.82
238.25	20183.24
238.322	20165.45
238.394	20100.97
238.466	20055.39
238.538	20022.33
238.609	19993.75
238.681	19935.24
238.753	19886.04
238.825	19858.48
238.897	19822.33
238.968	19806.38
239.04	19764.89
239.112	19770.24
239.184	19714.67
239.255	19674.19
239.327	19645.33
239.399	19608.65
239.471	19589.96
239.542	19563.07
239.614	19542.44
239.686	19476.9
239.758	19448.47
239.829	19393
239.901	19380.14
239.973	19343.42
240.044	19308.82
240.116	19269.2
240.188	19227.86
240.259	19190.51
240.331	19146.37
240.403	19116.59
240.474	19056.78
240.546	19006.33
240.618	18930.81
240.689	18891.97
240.761	18854.92
240.833	18827.11
240.904	18785.52
240.976	18735.07
241.048	18700.95
241.119	18672.32
241.191	18648.47
241.262	18620.76
241.334	18593.49
241.405	18547.42
241.477	18500
241.549	18462.94
241.62	18421.59
241.692	18397.5
241.763	18378.41
241.835	18325.5
241.906	18276.64
241.978	18221.89
242.049	18203.1
242.121	18191.24
242.192	18158.86
242.264	18105.94
242.335	18039.97
242.407	18020.26
242.478	17975.63
242.55	17938.72
242.621	17892.41
242.693	17846.1
242.764	17807.06
242.836	17750
242.907	17721.23
242.979	17696.17
243.05	17658.54
243.122	17627.55
243.193	17586.01
243.264	17519.5
243.336	17486.3
243.407	17470.01
243.479	17452.9
243.55	17411.84
243.622	17372.66
243.693	17338.92
243.764	17310.1
243.836	17270.58
243.907	17222.2
243.978	17194.15
244.05	17163.45
244.121	17111.3
244.192	17084.51
244.264	17030.14
244.335	17001.95
244.407	16941.61
244.478	16914.77
244.549	16881.27
244.62	16829.61
244.692	16789.75
244.763	16761.12
244.834	16724.11
244.906	16678.95
244.977	16646.71
245.048	16627.04
245.119	16579.52
245.191	16539.9
245.262	16483.85
245.333	16474.93
245.405	16435.32
245.476	16400.9
245.547	16369.43
245.618	16346.34
245.689	16315.21
245.761	16292.6
245.832	16259.83
245.903	16246.43
245.974	16212.21
246.045	16168.3
246.117	16148.25
246.188	16110.7
246.259	16064.87
246.33	16033.2
246.401	15998.11
246.473	15946.2
246.544	15898.1
246.615	15878.77
246.686	15834.81
246.757	15830.96
246.828	15782.47
246.899	15767.67
246.97	15719.66
247.042	15677.54
247.113	15652.09
247.184	15636.18
247.255	15594.82
247.326	15560.17
247.397	15520.98
247.468	15488.01
247.539	15462.71
247.61	15424.39
247.681	15405.59
247.752	15395.66
247.823	15355.55
247.894	15327.74
247.965	15292.75
248.037	15263.44
248.108	15208.83
248.179	15179.13
248.25	15140.81
248.321	15122.69
248.392	15074.53
248.463	15071.16
248.534	15034.28
248.605	15007.72
248.675	14970.27
248.746	14947.76
248.817	14926.17
248.888	14905.68
248.959	14856.03
249.03	14831.45
249.101	14804.74
249.172	14767.86
249.243	14707.99
249.314	14694.11
249.385	14661.96
249.456	14643.59
249.527	14615.44
249.598	14604.31
249.669	14574.61
249.739	14547.86
249.81	14521.92
249.881	14486.73
249.952	14454.29
250.023	14430
250.094	14384.78
250.165	14351.76
250.235	14317
250.306	14286.88
250.377	14243.25
250.448	14224.55
250.519	14178.08
250.59	14171.23
250.66	14144.38
250.731	14143.13
250.802	14108.08
250.873	14085.86
250.944	14056.69
251.014	14020.1
251.085	14015.33
251.156	13990.46
251.227	13980.09
251.297	13969.34
251.368	13958.54
251.439	13951.12
251.51	13940.18
251.58	13912.65
251.651	13880.31
251.722	13869.12
251.792	13825.88
251.863	13800.09
251.934	13792.86
252.005	13793.58
252.075	13757.96
252.146	13746
252.217	13735.49
252.287	13724.98
252.358	13701.07
252.429	13702.04
252.499	13672.01
252.57	13645.54
252.641	13635.8
252.711	13608.47
252.782	13564.94
252.852	13555.64
252.923	13523.48
252.994	13497.59
253.064	13484.14
253.135	13453.77
253.205	13423.89
253.276	13427.02
253.347	13421.14
253.417	13385.47
253.488	13359.29
253.558	13335.28
253.629	13303.56
253.699	13281.97
253.77	13263.5
253.841	13239.01
253.911	13214.77
253.982	13195.24
254.052	13185.55
254.123	13166.17
254.193	13141.78
254.264	13158.56
254.334	13136.58
254.405	13102.06
254.475	13070.53
254.546	13049.52
254.616	13043.68
254.687	13031.63
254.757	13010.61
254.827	12988.1
254.898	12974.55
254.968	12950.21
255.039	12917.72
255.109	12907.02
255.18	12872.99
255.25	12828.54
255.321	12813.16
255.391	12780.72
255.461	12788.87
255.532	12741.72
255.602	12715.79
255.673	12672.74
255.743	12643.43
255.813	12590.6
255.884	12586.07
255.954	12572.18
256.024	12568.47
256.095	12550.06
256.165	12509.13
256.235	12491.68
256.306	12463.1
256.376	12443.57
256.446	12431.57
256.517	12419.67
256.587	12409.83
256.657	12395.71
256.728	12381.59
256.798	12367.32
256.868	12346.88
256.938	12314.2
257.009	12302.67
257.079	12293.03
257.149	12311.06
257.219	12269.46
257.29	12253.17
257.36	12210.7
257.43	12202.08
257.5	12160.04
257.571	12129.44
257.641	12118.64
257.711	12086.34
257.781	12076.51
257.852	12060.26
257.922	12019.82
257.992	11998.13
258.062	11973.07
258.132	11958.32
258.202	11940.82
258.273	11916.38
258.343	11909.35
258.413	11885.54
258.483	11869.63
258.553	11833.67
258.623	11796.7
258.693	11780.41
258.764	11785.08
258.834	11784.46
258.904	11762.82
258.974	11735.15
259.044	11720.4
259.114	11712.64
259.184	11701.7
259.254	11682.95
259.324	11644.64
259.394	11631.86
259.464	11635.67
259.535	11614.8
259.605	11594.7
259.675	11570.65
259.745	11561.16
259.815	11533.4
259.885	11501.35
259.955	11510.99
260.025	11493.59
260.095	11477.92
260.165	11469.39
260.235	11459.18
260.305	11431.22
260.375	11403.85
260.445	11412.96
260.515	11416.09
260.585	11409.58
260.655	11386.83
260.725	11372.62
260.795	11369.39
260.865	11378.3
260.934	11351.75
261.004	11345.82
261.074	11328.03
261.144	11325.09
261.214	11314.97
261.284	11298.2
261.354	11300.37
261.424	11265.52
261.494	11267.98
261.564	11252.85
261.634	11240.51
261.703	11205.47
261.773	11196.51
261.843	11188.61
261.913	11167.5
261.983	11127.5
262.053	11115.89
262.123	11098.49
262.192	11077.19
262.262	11073.77
262.332	11039.89
262.402	11029
262.472	11014.83
262.541	10975.03
262.611	10971.99
262.681	10948.43
262.751	10940.18
262.821	10922.11
262.89	10895.95
262.96	10882.89
263.03	10886.36
263.1	10872.04
263.169	10861.35
263.239	10852.53
263.309	10851.42
263.379	10843.76
263.448	10833.5
263.518	10818.65
263.588	10802.41
263.657	10798.9
263.727	10793.93
263.797	10780.3
263.867	10758.71
263.936	10724.84
264.006	10727
264.076	10702.57
264.145	10678.24
264.215	10654.34
264.285	10649.14
264.354	10618.01
264.424	10597.34
264.494	10562.26
264.563	10541.88
264.633	10549.06
264.702	10536.53
264.772	10504.35
264.842	10479.44
264.911	10466.48
264.981	10439.97
265.05	10430.68
265.12	10412.03
265.19	10396.61
265.259	10388.71
265.329	10385.29
265.398	10372.23
265.468	10383.46
265.537	10366.36
265.607	10361.25
265.676	10360.53
265.746	10347.47
265.815	10352.91
265.885	10333.88
265.955	10313.75
266.024	10297.22
266.094	10258.29
266.163	10260.56
266.232	10260.56
266.302	10248.85
266.371	10239.7
266.441	10231.36
266.51	10224.52
266.58	10208.92
266.649	10180.01
266.719	10174.08
266.788	10165.17
266.858	10169.17
266.927	10131.3
266.996	10125.47
267.066	10116.8
267.135	10090.41
267.205	10084.43
267.274	10064.73
267.343	10067.43
267.413	10051.63
267.482	10051.19
267.552	10058.28
267.621	10025.52
267.69	9998.4
267.76	9985.3
267.829	9973.45
267.898	9955.72
267.968	9932.89
268.037	9929.56
268.106	9935.15
268.176	9914.01
268.245	9902.15
268.314	9884.81
268.384	9889.49
268.453	9877.73
268.522	9867.38
268.592	9871.09
268.661	9846.62
268.73	9844.45
268.799	9820.08
268.869	9835.88
268.938	9813.24
269.007	9787.47
269.076	9779.81
269.146	9776.01
269.215	9776.39
269.284	9784.92
269.353	9768.78
269.422	9755.59
269.492	9738.3
269.561	9694.28
269.63	9687.53
269.699	9665.96
269.768	9656.61
269.838	9642.98
269.907	9635.71
269.976	9608.4
270.045	9578.69
270.114	9575.94
270.183	9557.45
270.253	9553.55
270.322	9515.22
270.391	9498.79
270.46	9504
270.529	9502.94
270.598	9503.61
270.667	9488.97
270.736	9461.95
270.806	9453.48
270.875	9458.92
270.944	9439.75
271.013	9467.68
271.082	9464.07
271.151	9458.73
271.22	9431.04
271.289	9421.94
271.358	9410.04
271.427	9410.09
271.496	9400.85
271.565	9388.13
271.634	9382.89
271.703	9408.36
271.772	9416.21
271.841	9411.54
271.91	9389.29
271.979	9378.46
272.048	9344.56
272.117	9344.37
272.186	9330.16
272.255	9326.22
272.324	9317.31
272.393	9314.56
272.462	9291.06
272.531	9281.91
272.6	9270.98
272.669	9278.35
272.738	9263.52
272.807	9259.33
272.876	9240.31
272.945	9265.93
273.013	9263.81
273.082	9268.67
273.151	9224.37
273.22	9220.52
273.289	9213.73
273.358	9226.29
273.427	9211.85
273.496	9219.99
273.564	9210.02
273.633	9215.7
273.702	9198.66
273.771	9188.55
273.84	9188.74
273.909	9188.98
273.977	9181.18
274.046	9168.18
274.115	9169.96
274.184	9157.4
274.253	9144.5
274.322	9156.39
274.39	9122.97
274.459	9111.75
274.528	9076.18
274.597	9066.45
274.665	9061.2
274.734	9062.26
274.803	9043.34
274.872	9036.99
274.94	9019.8
275.009	9052.07
275.078	9037.09
275.147	9039.4
275.215	9037.48
275.284	9038.92
275.353	9023.76
275.421	8999.11
275.49	9017.64
275.559	9007
275.627	8999.45
275.696	8994.06
275.765	8993.72
275.833	8984.38
275.902	8983.23
275.971	8996.51
276.039	9011.92
276.108	9020.49
276.177	9016.11
276.245	9010.91
276.314	9009.08
276.383	9019.33
276.451	8985.62
276.52	8981.48
276.588	8996.02
276.657	9003.34
276.725	8992.65
276.794	8992.89
276.863	9007.04
276.931	8982.92
277	8990.92
277.068	8995.87
277.137	9013.88
277.205	9002.37
277.274	9022.59
277.342	9036.02
277.411	9015.9
277.48	9001.27
277.548	8982.88
277.617	8980.81
277.685	8973.44
277.754	8974.6
277.822	8959.1
277.89	8973.21
277.959	8971.76
278.027	8947.45
278.096	8929.4
278.164	8962.86
278.233	8952.47
278.301	8940.67
278.37	8947.65
278.438	8931.38
278.507	8940.91
278.575	8909.81
278.643	8905.63
278.712	8885.41
278.78	8862.59
278.849	8878.14
278.917	8889.3
278.985	8885.79
279.054	8890.75
279.122	8899.89
279.191	8902.64
279.259	8906.01
279.327	8877.79
279.396	8896.71
279.464	8894.55
279.532	8901.86
279.601	8892.23
279.669	8889.25
279.737	8905.86
279.806	8910.24
279.874	8922.37
279.942	8924.68
280.011	8923.38
280.079	8936.23
280.147	8956.64
280.215	8966.03
280.284	8961.75
280.352	8944.85
280.42	8951.68
280.488	8943.26
280.557	8937.15
280.625	8937.29
280.693	8940.71
280.761	8942.97
280.83	8916.49
280.898	8933.05
280.966	8916.69
281.034	8884.58
281.102	8870.28
281.171	8864.46
281.239	8870.19
281.307	8859.16
281.375	8837.65
281.443	8864.32
281.512	8862.73
281.58	8860.42
281.648	8846.26
281.716	8842.41
281.784	8837.79
281.852	8834.13
281.92	8834.76
281.989	8845.3
282.057	8823.98
282.125	8873.19
282.193	8866.55
282.261	8868.42
282.329	8857.55
282.397	8860.34
282.465	8861.44
282.533	8879.39
282.601	8866.54
282.67	8842.76
282.738	8836.65
282.806	8851.23
282.874	8842.52
282.942	8838.24
283.01	8838.52
283.078	8842.42
283.146	8839.97
283.214	8860.96
283.282	8864.23
283.35	8876.79
283.418	8871.16
283.486	8878.96
283.554	8829.41
283.622	8833.02
283.69	8836.34
283.758	8834.32
283.826	8844
283.894	8856.7
283.962	8879.67
284.03	8897.28
284.098	8895.36
284.165	8891.46
284.233	8892.28
284.301	8875.77
284.369	8871.53
284.437	8859.4
284.505	8852.18
284.573	8867.44
284.641	8850.06
284.709	8852.09
284.777	8831.19
284.845	8835.77
284.912	8839.38
284.98	8840.72
285.048	8840.19
285.116	8842.99
285.184	8848.38
285.252	8846.93
285.319	8830.23
285.387	8815.26
285.455	8792.64
285.523	8803.37
285.591	8797.35
285.659	8789.07
285.726	8806.84
285.794	8791.29
285.862	8783.44
285.93	8788.74
285.997	8779.98
286.065	8774.97
286.133	8764.82
286.201	8759.67
286.269	8745.42
286.336	8743.11
286.404	8734.11
286.472	8742.77
286.539	8722.56
286.607	8713.22
286.675	8713.7
286.743	8721.11
286.81	8714.52
286.878	8733.72
286.946	8722.12
287.013	8726.41
287.081	8732.81
287.149	8718.8
287.216	8741.66
287.284	8744.98
287.352	8740.75
287.419	8742.48
287.487	8759.09
287.555	8760.82
287.622	8760.77
287.69	8761.83
287.758	8767.99
287.825	8769.05
287.893	8751.87
287.96	8755.48
288.028	8764
288.096	8763.37
288.163	8766.11
288.231	8759.81
288.298	8757.79
288.366	8774.25
288.433	8770.45
288.501	8760.53
288.569	8767.51
288.636	8762.65
288.704	8772.32
288.771	8782.53
288.839	8773.09
288.906	8765.44
288.974	8777.04
289.041	8775.36
289.109	8770.26
289.176	8783.45
289.244	8784.6
289.311	8798.75
289.379	8812.9
289.446	8817.43
289.514	8811.31
289.581	8809.92
289.649	8808.62
289.716	8808.76
289.783	8804
289.851	8824.98
289.918	8831.43
289.986	8833.6
290.053	8836.1
290.121	8837.26
290.188	8838.36
290.255	8868.35
290.323	8863.97
290.39	8860.84
290.458	8866.28
290.525	8879.95
290.592	8871.43
290.66	8875.52
290.727	8868.11
290.794	8879.57
290.862	8875.14
290.929	8883.03
290.996	8885.34
291.064	8897.04
291.131	8906.38
291.198	8913.46
291.266	8911
291.333	8909.56
291.4	8922.79
291.468	8936.47
291.535	8928.86
291.602	8928.77
291.669	8915.09
291.737	8914.9
291.804	8914.52
291.871	8933.82
291.938	8940.89
292.006	8967.86
292.073	8978.93
292.14	8990.1
292.207	8983.55
292.275	8987.55
292.342	8996.98
292.409	9016.72
292.476	9043.44
292.543	9034.97
292.611	9038.05
292.678	9053.41
292.745	9072.86
292.812	9078.54
292.879	9072.23
292.946	9079.31
293.014	9099.77
293.081	9114.45
293.148	9134.04
293.215	9152.2
293.282	9144.73
293.349	9152
293.416	9128.46
293.484	9141.22
293.551	9158.74
293.618	9179.98
293.685	9207.23
293.752	9203.14
293.819	9206.75
293.886	9186.19
293.953	9195.38
294.02	9202.99
294.087	9208.14
294.154	9209.59
294.221	9225.14
294.288	9230.92
294.356	9249.31
294.423	9252.73
294.49	9241.22
294.557	9248.64
294.624	9233.32
294.691	9258.79
294.758	9266.69
294.825	9278.01
294.892	9272.23
294.959	9263.9
295.026	9268.18
295.093	9257.78
295.16	9260.72
295.226	9260.96
295.293	9290.67
295.36	9294.09
295.427	9310.7
295.494	9321.97
295.561	9325.34
295.628	9349.38
295.695	9358.43
295.762	9361.9
295.829	9374.27
295.896	9394.93
295.963	9413.76
296.03	9425.75
296.096	9424.54
296.163	9433.98
296.23	9451.12
296.297	9465.33
296.364	9467.78
296.431	9473.42
296.498	9471.06
296.564	9496.44
296.631	9492.97
296.698	9481.55
296.765	9497.54
296.832	9483.91
296.899	9473.08
296.965	9491.67
297.032	9465.27
297.099	9487.33
297.166	9497.06
297.233	9488.63
297.299	9479.72
297.366	9473.41
297.433	9478.42
297.5	9494.51
297.566	9493.64
297.633	9491.76
297.7	9497.2
297.767	9501.39
297.833	9508.66
297.9	9514.73
297.967	9498.02
298.033	9512.32
298.1	9541.75
298.167	9538.09
298.234	9546.86
298.3	9557.74
298.367	9554.99
298.434	9562.31
298.5	9550.42
298.567	9539.92
298.634	9535.25
298.7	9556.77
298.767	9560.15
298.834	9573.29
298.9	9560.58
298.967	9549.79
299.033	9560.05
299.1	9569.97
299.167	9586.54
299.233	9575.75
299.3	9589.43
299.366	9611.19
299.433	9631.62
299.5	9602.57
299.566	9608.88
299.633	9626.51
299.699	9639.56
299.766	9633.01
299.832	9643.99
299.899	9649.15
299.965	9665.62
300.032	9671.88
300.099	9677.75
300.165	9691.1
300.232	9685.6
300.298	9689.94
300.365	9710.74
300.431	9709.93
300.498	9703.47
300.564	9699.04
300.631	9719.41
300.697	9731.94
300.763	9727.65
300.83	9720.81
300.896	9735.26
300.963	9740.84
301.029	9743.98
301.096	9748.45
301.162	9762.81
301.229	9754.33
301.295	9747.97
301.361	9751.87
301.428	9749.95
301.494	9735.16
301.561	9734.44
301.627	9735.31
301.693	9744.46
301.76	9747.3
301.826	9745.66
301.892	9754.38
301.959	9771.04
302.025	9759.24
302.092	9754.57
302.158	9761.02
302.224	9767.29
302.291	9759.39
302.357	9757.08
302.423	9751.01
302.49	9733.72
302.556	9746.72
302.622	9751.78
302.688	9764.54
302.755	9778.99
302.821	9793.78
302.887	9800.23
302.954	9792.33
303.02	9805.05
303.086	9813.38
303.152	9804.66
303.219	9800.81
303.285	9810.49
303.351	9817.38
303.417	9822.05
303.483	9809.14
303.55	9805.87
303.616	9801.97
303.682	9804.71
303.748	9800.04
303.815	9815.36
303.881	9835.35
303.947	9821.43
304.013	9824.9
304.079	9818.15
304.145	9800.96
304.212	9796.48
304.278	9789.93
304.344	9791.18
304.41	9776.25
304.476	9760.98
304.542	9761.03
304.608	9762.76
304.674	9746.1
304.741	9740.89
304.807	9744.89
304.873	9751.68
304.939	9771.29
305.005	9751.92
305.071	9750
305.137	9752.17
305.203	9721.92
305.269	9717.25
305.335	9726.73
305.401	9716.43
305.467	9715.61
305.533	9718.11
305.599	9726.54
305.666	9742.24
305.732	9740.32
305.798	9758.18
305.864	9786.27
305.93	9795.8
305.996	9800.76
306.062	9801.15
306.128	9791.28
306.194	9781.69
306.259	9787.23
306.325	9772.92
306.391	9785.45
306.457	9795.94
306.523	9803.41
306.589	9835.97
306.655	9830.62
306.721	9814.34
306.787	9799.7
306.853	9819.31
306.919	9799.71
306.985	9791.18
307.051	9780.97
307.117	9775.91
307.183	9768.45
307.248	9736.9
307.314	9734.88
307.38	9734.83
307.446	9739.31
307.512	9728.76
307.578	9736.66
307.644	9724.18
307.709	9725.53
307.775	9722.74
307.841	9716.33
307.907	9714.02
307.973	9685.22
308.039	9677.7
308.104	9686.9
308.17	9691.04
308.236	9668.5
308.302	9678.13
308.368	9669.95
308.433	9669.85
308.499	9659.16
308.565	9641.92
308.631	9640.33
308.696	9617.26
308.762	9603.53
308.828	9602.81
308.894	9584.95
308.959	9560.87
309.025	9558.94
309.091	9547.82
309.156	9539.53
309.222	9535.53
309.288	9524.17
309.354	9506.98
309.419	9507.89
309.485	9493.83
309.551	9497.39
309.616	9484.97
309.682	9479.77
309.748	9467.58
309.813	9454
309.879	9451.55
309.945	9444.9
310.01	9441.87
310.076	9446.97
310.141	9444.95
310.207	9426.84
310.273	9434.45
310.338	9432.67
310.404	9419.38
310.469	9408.5
310.535	9401.75
310.601	9379.94
310.666	9377.92
310.732	9383.55
310.797	9373.15
310.863	9364.24
310.928	9361.83
310.994	9364.19
311.059	9362.6
311.125	9363.76
311.191	9377.1
311.256	9359.38
311.322	9364.73
311.387	9341.04
311.453	9762.41
311.518	9734.73
311.584	9732.7
311.649	9739.97
311.715	9735.26
311.78	9734.2
311.846	9722.21
311.911	9727.65
311.976	9731.89
312.042	9717.25
312.107	9713.59
312.173	9702.75
312.238	9696.78
312.304	9691.05
312.369	9682.34
312.434	9669.1
312.5	9658.84
312.565	9627.78
312.631	9635.2
312.696	9628.46
312.761	9635.87
312.827	9201.54
312.892	9241.46
312.958	9238.33
313.023	9227.35
313.088	9224.8
313.154	9211.08
313.219	9205.45
313.284	9191.96
313.35	9192.4
313.415	9185.08
313.48	9174.34
313.546	9184.6
313.611	9188.07
313.676	9177.23
313.741	9166.54
313.807	9175.11
313.872	9182.05
313.937	9182.43
314.003	9196.2
314.068	9194.18
314.133	9196.35
314.198	9191.34
314.264	9165.87
314.329	9158.45
314.394	9154.94
314.459	9150.46
314.525	9167.36
314.59	9161.24
314.655	9146.37
314.72	9149.06
314.785	9152.24
314.851	9147.04
314.916	9123.6
314.981	9110.11
315.046	9101.21
315.111	9091
315.176	9074.83
315.242	9078.39
315.307	9081.37
315.372	9061.58
315.437	9055.57
315.502	9050.75
315.567	9056.53
315.632	9039.44
315.698	9036.6
315.763	9032.17
315.828	9029.23
315.893	9022.68
315.958	9022.2
316.023	9016.14
316.088	8992.79
316.153	8968.72
316.218	8957.99
316.283	8938.01
316.348	8918.95
316.413	8916.35
316.479	8899.89
316.544	8866.25
316.609	8833.66
316.674	8801.18
316.739	8764.45
316.804	8727.83
316.869	8689.33
316.934	8650.58
316.999	8621.56
317.064	8573.24
317.129	8530.99
317.194	8489.94
317.259	8443.54
317.324	8394.61
317.389	8350.83
317.454	8314.5
317.518	8280.15
317.583	8256.52
317.648	8233.53
317.713	8202.25
317.778	8139.28
317.843	8109.4
317.908	8071.99
317.973	8028.5
318.038	7997.52
318.103	7962.51
318.168	7931.73
318.233	7896.95
318.297	7855.4
318.362	7818.65
318.427	7781.3
318.492	7758.93
318.557	7712.77
318.622	7682.14
318.687	7662.28
318.751	7623.68
318.816	7590.69
318.881	7561.03
318.946	7500.31
319.011	7458.15
319.075	7413.06
319.14	7378.98
319.205	7335.82
319.27	7300.74
319.335	7258.98
319.399	7218.7
319.464	7190.16
319.529	7138.74
319.594	7107.93
319.658	7071.75
319.723	7028.8
319.788	6997.48
319.853	6943.85
319.917	6911.33
319.982	6863.91
320.047	6821.77
320.112	6795.79
320.176	6744.06
320.241	6708.66
320.306	6684.74
320.37	6641.14
320.435	6607.76
320.5	6583.66
320.564	6548.8
320.629	6510.44
320.694	6479.38
320.758	6437.9
320.823	6396.32
320.888	6371.17
320.952	6318.37
321.017	6278.68
321.082	6241.82
321.146	6211.58
321.211	6169.4
321.275	6132.7
321.34	6082.37
321.405	6035.64
321.469	5985.84
321.534	5943.68
321.598	5889.58
321.663	5857.09
321.727	5832.34
321.792	5787.07
321.857	5742.5
321.921	5700.59
321.986	5660.85
322.05	5602.22
322.115	5568.08
322.179	5522.54
322.244	5463.06
322.308	5432.52
322.373	5385.46
322.437	5345.58
322.502	5313.22
322.566	5267.27
322.631	5230.81
322.695	5194.31
322.76	5150.38
322.824	5114.31
322.889	5072.32
322.953	5030.33
323.018	4962.56
323.082	4889.34
323.146	4838.65
323.211	4783.06
323.275	4742.36
323.34	4694.84
323.404	4660.44
323.468	4610.75
323.533	4565.14
323.597	4521.38
323.662	4467.88
323.726	4430.9
323.79	4383.92
323.855	4320.08
323.919	4272.21
323.983	4221.75
324.048	4151.03
324.112	4308.72
324.177	4183.44
324.241	3969.7
324.305	3758.2
324.37	3552.43
324.434	3354.42
324.498	3309.74
324.562	3259.08
324.627	3192.81
324.691	3136.41
324.755	3069.5
324.82	2991.67
324.884	2912.47
324.948	2837.91
325.012	2739.47
325.077	2611.36
