Data from 20250703_urea_0.1M_MAYP1162681_00-21-04-945.txt Node
Date: Fri Jul 04 00:21:04 BST 2025
User: adleo
Spectrometer: MAYP116268
Trigger mode: 0
Integration Time (sec): 1.000000E0
Scans to average: 1
Electric dark correction enabled: true
Nonlinearity correction enabled: true
Boxcar width: 10
XAxis mode: Wavelengths
Number of Pixels in Spectrum: 2068
>>>>>Begin Spectral Data<<<<<
179.565	1359.03
179.642	1416.45
179.718	1464.19
179.795	1508.76
179.871	1544.45
179.948	1563.76
180.024	1587.2
180.101	1612.36
180.177	1629.14
180.254	1657.28
180.33	1682.13
180.407	1747.24
180.483	1852.53
180.56	1955.35
180.636	2052.27
180.712	2037.57
180.789	2047.03
180.865	2061.48
180.942	2072.14
181.018	2084.27
181.095	2096.78
181.171	2101.35
181.248	2104.87
181.324	2122.28
181.4	2132.61
181.477	2147.83
181.553	2165.19
181.63	2189.27
181.706	2208.39
181.782	2218.52
181.859	2213.1
181.935	2219.71
182.011	2216
182.088	2234.13
182.164	2254.79
182.24	2266.78
182.317	2277.82
182.393	2275.54
182.469	2290.67
182.546	2306.61
182.622	2311.8
182.698	2306.42
182.775	2321.03
182.851	2338.31
182.927	2331.79
183.003	2324.89
183.08	2319.65
183.156	2327.08
183.232	2322.75
183.308	2308.71
183.385	2317.75
183.461	2340.78
183.537	2341.73
183.613	2354.58
183.69	2346.68
183.766	2336.54
183.842	2345.68
183.918	2350.53
183.995	2367.48
184.071	2370.9
184.147	2362.81
184.223	2347.83
184.299	2364.2
184.375	2349.5
184.452	2355.93
184.528	2408.87
184.604	2417.87
184.68	2425.24
184.756	2435.34
184.832	2440.24
184.908	2446.62
184.985	2446.47
185.061	2427.39
185.137	2437.34
185.213	2429.1
185.289	2429.53
185.365	2419.87
185.441	2420.96
185.517	2434.78
185.593	2429.92
185.669	2427.16
185.745	2438.35
185.822	2457.76
185.898	2449.14
185.974	2459.56
186.05	2450.8
186.126	2414.99
186.202	2408.57
186.278	2406.05
186.354	2395.67
186.43	2401.67
186.506	2399.29
186.582	2398.14
186.658	2408.38
186.734	2387.01
186.81	2387.34
186.886	2391.76
186.962	2404.28
187.038	2398.28
187.114	2389.81
187.19	2398.23
187.266	2388.81
187.341	2388.81
187.417	2380.77
187.493	2378.72
187.569	2381.81
187.645	2376.91
187.721	2362.01
187.797	2371.24
187.873	2374.72
187.949	2365.58
188.025	2359.77
188.101	2365.81
188.176	2371.91
188.252	2364.67
188.328	2373.38
188.404	2371.9
188.48	2366.38
188.556	2359.1
188.632	2361.38
188.707	2360.76
188.783	2357.34
188.859	2352.48
188.935	2339.06
189.011	2348.2
189.086	2342.72
189.162	2333.49
189.238	2327.88
189.314	2327.45
189.39	2322.64
189.465	2319.16
189.541	2339.63
189.617	2324.31
189.693	2317.93
189.768	2321.98
189.844	2349.31
189.92	2338.51
189.996	2349.7
190.071	2362.6
190.147	2363.74
190.223	2372.5
190.298	2366.41
190.374	2353.32
190.45	2365.12
190.526	2377.12
190.601	2369.26
190.677	2369.26
190.753	2400.74
190.828	2404.08
190.904	2417.12
190.98	2430.4
191.055	2441.02
191.131	2432.4
191.207	2456.06
191.282	2466.06
191.358	2454.54
191.433	2438.29
191.509	2454.42
191.585	2449.47
191.66	2452.76
191.736	2457.33
191.811	2444.95
191.887	2463
191.963	2488.52
192.038	2495.52
192.114	2495.76
192.189	2503.18
192.265	2501.52
192.34	2477.51
192.416	2479.32
192.491	2474.55
192.567	2480.6
192.642	2480.37
192.718	2478.75
192.793	2462.61
192.869	2456.42
192.944	2461.37
193.02	2467.37
193.095	2471.7
193.171	2481.84
193.246	2478.13
193.322	2475.98
193.397	2477.56
193.473	2463.41
193.548	2440.74
193.624	2447.89
193.699	2447.36
193.775	2461.22
193.85	2461.94
193.925	2469.51
194.001	2464.99
194.076	2458.47
194.152	2445.84
194.227	2439.75
194.302	2429.42
194.378	2433.85
194.453	2430.19
194.529	2441.09
194.604	2430.04
194.679	2423.05
194.755	2401.67
194.83	2411.58
194.905	2409.91
194.981	2420.53
195.056	2412.01
195.131	2420.86
195.207	2417.58
195.282	2404.54
195.357	2386.87
195.433	2403.43
195.508	2392.2
195.583	2406.72
195.659	2425.05
195.734	2433.24
195.809	2431.96
195.884	2439.43
195.96	2438.86
196.035	2457.95
196.11	2452.14
196.185	2464.85
196.261	2471.99
196.336	2504.7
196.411	2492.18
196.486	2499.18
196.561	2491.65
196.637	2499.89
196.712	2518.65
196.787	2523.7
196.862	2543.18
196.937	2553.08
197.013	2560.94
197.088	2573.99
197.163	2594.05
197.238	2609.73
197.313	2608.68
197.388	2627.07
197.464	2664.09
197.539	2678.04
197.614	2670.8
197.689	2687.76
197.764	2704.44
197.839	2722.49
197.914	2715.73
197.989	2739.36
198.065	2757.13
198.14	2810.67
198.215	2838.69
198.29	2851.13
198.365	2863.76
198.44	2875.2
198.515	2908.52
198.59	2924.2
198.665	2951.85
198.74	2959.95
198.815	2963.44
198.89	2992.61
198.965	3022.42
199.04	3017.74
199.115	3034.33
199.19	3080.62
199.265	3083.29
199.34	3091.11
199.415	3129.66
199.49	3152.59
199.565	3162.7
199.64	3184.64
199.715	3184.73
199.79	3196.28
199.865	3203
199.94	3201.05
200.015	3235.88
200.09	3238.93
200.165	3243.98
200.24	3249.85
200.315	3297.37
200.39	3314.11
200.464	3318.79
200.539	3319.31
200.614	3336.49
200.689	3362.35
200.764	3368.7
200.839	3388.25
200.914	3396.6
200.989	3384.04
201.063	3401.8
201.138	3386.54
201.213	3391.6
201.288	3368.03
201.363	3372.99
201.438	3374.85
201.512	3393.12
201.587	3374.41
201.662	3379.56
201.737	3395.45
201.812	3411.44
201.886	3375.14
201.961	3388.27
202.036	3375.68
202.111	3378.16
202.186	3345.17
202.26	3328.75
202.335	3309.85
202.41	3303.12
202.485	3284.62
202.559	3263.73
202.634	3235.43
202.709	3246.35
202.784	3224.12
202.858	3229.84
202.933	3211.53
203.008	3206.57
203.082	3190.35
203.157	3195.36
203.232	3156.83
203.306	3140.03
203.381	3105.3
203.456	3085.65
203.53	3065.69
203.605	3053.39
203.68	3034.59
203.754	3041.21
203.829	3034.82
203.904	3022.47
203.978	3027.96
204.053	3047.56
204.127	3050.52
204.202	3065.64
204.277	3063.39
204.351	3074.12
204.426	3083.24
204.5	3096.31
204.575	3082.53
204.65	3115.21
204.724	3130.77
204.799	3166.01
204.873	3193.74
204.948	3226.23
205.022	3246.27
205.097	3271.81
205.171	3322.15
205.246	3367.27
205.32	3405.24
205.395	3449.12
205.469	3482.28
205.544	3528.47
205.618	3560.8
205.693	3630.69
205.767	3669.85
205.842	3753.61
205.916	3810.98
205.991	3860.58
206.065	3929.21
206.14	4008.73
206.214	4069.99
206.289	4133.17
206.363	4216.99
206.438	4289.14
206.512	4367.5
206.586	4468.04
206.661	4553.58
206.735	4614.87
206.81	4697.99
206.884	4798.79
206.958	4871.6
207.033	4983.56
207.107	5086.54
207.181	5218.28
207.256	5307.43
207.33	5422.86
207.405	5529.68
207.479	5648.25
207.553	5764.65
207.628	5852.73
207.702	5977.14
207.776	6079.81
207.851	6189.45
207.925	6314.07
207.999	6421.54
208.073	6533.73
208.148	6650.04
208.222	6762.15
208.296	6912.36
208.371	7048.64
208.445	7183.46
208.519	7333.18
208.593	7467.13
208.668	7585.55
208.742	7711.19
208.816	7832.87
208.89	7975.28
208.965	8106.1
209.039	8241.1
209.113	8382.88
209.187	8527.61
209.261	8649.88
209.336	8799.06
209.41	8946.82
209.484	9075.89
209.558	9229.46
209.632	9379.47
209.707	9514.77
209.781	9661.06
209.855	9810.46
209.929	9963.65
210.003	10094.52
210.077	10223.75
210.151	10398.84
210.226	10558.5
210.3	10712.75
210.374	10864.94
210.448	10995.48
210.522	11125.35
210.596	11262.26
210.67	11391.89
210.744	11572.8
210.818	11725.52
210.892	11866.35
210.966	11986.89
211.041	12123.53
211.115	12241.53
211.189	12381.98
211.263	12527.31
211.337	12649.89
211.411	12775.36
211.485	12881.8
211.559	13015.23
211.633	13138.39
211.707	13228.87
211.781	13351.51
211.855	13424.73
211.929	13529.34
212.003	13616.74
212.077	13735.8
212.151	13861.14
212.225	13981.85
212.299	14069.72
212.373	14168.11
212.447	14273.25
212.52	14411.79
212.594	14523.57
212.668	14637.63
212.742	14725.94
212.816	14821.48
212.89	14908.1
212.964	15002.34
213.038	15103.99
213.112	15209.41
213.186	15313.92
213.26	15378.51
213.333	15422.85
213.407	15520.75
213.481	15609.4
213.555	15722.19
213.629	15806.39
213.703	15876.47
213.777	15970.51
213.85	16047.53
213.924	16173.52
213.998	16262.59
214.072	16335.32
214.146	16409.11
214.219	16491.86
214.293	16573.7
214.367	16653.46
214.441	16762.92
214.515	16839.83
214.588	16888.03
214.662	16931.79
214.736	16995.17
214.81	17081.68
214.883	17167.71
214.957	17232.68
215.031	17296.68
215.105	17347.19
215.178	17406.56
215.252	17471.19
215.326	17517.21
215.4	17560.34
215.473	17573.74
215.547	17622.9
215.621	17675.23
215.694	17744.97
215.768	17783.47
215.842	17829.88
215.915	17878.6
215.989	17901.78
216.063	17947.75
216.136	18014.88
216.21	18082.74
216.284	18152.57
216.357	18216.27
216.431	18279.5
216.504	18338.53
216.578	18426.82
216.652	18484.26
216.725	18544.4
216.799	18608.01
216.873	18661.55
216.946	18726.08
217.02	18772.87
217.093	18819.62
217.167	18846.6
217.24	18884.14
217.314	18935.27
217.387	18983.03
217.461	19027.89
217.535	19095.31
217.608	19140.71
217.682	19191.5
217.755	19245.9
217.829	19281.81
217.902	19331.63
217.976	19369.08
218.049	19409.7
218.123	19434.38
218.196	19488.44
218.27	19523.19
218.343	19559.28
218.417	19598.37
218.49	19644.39
218.563	19714.07
218.637	19757.25
218.71	19832.52
218.784	19883.56
218.857	19939.89
218.931	19986.11
219.004	20033.87
219.077	20081.91
219.151	20129.09
219.224	20176.23
219.298	20222.39
219.371	20281.24
219.444	20305.72
219.518	20350.15
219.591	20397.09
219.665	20474.06
219.738	20523.5
219.811	20549.43
219.885	20591.07
219.958	20647.89
220.031	20685
220.105	20733.39
220.178	20785.1
220.251	20813.39
220.325	20851.8
220.398	20892.62
220.471	20947.81
220.544	20995.28
220.618	21022.22
220.691	21062.99
220.764	21095.57
220.838	21131.82
220.911	21160.55
220.984	21222.24
221.057	21275.01
221.131	21324.8
221.204	21322.63
221.277	21373.48
221.35	21453.35
221.424	21490.51
221.497	21527.72
221.57	21569.56
221.643	21600.79
221.716	21638.53
221.79	21670.06
221.863	21698.69
221.936	21725.68
222.009	21755.32
222.082	21777.45
222.155	21796.97
222.229	21836.01
222.302	21869.95
222.375	21902.97
222.448	21942.88
222.521	21963.61
222.594	21974.12
222.667	21984.04
222.74	22022.08
222.814	22036.3
222.887	22044.73
222.96	22075.44
223.033	22101.38
223.106	22123.26
223.179	22144.91
223.252	22160.81
223.325	22177.64
223.398	22194.08
223.471	22211.48
223.544	22218.03
223.617	22249.22
223.69	22280.07
223.763	22281.23
223.837	22295.65
223.91	22303.89
223.983	22290.54
224.056	22298.15
224.129	22319.17
224.202	22343.51
224.275	22344.77
224.348	22346.99
224.42	22335.95
224.493	22320.09
224.566	22317.82
224.639	22341.39
224.712	22338.98
224.785	22345.06
224.858	22357.3
224.931	22376.78
225.004	22376.15
225.077	22380.97
225.15	22355.47
225.223	22364.05
225.296	22403.1
225.369	22399.15
225.442	22389.7
225.514	22397.99
225.587	22403.15
225.66	22417.09
225.733	22412.8
225.806	22418.48
225.879	22427.6
225.952	22430.34
226.025	22458.5
226.097	22474.17
226.17	22455.7
226.243	22434.97
226.316	22439.7
226.389	22439.17
226.461	22439.5
226.534	22451.75
226.607	22457.78
226.68	22486.94
226.753	22493.79
226.825	22462.69
226.898	22472.52
226.971	22470.31
227.044	22477.06
227.117	22477.44
227.189	22473.15
227.262	22478.74
227.335	22489.88
227.407	22481.39
227.48	22493.78
227.553	22494.65
227.626	22490.36
227.698	22497.83
227.771	22512.83
227.844	22497.83
227.916	22492.1
227.989	22466.93
228.062	22444.22
228.134	22463.36
228.207	22453.82
228.28	22425.14
228.352	22420.84
228.425	22414.29
228.498	22426.39
228.57	22418.39
228.643	22421.33
228.716	22415.78
228.788	22400.89
228.861	22377.36
228.934	22380.16
229.006	22362.61
229.079	22344.24
229.151	22325.44
229.224	22291.69
229.296	22275.79
229.369	22285.96
229.442	22293.09
229.514	22280.46
229.587	22295.26
229.659	22261.08
229.732	22248.84
229.804	22261.03
229.877	22281.72
229.949	22283.31
230.022	22306.11
230.094	22284.47
230.167	22276.18
230.239	22254.58
230.312	22255.78
230.384	22279.55
230.457	22269.43
230.529	22259.45
230.602	22247.45
230.674	22237.08
230.747	22245.37
230.819	22250.67
230.892	22212.54
230.964	22208.78
231.037	22201.99
231.109	22186.56
231.181	22189.69
231.254	22167.28
231.326	22147.23
231.399	22124.33
231.471	22106.1
231.544	22053.41
231.616	22053.56
231.688	22037.5
231.761	22013.6
231.833	21987.71
231.905	21937.38
231.978	21917.57
232.05	21897.04
232.122	21883.44
232.195	21866.33
232.267	21869.18
232.339	21846.47
232.412	21839.63
232.484	21805.16
232.556	21778.7
232.629	21785.4
232.701	21764
232.773	21755.61
232.846	21729.68
232.918	21707.31
232.99	21681.96
233.062	21682.2
233.135	21671.02
233.207	21633.18
233.279	21625.56
233.351	21616.31
233.424	21590.96
233.496	21559.48
233.568	21554.42
233.64	21510.71
233.713	21492.53
233.785	21460.48
233.857	21446.31
233.929	21418.5
234.001	21414.93
234.074	21411.08
234.146	21357.96
234.218	21334.82
234.29	21310.44
234.362	21284.02
234.434	21238.91
234.507	21206.04
234.579	21148.97
234.651	21111.04
234.723	21098.95
234.795	21075.04
234.867	21047.62
234.939	21050.41
235.012	21037.01
235.084	21025.73
235.156	21018.65
235.228	20977.78
235.3	20942.02
235.372	20917.01
235.444	20902.88
235.516	20849.68
235.588	20829.34
235.66	20807.36
235.732	20770.93
235.804	20797.19
235.876	20773.77
235.948	20755.12
236.02	20715.41
236.092	20698.54
236.164	20672.61
236.236	20644.81
236.308	20613.48
236.38	20596.18
236.452	20545.82
236.524	20510.92
236.596	20493.91
236.668	20465.57
236.74	20431.07
236.812	20399.55
236.884	20372.42
236.956	20342.11
237.028	20303.21
237.1	20251.79
237.172	20237.63
237.244	20228.37
237.316	20154.87
237.388	20119.98
237.46	20085.43
237.532	20083.74
237.604	20034.64
237.675	20022.11
237.747	19995.55
237.819	19955.17
237.891	19914.06
237.963	19880.19
238.035	19847.18
238.107	19769.2
238.178	19755.66
238.25	19728.29
238.322	19724.38
238.394	19668.82
238.466	19633.16
238.538	19612.97
238.609	19590.56
238.681	19533.21
238.753	19485.75
238.825	19452.88
238.897	19418.18
238.968	19404.16
239.04	19358.09
239.112	19358.09
239.184	19306.29
239.255	19264.51
239.327	19232.22
239.399	19190.2
239.471	19162.54
239.542	19135.26
239.614	19125.43
239.686	19058.54
239.758	19044.81
239.829	18997.34
239.901	18986.45
239.973	18954.69
240.044	18919.27
240.116	18884.05
240.188	18846.56
240.259	18815.95
240.331	18782.99
240.403	18764.73
240.474	18709.46
240.546	18668.16
240.618	18615.97
240.689	18580.84
240.761	18550.91
240.833	18537.9
240.904	18504.5
240.976	18474.24
241.048	18438.58
241.119	18407.35
241.191	18387.93
241.262	18372.66
241.334	18341.33
241.405	18299.84
241.477	18251.02
241.549	18216.04
241.62	18182.11
241.692	18161.58
241.763	18133.34
241.835	18097.01
241.906	18066.6
241.978	18018.69
242.049	18004.57
242.121	17985.39
242.192	17960.24
242.264	17910.6
242.335	17854.41
242.407	17824.48
242.478	17780.58
242.55	17747.52
242.621	17705.3
242.693	17666.27
242.764	17617.4
242.836	17576.87
242.907	17546.37
242.979	17520.97
243.05	17489.16
243.122	17456.49
243.193	17419.86
243.264	17359.24
243.336	17314.8
243.407	17285.4
243.479	17280.34
243.55	17241.79
243.622	17207.28
243.693	17178.56
243.764	17163.33
243.836	17118.99
243.907	17082.41
243.978	17043.81
244.05	17013.64
244.121	16961.83
244.192	16936.48
244.264	16884.67
244.335	16854.6
244.407	16804.18
244.478	16780.18
244.549	16747.99
244.62	16710.35
244.692	16679.45
244.763	16659.89
244.834	16624.32
244.906	16575.98
244.977	16540.07
245.048	16523.83
245.119	16475.05
245.191	16424.69
245.262	16364.68
245.333	16353.26
245.405	16327.14
245.476	16303.52
245.547	16274.46
245.618	16252.24
245.689	16221.44
245.761	16197.44
245.832	16157.58
245.903	16138.78
245.974	16106.01
246.045	16069.09
246.117	16051.64
246.188	16000.55
246.259	15954.76
246.33	15921.98
246.401	15895.42
246.473	15844.52
246.544	15798.4
246.615	15784.13
246.686	15747.69
246.757	15731.4
246.828	15682.28
246.899	15657.03
246.97	15609.36
247.042	15567.81
247.113	15548.58
247.184	15540.04
247.255	15496.61
247.326	15468.85
247.397	15430.48
247.468	15390.91
247.539	15360.83
247.61	15315.04
247.681	15298.27
247.752	15285.25
247.823	15241.58
247.894	15210.05
247.965	15172.12
248.037	15137.12
248.108	15087.09
248.179	15058.41
248.25	15023.94
248.321	15006.78
248.392	14961.23
248.463	14953.66
248.534	14919.97
248.605	14891.48
248.675	14841.78
248.746	14818.89
248.817	14790.3
248.888	14762.68
248.959	14726.29
249.03	14705.75
249.101	14679.34
249.172	14651.14
249.243	14598.88
249.314	14595.51
249.385	14563.84
249.456	14548.36
249.527	14513.22
249.598	14496.06
249.669	14467.67
249.739	14447.09
249.81	14427.66
249.881	14389.87
249.952	14365.14
250.023	14342.24
250.094	14303.29
250.165	14273.93
250.235	14251.03
250.306	14224.04
250.377	14183.64
250.448	14158.67
250.519	14115.82
250.59	14100.83
250.66	14065.2
250.731	14062.5
250.802	14026.01
250.873	14011.35
250.944	13988.17
251.014	13958.76
251.085	13957.03
251.156	13936.97
251.227	13930.13
251.297	13914.07
251.368	13905.2
251.439	13889.78
251.51	13877.73
251.58	13841.86
251.651	13812.41
251.722	13794.57
251.792	13753.31
251.863	13740.48
251.934	13733.2
252.005	13740.39
252.075	13709.97
252.146	13693.29
252.217	13675.26
252.287	13660.99
252.358	13631.01
252.429	13628.26
252.499	13601.07
252.57	13573.88
252.641	13561.93
252.711	13535.17
252.782	13492.75
252.852	13485.95
252.923	13460.02
252.994	13437.84
253.064	13427.09
253.135	13387.23
253.205	13354.3
253.276	13352.56
253.347	13344.85
253.417	13312.79
253.488	13276.16
253.558	13257.26
253.629	13239.04
253.699	13221.2
253.77	13209.05
253.841	13187.36
253.911	13165.91
253.982	13146.29
254.052	13129.51
254.123	13113.22
254.193	13084.59
254.264	13103.67
254.334	13071.81
254.405	13028.76
254.475	12992.27
254.546	12972.99
254.616	12968.99
254.687	12957.85
254.757	12948.07
254.827	12923.24
254.898	12905.26
254.968	12882.31
255.039	12851.27
255.109	12838.74
255.18	12802.58
255.25	12754.62
255.321	12739.05
255.391	12699.13
255.461	12709.69
255.532	12664.28
255.602	12634.83
255.673	12595.64
255.743	12560.4
255.813	12515.47
255.884	12516.44
255.954	12514.22
256.024	12511.81
256.095	12491.95
256.165	12459.46
256.235	12444.32
256.306	12412.85
256.376	12405.42
256.446	12398.43
256.517	12386.72
256.587	12378.04
256.657	12362.38
256.728	12351.1
256.798	12326.37
256.868	12307.71
256.938	12268.52
257.009	12265.49
257.079	12250.5
257.149	12261.24
257.219	12220.8
257.29	12208.95
257.36	12170.38
257.43	12155.15
257.5	12104.68
257.571	12078.9
257.641	12070.75
257.711	12028.62
257.781	12007.8
257.852	11989.53
257.922	11950.05
257.992	11929.37
258.062	11904.45
258.132	11895.54
258.202	11875.63
258.273	11862.81
258.343	11860.25
258.413	11839.82
258.483	11812.87
258.553	11778.94
258.623	11750.98
258.693	11738.65
258.764	11741.87
258.834	11741.39
258.904	11722.06
258.974	11699.94
259.044	11678.93
259.114	11660.85
259.184	11649.09
259.254	11637.24
259.324	11594.68
259.394	11581.76
259.464	11582.44
259.535	11562.19
259.605	11536.99
259.675	11507.54
259.745	11497.42
259.815	11468.31
259.885	11441.17
259.955	11454.91
260.025	11433.95
260.095	11413.75
260.165	11400.79
260.235	11392.55
260.305	11362.42
260.375	11331.77
260.445	11342.23
260.515	11347.1
260.585	11340.59
260.655	11317.84
260.725	11306.66
260.795	11306.56
260.865	11310.18
260.934	11280.92
261.004	11272.59
261.074	11260.92
261.144	11266.13
261.214	11257.55
261.284	11243.72
261.354	11240.88
261.424	11212.78
261.494	11212.63
261.564	11204.1
261.634	11192.15
261.703	11156.73
261.773	11148.92
261.843	11141.45
261.913	11120.29
261.983	11088.01
262.053	11076.49
262.123	11063.48
262.192	11035.05
262.262	11023.19
262.332	10985.89
262.402	10979.34
262.472	10962.42
262.541	10922.67
262.611	10919.06
262.681	10887.73
262.751	10874.24
262.821	10851.21
262.89	10817.67
262.96	10814.87
263.03	10822.97
263.1	10815.26
263.169	10802.25
263.239	10792.42
263.309	10793.09
263.379	10788.42
263.448	10777.43
263.518	10764.85
263.588	10751.51
263.657	10758.25
263.727	10763.17
263.797	10755.89
263.867	10736.28
263.936	10706.31
264.006	10706.84
264.076	10685.45
264.145	10663.23
264.215	10644.11
264.285	10646.08
264.354	10614.86
264.424	10586.38
264.494	10543.16
264.563	10522.06
264.633	10532.56
264.702	10517.09
264.772	10482.45
264.842	10459.13
264.911	10446.22
264.981	10417.89
265.05	10398.95
265.12	10380.84
265.19	10364.55
265.259	10356.12
265.329	10344.41
265.398	10329.33
265.468	10341.91
265.537	10324.85
265.607	10326.39
265.676	10318.06
265.746	10304.13
265.815	10312.95
265.885	10300.33
265.955	10274.46
266.024	10256.59
266.094	10218.28
266.163	10225.08
266.232	10228.74
266.302	10218
266.371	10214.53
266.441	10200.8
266.51	10204.75
266.58	10185.86
266.649	10156.28
266.719	10157.25
266.788	10153.15
266.858	10161.39
266.927	10124.83
266.996	10112.25
267.066	10100.16
267.135	10078.77
267.205	10077.09
267.274	10061.67
267.343	10065.33
267.413	10064.42
267.482	10071.64
267.552	10076.61
267.621	10043.27
267.69	10011.43
267.76	10002.66
267.829	9989.46
267.898	9980.17
267.968	9952.52
268.037	9949.05
268.106	9949.24
268.176	9924.24
268.245	9911.33
268.314	9890.42
268.384	9896.01
268.453	9886.67
268.522	9879.3
268.592	9879.06
268.661	9848.86
268.73	9840.57
268.799	9818.56
268.869	9824.05
268.938	9792.02
269.007	9761.92
269.076	9752.38
269.146	9755.46
269.215	9740.48
269.284	9750.74
269.353	9733.26
269.422	9721.56
269.492	9705.23
269.561	9663.72
269.63	9654.66
269.699	9639.11
269.768	9629.19
269.838	9620.28
269.907	9616.42
269.976	9590.9
270.045	9554.69
270.114	9559.74
270.183	9542.45
270.253	9531.14
270.322	9500.84
270.391	9488.85
270.46	9502.29
270.529	9499.02
270.598	9488.56
270.667	9481.77
270.736	9451.91
270.806	9448.06
270.875	9452.73
270.944	9436.89
271.013	9460.82
271.082	9455.09
271.151	9454.32
271.22	9424.42
271.289	9405.11
271.358	9398.13
271.427	9393.65
271.496	9396.59
271.565	9382.14
271.634	9380.89
271.703	9388.78
271.772	9393.6
271.841	9384.98
271.91	9362.78
271.979	9357.24
272.048	9332.88
272.117	9336.35
272.186	9319.73
272.255	9319.25
272.324	9313.81
272.393	9311.69
272.462	9293.25
272.531	9283.23
272.6	9265.9
272.669	9280.24
272.738	9272.49
272.807	9263.44
272.876	9241.97
272.945	9265.56
273.013	9265.22
273.082	9266.24
273.151	9240.43
273.22	9232.1
273.289	9222.42
273.358	9227.96
273.427	9217.03
273.496	9227.09
273.564	9210.53
273.633	9214.19
273.702	9190.83
273.771	9180.72
273.84	9173.55
273.909	9176.78
273.977	9173.41
274.046	9159.97
274.115	9157.47
274.184	9140.91
274.253	9131.09
274.322	9148.47
274.39	9119.82
274.459	9105.42
274.528	9070.37
274.597	9058
274.665	9053.33
274.734	9061.85
274.803	9049.87
274.872	9042.79
274.94	9023.58
275.009	9092.31
275.078	9082.2
275.147	9084.61
275.215	9077.1
275.284	9089.95
275.353	9073.34
275.421	9048.65
275.49	9067.9
275.559	9058.52
275.627	9051.25
275.696	9039.7
275.765	9031.17
275.833	9017.79
275.902	9021.02
275.971	9041.86
276.039	9066.46
276.108	9068.87
276.177	9065.59
276.245	9056.06
276.314	9049.52
276.383	9057.55
276.451	8988.44
276.52	8986.37
276.588	8997.63
276.657	9002.64
276.725	8985.84
276.794	8986.51
276.863	9001.19
276.931	8975.24
277	8985.64
277.068	8994.69
277.137	9011.78
277.205	9013.71
277.274	9035.03
277.342	9041.29
277.411	9016.21
277.48	9000.47
277.548	8990.65
277.617	8993.49
277.685	8988.48
277.754	8990.12
277.822	8972.17
277.89	8985.26
277.959	8979.39
278.027	8960.71
278.096	8950.84
278.164	8983.58
278.233	8973.09
278.301	8958.89
278.37	8969.62
278.438	8956.48
278.507	8959.61
278.575	8934.24
278.643	8923.51
278.712	8900.55
278.78	8886.87
278.849	8895.34
278.917	8897.36
278.985	8891.01
279.054	8888.6
279.122	8895.15
279.191	8895.2
279.259	8902.03
279.327	8873.24
279.396	8886.38
279.464	8885.04
279.532	8892.5
279.601	8883.16
279.669	8876.23
279.737	8891.68
279.806	8893.46
279.874	8905.54
279.942	8903.52
280.011	8903.04
280.079	8911.99
280.147	8935.63
280.215	8934.28
280.284	8929.23
280.352	8922.63
280.42	8934.81
280.488	8930.29
280.557	8925.13
280.625	8931.59
280.693	8929.52
280.761	8938.76
280.83	8918.54
280.898	8930.86
280.966	8910.89
281.034	8876.9
281.102	8864.82
281.171	8858.03
281.239	8862.8
281.307	8848.55
281.375	8837.14
281.443	8869.06
281.512	8867.86
281.58	8868.1
281.648	8854.28
281.716	8863.81
281.784	8857.17
281.852	8845.04
281.92	8840.9
281.989	8848.46
282.057	8822.51
282.125	8867.39
282.193	8863.83
282.261	8870.03
282.329	8861.9
282.397	8864.74
282.465	8867.43
282.533	8888.61
282.601	8876.72
282.67	8855.49
282.738	8846.06
282.806	8853.86
282.874	8827.62
282.942	8830.07
283.01	8824.49
283.078	8829.59
283.146	8821.36
283.214	8839.84
283.282	8844.85
283.35	8856.55
283.418	8855.2
283.486	8866.22
283.554	8823.22
283.622	8820.38
283.69	8817.26
283.758	8808.3
283.826	8816.39
283.894	8825.2
283.962	8845.95
284.03	8864.96
284.098	8862.55
284.165	8856.78
284.233	8861.4
284.301	8853.27
284.369	8842.39
284.437	8833.53
284.505	8828.52
284.573	8844.02
284.641	8825.11
284.709	8831.85
284.777	8814.52
284.845	8816.73
284.912	8819.09
284.98	8824
285.048	8818.75
285.116	8829.05
285.184	8842.96
285.252	8838.49
285.319	8825.88
285.387	8810.37
285.455	8787.08
285.523	8799.06
285.591	8796.27
285.659	8797.76
285.726	8812.73
285.794	8797.77
285.862	8797.81
285.93	8799.4
285.997	8791.84
286.065	8787.8
286.133	8776.78
286.201	8775.91
286.269	8762.05
286.336	8750.59
286.404	8742.41
286.472	8746.94
286.539	8723.16
286.607	8710.84
286.675	8713.1
286.743	8716.9
286.81	8718.25
286.878	8733.56
286.946	8720.56
287.013	8725.85
287.081	8720.41
287.149	8707.27
287.216	8727.54
287.284	8720.65
287.352	8722.24
287.419	8720.99
287.487	8740.87
287.555	8745.39
287.622	8742.51
287.69	8750.54
287.758	8767
287.825	8762.53
287.893	8757.23
287.96	8762.24
288.028	8775.57
288.096	8777.98
288.163	8783.85
288.231	8765.75
288.298	8765.13
288.366	8783.85
288.433	8778.65
288.501	8771.1
288.569	8774.9
288.636	8765.8
288.704	8785.97
288.771	8792.86
288.839	8780.53
288.906	8771.92
288.974	8778.56
289.041	8776.15
289.109	8765.61
289.176	8772.5
289.244	8776.35
289.311	8792.81
289.379	8808.26
289.446	8813.03
289.514	8811.39
289.581	8814.61
289.649	8820.29
289.716	8823.95
289.783	8809.03
289.851	8831.03
289.918	8834.44
289.986	8841.09
290.053	8854.66
290.121	8847.1
290.188	8844.74
290.255	8876.32
290.323	8863.57
290.39	8849.12
290.458	8858.75
290.525	8871.46
290.592	8871.89
290.66	8878.82
290.727	8873.81
290.794	8883.78
290.862	8873.57
290.929	8881.37
290.996	8877.67
291.064	8886.14
291.131	8901.25
291.198	8916.71
291.266	8910.59
291.333	8909.58
291.4	8915.6
291.468	8923.64
291.535	8919.02
291.602	8925.13
291.669	8915.94
291.737	8926.67
291.804	8938.7
291.871	8951.03
291.938	8957.53
292.006	8985.89
292.073	8996.38
292.14	9002.3
292.207	8993.4
292.275	8993.49
292.342	9000.67
292.409	9029.02
292.476	9058.44
292.543	9042.12
292.611	9040.77
292.678	9061.43
292.745	9092.77
292.812	9105.86
292.879	9102.59
292.946	9106.58
293.014	9121.8
293.081	9134.61
293.148	9148.71
293.215	9166.81
293.282	9158.2
293.349	9168.79
293.416	9146.49
293.484	9157.76
293.551	9169.89
293.618	9189.39
293.685	9222.81
293.752	9218.28
293.819	9215.54
293.886	9195.22
293.953	9205.33
294.02	9219.43
294.087	9226.08
294.154	9213.37
294.221	9234.07
294.288	9233.78
294.356	9250.15
294.423	9255.69
294.49	9245.82
294.557	9260.65
294.624	9249.05
294.691	9276.97
294.758	9280.82
294.825	9290.7
294.892	9286.51
294.959	9287.04
295.026	9294.74
295.093	9284.44
295.16	9283.71
295.226	9283.66
295.293	9313.71
295.36	9320.79
295.427	9331.72
295.494	9343.52
295.561	9356.91
295.628	9379.35
295.695	9395.87
295.762	9401.5
295.829	9413.83
295.896	9432.61
295.963	9438.72
296.03	9443.68
296.096	9450.09
296.163	9457.36
296.23	9471.9
296.297	9481.25
296.364	9479.08
296.431	9486.83
296.498	9481.97
296.564	9508.74
296.631	9512.35
296.698	9498.34
296.765	9520.63
296.832	9506.38
296.899	9489.09
296.965	9503.15
297.032	9476.42
297.099	9499.2
297.166	9504.84
297.233	9499.59
297.299	9487.16
297.366	9489.62
297.433	9498.53
297.5	9505.51
297.566	9506.86
297.633	9503.01
297.7	9509.08
297.767	9506.19
297.833	9508.26
297.9	9508.26
297.967	9489.33
298.033	9512.35
298.1	9541.78
298.167	9527.82
298.234	9540.29
298.3	9557.58
298.367	9559.6
298.434	9568.51
298.5	9552.33
298.567	9550.21
298.634	9547.75
298.7	9575.78
298.767	9573.75
298.834	9588.54
298.9	9580.74
298.967	9571.01
299.033	9579.01
299.1	9595.24
299.167	9611.22
299.233	9610.84
299.3	9631.26
299.366	9653.89
299.433	9666.41
299.5	9637.66
299.566	9642.62
299.633	9658.13
299.699	9664.63
299.766	9660.87
299.832	9665.3
299.899	9676.48
299.965	9689.19
300.032	9686.26
300.099	9686.83
300.165	9697.86
300.232	9692.03
300.298	9697.72
300.365	9719.39
300.431	9724.11
300.498	9718.86
300.564	9727.87
300.631	9734.85
300.697	9746.12
300.763	9745.78
300.83	9736.49
300.896	9754.11
300.963	9767.31
301.029	9772.94
301.096	9779.16
301.162	9784.55
301.229	9778.05
301.295	9765.09
301.361	9771.69
301.428	9780.17
301.494	9766.35
301.561	9770.73
301.627	9777.04
301.693	9774.44
301.76	9777.81
301.826	9769.96
301.892	9780.7
301.959	9794.33
302.025	9792.36
302.092	9785.71
302.158	9790.48
302.224	9791.83
302.291	9779.64
302.357	9779.21
302.423	9770.35
302.49	9761.58
302.556	9776.27
302.622	9773.86
302.688	9793.8
302.755	9806.18
302.821	9815.38
302.887	9830.31
302.954	9821.79
303.02	9829.01
303.086	9840.91
303.152	9833.97
303.219	9833.54
303.285	9836.04
303.351	9840.57
303.417	9843.75
303.483	9840.91
303.55	9835.95
303.616	9836.38
303.682	9835.61
303.748	9824.15
303.815	9840.33
303.881	9844.57
303.947	9832.58
304.013	9837.06
304.079	9835.03
304.145	9808.78
304.212	9801.17
304.278	9792.26
304.344	9793.37
304.41	9775.16
304.476	9764.86
304.542	9762.69
304.608	9770.25
304.674	9753.44
304.741	9741.11
304.807	9744.29
304.873	9748.48
304.939	9766.83
305.005	9748.48
305.071	9747.08
305.137	9748.67
305.203	9727.86
305.269	9730.46
305.335	9743.76
305.401	9739.18
305.467	9722.86
305.533	9744.34
305.599	9754.89
305.666	9766.2
305.732	9766.54
305.798	9784.12
305.864	9807
305.93	9807.53
305.996	9802.28
306.062	9804.74
306.128	9806.04
306.194	9796.5
306.259	9802.14
306.325	9789.28
306.391	9800.93
306.457	9811.05
306.523	9820.1
306.589	9842.64
306.655	9834.31
306.721	9806.52
306.787	9795.25
306.853	9818.85
306.919	9793.28
306.985	9783.4
307.051	9775.55
307.117	9769.72
307.183	9764.52
307.248	9736.54
307.314	9749.3
307.38	9753.2
307.446	9757.73
307.512	9744.48
307.578	9750.5
307.644	9734.9
307.709	9733.45
307.775	9729.99
307.841	9725.51
307.907	9719.92
307.973	9695.45
308.039	9700.17
308.104	9709.66
308.17	9711.87
308.236	9690.39
308.302	9696.12
308.368	9685.96
308.433	9688.13
308.499	9685.34
308.565	9673.63
308.631	9677.77
308.696	9642.14
308.762	9625.66
308.828	9624.36
308.894	9608.71
308.959	9581.31
309.025	9576.21
309.091	9577.41
309.156	9565.85
309.222	9567.49
309.288	9555.55
309.354	9533.68
309.419	9522.8
309.485	9511.34
309.551	9513.36
309.616	9498.14
309.682	9492.46
309.748	9481.67
309.813	9470.69
309.879	9459.04
309.945	9444.55
310.01	9437.42
310.076	9448.97
310.141	9451.09
310.207	9435.01
310.273	9436.12
310.338	9443.15
310.404	9424.41
310.469	9403.56
310.535	9389.98
310.601	9365.52
310.666	9368.94
310.732	9377.08
310.797	9367.11
310.863	9359.89
310.928	9353.62
310.994	9361.19
311.059	9360.17
311.125	9358.01
311.191	9369.95
311.256	9359.6
311.322	9367.5
311.387	9342.07
311.453	9605.36
311.518	9580.28
311.584	9579.94
311.649	9584.56
311.715	9570.46
311.78	9577.29
311.846	9567.23
311.911	9575.99
311.976	9582.25
312.042	9568.29
312.107	9560.34
312.173	9556.78
312.238	9543.59
312.304	9542.82
312.369	9533.38
312.434	9517.59
312.5	9515.66
312.565	9475.65
312.631	9491.39
312.696	9484.94
312.761	9492.21
312.827	9215.34
312.892	9251.26
312.958	9244.86
313.023	9244.04
313.088	9241.92
313.154	9226.51
313.219	9218.96
313.284	9212.02
313.35	9212.84
313.415	9198.45
313.48	9186.27
313.546	9191.32
313.611	9201.34
313.676	9193.49
313.741	9184.87
313.807	9198.78
313.872	9202.88
313.937	9220.5
314.003	9226.47
314.068	9225.94
314.133	9239.18
314.198	9231.86
314.264	9208.07
314.329	9199.17
314.394	9189.44
314.459	9192.23
314.525	9216.11
314.59	9216.21
314.655	9200.56
314.72	9201.76
314.785	9214.43
314.851	9211.63
314.916	9192.81
314.981	9177.02
315.046	9164.16
315.111	9151.6
315.176	9132.96
315.242	9138.31
315.307	9130.8
315.372	9103.74
315.437	9091.36
315.502	9075.43
315.567	9085.44
315.632	9067.39
315.698	9068.54
315.763	9068.35
315.828	9056.7
315.893	9048.03
315.958	9041.82
316.023	9036.24
316.088	9017.13
316.153	8988.2
316.218	8984.2
316.283	8961.15
316.348	8946.37
316.413	8948.34
316.479	8937.42
316.544	8900.02
316.609	8864.69
316.674	8826.95
316.739	8794.52
316.804	8764.97
316.869	8732.77
316.934	8695.32
316.999	8671.98
317.064	8620.34
317.129	8574.32
317.194	8535.78
317.259	8485.44
317.324	8435.4
317.389	8385.89
317.454	8342.53
317.518	8309.15
317.583	8287.97
317.648	8269.4
317.713	8240.48
317.778	8176.92
317.843	8150.89
317.908	8118
317.973	8079.22
318.038	8052.86
318.103	8017.75
318.168	7985.62
318.233	7955.89
318.297	7909.29
318.362	7871.1
318.427	7835.13
318.492	7811.61
318.557	7771.22
318.622	7749.39
318.687	7732.42
318.751	7691.85
318.816	7660.01
318.881	7635.78
318.946	7583.17
319.011	7537.74
319.075	7492.79
319.14	7459.72
319.205	7412.36
319.27	7385.26
319.335	7337.63
319.399	7298.84
319.464	7266.83
319.529	7214.5
319.594	7171.73
319.658	7143.18
319.723	7100.22
319.788	7073.46
319.853	7018.73
319.917	6988.75
319.982	6930.42
320.047	6887.52
320.112	6864.9
320.176	6815.9
320.241	6768.4
320.306	6736.98
320.37	6689.29
320.435	6660.33
320.5	6634.54
320.564	6593.05
320.629	6549.5
320.694	6523.86
320.758	6483.63
320.823	6445.17
320.888	6422.18
320.952	6373.69
321.017	6329.29
321.082	6293
321.146	6258.82
321.211	6226.19
321.275	6185.93
321.34	6143.04
321.405	6102.68
321.469	6058.59
321.534	6023.62
321.598	5978.39
321.663	5939.71
321.727	5913.18
321.792	5862.43
321.857	5818.1
321.921	5781.56
321.986	5734.96
322.05	5672.49
322.115	5629.53
322.179	5583.17
322.244	5525.84
322.308	5491.56
322.373	5443.92
322.437	5397.67
322.502	5367.6
322.566	5320.44
322.631	5286.22
322.695	5249.09
322.76	5197.74
322.824	5160.09
322.889	5113.29
322.953	5068.9
323.018	5002.32
323.082	4932.8
323.146	4880.14
323.211	4823.49
323.275	4776.23
323.34	4734.45
323.404	4704.11
323.468	4661.46
323.533	4616.86
323.597	4572.03
323.662	4520.49
323.726	4489.63
323.79	4448.15
323.855	4383.77
323.919	4335.17
323.983	4284.46
324.048	4216.53
324.112	4380.14
324.177	4253.28
324.241	4033.65
324.305	3821.14
324.37	3613.52
324.434	3415.93
324.498	3373.54
324.562	3323.47
324.627	3263.04
324.691	3205.95
324.755	3138.84
324.82	3059.17
324.884	2981.6
324.948	2906.07
325.012	2810.09
325.077	2676.86
