Data from 20250703_urea_0.1M_MAYP1162681_22-11-05-558.txt Node
Date: Thu Jul 03 22:11:05 BST 2025
User: adleo
Spectrometer: MAYP116268
Trigger mode: 0
Integration Time (sec): 1.000000E0
Scans to average: 1
Electric dark correction enabled: true
Nonlinearity correction enabled: true
Boxcar width: 10
XAxis mode: Wavelengths
Number of Pixels in Spectrum: 2068
>>>>>Begin Spectral Data<<<<<
179.565	1387.78
179.642	1452.99
179.718	1505.63
179.795	1549.83
179.871	1587.73
179.948	1606.73
180.024	1632.47
180.101	1661.08
180.177	1676.94
180.254	1703.56
180.33	1729.26
180.407	1795.75
180.483	1907.22
180.56	2011.33
180.636	2108.68
180.712	2096.07
180.789	2108.2
180.865	2120.89
180.942	2130.55
181.018	2140.54
181.095	2154.67
181.171	2161.09
181.248	2163.62
181.324	2181.08
181.4	2187.74
181.477	2199.59
181.553	2215.48
181.63	2236.08
181.706	2251.74
181.782	2262.25
181.859	2262.06
181.935	2267.34
182.011	2263.68
182.088	2279.67
182.164	2299.14
182.24	2314.51
182.317	2323.17
182.393	2320.79
182.469	2337.69
182.546	2352.44
182.622	2358.2
182.698	2350.96
182.775	2363.1
182.851	2377.57
182.927	2369.53
183.003	2365.25
183.08	2359.15
183.156	2369.72
183.232	2368.34
183.308	2356.15
183.385	2365.1
183.461	2382.9
183.537	2386.67
183.613	2402.37
183.69	2393.85
183.766	2385.19
183.842	2394.56
183.918	2399.09
183.995	2414.27
184.071	2418.46
184.147	2412.27
184.223	2396.76
184.299	2411.09
184.375	2399.29
184.452	2405.81
184.528	2455.29
184.604	2471.23
184.68	2485.32
184.756	2492.84
184.832	2495.7
184.908	2503.36
184.985	2501.6
185.061	2483.51
185.137	2491.28
185.213	2479.04
185.289	2479.85
185.365	2472.19
185.441	2470.52
185.517	2484.71
185.593	2478.95
185.669	2475.14
185.745	2486.76
185.822	2508.89
185.898	2502.17
185.974	2511.03
186.05	2501.74
186.126	2467.55
186.202	2460.46
186.278	2454.08
186.354	2444.36
186.43	2453.37
186.506	2450.18
186.582	2449.8
186.658	2462.12
186.734	2438.52
186.81	2441.04
186.886	2443.8
186.962	2458.32
187.038	2453.94
187.114	2449.7
187.19	2457.46
187.266	2446.66
187.341	2448.47
187.417	2438.75
187.493	2436.47
187.569	2438.85
187.645	2432.37
187.721	2420.09
187.797	2424.28
187.873	2430.9
187.949	2426.75
188.025	2420.61
188.101	2422.18
188.176	2426.61
188.252	2416.9
188.328	2429.46
188.404	2428.13
188.48	2422.56
188.556	2412.18
188.632	2410.7
188.707	2408.27
188.783	2406.37
188.859	2402.13
188.935	2390.8
189.011	2401.46
189.086	2396.7
189.162	2389.52
189.238	2389.9
189.314	2386.18
189.39	2380
189.465	2370.14
189.541	2387.43
189.617	2368.81
189.693	2364.29
189.768	2369.82
189.844	2396.91
189.92	2386.16
189.996	2397.2
190.071	2410.87
190.147	2412.82
190.223	2424.2
190.298	2418.77
190.374	2407.3
190.45	2419.77
190.526	2426.48
190.601	2418.34
190.677	2418.67
190.753	2447.49
190.828	2451.82
190.904	2469.54
190.98	2487.77
191.055	2499.68
191.131	2488.58
191.207	2511.24
191.282	2518.81
191.358	2509.52
191.433	2491.8
191.509	2506.94
191.585	2501.37
191.66	2502.46
191.736	2511.08
191.811	2499.8
191.887	2516.61
191.963	2537.13
192.038	2543.52
192.114	2545.99
192.189	2550.66
192.265	2548.47
192.34	2524.12
192.416	2519.32
192.491	2514.22
192.567	2516.98
192.642	2521.27
192.718	2523.08
192.793	2512.13
192.869	2509.17
192.944	2510.98
193.02	2520.46
193.095	2524.98
193.171	2531.08
193.246	2529.36
193.322	2524.27
193.397	2527.7
193.473	2510.45
193.548	2494.07
193.624	2499.83
193.699	2498.69
193.775	2518.22
193.85	2517.75
193.925	2529.51
194.001	2530.41
194.076	2523.84
194.152	2511.98
194.227	2501.22
194.302	2487.56
194.378	2490.22
194.453	2489.18
194.529	2502.37
194.604	2489.13
194.679	2478.42
194.755	2460
194.83	2473.67
194.905	2469.48
194.981	2477.58
195.056	2470.44
195.131	2475.63
195.207	2476.44
195.282	2463.15
195.357	2441.81
195.433	2457.71
195.508	2445.05
195.583	2453.66
195.659	2470.05
195.734	2479.43
195.809	2481.72
195.884	2494.9
195.96	2494.38
196.035	2510.52
196.11	2504.8
196.185	2517.85
196.261	2526.09
196.336	2560.47
196.411	2544.08
196.486	2551.56
196.561	2546.08
196.637	2554.65
196.712	2573.56
196.787	2572.61
196.862	2595.51
196.937	2607.28
197.013	2617.95
197.088	2628.95
197.163	2652.78
197.238	2667.98
197.313	2667.03
197.388	2684.32
197.464	2715.68
197.539	2728.92
197.614	2724.11
197.689	2742.93
197.764	2759.18
197.839	2779.72
197.914	2771.81
197.989	2798.16
198.065	2814.64
198.14	2867.72
198.215	2896.65
198.29	2912.05
198.365	2932.07
198.44	2939.98
198.515	2968.39
198.59	2982.79
198.665	3011.16
198.74	3021.03
198.815	3023.84
198.89	3050.68
198.965	3078.92
199.04	3074.49
199.115	3090.55
199.19	3133.84
199.265	3131.99
199.34	3143.43
199.415	3181.46
199.49	3209.02
199.565	3219.37
199.64	3243.27
199.715	3242.41
199.79	3254.19
199.865	3257.44
199.94	3253.38
200.015	3289.79
200.09	3296.42
200.165	3303.15
200.24	3314.51
200.315	3357.73
200.39	3376.15
200.464	3379.87
200.539	3385.89
200.614	3403.16
200.689	3433.8
200.764	3444.49
200.839	3467.1
200.914	3475.35
200.989	3464.66
201.063	3476.73
201.138	3458.47
201.213	3462.62
201.288	3440.81
201.363	3445.2
201.438	3450.02
201.512	3466.81
201.587	3448.58
201.662	3453.92
201.737	3469.86
201.812	3477.74
201.886	3441.82
201.961	3448.51
202.036	3437.91
202.111	3432.14
202.186	3404.05
202.26	3382.52
202.335	3358.84
202.41	3352.5
202.485	3333.37
202.559	3313.38
202.634	3287.8
202.709	3303.68
202.784	3283.69
202.858	3284.26
202.933	3266.56
203.008	3261.22
203.082	3245.33
203.157	3245.43
203.232	3203.89
203.306	3184.99
203.381	3156.5
203.456	3138.04
203.53	3124.34
203.605	3111.75
203.68	3098.63
203.754	3100.82
203.829	3097.53
203.904	3086.71
203.978	3087.8
204.053	3106.88
204.127	3108.22
204.202	3122.96
204.277	3119.29
204.351	3128.68
204.426	3144
204.5	3155.07
204.575	3141.86
204.65	3181.71
204.724	3205.73
204.799	3244.83
204.873	3273.04
204.948	3304.11
205.022	3323.81
205.097	3352.71
205.171	3405.63
205.246	3454.73
205.32	3498.53
205.395	3544.24
205.469	3581.22
205.544	3637.6
205.618	3673.62
205.693	3742.79
205.767	3786.98
205.842	3870.95
205.916	3927.33
205.991	3980.96
206.065	4054.47
206.14	4141.58
206.214	4205.31
206.289	4271.72
206.363	4363.37
206.438	4445.4
206.512	4532.87
206.586	4640.58
206.661	4734.39
206.735	4801.44
206.81	4889.82
206.884	5002.3
206.958	5087.41
207.033	5208.05
207.107	5318.26
207.181	5456.91
207.256	5557.11
207.33	5684.58
207.405	5810.21
207.479	5945.13
207.553	6066.96
207.628	6167.97
207.702	6294.65
207.776	6408.94
207.851	6525.21
207.925	6658.68
207.999	6778.26
208.073	6900.74
208.148	7028.82
208.222	7146.26
208.296	7307.97
208.371	7459.27
208.445	7601.14
208.519	7761.23
208.593	7908.42
208.668	8038.92
208.742	8168.64
208.816	8308.86
208.89	8461.44
208.965	8591.3
209.039	8736.8
209.113	8889.8
209.187	9050.62
209.261	9184.77
209.336	9344.56
209.41	9508.51
209.484	9644.89
209.558	9812.24
209.632	9967.99
209.707	10123.13
209.781	10285.66
209.855	10451.92
209.929	10611.51
210.003	10753.98
210.077	10894.67
210.151	11081.12
210.226	11252.05
210.3	11428.34
210.374	11593.73
210.448	11732.44
210.522	11877.08
210.596	12017.82
210.67	12163.91
210.744	12352.94
210.818	12522.6
210.892	12679.65
210.966	12813.07
211.041	12972.43
211.115	13095.35
211.189	13251.68
211.263	13396.92
211.337	13525.05
211.411	13661.47
211.485	13783.09
211.559	13926.99
211.633	14045.24
211.707	14139.48
211.781	14276.23
211.855	14354.85
211.929	14461.58
212.003	14565.42
212.077	14695.37
212.151	14826.01
212.225	14947.53
212.299	15047.06
212.373	15151.42
212.447	15258.91
212.52	15400.67
212.594	15511.92
212.668	15636.86
212.742	15725.64
212.816	15828.21
212.89	15935.75
212.964	16034.99
213.038	16135.05
213.112	16243.01
213.186	16370.59
213.26	16447.66
213.333	16503.62
213.407	16619.53
213.481	16710.53
213.555	16822.64
213.629	16907.02
213.703	16995.7
213.777	17097.59
213.85	17172.04
213.924	17304.43
213.998	17393.15
214.072	17474.94
214.146	17555.9
214.219	17647.99
214.293	17741.44
214.367	17833.73
214.441	17930.3
214.515	18009.92
214.588	18075.84
214.662	18135.12
214.736	18196.08
214.81	18286.63
214.883	18366.43
214.957	18417.95
215.031	18490.67
215.105	18535.34
215.178	18605.32
215.252	18668.88
215.326	18714.27
215.4	18770.99
215.473	18779.96
215.547	18836.34
215.621	18893.3
215.694	18962.93
215.768	18998.93
215.842	19046.59
215.915	19093.19
215.989	19124.76
216.063	19172.9
216.136	19231.98
216.21	19287.49
216.284	19356.5
216.357	19418.23
216.431	19482.71
216.504	19557.79
216.578	19636.53
216.652	19712.43
216.725	19768.09
216.799	19834.7
216.873	19887.22
216.946	19940.04
217.02	19999.36
217.093	20042.93
217.167	20074.44
217.24	20103.79
217.314	20152.27
217.387	20199.16
217.461	20240.51
217.535	20312.46
217.608	20347.79
217.682	20393.19
217.755	20449.52
217.829	20487.21
217.902	20531.02
217.976	20576.22
218.049	20622.83
218.123	20661.72
218.196	20711.17
218.27	20741
218.343	20771.27
218.417	20822.69
218.49	20871.22
218.563	20924
218.637	20977.06
218.71	21040.87
218.784	21095.96
218.857	21144.21
218.931	21197.51
219.004	21246.14
219.077	21296.8
219.151	21349.48
219.224	21396.18
219.298	21429.01
219.371	21480
219.444	21512.05
219.518	21550.04
219.591	21580.02
219.665	21652.85
219.738	21698.45
219.811	21736.48
219.885	21786.95
219.958	21830.28
220.031	21868.31
220.105	21913.87
220.178	21963.76
220.251	21988.01
220.325	22033.85
220.398	22077.57
220.471	22120.71
220.544	22159.37
220.618	22186.71
220.691	22226.53
220.764	22254.44
220.838	22300.18
220.911	22322.7
220.984	22371
221.057	22413.23
221.131	22451.22
221.204	22444.18
221.277	22475.9
221.35	22537.9
221.424	22567.31
221.497	22600.09
221.57	22627.28
221.643	22653.22
221.716	22673.95
221.79	22699.41
221.863	22712.66
221.936	22738.51
222.009	22758.47
222.082	22791.59
222.155	22805.76
222.229	22838.5
222.302	22863.77
222.375	22881.99
222.448	22921.62
222.521	22944.48
222.594	22958.51
222.667	22967.86
222.74	23004.36
222.814	23026.25
222.887	23036.81
222.96	23059.09
223.033	23083.83
223.106	23112.37
223.179	23138.02
223.252	23155.77
223.325	23179.3
223.398	23209.77
223.471	23223.47
223.544	23237.21
223.617	23265.61
223.69	23285.38
223.763	23283.36
223.837	23309.83
223.91	23328.39
223.983	23317.16
224.056	23310.6
224.129	23325.26
224.202	23352.65
224.275	23348.84
224.348	23343.87
224.42	23336.01
224.493	23316.92
224.566	23317.25
224.639	23312
224.712	23312.43
224.785	23307.56
224.858	23301.48
224.931	23291.31
225.004	23297.67
225.077	23302.26
225.15	23259.92
225.223	23261.36
225.296	23289.96
225.369	23271.11
225.442	23267.92
225.514	23268.74
225.587	23273.61
225.66	23275.64
225.733	23276.12
225.806	23274.96
225.879	23274.87
225.952	23268.02
226.025	23283.6
226.097	23299.03
226.17	23305.2
226.243	23276.32
226.316	23276.8
226.389	23288.9
226.461	23280.61
226.534	23271.78
226.607	23261.9
226.68	23294.74
226.753	23282.34
226.825	23251.34
226.898	23261.03
226.971	23241.07
227.044	23239.72
227.117	23235.14
227.189	23230.46
227.262	23228.96
227.335	23234.94
227.407	23216.09
227.48	23216.33
227.553	23203.94
227.626	23177.56
227.698	23158.23
227.771	23166.37
227.844	23141.98
227.916	23135.51
227.989	23117.34
228.062	23107.4
228.134	23123.89
228.207	23096.8
228.28	23088.45
228.352	23075.77
228.425	23062.99
228.498	23072.01
228.57	23048.87
228.643	23050.03
228.716	23030.35
228.788	23004.22
228.861	22976.25
228.934	22990.04
229.006	22971.82
229.079	22956.68
229.151	22949.2
229.224	22923.89
229.296	22907.74
229.369	22927.03
229.442	22921.1
229.514	22907.89
229.587	22911.02
229.659	22877.8
229.732	22879.58
229.804	22866.08
229.877	22887.64
229.949	22895.49
230.022	22897.47
230.094	22890.67
230.167	22883.44
230.239	22855.67
230.312	22844.87
230.384	22856.68
230.457	22838.7
230.529	22837.74
230.602	22833.45
230.674	22820.43
230.747	22817.05
230.819	22825.68
230.892	22778.87
230.964	22759.68
231.037	22747
231.109	22718.79
231.181	22709.49
231.254	22669.81
231.326	22656.84
231.399	22626.71
231.471	22583.17
231.544	22539.78
231.616	22528.98
231.688	22501.36
231.761	22477.69
231.833	22454.93
231.905	22411.21
231.978	22392.74
232.05	22363.43
232.122	22343.86
232.195	22308.95
232.267	22312.71
232.339	22280.27
232.412	22273.57
232.484	22243.73
232.556	22223.63
232.629	22215.72
232.701	22198.65
232.773	22183.32
232.846	22151.9
232.918	22119.55
232.99	22110.39
233.062	22099.54
233.135	22081.85
233.207	22051
233.279	22052.25
233.351	22029.21
233.424	22006.51
233.496	21968.91
233.568	21969.54
233.64	21920.47
233.713	21904.75
233.785	21880.89
233.857	21853.51
233.929	21811.72
234.001	21817.17
234.074	21819.96
234.146	21776.77
234.218	21747.08
234.29	21719.41
234.362	21688.33
234.434	21658.59
234.507	21615.3
234.579	21571.34
234.651	21542.09
234.723	21529.41
234.795	21499.33
234.867	21470.56
234.939	21453.49
235.012	21432.29
235.084	21398.21
235.156	21395.17
235.228	21344.08
235.3	21298.25
235.372	21268.32
235.444	21257.33
235.516	21195.53
235.588	21159.09
235.66	21132.44
235.732	21093.11
235.804	21117.5
235.876	21097.79
235.948	21072.25
236.02	21036.49
236.092	20999.47
236.164	20967.33
236.236	20925.97
236.308	20888.82
236.38	20859.71
236.452	20813.29
236.524	20787.51
236.596	20773.58
236.668	20742.06
236.74	20719.7
236.812	20697.82
236.884	20677.82
236.956	20639.79
237.028	20592.85
237.1	20538.93
237.172	20522.64
237.244	20514.2
237.316	20452.56
237.388	20404.46
237.46	20366.39
237.532	20354.97
237.604	20317.77
237.675	20299.93
237.747	20269.19
237.819	20226.54
237.891	20186.01
237.963	20144.95
238.035	20107.12
238.107	20029.92
238.178	20000.71
238.25	19970.74
238.322	19954.54
238.394	19893.63
238.466	19862.93
238.538	19837.3
238.609	19816.43
238.681	19760.72
238.753	19709.4
238.825	19669.11
238.897	19645.98
238.968	19630.99
239.04	19584.78
239.112	19578.46
239.184	19530.03
239.255	19503.19
239.327	19474.08
239.399	19455.63
239.471	19438.86
239.542	19403.97
239.614	19395.44
239.686	19339.06
239.758	19324.45
239.829	19274.96
239.901	19266.77
239.973	19232.17
240.044	19201.28
240.116	19170.58
240.188	19139.65
240.259	19110.92
240.331	19062.73
240.403	19034.5
240.474	18977.63
240.546	18937.92
240.618	18882.36
240.689	18840.15
240.761	18801.98
240.833	18789.64
240.904	18745.98
240.976	18701.07
241.048	18666.76
241.119	18628.54
241.191	18599.77
241.262	18573.03
241.334	18535.68
241.405	18496.5
241.477	18449.9
241.549	18415.3
241.62	18365.28
241.692	18333.52
241.763	18299.12
241.835	18266.97
241.906	18230.69
241.978	18177.15
242.049	18155.75
242.121	18135.7
242.192	18112.33
242.264	18055.37
242.335	17993.88
242.407	17972.33
242.478	17936.19
242.55	17908.67
242.621	17864.29
242.693	17828.72
242.764	17782.7
242.836	17736.53
242.907	17700.39
242.979	17675.28
243.05	17641.5
243.122	17620.92
243.193	17582.03
243.264	17527.33
243.336	17493.26
243.407	17471.82
243.479	17466.37
243.55	17435.72
243.622	17407.53
243.693	17369.55
243.764	17358.47
243.836	17311.57
243.907	17266.37
243.978	17231.09
244.05	17199.38
244.121	17143.95
244.192	17116.68
244.264	17069.98
244.335	17041.35
244.407	16991.66
244.478	16955.23
244.549	16917.92
244.62	16864.76
244.692	16838.64
244.763	16810.54
244.834	16769
244.906	16729.67
244.977	16704.27
245.048	16675.41
245.119	16625.57
245.191	16589.62
245.262	16536.02
245.333	16528.6
245.405	16492.55
245.476	16473.17
245.547	16438.62
245.618	16422.04
245.689	16397.55
245.761	16367.58
245.832	16335.24
245.903	16312.39
245.974	16288.24
246.045	16252.09
246.117	16243.37
246.188	16195.56
246.259	16155.12
246.33	16117.72
246.401	16071.69
246.473	16017.32
246.544	15985.7
246.615	15960.98
246.686	15917.79
246.757	15902.9
246.828	15857.78
246.899	15848.72
246.97	15793.14
247.042	15758.63
247.113	15739.02
247.184	15723.83
247.255	15682.62
247.326	15650.13
247.397	15615.77
247.468	15579.09
247.539	15552.19
247.61	15498.45
247.681	15469.43
247.752	15448.61
247.823	15406.77
247.894	15384.11
247.965	15345.74
248.037	15303.08
248.108	15265.05
248.179	15241.05
248.25	15206.54
248.321	15184.22
248.392	15133.12
248.463	15132.35
248.534	15099.91
248.605	15077.98
248.675	15039.52
248.746	15020.09
248.817	15003.17
248.888	14980.32
248.959	14937.9
249.03	14915.92
249.101	14894.38
249.172	14870.51
249.243	14822.02
249.314	14820.67
249.385	14792.47
249.456	14764.51
249.527	14737.86
249.598	14710.72
249.669	14677.94
249.739	14651.28
249.81	14629.01
249.881	14587.84
249.952	14554.68
250.023	14521.46
250.094	14475.62
250.165	14435.47
250.235	14404.18
250.306	14365.57
250.377	14320.69
250.448	14297.17
250.519	14243.18
250.59	14230.45
250.66	14201.77
250.731	14190.78
250.802	14159.78
250.873	14136.93
250.944	14127.1
251.014	14094.8
251.085	14100.92
251.156	14081.4
251.227	14067.95
251.297	14058.69
251.368	14046.69
251.439	14036.37
251.51	14032.9
251.58	14000.22
251.651	13971.87
251.722	13965.08
251.792	13929.5
251.863	13902.07
251.934	13905.35
252.005	13918.32
252.075	13897.25
252.146	13873.48
252.217	13869.77
252.287	13856.61
252.358	13831.69
252.429	13818.58
252.499	13787.05
252.57	13759.62
252.641	13743.91
252.711	13720.09
252.782	13670.73
252.852	13674.2
252.923	13640.45
252.994	13610.81
253.064	13600.78
253.135	13566.51
253.205	13529.29
253.276	13525.14
253.347	13522.16
253.417	13483.59
253.488	13451.92
253.558	13422.32
253.629	13403.62
253.699	13383.13
253.77	13368.95
253.841	13342.2
253.911	13327.3
253.982	13310.91
254.052	13298.33
254.123	13281.27
254.193	13256.73
254.264	13277.8
254.334	13245.06
254.405	13206.98
254.475	13173.86
254.546	13146.92
254.616	13149.23
254.687	13135.15
254.757	13119.25
254.827	13103.19
254.898	13084.01
254.968	13062.7
255.039	13031.94
255.109	13019.56
255.18	12982.29
255.25	12932.25
255.321	12916.4
255.391	12875.37
255.461	12872.62
255.532	12822.1
255.602	12800.56
255.673	12755
255.743	12722.9
255.813	12672.47
255.884	12668.38
255.954	12654.16
256.024	12651.36
256.095	12629.43
256.165	12598.67
256.235	12583.05
256.306	12554.47
256.376	12548.78
256.446	12535.86
256.517	12517.83
256.587	12515.71
256.657	12505.78
256.728	12495.56
256.798	12474.21
256.868	12449.29
256.938	12416.85
257.009	12412.41
257.079	12397.76
257.149	12411.98
257.219	12375.92
257.29	12369.75
257.36	12335.43
257.43	12328.2
257.5	12285.15
257.571	12254.54
257.641	12243.94
257.711	12212.7
257.781	12197.14
257.852	12177.32
257.922	12136.88
257.992	12116.64
258.062	12085.5
258.132	12071.52
258.202	12048.14
258.273	12032.04
258.343	12037.01
258.413	12015.56
258.483	11985.38
258.553	11954.44
258.623	11923.97
258.693	11911.92
258.764	11907.78
258.834	11903.97
258.904	11888.06
258.974	11857.51
259.044	11838.13
259.114	11815.72
259.184	11802.66
259.254	11781.55
259.324	11740.58
259.394	11730.55
259.464	11732.38
259.535	11715.37
259.605	11689.68
259.675	11663.84
259.745	11657.53
259.815	11618.97
259.885	11591.55
259.955	11609.04
260.025	11580.66
260.095	11561.19
260.165	11547.45
260.235	11544.65
260.305	11514.63
260.375	11477.51
260.445	11488.94
260.515	11491.83
260.585	11491.39
260.655	11475.06
260.725	11472.02
260.795	11467.78
260.865	11476.74
260.934	11448.11
261.004	11439.05
261.074	11422.67
261.144	11425.56
261.214	11415.92
261.284	11406.57
261.354	11407.92
261.424	11377.22
261.494	11387
261.564	11374.81
261.634	11364.49
261.703	11320.49
261.773	11315.91
261.843	11311.81
261.913	11295.09
261.983	11257.36
262.053	11247.38
262.123	11230.22
262.192	11199.38
262.262	11192.25
262.332	11152.44
262.402	11146.32
262.472	11120.92
262.541	11076.21
262.611	11073.8
262.681	11046.28
262.751	11039.77
262.821	11015.15
262.89	10991.39
262.96	10975
263.03	10983.34
263.1	10963
263.169	10954.72
263.239	10942.09
263.309	10947.73
263.379	10946.19
263.448	10938.24
263.518	10923.97
263.588	10907.59
263.657	10908.31
263.727	10908.6
263.797	10899.73
263.867	10881.61
263.936	10853.38
264.006	10867.74
264.076	10843.06
264.145	10820.17
264.215	10796.03
264.285	10794.59
264.354	10757.05
264.424	10735.51
264.494	10698.89
264.563	10681.78
264.633	10687.9
264.702	10673.4
264.772	10636.83
264.842	10615.05
264.911	10603.72
264.981	10571.25
265.05	10555.49
265.12	10535.25
265.19	10515.79
265.259	10509.86
265.329	10507.74
265.398	10498.1
265.468	10510.97
265.537	10485.87
265.607	10482.3
265.676	10474.45
265.746	10461.73
265.815	10460.28
265.885	10443.42
265.955	10424.54
266.024	10401.75
266.094	10364.12
266.163	10366.34
266.232	10364.36
266.302	10346.92
266.371	10338.63
266.441	10328.13
266.51	10325
266.58	10310.16
266.649	10284.38
266.719	10284.43
266.788	10274.36
266.858	10286.5
266.927	10240.01
266.996	10237.31
267.066	10229.36
267.135	10200.22
267.205	10194.25
267.274	10186.68
267.343	10188.18
267.413	10171.46
267.482	10180.18
267.552	10181.72
267.621	10152.62
267.69	10116.93
267.76	10103.78
267.829	10095.01
267.898	10085.62
267.968	10060.18
268.037	10060.33
268.106	10065.29
268.176	10035.32
268.245	10013.79
268.314	9994.04
268.384	9994.38
268.453	9984.31
268.522	9974.87
268.592	9981.75
268.661	9959.16
268.73	9952.03
268.799	9933.97
268.869	9942.93
268.938	9909.5
269.007	9891.15
269.076	9880.89
269.146	9890.18
269.215	9882.24
269.284	9882.19
269.353	9864.66
269.422	9859.45
269.492	9838.45
269.561	9793.47
269.63	9788.46
269.699	9771.12
269.768	9757.25
269.838	9752.09
269.907	9745.49
269.976	9720.11
270.045	9684.67
270.114	9689.24
270.183	9670.46
270.253	9654.76
270.322	9623.79
270.391	9612.57
270.46	9615.7
270.529	9616.95
270.598	9611.41
270.667	9602.12
270.736	9579.82
270.806	9572.74
270.875	9571.1
270.944	9556.37
271.013	9577.46
271.082	9569.61
271.151	9567.78
271.22	9536.29
271.289	9523.81
271.358	9517.07
271.427	9514.42
271.496	9513.32
271.565	9494
271.634	9490.15
271.703	9502.09
271.772	9512.25
271.841	9501.76
271.91	9477.49
271.979	9471.08
272.048	9444.21
272.117	9442.62
272.186	9429.76
272.255	9431.02
272.324	9432.65
272.393	9428.03
272.462	9410.74
272.531	9398.46
272.6	9386.66
272.669	9401.64
272.738	9387.34
272.807	9376.74
272.876	9351.37
272.945	9382.96
273.013	9382.96
273.082	9385.08
273.151	9359.94
273.22	9347.56
273.289	9347.13
273.358	9358.35
273.427	9337.16
273.496	9341.98
273.564	9338.42
273.633	9344.24
273.702	9325.17
273.771	9314
273.84	9312.7
273.909	9306.83
273.977	9311.35
274.046	9296.48
274.115	9296.72
274.184	9281.26
274.253	9273.37
274.322	9284.92
274.39	9241.63
274.459	9226.18
274.528	9198.78
274.597	9191.85
274.665	9188.28
274.734	9190.11
274.803	9174.46
274.872	9176.49
274.94	9160.31
275.009	9219.56
275.078	9199.15
275.147	9195.49
275.215	9184.6
275.284	9196.26
275.353	9190.09
275.421	9155.82
275.49	9180.37
275.559	9169.63
275.627	9162.03
275.696	9156.93
275.765	9155.39
275.833	9149.99
275.902	9148.6
275.971	9157.6
276.039	9177.05
276.108	9180.66
276.177	9185.91
276.245	9178.21
276.314	9165.45
276.383	9177.68
276.451	9105.48
276.52	9109.57
276.588	9126.37
276.657	9130.37
276.725	9111.21
276.794	9109.91
276.863	9126.71
276.931	9098.88
277	9102.05
277.068	9116.06
277.137	9131.56
277.205	9130.02
277.274	9145.62
277.342	9156.45
277.411	9138.88
277.48	9125.21
277.548	9115.24
277.617	9111.15
277.685	9102.58
277.754	9112.98
277.822	9097.05
277.89	9109.61
277.959	9101.38
278.027	9074.18
278.096	9057.52
278.164	9088.72
278.233	9073.46
278.301	9065.33
278.37	9070.43
278.438	9054.16
278.507	9055.75
278.575	9026.48
278.643	9020.84
278.712	9003.51
278.78	8992.49
278.849	9000.05
278.917	9007.12
278.985	8999.66
279.054	9002.12
279.122	9014.54
279.191	9012.9
279.259	9012.27
279.327	8993.11
279.396	9008.66
279.464	9012.32
279.532	9028.06
279.601	9021.13
279.669	9020.84
279.737	9031.53
279.806	9031.72
279.874	9044.81
279.942	9043.37
280.011	9041.78
280.079	9054.59
280.147	9076.44
280.215	9080.63
280.284	9079.48
280.352	9061.57
280.42	9069.65
280.488	9056.99
280.557	9050.06
280.625	9050.2
280.693	9046.59
280.761	9045.2
280.83	9026.76
280.898	9035.52
280.966	9009.24
281.034	8971.97
281.102	8961.91
281.171	8949.59
281.239	8956.18
281.307	8953.63
281.375	8946.51
281.443	8973.27
281.512	8965.52
281.58	8967.88
281.648	8948.34
281.716	8943.91
281.784	8947.42
281.852	8940.39
281.92	8938.13
281.989	8951.13
282.057	8930.58
282.125	8979.4
282.193	8975.31
282.261	8978.97
282.329	8975.98
282.397	8982.58
282.465	8988.4
282.533	9000.53
282.601	8994.8
282.67	8973.52
282.738	8955.42
282.806	8962.07
282.874	8949.79
282.942	8949.93
283.01	8944.59
283.078	8954.84
283.146	8953.5
283.214	8958.17
283.282	8961.44
283.35	8975.74
283.418	8968.52
283.486	8975.78
283.554	8929.94
283.622	8936.73
283.69	8934.76
283.758	8929.08
283.826	8934.85
283.894	8945.2
283.962	8971.97
284.03	8987.28
284.098	8987.38
284.165	8985.45
284.233	8981.02
284.301	8971.97
284.369	8963.65
284.437	8952.43
284.505	8942.7
284.573	8959.46
284.641	8946.07
284.709	8953.92
284.777	8929.42
284.845	8934.14
284.912	8939.62
284.98	8948.58
285.048	8936.49
285.116	8942.75
285.184	8956.91
285.252	8952.04
285.319	8932.36
285.387	8922.68
285.455	8899.48
285.523	8911.99
285.591	8909.87
285.659	8917
285.726	8924.51
285.794	8909.44
285.862	8907.04
285.93	8910.07
285.997	8902.7
286.065	8902.66
286.133	8890.96
286.201	8892.31
286.269	8880.37
286.336	8865.73
286.404	8848.74
286.472	8865.73
286.539	8837.39
286.607	8815.87
286.675	8821.89
286.743	8830.55
286.81	8823.04
286.878	8848.26
286.946	8836.66
287.013	8839.74
287.081	8833.43
287.149	8823.09
287.216	8840.36
287.284	8839.21
287.352	8841.86
287.419	8843.93
287.487	8857.31
287.555	8860.92
287.622	8853.31
287.69	8859.62
287.758	8879.12
287.825	8885.08
287.893	8865.44
287.96	8879.01
288.028	8892.88
288.096	8893.55
288.163	8900.77
288.231	8881.9
288.298	8871.94
288.366	8891.19
288.433	8884.31
288.501	8869.49
288.569	8867.27
288.636	8867.32
288.704	8879.4
288.771	8883.5
288.839	8862.51
288.906	8853.27
288.974	8864.58
289.041	8869.59
289.109	8858.56
289.176	8864.44
289.244	8862.56
289.311	8878.59
289.379	8889.95
289.446	8891.44
289.514	8889.08
289.581	8889.56
289.649	8896.5
289.716	8893.03
289.783	8884.56
289.851	8903.13
289.918	8907.85
289.986	8913.29
290.053	8914.54
290.121	8910.83
290.188	8914.69
290.255	8944.43
290.323	8939.67
290.39	8935.86
290.458	8942.41
290.525	8957.91
290.592	8950.98
290.66	8954.44
290.727	8948.43
290.794	8966.58
290.862	8963.74
290.929	8967.44
290.996	8959.89
291.064	8966.77
291.131	8986.22
291.198	8996.28
291.266	9000.23
291.333	9007.4
291.4	9019.44
291.468	9039.8
291.535	9032.82
291.602	9038.46
291.669	9039.85
291.737	9048.37
291.804	9045.19
291.871	9060.36
291.938	9066.57
292.006	9095.75
292.073	9107.69
292.14	9120.21
292.207	9111.44
292.275	9117.27
292.342	9132.14
292.409	9168.88
292.476	9198.88
292.543	9186.99
292.611	9185.69
292.678	9206.78
292.745	9232.49
292.812	9249.58
292.879	9244.14
292.946	9256.99
293.014	9267.83
293.081	9279.29
293.148	9288.53
293.215	9304.61
293.282	9300.76
293.349	9309.91
293.416	9288.24
293.484	9304.85
293.551	9317.95
293.618	9336.29
293.685	9362.97
293.752	9346.46
293.819	9338.46
293.886	9324.21
293.953	9335.19
294.02	9345.92
294.087	9352.76
294.154	9341.11
294.221	9352.91
294.288	9351.42
294.356	9368.99
294.423	9377.42
294.49	9360.09
294.557	9376.65
294.624	9367.16
294.691	9392.73
294.758	9393.21
294.825	9405.45
294.892	9398.17
294.959	9390.61
295.026	9394.8
295.093	9381.32
295.16	9394.75
295.226	9397.35
295.293	9426.49
295.36	9433.09
295.427	9443.01
295.494	9449.08
295.561	9464.82
295.628	9491.17
295.695	9506.24
295.762	9505.38
295.829	9514.24
295.896	9536.34
295.963	9544.81
296.03	9557.72
296.096	9561.91
296.163	9575.63
296.23	9589.6
296.297	9604
296.364	9609.59
296.431	9611.56
296.498	9611.51
296.564	9630.49
296.631	9631.74
296.698	9613.39
296.765	9631.06
296.832	9624.56
296.899	9615.65
296.965	9632.36
297.032	9604.04
297.099	9626.34
297.166	9637.37
297.233	9626.1
297.299	9612.37
297.366	9613.19
297.433	9612.66
297.5	9620.32
297.566	9616.04
297.633	9612.09
297.7	9613.77
297.767	9607.51
297.833	9614.5
297.9	9624.13
297.967	9610.93
298.033	9624.03
298.1	9658.66
298.167	9651.73
298.234	9658.37
298.3	9666.08
298.367	9660.54
298.434	9669.84
298.5	9655.1
298.567	9650.91
298.634	9653.36
298.7	9676.62
298.767	9682.79
298.834	9702.34
298.9	9693.58
298.967	9686.3
299.033	9698.63
299.1	9712.41
299.167	9733.12
299.233	9729.26
299.3	9741.74
299.366	9760.42
299.433	9775.55
299.5	9741.54
299.566	9746.36
299.633	9763.02
299.699	9774.87
299.766	9772.95
299.832	9772.9
299.899	9781.86
299.965	9793.71
300.032	9795.15
300.099	9800.4
300.165	9802.42
300.232	9792.69
300.298	9792.6
300.365	9812.92
300.431	9814.27
300.498	9803.63
300.564	9810.27
300.631	9820.87
300.697	9833.92
300.763	9831.95
300.83	9827.42
300.896	9847.07
300.963	9857.48
301.029	9863.59
301.096	9866.1
301.162	9874.91
301.229	9872.89
301.295	9860.99
301.361	9862
301.428	9862.39
301.494	9849.96
301.561	9858.63
301.627	9866.58
301.693	9871.88
301.76	9876.17
301.826	9874.77
301.892	9896.06
301.959	9905.45
302.025	9905.02
302.092	9896.83
302.158	9906.71
302.224	9912.87
302.291	9902.23
302.357	9898.52
302.423	9893.12
302.49	9886.19
302.556	9901.65
302.622	9900.93
302.688	9920.63
302.755	9946.74
302.821	9958.49
302.887	9974.48
302.954	9969.57
303.02	9974.96
303.086	9980.89
303.152	9972.94
303.219	9965.81
303.285	9969.37
303.351	9978.19
303.417	9982.86
303.483	9972.41
303.55	9962.78
303.616	9965.43
303.682	9962.49
303.748	9951.41
303.815	9964.32
303.881	9976.46
303.947	9967.16
304.013	9976.36
304.079	9967.6
304.145	9940.62
304.212	9937.73
304.278	9929.01
304.344	9925.3
304.41	9912.49
304.476	9902.86
304.542	9899
304.608	9904.4
304.674	9884.6
304.741	9875.06
304.807	9876.84
304.873	9882.77
304.939	9901.46
305.005	9877.23
305.071	9875.98
305.137	9882.81
305.203	9853.72
305.269	9849.48
305.335	9861.48
305.401	9852.37
305.467	9847.22
305.533	9848.47
305.599	9857.67
305.666	9863.84
305.732	9868.85
305.798	9885.66
305.864	9914.9
305.93	9928.14
305.996	9933.44
306.062	9934.12
306.128	9926.02
306.194	9906.56
306.259	9908.49
306.325	9898.33
306.391	9909.16
306.457	9926.5
306.523	9929.06
306.589	9958.25
306.655	9949.14
306.721	9924
306.787	9914.41
306.853	9934.45
306.919	9920
306.985	9916.97
307.051	9908.83
307.117	9894.76
307.183	9888.41
307.248	9857.62
307.314	9851.75
307.38	9847.08
307.446	9855.89
307.512	9849
307.578	9861.62
307.644	9854.97
307.709	9852.52
307.775	9847.7
307.841	9841.54
307.907	9843.32
307.973	9823.95
308.039	9821.16
308.104	9829.68
308.17	9829.2
308.236	9813.02
308.302	9814.03
308.368	9794.81
308.433	9800.3
308.499	9799.24
308.565	9781.95
308.631	9782.77
308.696	9762.83
308.762	9752.28
308.828	9746.6
308.894	9735.38
308.959	9706.43
309.025	9693.33
309.091	9688.9
309.156	9674.79
309.222	9671.66
309.288	9655.48
309.354	9630.43
309.419	9634.19
309.485	9616.95
309.551	9626.68
309.616	9614.69
309.682	9613.1
309.748	9607.37
309.813	9604.91
309.879	9595.33
309.945	9584.49
310.01	9583.67
310.076	9587.91
310.141	9580.59
310.207	9562.14
310.273	9556.61
310.338	9558.05
310.404	9548.27
310.469	9530.79
310.535	9525.98
310.601	9505.89
310.666	9513.5
310.732	9526.99
310.797	9512.39
310.863	9501.32
310.928	9491.93
310.994	9486.44
311.059	9483.26
311.125	9483.98
311.191	9493.08
311.256	9484.66
311.322	9494.63
311.387	9467.61
311.453	9854.77
311.518	9824.49
311.584	9826.99
311.649	9837.68
311.715	9831.57
311.78	9835.37
311.846	9829.11
311.911	9836.96
311.976	9833.11
312.042	9814.52
312.107	9796.13
312.173	9786.5
312.238	9782.5
312.304	9775.47
312.369	9768.63
312.434	9758.04
312.5	9753.46
312.565	9718.16
312.631	9721.48
312.696	9709.3
312.761	9716.62
312.827	9314
312.892	9360.56
312.958	9349.78
313.023	9346.55
313.088	9346.45
313.154	9329.22
313.219	9324.5
313.284	9315.44
313.35	9313.85
313.415	9309.28
313.48	9302.11
313.546	9304.8
313.611	9314.24
313.676	9305.19
313.741	9298.06
313.807	9308.13
313.872	9303.22
313.937	9311.83
314.003	9322.04
314.068	9323.58
314.133	9333.7
314.198	9328.83
314.264	9305.43
314.329	9298.54
314.394	9295.46
314.459	9295.8
314.525	9324.35
314.59	9313.95
314.655	9291.66
314.72	9297.58
314.785	9297.05
314.851	9291.9
314.916	9267.59
314.981	9247.85
315.046	9242.94
315.111	9234.75
315.176	9220.16
315.242	9228.15
315.307	9222.62
315.372	9203.21
315.437	9196.04
315.502	9183.47
315.567	9191.46
315.632	9174.75
315.698	9184.58
315.763	9176.29
315.828	9165.17
315.893	9158
315.958	9161.99
316.023	9162.76
316.088	9141.67
316.153	9119.05
316.218	9114.09
316.283	9100.76
316.348	9084.06
316.413	9074.14
316.479	9057.72
316.544	9021.43
316.609	8989.18
316.674	8955.19
316.739	8917.12
316.804	8886.84
316.869	8846.8
316.934	8804.53
316.999	8778.16
317.064	8717.75
317.129	8675.05
317.194	8635.54
317.259	8578.84
317.324	8524.03
317.389	8476.78
317.454	8434.63
317.518	8403.88
317.583	8378.18
317.648	8357.01
317.713	8324.58
317.778	8266.98
317.843	8239.8
317.908	8204.92
317.973	8165.33
318.038	8133.24
318.103	8094.91
318.168	8060.08
318.233	8031.79
318.297	7988.17
318.362	7946.85
318.427	7909.97
318.492	7881.01
318.557	7836
318.622	7813.49
318.687	7794.74
318.751	7756.28
318.816	7727.86
318.881	7691.99
318.946	7633.37
319.011	7587.55
319.075	7545.43
319.14	7512.07
319.205	7463.08
319.27	7431.65
319.335	7386.85
319.399	7345.99
319.464	7321
319.529	7266.64
319.594	7230.88
319.658	7202.52
319.723	7161.53
319.788	7138.18
319.853	7081.71
319.917	7049.96
319.982	6995.56
320.047	6956.55
320.112	6934.01
320.176	6882.76
320.241	6851.86
320.306	6829.19
320.37	6784
320.435	6754.31
320.5	6728.67
320.564	6690.68
320.629	6648.23
320.694	6617.83
320.758	6574
320.823	6530.88
320.888	6510.52
320.952	6456.56
321.017	6412.53
321.082	6372.93
321.146	6334.48
321.211	6299.25
321.275	6261.44
321.34	6216.52
321.405	6172.56
321.469	6125.63
321.534	6084.28
321.598	6030.1
321.663	5995.5
321.727	5966.57
321.792	5917.83
321.857	5873.26
321.921	5837.28
321.986	5794.32
322.05	5732.8
322.115	5702.26
322.179	5655.89
322.244	5598.5
322.308	5566.14
322.373	5518.06
322.437	5476.84
322.502	5450.32
322.566	5407.13
322.631	5372.77
322.695	5330.99
322.76	5287
322.824	5249.86
322.889	5210.63
322.953	5167.09
323.018	5100.41
323.082	5035.57
323.146	4984.43
323.211	4927.87
323.275	4881.55
323.34	4839.09
323.404	4807.79
323.468	4759.47
323.533	4716.54
323.597	4667.31
323.662	4616.62
323.726	4584.03
323.79	4540.58
323.855	4476.81
323.919	4427.4
323.983	4382.27
324.048	4313.87
324.112	4450.55
324.177	4319.69
324.241	4095.28
324.305	3876.17
324.37	3662.37
324.434	3458.38
324.498	3412.92
324.562	3360.63
324.627	3295.04
324.691	3232.67
324.755	3164.07
324.82	3079.83
324.884	2997.68
324.948	2920.97
325.012	2817.59
325.077	2681.54
